subject,channel,r,f1_drop_mean,f1_drop_sd
1,0,5,0.06465456496326016,0.011330180394243156
1,1,5,0.05486058052374669,0.008568431119213795
1,2,5,0.05127166862197256,0.0029299028442296457
1,3,5,0.055231355550498164,0.013442412273979961
1,4,5,0.01192255768899102,0.008821461753290795
1,5,5,0.06679774486834666,0.01123109990848477
1,6,5,-0.011189225196096376,0.008885939353077556
1,7,5,0.11439356973008427,0.012009307739757462
1,8,5,0.07661808963102282,0.010118026456390768
2,0,5,0.08888582233786228,0.017714730013129624
2,1,5,0.103269315648128,0.005476808121852359
2,2,5,0.12180543065334284,0.014470952235593304
2,3,5,0.08262281663035209,0.010224417631172123
2,4,5,0.13832338470810968,0.011360135916707046
2,5,5,0.18980485505221675,0.010280216916131905
2,6,5,0.04604400815115221,0.008865024431870967
2,7,5,0.1100005273704997,0.009649184641969573
2,8,5,0.05719913391051139,0.012618532123248892
3,0,5,0.1506941540330934,0.023681262451120566
3,1,5,0.09681723039192676,0.010402223419740533
3,2,5,0.09476341886682951,0.021854902430649824
3,3,5,0.11639761019727124,0.010872177473160579
3,4,5,0.134131118069649,0.016364118368625596
3,5,5,0.11110067726336972,0.012845880545263144
3,6,5,0.03964962154537779,0.010718415443795077
3,7,5,0.09869733062168892,0.0031995297809155527
3,8,5,0.08849709163064297,0.013584270851983266
4,0,5,0.07766267751033507,0.014560617230177826
4,1,5,0.12308106177251583,0.014907433126979187
4,2,5,0.06127783303628074,0.011123391312827935
4,3,5,0.038764913140250615,0.01373300688398744
4,4,5,0.11511207564302457,0.01713978660820031
4,5,5,0.1132876840925759,0.02137762943359704
4,6,5,0.020163420483611395,0.003279226764929086
4,7,5,0.09560421515756494,0.006975632254497831
4,8,5,0.08428977369527937,0.01735262186259791
5,0,5,0.04503014818962303,0.01761100118130636
5,1,5,0.04990631390780813,0.0052628091406338815
5,2,5,0.044464699422453256,0.010681944572911828
5,3,5,0.017119054380665855,0.01102765030384009
5,4,5,0.05412923879322109,0.01645890400008594
5,5,5,0.09367475203124986,0.01666920454240879
5,6,5,0.03443582216349399,0.006783420072160721
5,7,5,0.04203180270588987,0.0036957820884634136
5,8,5,0.10152984445050053,0.005392455138814943
6,0,5,0.08600239400386271,0.012746625054569407
6,1,5,0.09158905695378036,0.011150180931879307
6,2,5,0.03322220014003572,0.007784559231919061
6,3,5,0.017683437192243568,0.010117686385870026
6,4,5,0.07097279910310392,0.01273599123364011
6,5,5,0.08579545826483544,0.010763192459664636
6,6,5,0.025021342955096747,0.010678038547184732
6,7,5,0.11112703734670362,0.005796519875046016
6,8,5,0.0924819899710276,0.011004982506179478
7,0,5,0.1359375721747626,0.012625148036815406
7,1,5,0.11765783171124802,0.010970947872250636
7,2,5,0.10890853655650201,0.010428393827697205
7,3,5,0.061740425535376134,0.012882374168156593
7,4,5,0.10490467649648869,0.022510291638430782
7,5,5,0.16982548976824413,0.011533615411998483
7,6,5,0.0592951984992222,0.011570353689760513
7,7,5,0.11497495784602907,0.012751780886745428
7,8,5,0.13398884625536472,0.010674226814655442
8,0,5,0.1046595887885442,0.014117524065927705
8,1,5,0.08147676572895293,0.011156059620638389
8,2,5,0.041177622411705174,0.007651808042028661
8,3,5,0.0838101577136301,0.010862224569513046
8,4,5,0.11590441250110192,0.0218677846036734
8,5,5,0.12658139266653595,0.020954404338714924
8,6,5,0.05707551444306684,0.011112010636768527
8,7,5,0.16191910616912336,0.00962937960841578
8,8,5,0.12499879355744004,0.013055155330808178
9,0,5,0.07706224208555992,0.01464205107968201
9,1,5,0.11792958325142863,0.02129769665080275
9,2,5,0.09895129309505338,0.01103660047491341
9,3,5,0.06227852002767189,0.006640854304943163
9,4,5,0.13227134954873737,0.015070334431083337
9,5,5,0.0802703734659598,0.00873968426599656
9,6,5,0.06725008216529227,0.015708825502098643
9,7,5,0.12853630816154255,0.010022160491799128
9,8,5,0.1027870427445902,0.014455981604906848
10,0,5,0.10704191441837599,0.0163848271700886
10,1,5,0.06380213558268925,0.020319531499590298
10,2,5,0.07826452146784577,0.01571615207234605
10,3,5,0.06905315250005509,0.007957069492281827
10,4,5,0.06653198308503608,0.01479136630799446
10,5,5,0.08413822720317383,0.011638294585090199
10,6,5,0.0003173737397465626,0.00794204509014692
10,7,5,0.10583108742996825,0.012918026329424263
10,8,5,0.060740514748376426,0.013131759440754483
11,0,5,0.09156360904867185,0.009423685801087501
11,1,5,0.08618638921326757,0.006158804441846086
11,2,5,0.11578174322557067,0.006806293966030852
11,3,5,0.09690959171873478,0.013376212145922287
11,4,5,0.1120232146807377,0.014232398771857198
11,5,5,0.0989903554258319,0.01200111151558716
11,6,5,0.04162498030635684,0.014621173005525434
11,7,5,0.1647279595453898,0.014335245272573603
11,8,5,0.09044833727464996,0.0082148745002836
12,0,5,0.040506700978308594,0.008131243222798457
12,1,5,0.06041692831149994,0.01275847006177102
12,2,5,0.06759879335229665,0.011671074466110046
12,3,5,0.09158038853279189,0.014639610225258677
12,4,5,0.08188546154551615,0.015165335577859264
12,5,5,0.10482372640200507,0.015220516672488494
12,6,5,0.02791711701957711,0.011014546039222339
12,7,5,0.1093695221275347,0.015739884052959667
12,8,5,0.057222521172487405,0.009163977794907872
13,0,5,0.08401151931707154,0.00702033467324327
13,1,5,0.0634084284833439,0.009993317929071738
13,2,5,0.05900719236728549,0.008984204533073506
13,3,5,0.06577011835152782,0.008579667398685679
13,4,5,0.11732584219884468,0.01008562937915194
13,5,5,0.1687932211706056,0.0110372791880933
13,6,5,0.04859902145088919,0.010368116026589156
13,7,5,0.09528385127120662,0.009885222782212965
13,8,5,0.07918683162616758,0.007716097639800707
14,0,5,0.09974943815880362,0.002451737361667173
14,1,5,0.08219158801748394,0.011627802582146197
14,2,5,0.07730710268215794,0.017812720942383366
14,3,5,0.09454053649641074,0.008616142211671816
14,4,5,0.0841887453509158,0.010928841047213915
14,5,5,0.0876226462716229,0.011486774260132249
14,6,5,0.03755462443522397,0.007958532002877662
14,7,5,0.11464429020967956,0.01139224370489043
14,8,5,0.08299825952524917,0.014054398366835244
15,0,5,0.12240102833805264,0.012105161463184069
15,1,5,0.07538037395556155,0.012257978589875252
15,2,5,0.1346777148654926,0.013415208746845637
15,3,5,0.046646102827058764,0.013927048481661522
15,4,5,0.12179127741202926,0.005677253774818211
15,5,5,0.15866512901567323,0.024679830462566426
15,6,5,0.09315103484758427,0.008539162554280638
15,7,5,0.0925298227867963,0.011872498379611175
15,8,5,0.10295706407397262,0.004550412811352541
16,0,5,0.09762445741351793,0.009669961459666372
16,1,5,0.09825957465133603,0.006055639236803483
16,2,5,0.10024271447801933,0.0059012958851369516
16,3,5,0.08109371517327198,0.00871542844197401
16,4,5,0.0731266442077652,0.004156481709804273
16,5,5,0.130026540275549,0.012037828805083839
16,6,5,0.016467619560048517,0.010216140569476164
16,7,5,0.11777916674412481,0.009537828014109998
16,8,5,0.11957818184256704,0.011044099947433883
17,0,5,0.14939090570613817,0.019957253148469634
17,1,5,0.08599591095469464,0.009063127915945211
17,2,5,0.09678452680049617,0.013236084186674565
17,3,5,0.05815683430559149,0.00906405205727793
17,4,5,0.0957309560854834,0.004760774255906067
17,5,5,0.11498114935215076,0.006825515092663153
17,6,5,0.041677142214149,0.018903189216705356
17,7,5,0.09928983588737099,0.01723753390671299
17,8,5,0.11845673578614288,0.011744795276689536
18,0,5,0.06553466137423307,0.009476320240108931
18,1,5,0.08320892229066365,0.005001766591296488
18,2,5,0.090802038711102,0.018906452773811984
18,3,5,0.1377406081319203,0.01124084528190144
18,4,5,0.06562106935753764,0.003198165100136069
18,5,5,0.15470542338481,0.014466390205147265
18,6,5,0.0367841173104869,0.012880314530127722
18,7,5,0.14091641764184415,0.006341724499170762
18,8,5,0.05110630501895104,0.007887758892446124
19,0,5,0.07441402811794065,0.01895362890205333
19,1,5,0.09453331798598921,0.010300757275741073
19,2,5,0.07756110714251534,0.0022880626358042556
19,3,5,0.08123394369010654,0.008521416829134812
19,4,5,0.05168401433747323,0.0085553940784636
19,5,5,0.148104444120785,0.015426904405356627
19,6,5,0.05493100233548805,0.002000928995892878
19,7,5,0.11935538967448356,0.01173314347495167
19,8,5,0.11192222111122936,0.010266795750825305
20,0,5,0.05826593341915089,0.004279184615736076
20,1,5,0.04460704500171768,0.012941848050112434
20,2,5,0.04824211934564053,0.010866414738095612
20,3,5,0.007347456893146665,0.010166445782881423
20,4,5,0.10389138721753662,0.014754171882734025
20,5,5,0.15104956261457675,0.009379825481884235
20,6,5,0.02080744298597157,0.005594514783237315
20,7,5,0.052755533435769886,0.008388128922916242
20,8,5,0.10854583063761328,0.01578174817845377
21,0,5,0.13533286123638055,0.009117055298006306
21,1,5,0.06347706084586695,0.009418161595319927
21,2,5,0.0791563353208246,0.013471049761314111
21,3,5,0.06776787486590805,0.014791036016887846
21,4,5,0.10177259361043012,0.02291533298678078
21,5,5,0.1030461720081037,0.015153781270324521
21,6,5,0.0714757925564051,0.005825480651094921
21,7,5,0.11343470705611376,0.008061875354765158
21,8,5,0.10422896183704419,0.010170913148327654
22,0,5,0.10696505862238445,0.013584561591535534
22,1,5,0.08490256421754216,0.015618924288187142
22,2,5,0.0888927560413503,0.014673577498552645
22,3,5,0.0530544283889131,0.00965799928418843
22,4,5,0.1068857285599359,0.010663534695636098
22,5,5,0.09823581195177741,0.014978803768526035
22,6,5,0.06801252047659494,0.011324235067899504
22,7,5,0.16842380377751107,0.01441683441582525
22,8,5,0.12837537634828736,0.015330552884309607
23,0,5,0.1120386589840058,0.013029821975624835
23,1,5,0.07955229138269608,0.012095743820459548
23,2,5,0.056062471216242395,0.00867755251540085
23,3,5,0.06084309726870176,0.01402060052954521
23,4,5,0.13370166362699404,0.007312855136269958
23,5,5,0.11878164514954974,0.008681339709382969
23,6,5,0.03478736384078118,0.0075673328989704835
23,7,5,0.10057992006705474,0.012904233096757542
23,8,5,0.09094349858577119,0.00822049784035695
24,0,5,0.08506404666737902,0.015261399439164592
24,1,5,0.07905047843154951,0.009893476640191875
24,2,5,0.12343632715201396,0.012198707235560368
24,3,5,0.05132944558469443,0.01251306667341514
24,4,5,0.16497241442301108,0.01702157150410264
24,5,5,0.08800899805455391,0.02267667606058623
24,6,5,0.05143596633505985,0.009387212169023093
24,7,5,0.15565438368379708,0.022425420527272755
24,8,5,0.12513944378196087,0.009592190935310684
25,0,5,0.10262985943486558,0.00964792368491809
25,1,5,0.0976543654076942,0.012707932412927687
25,2,5,0.09703716468234296,0.01103769270834046
25,3,5,0.09708874269535783,0.014006046558640933
25,4,5,0.14593895001165086,0.017902570299517483
25,5,5,0.12753183078567829,0.01007800600187936
25,6,5,0.015214325483021285,0.006558698422859355
25,7,5,0.1026036667171798,0.010381734566998532
25,8,5,0.07861206809047735,0.01194139408450738
26,0,5,0.11995206822592216,0.008713301360943986
26,1,5,0.06691121182906053,0.008226591999206303
26,2,5,0.10353968814450558,0.0035165011849566455
26,3,5,0.06734989080764023,0.011301982473471882
26,4,5,0.11614333851224923,0.00905881128786764
26,5,5,0.146382465623097,0.012282943728965903
26,6,5,0.05013246062199574,0.009955602718738833
26,7,5,0.11920860233691159,0.0038477475795985383
26,8,5,0.09763901027727713,0.008139505821471852
27,0,5,0.08134650025935286,0.015366032525722405
27,1,5,0.05258659709634876,0.022078508068192063
27,2,5,0.07747181151298996,0.0160334297151758
27,3,5,0.08542843408660983,0.0025354540556694156
27,4,5,0.20378010108553415,0.0017339125986986991
27,5,5,0.1764780154034983,0.012003823783683061
27,6,5,0.045624152926977746,0.007524944330630562
27,7,5,0.12401420953297296,0.00965490858714607
27,8,5,0.07945411088614703,0.011892815588307175
28,0,5,0.07027316835839256,0.005611989485443356
28,1,5,0.06487233679601119,0.014498749132614877
28,2,5,0.06377489814986799,0.009626992869585224
28,3,5,0.074569926610829,0.012682870005696501
28,4,5,0.1392884872843973,0.007878759058648774
28,5,5,0.2607235913289533,0.007039498222889313
28,6,5,0.042976552309370676,0.007949256448274322
28,7,5,0.09648367167740299,0.005271615576221513
28,8,5,0.09492023672391907,0.008334060466280723
29,0,5,0.10547079426442074,0.012736906913178102
29,1,5,0.04483931036202247,0.014209408299311808
29,2,5,0.08300432570208924,0.007264113662388112
29,3,5,0.040030723134078586,0.013674872394869333
29,4,5,0.12038125483631001,0.018708750432614732
29,5,5,0.17114333725792244,0.009600131336247607
29,6,5,0.0349209947750498,0.014116249676525968
29,7,5,0.10047570976265596,0.011269943200150869
29,8,5,0.10026031100631458,0.009270249518295939
30,0,5,0.0021940369752358134,0.013837818952371636
30,1,5,-0.0023098011125624483,0.01414258566116628
30,2,5,0.03051563985619119,0.016136476397962184
30,3,5,0.005674341189865895,0.008078160397473258
30,4,5,0.09496169673954735,0.015950258039444828
30,5,5,0.1313216547034722,0.015948296175487518
30,6,5,0.0009256397413461403,0.010156745675358366
30,7,5,0.08325475147813381,0.008522620636345762
30,8,5,0.06111077778601801,0.01611910165214635
31,0,5,0.0730515858135373,0.010105295225185974
31,1,5,0.07460281404566918,0.00896849313654153
31,2,5,0.08966776335290627,0.01942735446666826
31,3,5,0.057198576895977474,0.010416892547605082
31,4,5,0.14198488953394076,0.007785874152488321
31,5,5,0.09247045292045222,0.017936208987662124
31,6,5,0.06712807020027103,0.01674841951258529
31,7,5,0.11835168627169619,0.0135304166681293
31,8,5,0.13267566318539298,0.009374117259513107
32,0,5,0.11907523492273833,0.012173433219384267
32,1,5,0.07708655785655642,0.013293896647024692
32,2,5,0.10405331363145258,0.007994220703464672
32,3,5,0.03998904280358333,0.006080010318096607
32,4,5,0.17105440185944826,0.025075053455385306
32,5,5,0.10364523698091373,0.011386225077546918
32,6,5,0.05070591803942566,0.0055592207153927
32,7,5,0.13391852166910237,0.012620898895128149
32,8,5,0.06433567790692638,0.014389147385174095
33,0,5,0.09567331231461511,0.003922407776032888
33,1,5,0.10649652480565316,0.016175894079536582
33,2,5,0.06221261718399691,0.011368598413754642
33,3,5,0.06166893541564551,0.004844707592639302
33,4,5,0.05293733576275246,0.015416287484894573
33,5,5,0.1433290855849343,0.014246731060737776
33,6,5,0.06044466785768192,0.006779540369775184
33,7,5,0.09073760183847908,0.0027006690544806467
33,8,5,0.09988575037152173,0.01022367345245782
34,0,5,0.09959987538421904,0.012482432258099833
34,1,5,0.07906210180780293,0.010777420016602425
34,2,5,0.07626773451123073,0.009028364023665508
34,3,5,0.06185365878817824,0.007150317538933069
34,4,5,0.09756138445234026,0.008555919874785461
34,5,5,0.05502687359527514,0.007696259412281547
34,6,5,0.047604413653159816,0.010283245233667472
34,7,5,0.14012631401771708,0.019799153323956264
34,8,5,0.09735257882465036,0.009918070831352705
35,0,5,0.10530387920457591,0.008543207169890286
35,1,5,0.031008622405850138,0.014690347942700624
35,2,5,0.054793630583869476,0.01098812759415126
35,3,5,0.04305242970763741,0.007961396866394698
35,4,5,0.019899852077594017,0.01113149426769566
35,5,5,0.1396165955588378,0.005894488069283218
35,6,5,0.026347347500886454,0.009603991588130637
35,7,5,0.09412420279095213,0.010085837605308446
35,8,5,0.03277952876336876,0.00939863012317946
36,0,5,0.02073367363615506,0.010651268603938665
36,1,5,0.08842286153309904,0.007606946779963355
36,2,5,0.05566316000383853,0.007752063999399542
36,3,5,0.061022325888033156,0.018887845795236974
36,4,5,0.10197152307404697,0.018296933282445593
36,5,5,0.14653596109359962,0.0121746819368132
36,6,5,0.05934181272895511,0.009230987240606324
36,7,5,0.1218227183929792,0.008669866163564828
36,8,5,0.09282520174869262,0.016539751261052338
37,0,5,0.0592070566355392,0.014952334258436803
37,1,5,0.08432821230317074,0.01299654916830263
37,2,5,0.0892782652635981,0.011604655555062343
37,3,5,0.040548925738255456,0.016058416518430152
37,4,5,0.16239703513108955,0.006131332183555479
37,5,5,0.10980216041731942,0.018388889594253374
37,6,5,0.03418092874701106,0.007074497589340587
37,7,5,0.1268175491518771,0.019625108823644346
37,8,5,0.06615321444848823,0.014713552843738443
38,0,5,0.11053503117395838,0.014544945869164579
38,1,5,0.0806265013031449,0.012941664927799466
38,2,5,0.08526618413649523,0.010761633378401074
38,3,5,0.08990187234314155,0.025444404183172564
38,4,5,0.13144254023911647,0.0075648224329848005
38,5,5,0.09956259612161977,0.016014188090558077
38,6,5,0.09035710964802253,0.009186174162706237
38,7,5,0.07732920740538243,0.006382522609821478
38,8,5,0.042524844087627446,0.009705206539779299
39,0,5,0.09271218183941413,0.0029070648048127134
39,1,5,0.061671256675821316,0.006140885227569913
39,2,5,0.06841594670364212,0.010529273274020793
39,3,5,0.08975782659061524,0.012407733992701092
39,4,5,0.18533125015728824,0.017577483650549428
39,5,5,0.12936795692198588,0.015919868365172517
39,6,5,0.02482353348269519,0.009038688724630463
39,7,5,0.09381514802388624,0.013303392918878446
39,8,5,0.03242796920136215,0.0051892471211459745
40,0,5,0.12575769833971012,0.010692418242523686
40,1,5,0.08259293206706475,0.024924357405420795
40,2,5,0.03372359693125822,0.01175983806624609
40,3,5,0.0009256373131799611,0.011179802703423919
40,4,5,0.1042364354599207,0.010463514324226679
40,5,5,0.14587468828354605,0.01257251942498243
40,6,5,0.08105510167961505,0.011603185204632573
40,7,5,0.1117093742148673,0.009004587154297042
40,8,5,0.06990853602813596,0.007488596234872829
