subject,channel,f1_full,f1_occluded,drop_pp
1,0,0.636698809624491,0.6202351253523035,1.6463684272187473
1,1,0.636698809624491,0.6338528721383798,0.2845937486111172
1,2,0.636698809624491,0.6418276283943192,-0.5128818769828181
1,3,0.636698809624491,0.6105181077758426,2.61807018486484
1,4,0.636698809624491,0.6692577133317241,-3.2558903707233133
1,5,0.636698809624491,0.5684052675438209,6.829354208067007
1,6,0.636698809624491,0.6860044417775578,-4.930563215306682
1,7,0.636698809624491,0.5480036177477633,8.86951918767277
1,8,0.636698809624491,0.598858914859258,3.7839894765232973
2,0,0.8325926436128285,0.8761337667419753,-4.3541123129146815
2,1,0.8325926436128285,0.8157748878536922,1.6817755759136244
2,2,0.8325926436128285,0.8044972413912703,2.8095402221558152
2,3,0.8325926436128285,0.8409998496647089,-0.8407206051880389
2,4,0.8325926436128285,0.8173528480732566,1.5239795539571888
2,5,0.8325926436128285,0.8333791396310242,-0.07864960181956926
2,6,0.8325926436128285,0.8544395801418649,-2.1846936529036465
2,7,0.8325926436128285,0.799656442506582,3.293620110624651
2,8,0.8325926436128285,0.8468070366253619,-1.4214393012533466
3,0,0.9055376336412887,0.8936006789580678,1.1936954683220868
3,1,0.9055376336412887,0.8657487537270391,3.978887991424962
3,2,0.9055376336412887,0.89156707128792,1.3970562353368687
3,3,0.9055376336412887,0.6823682969523064,22.31693366889823
3,4,0.9055376336412887,0.8981666328440522,0.7371000797236515
3,5,0.9055376336412887,0.918628438796345,-1.309080515505634
3,6,0.9055376336412887,0.9082770589529161,-0.2739425311627408
3,7,0.9055376336412887,0.8774640687315076,2.807356490978108
3,8,0.9055376336412887,0.9064747178357404,-0.09370841944517094
4,0,0.8478848040354248,0.818534117202552,2.9350686832872785
4,1,0.8478848040354248,0.7719962449138325,7.588855912159231
4,2,0.8478848040354248,0.8468703394338042,0.10144646016205794
4,3,0.8478848040354248,0.8867252071843514,-3.884040314892667
4,4,0.8478848040354248,0.9016116361008575,-5.372683206543272
4,5,0.8478848040354248,0.8817542908590276,-3.38694868236028
4,6,0.8478848040354248,0.8867703157815835,-3.888551174615873
4,7,0.8478848040354248,0.8357319511222031,1.2152852913221657
4,8,0.8478848040354248,0.8585580036809244,-1.067319964549962
5,0,0.659087428572966,0.6474285879543558,1.1658840618610222
5,1,0.659087428572966,0.673013670373662,-1.3926241800696015
5,2,0.659087428572966,0.6703584409338595,-1.1271012360893562
5,3,0.659087428572966,0.700560139713311,-4.147271114034501
5,4,0.659087428572966,0.6349590481852869,2.412838038767906
5,5,0.659087428572966,0.6251436583376454,3.394377023532058
5,6,0.659087428572966,0.6408384092264776,1.824901934648837
5,7,0.659087428572966,0.6571834609643625,0.19039676086034518
5,8,0.659087428572966,0.6427415586413293,1.634586993163667
6,0,0.7818313553345628,0.7713010631769519,1.053029215761092
6,1,0.7818313553345628,0.77418892582827,0.7642429506292792
6,2,0.7818313553345628,0.7829552159545106,-0.11238606199477363
6,3,0.7818313553345628,0.8015549086747131,-1.9723553340150302
6,4,0.7818313553345628,0.7569324008027648,2.4898954531798023
6,5,0.7818313553345628,0.7753259305126146,0.6505424821948269
6,6,0.7818313553345628,0.7847900057272369,-0.2958650392674067
6,7,0.7818313553345628,0.7246262712115146,5.7205084123048255
6,8,0.7818313553345628,0.7292157462860644,5.261560904849838
7,0,0.7828391422698637,0.747380642501205,3.545849976865878
7,1,0.7828391422698637,0.7470188597222143,3.5820282547649462
7,2,0.7828391422698637,0.7406753800092124,4.216376226065133
7,3,0.7828391422698637,0.7713447503055313,1.149439196433244
7,4,0.7828391422698637,0.7546840817976721,2.815506047219163
7,5,0.7828391422698637,0.8250912701215304,-4.225212785166665
7,6,0.7828391422698637,0.7755289116829998,0.7310230586863975
7,7,0.7828391422698637,0.7357512039701481,4.708793829971558
7,8,0.7828391422698637,0.7648879193485363,1.7951222921327448
8,0,0.8428656131970651,0.8268212961620409,1.604431703502418
8,1,0.8428656131970651,0.8286696970558832,1.4195916141181875
8,2,0.8428656131970651,0.8504581663236852,-0.7592553126620105
8,3,0.8428656131970651,0.8238131523959947,1.905246080107037
8,4,0.8428656131970651,0.8269961401143162,1.5869473082748886
8,5,0.8428656131970651,0.8210292156372426,2.1836397559822474
8,6,0.8428656131970651,0.8263459758076777,1.6519637389387443
8,7,0.8428656131970651,0.8147052295677724,2.816038362929274
8,8,0.8428656131970651,0.8040263571237023,3.8839256073362804
9,0,0.7999354731383455,0.7871120048471781,1.2823468291167317
9,1,0.7999354731383455,0.7539982331799365,4.593723995840893
9,2,0.7999354731383455,0.7961015325039302,0.38339406344152227
9,3,0.7999354731383455,0.8011871219616996,-0.12516488233541567
9,4,0.7999354731383455,0.805851809802689,-0.5916336664343547
9,5,0.7999354731383455,0.7996692112219769,0.0266261916368582
9,6,0.7999354731383455,0.7626700743729857,3.7265398765359725
9,7,0.7999354731383455,0.7663320246544746,3.360344848387087
9,8,0.7999354731383455,0.7791660722080826,2.0769400930262805
10,0,0.6943422960551494,0.6527524725921775,4.158982346297191
10,1,0.6943422960551494,0.7202379219757884,-2.5895625920638987
10,2,0.6943422960551494,0.6649922009971534,2.9350095057996017
10,3,0.6943422960551494,0.6983040766591355,-0.3961780603986109
10,4,0.6943422960551494,0.6756284145730198,1.8713881482129602
10,5,0.6943422960551494,0.7220071639974552,-2.7664867942305826
10,6,0.6943422960551494,0.7684234584351173,-7.408116237996786
10,7,0.6943422960551494,0.7037172363412294,-0.9374940286079991
10,8,0.6943422960551494,0.7766921326149303,-8.23498365597809
11,0,0.9005817292001502,0.9099711560435542,-0.9389426843403936
11,1,0.9005817292001502,0.8907419425754037,0.9839786624746494
11,2,0.9005817292001502,0.8678326567620126,3.2749072438137627
11,3,0.9005817292001502,0.8745839819668916,2.599774723325865
11,4,0.9005817292001502,0.8750736848556094,2.5508044344540792
11,5,0.9005817292001502,0.8850911185588606,1.5490610641289648
11,6,0.9005817292001502,0.9163944017927625,-1.581267259261232
11,7,0.9005817292001502,0.9070813192261321,-0.6499590025981883
11,8,0.9005817292001502,0.9098750357802625,-0.9293306580112293
12,0,0.9023600114021346,0.9110990583139802,-0.8739046911845572
12,1,0.9023600114021346,0.8660709421320226,3.6289069270111995
12,2,0.9023600114021346,0.8824079663707969,1.995204503133774
12,3,0.9023600114021346,0.859469637500075,4.289037390205963
12,4,0.9023600114021346,0.877611047315294,2.4748964086840575
12,5,0.9023600114021346,0.9085936767051318,-0.6233665302997182
12,6,0.9023600114021346,0.9013191298432502,0.10408815588843767
12,7,0.9023600114021346,0.8987781901336933,0.358182126844131
12,8,0.9023600114021346,0.8818851425138977,2.047486888823691
13,0,0.9160362865525358,0.9242383318204028,-0.8202045267867053
13,1,0.9160362865525358,0.9197909526961694,-0.37546661436336226
13,2,0.9160362865525358,0.90300516969598,1.303111685655578
13,3,0.9160362865525358,0.8998324961947759,1.6203790357759873
13,4,0.9160362865525358,0.8877033828704048,2.8332903682130928
13,5,0.9160362865525358,0.9012858055099435,1.4750481042592245
13,6,0.9160362865525358,0.9160487580474646,-0.0012471494928778526
13,7,0.9160362865525358,0.9057786576168929,1.025762893564286
13,8,0.9160362865525358,0.8996459483162608,1.6390338236275004
14,0,0.8334508247365622,0.8377562975593159,-0.4305472822753731
14,1,0.8334508247365622,0.8138346889331141,1.961613580344812
14,2,0.8334508247365622,0.8402782256381514,-0.6827400901589176
14,3,0.8334508247365622,0.7651231156674548,6.832770906910735
14,4,0.8334508247365622,0.8140627013450806,1.9388123391481549
14,5,0.8334508247365622,0.8211111245084587,1.233970022810349
14,6,0.8334508247365622,0.8201064454850292,1.3344379251532978
14,7,0.8334508247365622,0.7853364362996833,4.811438843687887
14,8,0.8334508247365622,0.8001453050781482,3.3305519658413996
15,0,0.9124020745024279,0.8638211905190829,4.858088398334504
15,1,0.9124020745024279,0.8952013446098717,1.7200729892556277
15,2,0.9124020745024279,0.8455069154354499,6.689515906697807
15,3,0.9124020745024279,0.8852594823631666,2.714259213926129
15,4,0.9124020745024279,0.9233221208560444,-1.092004635361643
15,5,0.9124020745024279,0.8952593897728582,1.7142684729569702
15,6,0.9124020745024279,0.8807081437919346,3.169393071049331
15,7,0.9124020745024279,0.8813416383536667,3.1060436148761195
15,8,0.9124020745024279,0.8863541678534007,2.604790664902723
16,0,0.8671476971918379,0.8618374412250238,0.5310255966814115
16,1,0.8671476971918379,0.8728687018945445,-0.5721004702706534
16,2,0.8671476971918379,0.865373694883317,0.17740023085209833
16,3,0.8671476971918379,0.8574152338110845,0.9732463380753398
16,4,0.8671476971918379,0.8516214078038875,1.552628938795042
16,5,0.8671476971918379,0.8419560234849608,2.519167370687714
16,6,0.8671476971918379,0.8654051322614409,0.17425649303970392
16,7,0.8671476971918379,0.8173148742416136,4.983282295022429
16,8,0.8671476971918379,0.8501382003489425,1.7009496842895433
17,0,0.8669528988879581,0.828358258397142,3.859464049081607
17,1,0.8669528988879581,0.836680825124356,3.027207376360208
17,2,0.8669528988879581,0.8365509529763909,3.0401945911567196
17,3,0.8669528988879581,0.8314347702864981,3.5518128601459975
17,4,0.8669528988879581,0.8628933832662204,0.4059515621737675
17,5,0.8669528988879581,0.8463850603930431,2.056783849491506
17,6,0.8669528988879581,0.851718227928267,1.523467095969111
17,7,0.8669528988879581,0.8330153315269436,3.39375673610145
17,8,0.8669528988879581,0.844998622511509,2.195427637644909
18,0,0.8980721432019643,0.853586515146492,4.44856280554723
18,1,0.8980721432019643,0.8901180158086235,0.7954127393340782
18,2,0.8980721432019643,0.8948280070955543,0.3244136106409945
18,3,0.8980721432019643,0.7795912432772065,11.848089992475774
18,4,0.8980721432019643,0.872166574616644,2.5905568585320227
18,5,0.8980721432019643,0.8980735752545985,-0.0001432052634253722
18,6,0.8980721432019643,0.9026610452790667,-0.4588902077102386
18,7,0.8980721432019643,0.8493924409338545,4.86797022681098
18,8,0.8980721432019643,0.8908688869288351,0.7203256273129122
19,0,0.8159100308470757,0.7870233212321979,2.8886709614877826
19,1,0.8159100308470757,0.7923912066925218,2.3518824154553863
19,2,0.8159100308470757,0.801866301937752,1.4043728909323705
19,3,0.8159100308470757,0.7691405505697543,4.676948027732141
19,4,0.8159100308470757,0.7874529387276443,2.845709211943137
19,5,0.8159100308470757,0.7950092971994739,2.090073364760181
19,6,0.8159100308470757,0.8322995698270841,-1.638953898000839
19,7,0.8159100308470757,0.7824072403191548,3.3502790527920934
19,8,0.8159100308470757,0.790416063585396,2.549396726167974
20,0,0.8103823937991644,0.7885894469950158,2.179294680414867
20,1,0.8103823937991644,0.7866535020493233,2.3728891749841163
20,2,0.8103823937991644,0.7816976167032308,2.8684777095933645
20,3,0.8103823937991644,0.8213470185928005,-1.0964624793636024
20,4,0.8103823937991644,0.8037536874632606,0.6628706335903845
20,5,0.8103823937991644,0.8142556909965575,-0.3873297197393044
20,6,0.8103823937991644,0.8217540574445586,-1.1371663645394214
20,7,0.8103823937991644,0.7783800238055515,3.2002369993612945
20,8,0.8103823937991644,0.7420782661261645,6.830412767299999
21,0,0.8628531380791882,0.8085581264613166,5.429501161787154
21,1,0.8628531380791882,0.8458331635547014,1.701997452448678
21,2,0.8628531380791882,0.8462761852156789,1.6576952863509242
21,3,0.8628531380791882,0.8204157044579983,4.24374336211899
21,4,0.8628531380791882,0.8502722683959617,1.258086968322647
21,5,0.8628531380791882,0.8846966439473645,-2.1843505868176294
21,6,0.8628531380791882,0.8549788642272753,0.7874273851912861
21,7,0.8628531380791882,0.8341104886075308,2.874264947165739
21,8,0.8628531380791882,0.823760665960067,3.9092472119121147
22,0,0.8086387206791601,0.8177718043983098,-0.913308371914967
22,1,0.8086387206791601,0.8414538108485985,-3.28150901694384
22,2,0.8086387206791601,0.8216650587623819,-1.3026338083221844
22,3,0.8086387206791601,0.7568990964793456,5.173962419981448
22,4,0.8086387206791601,0.7948894547832652,1.3749265895894869
22,5,0.8086387206791601,0.8033307907449784,0.5307929934181721
22,6,0.8086387206791601,0.7818216873482104,2.6817033330949647
22,7,0.8086387206791601,0.72968215000711,7.895657067205009
22,8,0.8086387206791601,0.7838534952068782,2.47852254722819
23,0,0.8035943537152436,0.7487609976197905,5.483335609545303
23,1,0.8035943537152436,0.7961787537942734,0.7415599920970184
23,2,0.8035943537152436,0.8218423571044772,-1.8248003389233602
23,3,0.8035943537152436,0.7635478329977343,4.004652071750925
23,4,0.8035943537152436,0.7990817986494503,0.4512555065793289
23,5,0.8035943537152436,0.7718535595275373,3.1740794187706256
23,6,0.8035943537152436,0.8081022689237253,-0.45079152084817053
23,7,0.8035943537152436,0.789159819888054,1.4434533827189622
23,8,0.8035943537152436,0.7572160521160072,4.63783015992364
24,0,0.787039000017776,0.7795122804117987,0.7526719605977394
24,1,0.787039000017776,0.7943344541507988,-0.7295454133022794
24,2,0.787039000017776,0.7679430972515098,1.909590276626627
24,3,0.787039000017776,0.8110346923064371,-2.3995692288661052
24,4,0.787039000017776,0.7292441266637423,5.779487335403378
24,5,0.787039000017776,0.7505695634840608,3.646943653371526
24,6,0.787039000017776,0.7836544927926263,0.3384507225149713
24,7,0.787039000017776,0.73226119499096,5.477780502681606
24,8,0.787039000017776,0.7455145556649455,4.152444435283053
25,0,0.8853968077149541,0.8568501946903022,2.854661302465189
25,1,0.8853968077149541,0.8762888322979921,0.9107975416961955
25,2,0.8853968077149541,0.861511160990317,2.388564672463711
25,3,0.8853968077149541,0.8555959060027776,2.980090171217653
25,4,0.8853968077149541,0.8727703153581592,1.2626492356794916
25,5,0.8853968077149541,0.864482768530939,2.091403918401513
25,6,0.8853968077149541,0.8761972449753781,0.9199562739576006
25,7,0.8853968077149541,0.8495090493809316,3.588775833402247
25,8,0.8853968077149541,0.8890540768760491,-0.3657269161094989
26,0,0.8044280114872804,0.7820783958557102,2.234961563157023
26,1,0.8044280114872804,0.8179501793622281,-1.3522167874947755
26,2,0.8044280114872804,0.7797362203024603,2.469179118482012
26,3,0.8044280114872804,0.7893053640852954,1.512264740198499
26,4,0.8044280114872804,0.7813102973324882,2.3117714154792135
26,5,0.8044280114872804,0.7972674736243697,0.716053786291071
26,6,0.8044280114872804,0.7902361104459908,1.4191901041289534
26,7,0.8044280114872804,0.7757494673579619,2.8678544129318473
26,8,0.8044280114872804,0.7713953797932007,3.303263169407966
27,0,0.904801315911164,0.89197349507761,1.2827820833553938
27,1,0.904801315911164,0.9080325197891522,-0.32312038779882535
27,2,0.904801315911164,0.8537714172527386,5.102989865842533
27,3,0.904801315911164,0.8824356673848314,2.2365648526332604
27,4,0.904801315911164,0.8746955800330949,3.0105735878069084
27,5,0.904801315911164,0.8829191446291046,2.188217128205938
27,6,0.904801315911164,0.9073653785126696,-0.25640626015056567
27,7,0.904801315911164,0.8592527896544659,4.5548526256698025
27,8,0.904801315911164,0.8833692938365066,2.143202207465733
28,0,0.7963059437536257,0.8642454033196771,-6.793945956605141
28,1,0.7963059437536257,0.7615940518287215,3.4711891924904203
28,2,0.7963059437536257,0.803632108144118,-0.7326164390492274
28,3,0.7963059437536257,0.7973957836817802,-0.1089839928154479
28,4,0.7963059437536257,0.8135781104997187,-1.7272166746092998
28,5,0.7963059437536257,0.6737427107802875,12.256323297333827
28,6,0.7963059437536257,0.7536702921730206,4.263565158060512
28,7,0.7963059437536257,0.7880376350214529,0.826830873217288
28,8,0.7963059437536257,0.8101730066540945,-1.3867062900468796
29,0,0.8482189213869666,0.8449987941092236,0.32201272777430123
29,1,0.8482189213869666,0.850747287203896,-0.252836581692939
29,2,0.8482189213869666,0.8287766340265036,1.944228736046305
29,3,0.8482189213869666,0.8258060223491698,2.2412899037796863
29,4,0.8482189213869666,0.811714426227793,3.6504495159173644
29,5,0.8482189213869666,0.8384058681297741,0.9813053257192506
29,6,0.8482189213869666,0.8527331824012881,-0.4514261014321508
29,7,0.8482189213869666,0.834237746627754,1.3981174759212678
29,8,0.8482189213869666,0.8014325536726425,4.6786367714324095
30,0,0.8447708268456413,0.8435361765604528,0.12346502851885433
30,1,0.8447708268456413,0.7966864411931588,4.808438565248252
30,2,0.8447708268456413,0.8468769557587275,-0.2106128913086147
30,3,0.8447708268456413,0.8197490565876213,2.5021770258019993
30,4,0.8447708268456413,0.8202478783625912,2.4522948483050144
30,5,0.8447708268456413,0.8088429067248065,3.592792012083479
30,6,0.8447708268456413,0.8529121120177892,-0.814128517214785
30,7,0.8447708268456413,0.7910186703686121,5.375215647702925
30,8,0.8447708268456413,0.8419891750572304,0.2781651788410944
31,0,0.8045777002155874,0.783563678313056,2.1014021902531432
31,1,0.8045777002155874,0.7692073990614126,3.5370301154174832
31,2,0.8045777002155874,0.7630749090587395,4.150279115684786
31,3,0.8045777002155874,0.7580354005842376,4.6542299631349815
31,4,0.8045777002155874,0.7794059767788367,2.517172343675067
31,5,0.8045777002155874,0.7873355402767168,1.7242159938870572
31,6,0.8045777002155874,0.7896178129995018,1.4959887216085543
31,7,0.8045777002155874,0.7446745164597882,5.990318375579918
31,8,0.8045777002155874,0.7287547549024209,7.582294531316647
32,0,0.8069323661240714,0.7895936098556964,1.7338756268375
32,1,0.8069323661240714,0.8076949156592742,-0.07625495352028278
32,2,0.8069323661240714,0.8002250256501746,0.6707340473896761
32,3,0.8069323661240714,0.8002876748562583,0.6644691267813085
32,4,0.8069323661240714,0.8108009562464876,-0.3868590122416249
32,5,0.8069323661240714,0.803900086374908,0.30322797491634246
32,6,0.8069323661240714,0.8058452939882486,0.10870721358228197
32,7,0.8069323661240714,0.7862177712007645,2.071459492330685
32,8,0.8069323661240714,0.8314321818817383,-2.449981575766691
33,0,0.8867120113871511,0.8410630057822656,4.5649005604885495
33,1,0.8867120113871511,0.8601865329467816,2.6525478440369454
33,2,0.8867120113871511,0.8724164038595335,1.4295607527617604
33,3,0.8867120113871511,0.865319184193083,2.13928271940681
33,4,0.8867120113871511,0.8900321125242118,-0.3320101137060716
33,5,0.8867120113871511,0.8893011571532166,-0.2589145766065504
33,6,0.8867120113871511,0.8671153584031708,1.9596652983980278
33,7,0.8867120113871511,0.8527393683908222,3.397264299632885
33,8,0.8867120113871511,0.8287645624257776,5.794744896137349
34,0,0.8971951489736101,0.8833573982811779,1.3837750692432205
34,1,0.8971951489736101,0.9162820278094627,-1.9086878835852583
34,2,0.8971951489736101,0.9103465103092525,-1.315136133564243
34,3,0.8971951489736101,0.8635681518638343,3.362699710977579
34,4,0.8971951489736101,0.8870362021522094,1.0158946821400727
34,5,0.8971951489736101,0.8941768658243405,0.30182831492695517
34,6,0.8971951489736101,0.9071477741860621,-0.9952625212451993
34,7,0.8971951489736101,0.8702691125958828,2.692603637772728
34,8,0.8971951489736101,0.8670310778274978,3.0164071146112303
35,0,0.7228266996810581,0.6761740812270417,4.665261845401636
35,1,0.7228266996810581,0.7074413811733657,1.5385318507692314
35,2,0.7228266996810581,0.7112203502091319,1.160634947192618
35,3,0.7228266996810581,0.7056936315671843,1.7133068113873717
35,4,0.7228266996810581,0.7583909810706481,-3.5564281389590002
35,5,0.7228266996810581,0.6959455325843715,2.688116709668653
35,6,0.7228266996810581,0.7194891590174876,0.3337540663570504
35,7,0.7228266996810581,0.7172850182515094,0.5541681429548695
35,8,0.7228266996810581,0.7123971656765782,1.042953400447988
36,0,0.6799390182118678,0.648871111344093,3.106790686777472
36,1,0.6799390182118678,0.6373598163920744,4.257920181979335
36,2,0.6799390182118678,0.5995049334099237,8.043408480194403
36,3,0.6799390182118678,0.6300624815477949,4.987653666407288
36,4,0.6799390182118678,0.6656286310106704,1.4310387201197372
36,5,0.6799390182118678,0.6762138492352048,0.37251689766629736
36,6,0.6799390182118678,0.6570562532372972,2.2882764974570535
36,7,0.6799390182118678,0.6144323525369054,6.550666567496233
36,8,0.6799390182118678,0.6039718691352055,7.596714907666224
37,0,0.88700048608929,0.8770438559895775,0.9956630099712593
37,1,0.88700048608929,0.8503013563944483,3.669912969484179
37,2,0.88700048608929,0.8654905175416472,2.1509968547642866
37,3,0.88700048608929,0.8505449357952447,3.6455550294045347
37,4,0.88700048608929,0.8756773953965732,1.1323090692716864
37,5,0.88700048608929,0.8658135723925199,2.118691369677017
37,6,0.88700048608929,0.8387598973854506,4.82405887038394
37,7,0.88700048608929,0.8322942637971228,5.470622229216726
37,8,0.88700048608929,0.8546124339928878,3.2388052096402276
38,0,0.8237145205656884,0.8023066547432744,2.140786582241394
38,1,0.8237145205656884,0.8308042618007621,-0.7089741235073665
38,2,0.8237145205656884,0.824117741631404,-0.04032210657156643
38,3,0.8237145205656884,0.8479840293205084,-2.4269508754820035
38,4,0.8237145205656884,0.8178703045063076,0.5844216059380791
38,5,0.8237145205656884,0.8240983214761347,-0.038380091044631914
38,6,0.8237145205656884,0.8315645919902734,-0.7850071424585048
38,7,0.8237145205656884,0.8109546425072807,1.2759878058407725
38,8,0.8237145205656884,0.833894057049715,-1.0179536484026586
39,0,0.8369776744246897,0.7990510076383976,3.7926666786292085
39,1,0.8369776744246897,0.8136760185980132,2.3301655826676537
39,2,0.8369776744246897,0.8087778461430924,2.8199828281597283
39,3,0.8369776744246897,0.7458534411267271,9.11242332979626
39,4,0.8369776744246897,0.7903472821555912,4.663039226909849
39,5,0.8369776744246897,0.8340972420592638,0.28804323654259
39,6,0.8369776744246897,0.8409906645869992,-0.4012990162309493
39,7,0.8369776744246897,0.8162385582968824,2.073911612780732
39,8,0.8369776744246897,0.854670704425165,-1.7693030000475285
40,0,0.8037878024247165,0.7295344143109963,7.425338811372018
40,1,0.8037878024247165,0.7986768976515479,0.5110904773168556
40,2,0.8037878024247165,0.8328451868628397,-2.9057384438123224
40,3,0.8037878024247165,0.8111141537626971,-0.7326351337980652
40,4,0.8037878024247165,0.7753846004188515,2.840320200586499
40,5,0.8037878024247165,0.8237618566132217,-1.9974054188505175
40,6,0.8037878024247165,0.8139012719700671,-1.011346954535064
40,7,0.8037878024247165,0.7784927300383545,2.529507238636197
40,8,0.8037878024247165,0.7998216291262368,0.39661732984797027
