subject,channel,alpha,f1,drop_pp
1,0,1.0,0.524640552523241,0.0
1,0,0.75,0.532550420898055,-0.7909868374814
1,0,0.5,0.5276179749353803,-0.29774224121392745
1,0,0.25,0.5224322806888363,0.22082718344047514
1,0,0.0,0.487681698127082,3.6958854396159033
1,1,1.0,0.524640552523241,0.0
1,1,0.75,0.5648621266876479,-4.022157416440686
1,1,0.5,0.5647140599738484,-4.007350745060734
1,1,0.25,0.5675236513003765,-4.288309877713548
1,1,0.0,0.5094232542317149,1.5217298291526182
1,2,1.0,0.524640552523241,0.0
1,2,0.75,0.5240525799969443,0.05879725262967206
1,2,0.5,0.5371257291514321,-1.2485176628191041
1,2,0.25,0.5272256314969197,-0.2585078973678656
1,2,0.0,0.4937708744020356,3.0869678121205446
1,3,1.0,0.524640552523241,0.0
1,3,0.75,0.5206526761843112,0.398787633892983
1,3,0.5,0.4835968963633854,4.104365615985567
1,3,0.25,0.4450490551051429,7.959149741809812
1,3,0.0,0.403229761595847,12.141079092739403
1,4,1.0,0.524640552523241,0.0
1,4,0.75,0.5207977826501963,0.3842769873044771
1,4,0.5,0.5217872968434203,0.2853255679820754
1,4,0.25,0.516223509912174,0.8417042611067016
1,4,0.0,0.49665948931304205,2.7981063210198998
1,5,1.0,0.524640552523241,0.0
1,5,0.75,0.46157509193320373,6.306546059003732
1,5,0.5,0.4118716136443601,11.276893887888095
1,5,0.25,0.3744637772121297,15.017677531111135
1,5,0.0,0.3805050422757467,14.413551024749433
1,6,1.0,0.524640552523241,0.0
1,6,0.75,0.5537189562747372,-2.9078403751496174
1,6,0.5,0.5903302377396042,-6.56896852163632
1,6,0.25,0.6220575415257226,-9.741698900248153
1,6,0.0,0.6302891968282994,-10.564864430505839
1,7,1.0,0.524640552523241,0.0
1,7,0.75,0.5404178283511645,-1.5777275827923432
1,7,0.5,0.5190499055518615,0.5590646971379565
1,7,0.25,0.5067536750260028,1.7886877497238274
1,7,0.0,0.46301881099345205,6.1621741529789
1,8,1.0,0.524640552523241,0.0
1,8,0.75,0.5407781777116947,-1.613762518845363
1,8,0.5,0.535270326052911,-1.0629773529669984
1,8,0.25,0.5216637365208504,0.29768160023906365
1,8,0.0,0.48000791212697314,4.463264039626791
2,0,1.0,0.8476918569213915,0.0
2,0,0.75,0.8324800642583154,1.521179266307604
2,0,0.5,0.7961957756527339,5.149608126865757
2,0,0.25,0.7751759061284755,7.2515950792915955
2,0,0.0,0.7307894840162892,11.69023729051023
2,1,1.0,0.8476918569213915,0.0
2,1,0.75,0.8107027311614772,3.698912575991431
2,1,0.5,0.7672931145986067,8.039874232278477
2,1,0.25,0.747360461823058,10.033139509833344
2,1,0.0,0.7019012486608964,14.579060826049506
2,2,1.0,0.8476918569213915,0.0
2,2,0.75,0.8267278662865055,2.0963990634885965
2,2,0.5,0.8219874503152083,2.5704406606183228
2,2,0.25,0.7976869382838746,5.000491863751688
2,2,0.0,0.7714036792311451,7.628817769024643
2,3,1.0,0.8476918569213915,0.0
2,3,0.75,0.8677459096761629,-2.0054052754771456
2,3,0.5,0.8474906662670123,0.02011906543791797
2,3,0.25,0.8145226022174534,3.3169254703938056
2,3,0.0,0.8016666815570586,4.602517536433293
2,4,1.0,0.8476918569213915,0.0
2,4,0.75,0.8526311981477908,-0.4939341226399274
2,4,0.5,0.8526559155590531,-0.49640586376615836
2,4,0.25,0.8379891123912722,0.9702744530119323
2,4,0.0,0.7974857779053068,5.020607901608464
2,5,1.0,0.8476918569213915,0.0
2,5,0.75,0.8504800183454397,-0.2788161424048252
2,5,0.5,0.7947860670370603,5.290578988433115
2,5,0.25,0.7861521475906565,6.153970933073493
2,5,0.0,0.7372889203950577,11.040293652633382
2,6,1.0,0.8476918569213915,0.0
2,6,0.75,0.8316368234868659,1.6055033434525634
2,6,0.5,0.8125935845049981,3.5098272416393406
2,6,0.25,0.7686789159076894,7.901294101370205
2,6,0.0,0.7461917336866103,10.15001232347812
2,7,1.0,0.8476918569213915,0.0
2,7,0.75,0.8373423570341378,1.0349499887253644
2,7,0.5,0.8000038608861959,4.7687996035195575
2,7,0.25,0.755870776061457,9.182108085993445
2,7,0.0,0.7138727988412791,13.38190580801124
2,8,1.0,0.8476918569213915,0.0
2,8,0.75,0.8496401431996786,-0.19482862782871369
2,8,0.5,0.8210302146756996,2.6661642245691897
2,8,0.25,0.7317403560393207,11.595150088207074
2,8,0.0,0.6536078406995712,19.408401622182026
3,0,1.0,0.8151598321947937,0.0
3,0,0.75,0.8164159134094392,-0.1256081214645488
3,0,0.5,0.7991443663823439,1.6015465812449836
3,0,0.25,0.7644467708608107,5.071306133398301
3,0,0.0,0.7038724749313742,11.128735726341954
3,1,1.0,0.8151598321947937,0.0
3,1,0.75,0.8330659028639295,-1.7906070669135743
3,1,0.5,0.8217839743806896,-0.6624142185895909
3,1,0.25,0.8013697513718023,1.379008082299138
3,1,0.0,0.741453457950095,7.370637424469873
3,2,1.0,0.8151598321947937,0.0
3,2,0.75,0.8063075871496925,0.8852245045101181
3,2,0.5,0.7801798800985985,3.49799520961952
3,2,0.25,0.7603110538598667,5.484877833492696
3,2,0.0,0.7134732113634199,10.16866208313738
3,3,1.0,0.8151598321947937,0.0
3,3,0.75,0.790126575734427,2.5033256460366693
3,3,0.5,0.7658183521764428,4.9341480018350925
3,3,0.25,0.6891416465968726,12.601818559792111
3,3,0.0,0.5781851354645575,23.69746967302362
3,4,1.0,0.8151598321947937,0.0
3,4,0.75,0.778312138079291,3.6847694115502705
3,4,0.5,0.7460835502424779,6.907628195231585
3,4,0.25,0.7278657988304025,8.729403336439123
3,4,0.0,0.7200974597720794,9.506237242271432
3,5,1.0,0.8151598321947937,0.0
3,5,0.75,0.7670867653814727,4.807306681332102
3,5,0.5,0.7542616930807886,6.08981391140051
3,5,0.25,0.6920962894609838,12.306354273380993
3,5,0.0,0.6469402763714265,16.821955582336724
3,6,1.0,0.8151598321947937,0.0
3,6,0.75,0.7945546433754994,2.0605188819294296
3,6,0.5,0.7855252136168841,2.963461857790961
3,6,0.25,0.7658416723314971,4.931815986329657
3,6,0.0,0.7503885477049779,6.477128448981584
3,7,1.0,0.8151598321947937,0.0
3,7,0.75,0.7871221512476552,2.8037680947138544
3,7,0.5,0.772398411009549,4.276142118524473
3,7,0.25,0.7490647781780482,6.609505401674554
3,7,0.0,0.7161725190839695,9.89873131108242
3,8,1.0,0.8151598321947937,0.0
3,8,0.75,0.8193253013578105,-0.4165469163016744
3,8,0.5,0.8208508954440179,-0.5691063249224193
3,8,0.25,0.8226515141897461,-0.7491681994952426
3,8,0.0,0.7087504768539252,10.640935534086848
4,0,1.0,0.7959903369183023,0.0
4,0,0.75,0.7588701334328788,3.7120203485423553
4,0,0.5,0.7339476149613428,6.204272195695959
4,0,0.25,0.6934396443153029,10.255069260299942
4,0,0.0,0.6583621028856423,13.762823403266001
4,1,1.0,0.7959903369183023,0.0
4,1,0.75,0.7591634164823876,3.6826920435914734
4,1,0.5,0.746892970774395,4.909736614390736
4,1,0.25,0.691907358311548,10.40829786067543
4,1,0.0,0.6556511369139281,14.033920000437428
4,2,1.0,0.7959903369183023,0.0
4,2,0.75,0.7711419649426384,2.484837197566392
4,2,0.5,0.6933177508951053,10.267258602319707
4,2,0.25,0.6134230241069104,18.256731281139192
4,2,0.0,0.5305826669299183,26.540766998838407
4,3,1.0,0.7959903369183023,0.0
4,3,0.75,0.7351401308852195,6.085020603308289
4,3,0.5,0.7042274804658706,9.176285645243176
4,3,0.25,0.682058996715832,11.39313402024703
4,3,0.0,0.6518753232334458,14.411501368485657
4,4,1.0,0.7959903369183023,0.0
4,4,0.75,0.8175477762326488,-2.1557439314346505
4,4,0.5,0.7996675231111984,-0.36771861928960314
4,4,0.25,0.7654504348797612,3.053990203854118
4,4,0.0,0.7482940962028245,4.769624071547785
4,5,1.0,0.7959903369183023,0.0
4,5,0.75,0.772238788164197,2.3751548754105345
4,5,0.5,0.7281592964404076,6.783104047789479
4,5,0.25,0.660647402061942,13.53429348563604
4,5,0.0,0.5649833418215771,23.10069950967253
4,6,1.0,0.7959903369183023,0.0
4,6,0.75,0.7608899130203652,3.5100423897937105
4,6,0.5,0.7413235190724549,5.466681784584749
4,6,0.25,0.7265696326890534,6.942070422924895
4,6,0.0,0.7126264420980315,8.336389482027084
4,7,1.0,0.7959903369183023,0.0
4,7,0.75,0.7335059512351672,6.248438568313519
4,7,0.5,0.7085420124276912,8.744832449061112
4,7,0.25,0.6632909620287109,13.26993748895915
4,7,0.0,0.625969411930968,17.002092498733433
4,8,1.0,0.7959903369183023,0.0
4,8,0.75,0.8263652728262529,-3.0374935907950595
4,8,0.5,0.8121396814592623,-1.6149344540959953
4,8,0.25,0.7724165689733757,2.3573767944926605
4,8,0.0,0.6698341291007828,12.615620781751957
5,0,1.0,0.49939014200050896,0.0
5,0,0.75,0.4828524831798797,1.6537658820629242
5,0,0.5,0.4968971535317386,0.24929884687703852
5,0,0.25,0.48592429815340027,1.3465843847108694
5,0,0.0,0.46972119951659597,2.9668942483912994
5,1,1.0,0.49939014200050896,0.0
5,1,0.75,0.5188474247673247,-1.9457282766815742
5,1,0.5,0.5097247460382789,-1.0334604037769923
5,1,0.25,0.49394261253584776,0.5447529464661205
5,1,0.0,0.45664302712656013,4.2747114873948835
5,2,1.0,0.49939014200050896,0.0
5,2,0.75,0.5109105169352335,-1.152037493472452
5,2,0.5,0.5226124611201772,-2.322231911966827
5,2,0.25,0.52334645253286,-2.3956310532351086
5,2,0.0,0.48828198243714516,1.1108159563363806
5,3,1.0,0.49939014200050896,0.0
5,3,0.75,0.521365049796733,-2.1974907796224077
5,3,0.5,0.5328382875140404,-3.344814551353142
5,3,0.25,0.5461224542294152,-4.673231222890623
5,3,0.0,0.5503377936337304,-5.0947651633221405
5,4,1.0,0.49939014200050896,0.0
5,4,0.75,0.48707254849211223,1.231759350839673
5,4,0.5,0.48203184897764806,1.7358293022860904
5,4,0.25,0.4879726291333003,1.1417512867208657
5,4,0.0,0.4584135431031235,4.097659889738548
5,5,1.0,0.49939014200050896,0.0
5,5,0.75,0.4801689033301033,1.922123867040565
5,5,0.5,0.4718084279795359,2.758171402097304
5,5,0.25,0.4383413928694926,6.1048749131016375
5,5,0.0,0.4318465832708409,6.754355872966805
5,6,1.0,0.49939014200050896,0.0
5,6,0.75,0.5089048576356502,-0.9514715635141224
5,6,0.5,0.508246540346643,-0.8856398346133998
5,6,0.25,0.5101231742891601,-1.0733032288651134
5,6,0.0,0.5093865764450383,-0.9996434444529301
5,7,1.0,0.49939014200050896,0.0
5,7,0.75,0.49904402225097466,0.03461197495343016
5,7,0.5,0.5005741459634657,-0.11840039629567589
5,7,0.25,0.49131789263368214,0.8072249366826822
5,7,0.0,0.4839604315454289,1.542971045508007
5,8,1.0,0.49939014200050896,0.0
5,8,0.75,0.498971423293079,0.04187187074299881
5,8,0.5,0.482560461181534,1.6829680818974957
5,8,0.25,0.4481306152150146,5.125952678549433
5,8,0.0,0.4341337760324827,6.5256365968026255
6,0,1.0,0.7096051278720067,0.0
6,0,0.75,0.6992008770232487,1.0404250848757957
6,0,0.5,0.7021219125620504,0.7483215309956326
6,0,0.25,0.6551185872169446,5.448654065506209
6,0,0.0,0.6074170517833867,10.218807608862
6,1,1.0,0.7096051278720067,0.0
6,1,0.75,0.7155673605657706,-0.5962232693763947
6,1,0.5,0.6642717924871253,4.533333538488138
6,1,0.25,0.648650334669868,6.095479320213871
6,1,0.0,0.6048587306633568,10.474639720864987
6,2,1.0,0.7096051278720067,0.0
6,2,0.75,0.7355918358825335,-2.5986708010526827
6,2,0.5,0.7550033733702571,-4.5398245498250445
6,2,0.25,0.76461416665341,-5.5009038781403286
6,2,0.0,0.7315454569192116,-2.1940329047204887
6,3,1.0,0.7096051278720067,0.0
6,3,0.75,0.7269239140199085,-1.7318786147901832
6,3,0.5,0.7305306242561022,-2.0925496384095466
6,3,0.25,0.6857662851712495,2.38388427007572
6,3,0.0,0.6283149470041098,8.129018086789685
6,4,1.0,0.7096051278720067,0.0
6,4,0.75,0.7007452260394665,0.8859901832540151
6,4,0.5,0.7191747840347668,-0.9569656162760065
6,4,0.25,0.7188074124639403,-0.9202284591933618
6,4,0.0,0.7041896490938562,0.5415478778150518
6,5,1.0,0.7096051278720067,0.0
6,5,0.75,0.7037175109265565,0.5887616945450147
6,5,0.5,0.6358576618522701,7.3747466019736585
6,5,0.25,0.5556116602518635,15.399346762014321
6,5,0.0,0.5187677892487493,19.083733862325737
6,6,1.0,0.7096051278720067,0.0
6,6,0.75,0.6954925577751665,1.4112570096840193
6,6,0.5,0.6679177541691247,4.1687373702882
6,6,0.25,0.664846656177155,4.47584716948517
6,6,0.0,0.6760424419150477,3.3562685956958993
6,7,1.0,0.7096051278720067,0.0
6,7,0.75,0.7026244731767181,0.6980654695288635
6,7,0.5,0.6001787997943998,10.942632807760688
6,7,0.25,0.5366468383193912,17.29582895526155
6,7,0.0,0.4938533953871531,21.575173248485356
6,8,1.0,0.7096051278720067,0.0
6,8,0.75,0.7022523605602248,0.7352767311781916
6,8,0.5,0.6962470542906538,1.335807358135288
6,8,0.25,0.6842965079862269,2.5308619885779815
6,8,0.0,0.6167998246974323,9.280530317457437
7,0,1.0,0.7006757797971497,0.0
7,0,0.75,0.6159533122604472,8.472246753670243
7,0,0.5,0.5999760543017908,10.069972549535889
7,0,0.25,0.5814137018443741,11.926207795277556
7,0,0.0,0.5598517660339245,14.082401376322517
7,1,1.0,0.7006757797971497,0.0
7,1,0.75,0.5991909306684431,10.148484912870659
7,1,0.5,0.5356158676289107,16.5059912168239
7,1,0.25,0.508142915027229,19.25328647699207
7,1,0.0,0.5273765282917204,17.329925150542923
7,2,1.0,0.7006757797971497,0.0
7,2,0.75,0.7311223579678547,-3.0446578170705063
7,2,0.5,0.7177589560607006,-1.7083176263550937
7,2,0.25,0.7088637972304664,-0.8188017433316763
7,2,0.0,0.6774340875595879,2.3241692237561784
7,3,1.0,0.7006757797971497,0.0
7,3,0.75,0.6323625749641962,6.831320483295345
7,3,0.5,0.6213883454415793,7.92874343555704
7,3,0.25,0.593124515387289,10.755126440986063
7,3,0.0,0.5643921291545646,13.628365064258507
7,4,1.0,0.7006757797971497,0.0
7,4,0.75,0.7115938803862418,-1.091810058909215
7,4,0.5,0.7024752221506891,-0.179944235353946
7,4,0.25,0.67787259219999,2.2803187597159713
7,4,0.0,0.6480385958293986,5.263718396775108
7,5,1.0,0.7006757797971497,0.0
7,5,0.75,0.6322118612795375,6.846391851761213
7,5,0.5,0.5979242432958484,10.27515365013013
7,5,0.25,0.56196368913836,13.871209065878965
7,5,0.0,0.4858170582383854,21.48587215587643
7,6,1.0,0.7006757797971497,0.0
7,6,0.75,0.6728037032176466,2.787207657950308
7,6,0.5,0.6285187608155144,7.215701898163529
7,6,0.25,0.6058542120901173,9.482156770703243
7,6,0.0,0.5773764841999303,12.329929559721942
7,7,1.0,0.7006757797971497,0.0
7,7,0.75,0.6450693088031738,5.5606470993975865
7,7,0.5,0.5993554715473843,10.132030824976535
7,7,0.25,0.557392493931553,14.32832858655967
7,7,0.0,0.514961589029013,18.571419076813665
7,8,1.0,0.7006757797971497,0.0
7,8,0.75,0.7278170458521582,-2.714126605500855
7,8,0.5,0.6909396892489531,0.9736090548196574
7,8,0.25,0.6655807165715146,3.509506322563505
7,8,0.0,0.6377986281951039,6.287715160204577
8,0,1.0,0.7617225341013287,0.0
8,0,0.75,0.7540021017020183,0.7720432399310417
8,0,0.5,0.7621938469104124,-0.04713128090836349
8,0,0.25,0.7515739134059349,1.0148620695393795
8,0,0.0,0.6734952918212869,8.822724228004187
8,1,1.0,0.7617225341013287,0.0
8,1,0.75,0.7462757317223876,1.5446802378941138
8,1,0.5,0.7334412597583643,2.8281274342964458
8,1,0.25,0.7315319799126934,3.0190554188635366
8,1,0.0,0.7109595558181987,5.076297828313003
8,2,1.0,0.7617225341013287,0.0
8,2,0.75,0.7562273658141454,0.5495168287183327
8,2,0.5,0.7346890918980096,2.703344220331916
8,2,0.25,0.7477918054152204,1.393072868610834
8,2,0.0,0.7482790527464396,1.3443481354889153
8,3,1.0,0.7617225341013287,0.0
8,3,0.75,0.7467389519344025,1.498358216692619
8,3,0.5,0.7529085210174973,0.8814013083831451
8,3,0.25,0.7163055164545616,4.541701764676709
8,3,0.0,0.658629534682511,10.309299941881777
8,4,1.0,0.7617225341013287,0.0
8,4,0.75,0.7436457009911923,1.8076833110136414
8,4,0.5,0.7067278616936532,5.499467240767553
8,4,0.25,0.6742924664008334,8.743006770049533
8,4,0.0,0.6418650726344612,11.985746146686749
8,5,1.0,0.7617225341013287,0.0
8,5,0.75,0.7463798123781825,1.5342721723146213
8,5,0.5,0.6961817603143295,6.554077378699919
8,5,0.25,0.5904070755735432,17.13154585277855
8,5,0.0,0.5370383224613391,22.468421163998965
8,6,1.0,0.7617225341013287,0.0
8,6,0.75,0.7438956910375368,1.7826843063791897
8,6,0.5,0.7313355298272426,3.038700427408614
8,6,0.25,0.7274641789437329,3.425835515759579
8,6,0.0,0.7266363930526527,3.5086141048676023
8,7,1.0,0.7617225341013287,0.0
8,7,0.75,0.7575438287124727,0.4178705388856008
8,7,0.5,0.7422402803265354,1.948225377479329
8,7,0.25,0.726784205871815,3.4938328229513704
8,7,0.0,0.7053188922546361,5.6403641846692665
8,8,1.0,0.7617225341013287,0.0
8,8,0.75,0.7417979609748927,1.992457312643603
8,8,0.5,0.7330728899643855,2.8649644136943264
8,8,0.25,0.7138454450954451,4.7877089005883615
8,8,0.0,0.6455786303499765,11.614390375135219
9,0,1.0,0.7571539776907442,0.0
9,0,0.75,0.7744668461956625,-1.731286850491831
9,0,0.5,0.7728534590060654,-1.5699481315321173
9,0,0.25,0.7635214424214953,-0.6367464730751116
9,0,0.0,0.744261966333577,1.2892011357167221
9,1,1.0,0.7571539776907442,0.0
9,1,0.75,0.7399526178502334,1.7201359840510855
9,1,0.5,0.7256063824399875,3.1547595250756677
9,1,0.25,0.710867488139167,4.628648955157722
9,1,0.0,0.6815040739425888,7.5649903748155385
9,2,1.0,0.7571539776907442,0.0
9,2,0.75,0.7639742834751027,-0.6820305784358438
9,2,0.5,0.7623702809012539,-0.5216303210509698
9,2,0.25,0.7464108027513116,1.0743174939432665
9,2,0.0,0.7413065212054686,1.5847456485275635
9,3,1.0,0.7571539776907442,0.0
9,3,0.75,0.7538631082968712,0.32908693938730194
9,3,0.5,0.7180237037437118,3.913027394703239
9,3,0.25,0.7068399201992434,5.031405749150086
9,3,0.0,0.702952116859276,5.420186083146817
9,4,1.0,0.7571539776907442,0.0
9,4,0.75,0.7422301834579546,1.4923794232789667
9,4,0.5,0.7317920580962534,2.5361919594490856
9,4,0.25,0.7149536525640978,4.220032512664639
9,4,0.0,0.6505663929353126,10.658758475543163
9,5,1.0,0.7571539776907442,0.0
9,5,0.75,0.7552885771453732,0.18654005453709877
9,5,0.5,0.7489560302481306,0.8197947442613596
9,5,0.25,0.6464692407146382,11.068473697610603
9,5,0.0,0.5530206659947309,20.413331169601335
9,6,1.0,0.7571539776907442,0.0
9,6,0.75,0.7509102751431626,0.6243702547581664
9,6,0.5,0.7479725709017968,0.918140678894741
9,6,0.25,0.7476320654345974,0.9521912256146847
9,6,0.0,0.7424677625897138,1.4686215101030409
9,7,1.0,0.7571539776907442,0.0
9,7,0.75,0.7757129674177395,-1.8558989726995323
9,7,0.5,0.771384743776482,-1.4230766085737812
9,7,0.25,0.7384004617258718,1.8753515964872403
9,7,0.0,0.6663941507902563,9.07598269004879
9,8,1.0,0.7571539776907442,0.0
9,8,0.75,0.7500507653302356,0.7103212360508593
9,8,0.5,0.7554708290895772,0.16831486011670282
9,8,0.25,0.7467670383356022,1.038693935514201
9,8,0.0,0.720221904835918,3.693207285482625
10,0,1.0,0.757235681926978,0.0
10,0,0.75,0.7378890088896788,1.93466730372992
10,0,0.5,0.6874743706946334,6.976131123234463
10,0,0.25,0.5465798125924709,21.06558693345071
10,0,0.0,0.5036361584197575,25.359952350722047
10,1,1.0,0.757235681926978,0.0
10,1,0.75,0.7392176382724299,1.8018043654548066
10,1,0.5,0.7084534424762279,4.8782239450750104
10,1,0.25,0.6637385366826156,9.349714524436237
10,1,0.0,0.633744790094791,12.349089183218698
10,2,1.0,0.757235681926978,0.0
10,2,0.75,0.7588952052837786,-0.16595233568006407
10,2,0.5,0.7497164463928624,0.7519235534115598
10,2,0.25,0.7275039000882019,2.9731781838776117
10,2,0.0,0.7112229509452879,4.6012730981690115
10,3,1.0,0.757235681926978,0.0
10,3,0.75,0.7578959530803563,-0.06602711533783001
10,3,0.5,0.7432376919092902,1.3997990017687756
10,3,0.25,0.6949644132363655,6.22712686906125
10,3,0.0,0.5468733793022159,21.03623026247621
10,4,1.0,0.757235681926978,0.0
10,4,0.75,0.7583844816010024,-0.114879967402437
10,4,0.5,0.7536009597779296,0.3634722149048364
10,4,0.25,0.733208583707137,2.4027098219840948
10,4,0.0,0.6920488484309604,6.518683349601762
10,5,1.0,0.757235681926978,0.0
10,5,0.75,0.7514919425246568,0.5743739402321202
10,5,0.5,0.7439806574547974,1.3255024472180632
10,5,0.25,0.7258123347459378,3.142334718104023
10,5,0.0,0.684505684397125,7.2729997529852985
10,6,1.0,0.757235681926978,0.0
10,6,0.75,0.7750062992695135,-1.7770617342535489
10,6,0.5,0.7817155238967372,-2.4479841969759164
10,6,0.25,0.775996692935043,-1.8761011008065043
10,6,0.0,0.7040629510311982,5.317273089577979
10,7,1.0,0.757235681926978,0.0
10,7,0.75,0.7523520724703416,0.4883609456636351
10,7,0.5,0.7367929624891989,2.044271943777909
10,7,0.25,0.7267687714386905,3.0466910488287535
10,7,0.0,0.6562532365107472,10.09824454162308
10,8,1.0,0.757235681926978,0.0
10,8,0.75,0.7413193432949973,1.591633863198072
10,8,0.5,0.7300459898385366,2.7189692088441353
10,8,0.25,0.7034940140952016,5.374166783177636
10,8,0.0,0.6678695280877944,8.936615383918356
11,0,1.0,0.8967933783372002,0.0
11,0,0.75,0.8861506029700976,1.0642775367102564
11,0,0.5,0.889979116019951,0.6814262317249131
11,0,0.25,0.85406895412357,4.272442421363021
11,0,0.0,0.805554996646546,9.123838169065424
11,1,1.0,0.8967933783372002,0.0
11,1,0.75,0.8618014586333442,3.4991919703855956
11,1,0.5,0.8350934752059067,6.169990313129348
11,1,0.25,0.8007052802963098,9.608809804089036
11,1,0.0,0.7480799033984304,14.871347493876975
11,2,1.0,0.8967933783372002,0.0
11,2,0.75,0.8745582936643341,2.2235084672866057
11,2,0.5,0.8371051786121816,5.96881997250186
11,2,0.25,0.7794508804448563,11.734249789234386
11,2,0.0,0.7319587367448157,16.483464159238448
11,3,1.0,0.8967933783372002,0.0
11,3,0.75,0.9078881223591774,-1.1094744021977188
11,3,0.5,0.9129385355042537,-1.6145157167053559
11,3,0.25,0.8695456855612231,2.724769277597705
11,3,0.0,0.8215177331997886,7.527564513741158
11,4,1.0,0.8967933783372002,0.0
11,4,0.75,0.8959805347985631,0.08128435386370869
11,4,0.5,0.87500983458146,2.178354375574021
11,4,0.25,0.8603323633622244,3.646101497497578
11,4,0.0,0.846662174075991,5.013120426120921
11,5,1.0,0.8967933783372002,0.0
11,5,0.75,0.8833413263728372,1.3452051964362943
11,5,0.5,0.8588411832827187,3.795219505448144
11,5,0.25,0.7671824492848479,12.961092905235228
11,5,0.0,0.69819257427543,19.860080406177016
11,6,1.0,0.8967933783372002,0.0
11,6,0.75,0.9061428641963483,-0.9349485859148077
11,6,0.5,0.8950826145002349,0.17107638369653344
11,6,0.25,0.8854013983105646,1.139198002663555
11,6,0.0,0.8836886853587258,1.3104692978474386
11,7,1.0,0.8967933783372002,0.0
11,7,0.75,0.8823240594893479,1.4469318847852297
11,7,0.5,0.8528051334834453,4.398824485375485
11,7,0.25,0.7496549137996507,14.713846453754954
11,7,0.0,0.6421987840670569,25.45945942701433
11,8,1.0,0.8967933783372002,0.0
11,8,0.75,0.8685832149731953,2.8210163364004837
11,8,0.5,0.8159191561514632,8.087422218573703
11,8,0.25,0.7801080683925607,11.668530994463943
11,8,0.0,0.72528211909215,17.151125924505017
12,0,1.0,0.839227326185227,0.0
12,0,0.75,0.8432631261836966,-0.40357999984695914
12,0,0.5,0.824993955197942,1.4233370987284943
12,0,0.25,0.8174538678798107,2.1773458305416327
12,0,0.0,0.7807389635523294,5.848836263289758
12,1,1.0,0.839227326185227,0.0
12,1,0.75,0.8425622196988877,-0.3334893513660675
12,1,0.5,0.8244730819156931,1.4754244269533867
12,1,0.25,0.7775011104483304,6.172621573689662
12,1,0.0,0.7056292035279866,13.359812265724036
12,2,1.0,0.839227326185227,0.0
12,2,0.75,0.8189763724647445,2.0250953720482467
12,2,0.5,0.791841329587992,4.738599659723497
12,2,0.25,0.7364662765744053,10.276104961082167
12,2,0.0,0.6385068650343314,20.07204611508956
12,3,1.0,0.839227326185227,0.0
12,3,0.75,0.8409696084344631,-0.17422822492361156
12,3,0.5,0.8275206652704303,1.1706660914796663
12,3,0.25,0.7841428427632242,5.508448342200278
12,3,0.0,0.7378057232249973,10.142160296022972
12,4,1.0,0.839227326185227,0.0
12,4,0.75,0.7981841833506141,4.104314283461285
12,4,0.5,0.760480151925711,7.874717425951605
12,4,0.25,0.7108113318320028,12.841599435322415
12,4,0.0,0.6429971390417556,19.62301871434714
12,5,1.0,0.839227326185227,0.0
12,5,0.75,0.8009981021394065,3.822922404582052
12,5,0.5,0.7681286130789188,7.1098713106308224
12,5,0.25,0.727861377108983,11.136594907624398
12,5,0.0,0.6893514456916587,14.987588049356827
12,6,1.0,0.839227326185227,0.0
12,6,0.75,0.8503981669202347,-1.1170840735007737
12,6,0.5,0.8507409766057209,-1.1513650420493904
12,6,0.25,0.8536608719185185,-1.4433545733291475
12,6,0.0,0.8384536091751631,0.07737170100639013
12,7,1.0,0.839227326185227,0.0
12,7,0.75,0.8427623879894869,-0.3535061804259887
12,7,0.5,0.8359266560777352,0.3300670107491799
12,7,0.25,0.8025663422172541,3.6660983967972904
12,7,0.0,0.7040267759199978,13.520055026522915
12,8,1.0,0.839227326185227,0.0
12,8,0.75,0.8316281990359883,0.7599127149238716
12,8,0.5,0.8064173260807462,3.2810000104480763
12,8,0.25,0.7652054863749284,7.402183981029864
12,8,0.0,0.7160234772849102,12.320384890031677
13,0,1.0,0.9149571938825524,0.0
13,0,0.75,0.9169517298393971,-0.1994535956844734
13,0,0.5,0.918191772856917,-0.32345789743646325
13,0,0.25,0.8986663266714707,1.6290867211081639
13,0,0.0,0.8425213983588455,7.243579552370683
13,1,1.0,0.9149571938825524,0.0
13,1,0.75,0.9000844287325543,1.4872765149998024
13,1,0.5,0.8789213255734045,3.6035868309147845
13,1,0.25,0.8668267852607134,4.813040862183893
13,1,0.0,0.8477991801135296,6.7158013769022755
13,2,1.0,0.9149571938825524,0.0
13,2,0.75,0.9094929104780164,0.5464283404535974
13,2,0.5,0.8756223589844067,3.933483489814571
13,2,0.25,0.8402608021904999,7.469639169205244
13,2,0.0,0.7866066096423512,12.835058424020119
13,3,1.0,0.9149571938825524,0.0
13,3,0.75,0.9037006291979205,1.1256564684631876
13,3,0.5,0.8863841504304948,2.857304345205758
13,3,0.25,0.8576994489560498,5.72577449265026
13,3,0.0,0.8292880954171277,8.566909846542469
13,4,1.0,0.9149571938825524,0.0
13,4,0.75,0.9105053037542383,0.445189012831404
13,4,0.5,0.8617974812222955,5.315971266025688
13,4,0.25,0.8116254198372621,10.333177404529026
13,4,0.0,0.7871036651904058,12.78535286921466
13,5,1.0,0.9149571938825524,0.0
13,5,0.75,0.9054543611561618,0.950283272639052
13,5,0.5,0.8727168483962473,4.224034548630506
13,5,0.25,0.7516203397794518,16.33368541031006
13,5,0.0,0.6109702071649181,30.398698671763423
13,6,1.0,0.9149571938825524,0.0
13,6,0.75,0.9010516874939872,1.3905506388565136
13,6,0.5,0.8826390560256228,3.2318137856929607
13,6,0.25,0.8567492568349222,5.820793704763016
13,6,0.0,0.8447640777301794,7.0193116152373
13,7,1.0,0.9149571938825524,0.0
13,7,0.75,0.9105470684089717,0.44101254735806616
13,7,0.5,0.8985561931015137,1.6401000781038677
13,7,0.25,0.879476526385432,3.548066749712042
13,7,0.0,0.7975007240935106,11.745646978904178
13,8,1.0,0.9149571938825524,0.0
13,8,0.75,0.9191602363340303,-0.42030424514779563
13,8,0.5,0.9168406621690879,-0.18834682865355168
13,8,0.25,0.8969410423574964,1.801615152505598
13,8,0.0,0.8183942577661054,9.656293611644696
14,0,1.0,0.7328068595541561,0.0
14,0,0.75,0.7207878472273234,1.2019012326832779
14,0,0.5,0.691720808609175,4.1086050944981185
14,0,0.25,0.6803066586402331,5.2500200913923045
14,0,0.0,0.6626670714131361,7.013978814102007
14,1,1.0,0.7328068595541561,0.0
14,1,0.75,0.7393144371328546,-0.6507577578698465
14,1,0.5,0.7395911103667774,-0.678425081262124
14,1,0.25,0.7333154838688193,-0.050862431466314195
14,1,0.0,0.6954291418121579,3.7377717741998273
14,2,1.0,0.7328068595541561,0.0
14,2,0.75,0.7431658166024987,-1.0358957048342554
14,2,0.5,0.7292220028632758,0.3584856690880378
14,2,0.25,0.681861902295829,5.094495725832715
14,2,0.0,0.6634084605982027,6.9398398955953455
14,3,1.0,0.7328068595541561,0.0
14,3,0.75,0.7219567045063886,1.085015504776754
14,3,0.5,0.6900288166537494,4.2778042900406765
14,3,0.25,0.6584593290990055,7.434753045515063
14,3,0.0,0.6327017829626829,10.010507659147327
14,4,1.0,0.7328068595541561,0.0
14,4,0.75,0.7384260761862448,-0.5619216632088642
14,4,0.5,0.7415358824844253,-0.8729022930269115
14,4,0.25,0.7172969744344024,1.5509885119753708
14,4,0.0,0.667854202196295,6.495265735786115
14,5,1.0,0.7328068595541561,0.0
14,5,0.75,0.6978708300242349,3.4936029529921253
14,5,0.5,0.6343517626828485,9.845509687130761
14,5,0.25,0.6086855171684378,12.412134238571838
14,5,0.0,0.5341051248648658,19.870173468929032
14,6,1.0,0.7328068595541561,0.0
14,6,0.75,0.736747898420167,-0.39410388660108264
14,6,0.5,0.7410671308204742,-0.8260271266318009
14,6,0.25,0.7327456431411232,0.006121641303291625
14,6,0.0,0.7280731364559893,0.47337230981668865
14,7,1.0,0.7328068595541561,0.0
14,7,0.75,0.7515046291721602,-1.8697769618004068
14,7,0.5,0.7387336161793511,-0.5926756625194929
14,7,0.25,0.726009350903012,0.6797508651144146
14,7,0.0,0.693977407963468,3.882945159068818
14,8,1.0,0.7328068595541561,0.0
14,8,0.75,0.737101019402474,-0.42941598483178245
14,8,0.5,0.7258152857036195,0.6991573850536614
14,8,0.25,0.6656966273113609,6.711023224279522
14,8,0.0,0.6260084396597554,10.679841989440074
15,0,1.0,0.8887965164273849,0.0
15,0,0.75,0.8726672592083993,1.6129257218985615
15,0,0.5,0.8538037590791064,3.4992757348278447
15,0,0.25,0.7879529521481863,10.084356427919861
15,0,0.0,0.7253011289395667,16.34953874878182
15,1,1.0,0.8887965164273849,0.0
15,1,0.75,0.8729007156546302,1.5895800772754654
15,1,0.5,0.8315014526911355,5.729506373624938
15,1,0.25,0.7937653336590709,9.503118276831401
15,1,0.0,0.7514729995070437,13.732351692034117
15,2,1.0,0.8887965164273849,0.0
15,2,0.75,0.8574866653097301,3.130985111765483
15,2,0.5,0.8322483148510547,5.654820157633022
15,2,0.25,0.7537959812605576,13.50005351668273
15,2,0.0,0.6705721636099421,21.82243528174428
15,3,1.0,0.8887965164273849,0.0
15,3,0.75,0.8796607027089232,0.9135813718461727
15,3,0.5,0.8478148118589899,4.098170456839501
15,3,0.25,0.8204861807932371,6.831033563414779
15,3,0.0,0.7802521487581224,10.854436766926245
15,4,1.0,0.8887965164273849,0.0
15,4,0.75,0.9018053447281109,-1.3008828300726027
15,4,0.5,0.901908121425845,-1.3111604998460091
15,4,0.25,0.8695352425486589,1.9261273878726004
15,4,0.0,0.8060733568440133,8.272315958337161
15,5,1.0,0.8887965164273849,0.0
15,5,0.75,0.8732159175827638,1.558059884462104
15,5,0.5,0.8683936061618176,2.0402910265567287
15,5,0.25,0.8371954142481735,5.160110217921144
15,5,0.0,0.7200638287629471,16.873268766443783
15,6,1.0,0.8887965164273849,0.0
15,6,0.75,0.8756790377627907,1.3117478664594229
15,6,0.5,0.8618052428121078,2.699127361527709
15,6,0.25,0.8245579803016126,6.423853612577224
15,6,0.0,0.8026479104945461,8.614860593283879
15,7,1.0,0.8887965164273849,0.0
15,7,0.75,0.8605571324973277,2.8239383930057205
15,7,0.5,0.8465685433969016,4.222797303048331
15,7,0.25,0.7999351227672822,8.886139366010271
15,7,0.0,0.7470186861433632,14.17778302840217
15,8,1.0,0.8887965164273849,0.0
15,8,0.75,0.895533096667398,-0.6736580240013113
15,8,0.5,0.8731918738185128,1.5604642608872066
15,8,0.25,0.8618955623896176,2.6900954037767266
15,8,0.0,0.8376005119033638,5.119600452402107
16,0,1.0,0.8448257254167657,0.0
16,0,0.75,0.840786502991846,0.40392224249197195
16,0,0.5,0.8139512774705733,3.087444794619243
16,0,0.25,0.7577432628601659,8.70824625565998
16,0,0.0,0.7025735023608269,14.225222305593876
16,1,1.0,0.8448257254167657,0.0
16,1,0.75,0.8401838946923658,0.46418307243999424
16,1,0.5,0.804506418402156,4.031930701460973
16,1,0.25,0.766212858000145,7.861286741662066
16,1,0.0,0.7319553017363565,11.287042368040922
16,2,1.0,0.8448257254167657,0.0
16,2,0.75,0.8254209706798695,1.940475473689618
16,2,0.5,0.7834246550136167,6.140107040314902
16,2,0.25,0.7498315026281944,9.499422278857129
16,2,0.0,0.7124005298151921,13.242519560157362
16,3,1.0,0.8448257254167657,0.0
16,3,0.75,0.8358785664919335,0.8947158924832221
16,3,0.5,0.840595560717512,0.42301646992537467
16,3,0.25,0.8020915871184533,4.273413829831241
16,3,0.0,0.7624719864908819,8.235373892588383
16,4,1.0,0.8448257254167657,0.0
16,4,0.75,0.8251078309173087,1.9717894499457045
16,4,0.5,0.7830056134787751,6.182011193799064
16,4,0.25,0.7137746825079043,13.105104290886139
16,4,0.0,0.6687302210261394,17.609550439062627
16,5,1.0,0.8448257254167657,0.0
16,5,0.75,0.7957132306204254,4.911249479634028
16,5,0.5,0.7687306104381088,7.609511497865695
16,5,0.25,0.7402886396205104,10.45370857962553
16,5,0.0,0.701922770781061,14.290295463570468
16,6,1.0,0.8448257254167657,0.0
16,6,0.75,0.8474860549340548,-0.2660329517289117
16,6,0.5,0.8509308461770261,-0.6105120760260374
16,6,0.25,0.8480744706072787,-0.32487451905129916
16,6,0.0,0.8461544618743411,-0.13287364575753635
16,7,1.0,0.8448257254167657,0.0
16,7,0.75,0.855367045938859,-1.0541320522093334
16,7,0.5,0.8326866165019041,1.2139108914861585
16,7,0.25,0.8189851177127339,2.584060770403185
16,7,0.0,0.7539358032392709,9.088992217749482
16,8,1.0,0.8448257254167657,0.0
16,8,0.75,0.8362224698683514,0.8603255548414346
16,8,0.5,0.8091723395702857,3.5653385846480035
16,8,0.25,0.7795698418372075,6.525588357955825
16,8,0.0,0.7285676566926081,11.625806872415756
17,0,1.0,0.8199572676721031,0.0
17,0,0.75,0.8079023562274574,1.2054911444645655
17,0,0.5,0.7574535827499664,6.250368492213665
17,0,0.25,0.7101815831999395,10.977568447216356
17,0,0.0,0.5597718751692261,26.0185392502877
17,1,1.0,0.8199572676721031,0.0
17,1,0.75,0.8052153264369208,1.4741941235182243
17,1,0.5,0.7841864585293872,3.577080914271591
17,1,0.25,0.7326902753630842,8.726699230901891
17,1,0.0,0.6741273821995328,14.582988547257026
17,2,1.0,0.8199572676721031,0.0
17,2,0.75,0.8206979038580382,-0.07406361859351174
17,2,0.5,0.7983704475438586,2.1586820128244533
17,2,0.25,0.7239452230504126,9.601204462169044
17,2,0.0,0.555765449299568,26.419181837253515
17,3,1.0,0.8199572676721031,0.0
17,3,0.75,0.7974095349489838,2.2547732723119274
17,3,0.5,0.7731335346188155,4.682373305328758
17,3,0.25,0.7399924139612852,7.996485371081786
17,3,0.0,0.7233265718248524,9.66306958472507
17,4,1.0,0.8199572676721031,0.0
17,4,0.75,0.8028393212148957,1.7117946457207434
17,4,0.5,0.7859167966432206,3.4040471028882524
17,4,0.25,0.7507201273029607,6.923714036914241
17,4,0.0,0.7277137354975954,9.224353217450766
17,5,1.0,0.8199572676721031,0.0
17,5,0.75,0.7809924650525708,3.896480261953228
17,5,0.5,0.700168395019436,11.978887265266714
17,5,0.25,0.5360732317610156,28.388403591108748
17,5,0.0,0.4574536342131997,36.25036334589034
17,6,1.0,0.8199572676721031,0.0
17,6,0.75,0.8121687477735507,0.7788519898552337
17,6,0.5,0.8056692494774038,1.428801819469927
17,6,0.25,0.8024324204219471,1.7524847250156017
17,6,0.0,0.7732637169308462,4.669355074125692
17,7,1.0,0.8199572676721031,0.0
17,7,0.75,0.817761792268534,0.21954754035691249
17,7,0.5,0.7969751712036659,2.2982096468437185
17,7,0.25,0.7696466187950355,5.03106488770676
17,7,0.0,0.7180268325631509,10.193043510895217
17,8,1.0,0.8199572676721031,0.0
17,8,0.75,0.8105664036515101,0.939086402059297
17,8,0.5,0.7745221582347721,4.543510943733098
17,8,0.25,0.7352600776467495,8.469719002535358
17,8,0.0,0.6823074712948713,13.764979637723174
18,0,1.0,0.7006339405245927,0.0
18,0,0.75,0.7027222452505908,-0.20883047259980803
18,0,0.5,0.6805392831995651,2.0094657325027576
18,0,0.25,0.6572263496182862,4.340759090630653
18,0,0.0,0.6264202093955271,7.42137311290656
18,1,1.0,0.7006339405245927,0.0
18,1,0.75,0.6800137678985148,2.062017262607796
18,1,0.5,0.6781672487302417,2.2466691794351012
18,1,0.25,0.6596421701588024,4.099177036579027
18,1,0.0,0.638199235923759,6.243470460083367
18,2,1.0,0.7006339405245927,0.0
18,2,0.75,0.6979791231158174,0.26548174087752674
18,2,0.5,0.7042166131903557,-0.3582672665762954
18,2,0.25,0.6875814937639516,1.30524467606411
18,2,0.0,0.6523545790410081,4.827936148358458
18,3,1.0,0.7006339405245927,0.0
18,3,0.75,0.6846971398627832,1.593680066180947
18,3,0.5,0.6466991993948271,5.393474112976559
18,3,0.25,0.6162049237571945,8.442901676739822
18,3,0.0,0.5873656850415874,11.326825548300533
18,4,1.0,0.7006339405245927,0.0
18,4,0.75,0.6995024806276876,0.1131459896905107
18,4,0.5,0.6999327774054488,0.07011631191439216
18,4,0.25,0.7041212939546612,-0.34873534300684517
18,4,0.0,0.6878466882855208,1.2787252239071956
18,5,1.0,0.7006339405245927,0.0
18,5,0.75,0.7287314508773352,-2.809751035274244
18,5,0.5,0.6959522168580914,0.4681723666501325
18,5,0.25,0.6309643351931673,6.966960533142541
18,5,0.0,0.5627309562398704,13.790298428472237
18,6,1.0,0.7006339405245927,0.0
18,6,0.75,0.7211801218172592,-2.05461812926665
18,6,0.5,0.7252121486082906,-2.4578208083697928
18,6,0.25,0.7332114435992334,-3.257750307464069
18,6,0.0,0.7347626580648825,-3.412871754028979
18,7,1.0,0.7006339405245927,0.0
18,7,0.75,0.6984350877396884,0.21988527849042816
18,7,0.5,0.6861135758938365,1.4520364630756233
18,7,0.25,0.666049980606289,3.4583959918303764
18,7,0.0,0.6577656731119667,4.286826741262606
18,8,1.0,0.7006339405245927,0.0
18,8,0.75,0.7001215832269184,0.051235729767429294
18,8,0.5,0.7002277335018201,0.04062070227726089
18,8,0.25,0.6844914252124601,1.6142515312132621
18,8,0.0,0.6875920934342988,1.3041847090293879
19,0,1.0,0.8001654977123522,0.0
19,0,0.75,0.792660495738517,0.750500197383519
19,0,0.5,0.7851005424260151,1.5064955286337112
19,0,0.25,0.7955895085922564,0.45759891200958247
19,0,0.0,0.7757911741570834,2.4374323555268806
19,1,1.0,0.8001654977123522,0.0
19,1,0.75,0.8036520840294178,-0.3486586317065554
19,1,0.5,0.8010679782366417,-0.09024805242894285
19,1,0.25,0.7794447713991551,2.07207263131971
19,1,0.0,0.7503420840285918,4.9823413683760425
19,2,1.0,0.8001654977123522,0.0
19,2,0.75,0.8004570449687489,-0.029154725639668477
19,2,0.5,0.7912703404439254,0.8895157268426823
19,2,0.25,0.7793828621118636,2.0782635600488653
19,2,0.0,0.7616889493966019,3.8476548315750314
19,3,1.0,0.8001654977123522,0.0
19,3,0.75,0.7935992327591925,0.6566264953159706
19,3,0.5,0.7481776738343795,5.198782387797274
19,3,0.25,0.7055188432340969,9.464665447825539
19,3,0.0,0.6562671877057351,14.389831000661712
19,4,1.0,0.8001654977123522,0.0
19,4,0.75,0.8097101854440407,-0.9544687731688484
19,4,0.5,0.8039657406199793,-0.38002429076270383
19,4,0.25,0.7507407212376599,4.942477647469234
19,4,0.0,0.7130370547649166,8.71284429474356
19,5,1.0,0.8001654977123522,0.0
19,5,0.75,0.7763624283965194,2.380306931583287
19,5,0.5,0.6850343943080889,11.513110340426335
19,5,0.25,0.5733839515519514,22.678154616040082
19,5,0.0,0.5219413626556563,27.822413505669598
19,6,1.0,0.8001654977123522,0.0
19,6,0.75,0.8265169914924386,-2.635149378008639
19,6,0.5,0.8295742055746427,-2.940870786229044
19,6,0.25,0.8271001572647753,-2.6934659552423024
19,6,0.0,0.8093547246911558,-0.9189226978803533
19,7,1.0,0.8001654977123522,0.0
19,7,0.75,0.8147184730787869,-1.4552975366434628
19,7,0.5,0.7974377553476648,0.27277423646874244
19,7,0.25,0.7600571416118811,4.010835610047114
19,7,0.0,0.6826174695858837,11.754802812646858
19,8,1.0,0.8001654977123522,0.0
19,8,0.75,0.7899309391014011,1.0234558610951128
19,8,0.5,0.7769444322694233,2.32210654429289
19,8,0.25,0.7729008044549939,2.7264693257358363
19,8,0.0,0.7232727659115354,7.689273180081679
20,0,1.0,0.8058867209887618,0.0
20,0,0.75,0.8059131211703924,-0.0026400181630581443
20,0,0.5,0.7895201157544545,1.636660523430733
20,0,0.25,0.7648734400611666,4.101328092759515
20,0,0.0,0.633656801236024,17.222991975273782
20,1,1.0,0.8058867209887618,0.0
20,1,0.75,0.7827022383301453,2.31844826586165
20,1,0.5,0.7679094803863754,3.7977240602386386
20,1,0.25,0.7208145322979486,8.507218869081324
20,1,0.0,0.6933445887945217,11.254213219424013
20,2,1.0,0.8058867209887618,0.0
20,2,0.75,0.812557170480636,-0.6670449491874231
20,2,0.5,0.7810182396865566,2.4868481302205203
20,2,0.25,0.7415441001443382,6.434262084442355
20,2,0.0,0.5736937522440622,23.219296874469965
20,3,1.0,0.8058867209887618,0.0
20,3,0.75,0.8128830897773489,-0.6996368788587115
20,3,0.5,0.8086314639791781,-0.2744742990416271
20,3,0.25,0.8088548822643864,-0.29681612756246034
20,3,0.0,0.788048540273813,1.7838180714948804
20,4,1.0,0.8058867209887618,0.0
20,4,0.75,0.8109897743801825,-0.5103053391420698
20,4,0.5,0.792400318669824,1.348640231893783
20,4,0.25,0.7299026516812278,7.598406930753399
20,4,0.0,0.701617523527408,10.426919746135377
20,5,1.0,0.8058867209887618,0.0
20,5,0.75,0.8062294369677013,-0.0342715978939534
20,5,0.5,0.7541102553283052,5.177646566045658
20,5,0.25,0.5982346310189343,20.765208996982754
20,5,0.0,0.4790574111944255,32.68293097943363
20,6,1.0,0.8058867209887618,0.0
20,6,0.75,0.7928610046728449,1.3025716315916869
20,6,0.5,0.768450848136422,3.7435872852339847
20,6,0.25,0.7678815398955089,3.8005181093252904
20,6,0.0,0.7588537877990311,4.703293318973067
20,7,1.0,0.8058867209887618,0.0
20,7,0.75,0.7876636216107799,1.8223099377981944
20,7,0.5,0.7621981696545419,4.36885513342199
20,7,0.25,0.7376810678539852,6.820565313477656
20,7,0.0,0.7047886925631464,10.109802842561544
20,8,1.0,0.8058867209887618,0.0
20,8,0.75,0.8137805230889552,-0.7893802100193414
20,8,0.5,0.8130136188418688,-0.712689785310705
20,8,0.25,0.7968109282781082,0.9075792710653618
20,8,0.0,0.7504813695255206,5.540535146324121
21,0,1.0,0.7177137820688106,0.0
21,0,0.75,0.7080389616564844,0.9674820412326257
21,0,0.5,0.6965019952977588,2.1211786771051844
21,0,0.25,0.6578118327187248,5.990194935008586
21,0,0.0,0.626972527397964,9.07412546708466
21,1,1.0,0.7177137820688106,0.0
21,1,0.75,0.7117246513612527,0.598913070755791
21,1,0.5,0.6947617085697394,2.2952073499071246
21,1,0.25,0.7028821417350982,1.4831640333712426
21,1,0.0,0.6884344737173766,2.9279308351433997
21,2,1.0,0.7177137820688106,0.0
21,2,0.75,0.7332893949838648,-1.557561291505416
21,2,0.5,0.7437415646578782,-2.602778258906757
21,2,0.25,0.716792898734993,0.09208833338176792
21,2,0.0,0.7103976172576545,0.7316164811156156
21,3,1.0,0.7177137820688106,0.0
21,3,0.75,0.7066259284008639,1.1087853667946734
21,3,0.5,0.7012758471250474,1.6437934943763222
21,3,0.25,0.6831651982814773,3.4548583787333387
21,3,0.0,0.6671886495257946,5.052513254301605
21,4,1.0,0.7177137820688106,0.0
21,4,0.75,0.72907643858419,-1.1362656515379377
21,4,0.5,0.7305763687658071,-1.286258669699647
21,4,0.25,0.7331833610365179,-1.5469578967707287
21,4,0.0,0.6959845981563022,2.1729183912508443
21,5,1.0,0.7177137820688106,0.0
21,5,0.75,0.6858473381447103,3.186644392410032
21,5,0.5,0.6341156047710619,8.359817729774877
21,5,0.25,0.5633065209817565,15.440726108705416
21,5,0.0,0.4582608570858644,25.945292498294627
21,6,1.0,0.7177137820688106,0.0
21,6,0.75,0.7143780229522247,0.33357591165859013
21,6,0.5,0.7114831451116032,0.6230636957207492
21,6,0.25,0.7097837435562379,0.793003851257279
21,6,0.0,0.7053699557147833,1.234382635402731
21,7,1.0,0.7177137820688106,0.0
21,7,0.75,0.7153714908333738,0.2342291235436833
21,7,0.5,0.7159322616167497,0.1781520452060925
21,7,0.25,0.6957954597875774,2.191832228123325
21,7,0.0,0.677823026646556,3.989075542225462
21,8,1.0,0.7177137820688106,0.0
21,8,0.75,0.703042400757148,1.467138131166268
21,8,0.5,0.7006656707207994,1.7048111348011208
21,8,0.25,0.7085694113321959,0.9144370736614782
21,8,0.0,0.7003134277239783,1.7400354344832336
22,0,1.0,0.7761366052512895,0.0
22,0,0.75,0.7862719744366039,-1.0135369185314436
22,0,0.5,0.7626717487302186,1.3464856521070878
22,0,0.25,0.7404575190453562,3.5679086205933297
22,0,0.0,0.6975750055429109,7.8561599708378616
22,1,1.0,0.7761366052512895,0.0
22,1,0.75,0.7862318211310714,-1.0095215879781905
22,1,0.5,0.7824914557585163,-0.6354850507226839
22,1,0.25,0.7529257105151156,2.321089473617388
22,1,0.0,0.7274756003907954,4.866100486049407
22,2,1.0,0.7761366052512895,0.0
22,2,0.75,0.7659079605122971,1.022864473899232
22,2,0.5,0.7661422826232082,0.9994322628081309
22,2,0.25,0.7544872290561785,2.164937619511098
22,2,0.0,0.7140614165245319,6.207518872675754
22,3,1.0,0.7761366052512895,0.0
22,3,0.75,0.7787369138200853,-0.2600308568795784
22,3,0.5,0.7724848313307215,0.36517739205679245
22,3,0.25,0.7665646365799402,0.957196867134924
22,3,0.0,0.7426690039338872,3.346760131740223
22,4,1.0,0.7761366052512895,0.0
22,4,0.75,0.7674120778142399,0.8724527437049545
22,4,0.5,0.7480946353378425,2.8041969913446985
22,4,0.25,0.7157607263802396,6.037587887104989
22,4,0.0,0.7076762628878213,6.846034236346821
22,5,1.0,0.7761366052512895,0.0
22,5,0.75,0.7560289963963591,2.0107608854930348
22,5,0.5,0.7220940579876516,5.404254726363789
22,5,0.25,0.6784992753193998,9.763732993188967
22,5,0.0,0.6368954451712873,13.92411600800022
22,6,1.0,0.7761366052512895,0.0
22,6,0.75,0.7671710136367152,0.896559161457422
22,6,0.5,0.7541131043140584,2.2023500937231044
22,6,0.25,0.7417641700236507,3.4372435227638776
22,6,0.0,0.7214890234146709,5.464758183661855
22,7,1.0,0.7761366052512895,0.0
22,7,0.75,0.7560757191502295,2.006088610105994
22,7,0.5,0.7384360748427993,3.7700530408490196
22,7,0.25,0.7068762159511788,6.926038930011069
22,7,0.0,0.6512712611202798,12.48653441310097
22,8,1.0,0.7761366052512895,0.0
22,8,0.75,0.7605268667872719,1.5609738464017586
22,8,0.5,0.7471938009540549,2.8942804297234614
22,8,0.25,0.7219083875658523,5.4228217685437174
22,8,0.0,0.6798544597075599,9.62821455437296
23,0,1.0,0.707257439552779,0.0
23,0,0.75,0.7237008653759471,-1.6443425823168156
23,0,0.5,0.7207959822907851,-1.3538542738006143
23,0,0.25,0.691235624476792,1.602181507598699
23,0,0.0,0.6321084919740008,7.514894757877821
23,1,1.0,0.707257439552779,0.0
23,1,0.75,0.7011945794441969,0.6062860108582036
23,1,0.5,0.7085444576038464,-0.12870180510674567
23,1,0.25,0.6995788463239474,0.7678593228831576
23,1,0.0,0.672716561487083,3.4540878065695946
23,2,1.0,0.707257439552779,0.0
23,2,0.75,0.7315363804302254,-2.427894087744642
23,2,0.5,0.7361450804277414,-2.888764087496243
23,2,0.25,0.7574812907346178,-5.02238511818388
23,2,0.0,0.7544886516476286,-4.72312120948496
23,3,1.0,0.707257439552779,0.0
23,3,0.75,0.7143322536767456,-0.70748141239666
23,3,0.5,0.7153204682466009,-0.8063028693821916
23,3,0.25,0.7033983849620289,0.38590545907500884
23,3,0.0,0.6683810137506417,3.8876425802137238
23,4,1.0,0.707257439552779,0.0
23,4,0.75,0.7054593042565015,0.1798135296277481
23,4,0.5,0.6919245906284921,1.533284892428688
23,4,0.25,0.6832812132500405,2.3976226302738435
23,4,0.0,0.6678868855715472,3.9370553981231793
23,5,1.0,0.707257439552779,0.0
23,5,0.75,0.7056774570195713,0.157998253320768
23,5,0.5,0.6812397658159496,2.6017673736829394
23,5,0.25,0.6197144945892173,8.754294496356163
23,5,0.0,0.529090469661347,17.8166969891432
23,6,1.0,0.707257439552779,0.0
23,6,0.75,0.6888391956903752,1.841824386240376
23,6,0.5,0.6757117388125581,3.1545700740220894
23,6,0.25,0.6608610585046432,4.6396381048135815
23,6,0.0,0.6457289921174302,6.15284474353488
23,7,1.0,0.707257439552779,0.0
23,7,0.75,0.6972000763901721,1.0057363162606858
23,7,0.5,0.6879750151808974,1.9282424371881546
23,7,0.25,0.658088422163185,4.9169017389594005
23,7,0.0,0.5923266114722359,11.49308280805431
23,8,1.0,0.707257439552779,0.0
23,8,0.75,0.6935792920301221,1.3678147522656836
23,8,0.5,0.676779394941654,3.047804461112502
23,8,0.25,0.6300362021161614,7.722123743661758
23,8,0.0,0.5994137776742648,10.784366187851413
24,0,1.0,0.7517955820725903,0.0
24,0,0.75,0.7306481604749983,2.1147421597592087
24,0,0.5,0.7151050577440744,3.669052432851594
24,0,0.25,0.6887277120628019,6.306787000978842
24,0,0.0,0.6676790028709716,8.411657920161876
24,1,1.0,0.7517955820725903,0.0
24,1,0.75,0.7450171680595266,0.6778414013063783
24,1,0.5,0.7390412617685345,1.2754320304055877
24,1,0.25,0.7135889475904509,3.8206634482139457
24,1,0.0,0.6904177942850884,6.137778778750191
24,2,1.0,0.7517955820725903,0.0
24,2,0.75,0.7769356416665224,-2.5140059593932063
24,2,0.5,0.7787587206862625,-2.6963138613672166
24,2,0.25,0.7500801306086553,0.1715451463935036
24,2,0.0,0.707368972056578,4.442661001601234
24,3,1.0,0.7517955820725903,0.0
24,3,0.75,0.7850827464331672,-3.328716436057688
24,3,0.5,0.8014648411800925,-4.96692591075022
24,3,0.25,0.7940866025189682,-4.22910204463779
24,3,0.0,0.765776267619029,-1.398068554643861
24,4,1.0,0.7517955820725903,0.0
24,4,0.75,0.7425368848782264,0.9258697194363896
24,4,0.5,0.6985064027694389,5.328917930315146
24,4,0.25,0.6451541010258016,10.664148104678873
24,4,0.0,0.597332076719611,15.446350535297936
24,5,1.0,0.7517955820725903,0.0
24,5,0.75,0.6913872153676804,6.0408366704909895
24,5,0.5,0.6048115787188475,14.698400335374284
24,5,0.25,0.5073769684556331,24.44186136169573
24,5,0.0,0.4243765256442891,32.74190564283012
24,6,1.0,0.7517955820725903,0.0
24,6,0.75,0.736847013708006,1.4948568364584358
24,6,0.5,0.7032233805246357,4.857220154795461
24,6,0.25,0.6750508231390365,7.674475893355382
24,6,0.0,0.6418089892939678,10.998659277862256
24,7,1.0,0.7517955820725903,0.0
24,7,0.75,0.73873464503124,1.3060937041350362
24,7,0.5,0.7233172382108218,2.8478343861768507
24,7,0.25,0.6672320277200823,8.456355435250806
24,7,0.0,0.6149585509476982,13.683703112489209
24,8,1.0,0.7517955820725903,0.0
24,8,0.75,0.7381268224013575,1.3668759671232822
24,8,0.5,0.7203316382936604,3.1463943778929915
24,8,0.25,0.7092405593106665,4.25550227619238
24,8,0.0,0.6945099159583838,5.728566611420649
25,0,1.0,0.8074489683263492,0.0
25,0,0.75,0.7933799969624766,1.406897136387253
25,0,0.5,0.7872024671636231,2.0246501162726083
25,0,0.25,0.7591730337555576,4.8275934570791605
25,0,0.0,0.7227217559750161,8.472721235133307
25,1,1.0,0.8074489683263492,0.0
25,1,0.75,0.805247225157418,0.22017431689311806
25,1,0.5,0.7681353253126738,3.931364301367535
25,1,0.25,0.7627074990509081,4.474146927544109
25,1,0.0,0.7212669772696358,8.618199105671332
25,2,1.0,0.8074489683263492,0.0
25,2,0.75,0.7850410565341712,2.2407911792177937
25,2,0.5,0.744427156955647,6.302181137070217
25,2,0.25,0.6985056911205985,10.89432772057507
25,2,0.0,0.6509349258211214,15.651404250522772
25,3,1.0,0.8074489683263492,0.0
25,3,0.75,0.7859646601512182,2.1484308175130917
25,3,0.5,0.7574930665879126,4.995590173843656
25,3,0.25,0.7293457459822379,7.810322234411126
25,3,0.0,0.6831185277386103,12.43304405877389
25,4,1.0,0.8074489683263492,0.0
25,4,0.75,0.7950987633497038,1.2350204976645407
25,4,0.5,0.7591989582567251,4.825001006962404
25,4,0.25,0.7066490471407956,10.079992118555358
25,4,0.0,0.6185185735481237,18.893039477822548
25,5,1.0,0.8074489683263492,0.0
25,5,0.75,0.7649872697773348,4.246169854901439
25,5,0.5,0.7200216350480075,8.742733327834163
25,5,0.25,0.6615414404883839,14.590752783796523
25,5,0.0,0.6147741600040716,19.267480832227758
25,6,1.0,0.8074489683263492,0.0
25,6,0.75,0.7913120948777042,1.6136873448645006
25,6,0.5,0.7831363631858257,2.431260514052347
25,6,0.25,0.7668551799591997,4.059378836714944
25,6,0.0,0.7680206211340086,3.9428347192340563
25,7,1.0,0.8074489683263492,0.0
25,7,0.75,0.805154721224825,0.22942471015241495
25,7,0.5,0.7940896560074111,1.3359312318938055
25,7,0.25,0.7577606060764123,4.968836224993689
25,7,0.0,0.7095244699143883,9.792449841196083
25,8,1.0,0.8074489683263492,0.0
25,8,0.75,0.8067025012572872,0.07464670690620068
25,8,0.5,0.7999933185781829,0.745564974816626
25,8,0.25,0.8090560839004431,-0.1607115574093987
25,8,0.0,0.7597201961423983,4.772877218395088
26,0,1.0,0.6570335080997513,0.0
26,0,0.75,0.6571173130854564,-0.008380498570514927
26,0,0.5,0.6518278775729996,0.5205630526751603
26,0,0.25,0.6158112072742437,4.122230082550759
26,0,0.0,0.5692681915987539,8.77653165009974
26,1,1.0,0.6570335080997513,0.0
26,1,0.75,0.6678219039521138,-1.0788395852362576
26,1,0.5,0.6717246256568291,-1.469111755707786
26,1,0.25,0.6298524140839131,2.7181094015838125
26,1,0.0,0.5992984217360444,5.773508636370684
26,2,1.0,0.6570335080997513,0.0
26,2,0.75,0.669839957523781,-1.2806449424029753
26,2,0.5,0.6224729551535635,3.456055294618776
26,2,0.25,0.5775995196769844,7.943398842276683
26,2,0.0,0.5211433525277596,13.589015557199168
26,3,1.0,0.6570335080997513,0.0
26,3,0.75,0.6616868350421888,-0.46533269424375856
26,3,0.5,0.6686112419705681,-1.1577733870816842
26,3,0.25,0.6671293650496346,-1.0095856949883353
26,3,0.0,0.6534907494326029,0.35427586671483713
26,4,1.0,0.6570335080997513,0.0
26,4,0.75,0.653833813471482,0.31996946282693006
26,4,0.5,0.6429936264891829,1.403988161056835
26,4,0.25,0.6021291428791207,5.490436522063058
26,4,0.0,0.5770310099257467,8.000249817400451
26,5,1.0,0.6570335080997513,0.0
26,5,0.75,0.6594526260752931,-0.24191179755418402
26,5,0.5,0.6240760989492267,3.2957409150524586
26,5,0.25,0.5654980142856987,9.153549381405258
26,5,0.0,0.5433214748461087,11.371203325364254
26,6,1.0,0.6570335080997513,0.0
26,6,0.75,0.6715699038236557,-1.4536395723904416
26,6,0.5,0.6753757307398986,-1.8342222640147399
26,6,0.25,0.6598816361271151,-0.2848128027363894
26,6,0.0,0.6128254201839268,4.420808791582442
26,7,1.0,0.6570335080997513,0.0
26,7,0.75,0.6672995386700427,-1.0266030570291407
26,7,0.5,0.6675881451521408,-1.055463705238957
26,7,0.25,0.6673328140350144,-1.029930593526318
26,7,0.0,0.6331220607941075,2.3911447305643763
26,8,1.0,0.6570335080997513,0.0
26,8,0.75,0.6586785396089915,-0.16450315092402246
26,8,0.5,0.6489199176338771,0.8113590465874121
26,8,0.25,0.6233170561930104,3.3716451906740885
26,8,0.0,0.601292181600003,5.574132649974828
27,0,1.0,0.8365836903671735,0.0
27,0,0.75,0.8295533042074215,0.7030386159752045
27,0,0.5,0.6850855329055255,15.149815746164796
27,0,0.25,0.6744895188748238,16.209417149234973
27,0,0.0,0.6218420831668908,21.47416072002827
27,1,1.0,0.8365836903671735,0.0
27,1,0.75,0.823646494444292,1.293719592288145
27,1,0.5,0.8094892660320838,2.7094424335089684
27,1,0.25,0.8019573674367216,3.462632293045187
27,1,0.0,0.7977958349914945,3.878785537567897
27,2,1.0,0.8365836903671735,0.0
27,2,0.75,0.8097852008094093,2.6798489557764205
27,2,0.5,0.8073038421970606,2.9279848170112865
27,2,0.25,0.7939363309475042,4.264735941966935
27,2,0.0,0.7461687725844639,9.04149177827096
27,3,1.0,0.8365836903671735,0.0
27,3,0.75,0.8399603197407668,-0.33766293735932873
27,3,0.5,0.8177473431092874,1.8836347257886077
27,3,0.25,0.7999755662940418,3.6608124073131743
27,3,0.0,0.6444682442447206,19.21154461224529
27,4,1.0,0.8365836903671735,0.0
27,4,0.75,0.8324494462585907,0.4134244108582763
27,4,0.5,0.8197260054850921,1.6857684882081392
27,4,0.25,0.8030509885348596,3.353270183231394
27,4,0.0,0.7289180315031101,10.766565886406344
27,5,1.0,0.8365836903671735,0.0
27,5,0.75,0.8320714680114193,0.4512222355754214
27,5,0.5,0.7748207880064896,6.176290236068393
27,5,0.25,0.6400313217178393,19.65523686493342
27,5,0.0,0.49153268686259616,34.50510035045774
27,6,1.0,0.8365836903671735,0.0
27,6,0.75,0.8344130280864603,0.21706622807131648
27,6,0.5,0.8273269653743891,0.9256724992784404
27,6,0.25,0.8213006616249613,1.5283028742212212
27,6,0.0,0.8145677117000646,2.2015978667108915
27,7,1.0,0.8365836903671735,0.0
27,7,0.75,0.8423342996348029,-0.5750609267629381
27,7,0.5,0.8407294955933461,-0.4145805226172583
27,7,0.25,0.8137936136883326,2.279007667884092
27,7,0.0,0.759570031999276,7.701365836789753
27,8,1.0,0.8365836903671735,0.0
27,8,0.75,0.8423270543136807,-0.5743363946507207
27,8,0.5,0.8464975663037853,-0.9913875936611749
27,8,0.25,0.8424184802609054,-0.5834789893731873
27,8,0.0,0.7829538223587597,5.3629868008413855
28,0,1.0,0.7123097605843534,0.0
28,0,0.75,0.7062966944703472,0.6013066114006205
28,0,0.5,0.6924126593669071,1.9897101217446256
28,0,0.25,0.6847688004865554,2.754096009779794
28,0,0.0,0.684831160931418,2.747859965293531
28,1,1.0,0.7123097605843534,0.0
28,1,0.75,0.7057505230083536,0.6559237575999743
28,1,0.5,0.6946639472607042,1.7645813323649118
28,1,0.25,0.6779100708791905,3.439968970516283
28,1,0.0,0.6470656892717854,6.524407131256793
28,2,1.0,0.7123097605843534,0.0
28,2,0.75,0.7057807419294195,0.6529018654933827
28,2,0.5,0.6956438055613614,1.6665955022991952
28,2,0.25,0.6811771597258314,3.1132600858521986
28,2,0.0,0.6640647204797157,4.82450401046377
28,3,1.0,0.7123097605843534,0.0
28,3,0.75,0.7199952430442449,-0.7685482459891535
28,3,0.5,0.7266704302137993,-1.4360669629445932
28,3,0.25,0.7171329326329443,-0.4823172048590951
28,3,0.0,0.6871816418121617,2.5128118772191677
28,4,1.0,0.7123097605843534,0.0
28,4,0.75,0.6926455000008694,1.9664260583483917
28,4,0.5,0.6733625154563557,3.894724512799763
28,4,0.25,0.6676361754373296,4.467358514702379
28,4,0.0,0.6672054243552779,4.51043362290755
28,5,1.0,0.7123097605843534,0.0
28,5,0.75,0.6972937707286337,1.5015989855719614
28,5,0.5,0.683961818890065,2.8347941694288337
28,5,0.25,0.569461350043291,14.284841054106234
28,5,0.0,0.5019740199000964,21.033574068425697
28,6,1.0,0.7123097605843534,0.0
28,6,0.75,0.7017813736962779,1.0528386888075447
28,6,0.5,0.7052073339991565,0.7102426585196886
28,6,0.25,0.6964926783757082,1.5817082208645195
28,6,0.0,0.702813180519366,0.9496580064987326
28,7,1.0,0.7123097605843534,0.0
28,7,0.75,0.7013534393397094,1.0956321244643963
28,7,0.5,0.6943993787365756,1.7910381847777712
28,7,0.25,0.6872455740349811,2.506418654937226
28,7,0.0,0.6523518136787588,5.995794690559453
28,8,1.0,0.7123097605843534,0.0
28,8,0.75,0.718557617289828,-0.6247856705474675
28,8,0.5,0.7109012139372898,0.140854664706358
28,8,0.25,0.6856770913577115,2.663266922664187
28,8,0.0,0.6444092497408264,6.790051084352699
29,0,1.0,0.794746370705795,0.0
29,0,0.75,0.7885631541602897,0.6183216545505354
29,0,0.5,0.722228986742581,7.2517383963214055
29,0,0.25,0.671434276754571,12.3312093951224
29,0,0.0,0.6130582611037236,18.16881096020714
29,1,1.0,0.794746370705795,0.0
29,1,0.75,0.8028648705885949,-0.811849988279989
29,1,0.5,0.7682879630095213,2.6458407696273722
29,1,0.25,0.7429529333571021,5.17934373486929
29,1,0.0,0.7219093572706367,7.283701343515836
29,2,1.0,0.794746370705795,0.0
29,2,0.75,0.7904301779917114,0.43161927140835665
29,2,0.5,0.7991752755044439,-0.44289047986488805
29,2,0.25,0.7823450806126402,1.2401290093154826
29,2,0.0,0.736332740868146,5.841362983764897
29,3,1.0,0.794746370705795,0.0
29,3,0.75,0.805749354654866,-1.1002983949070955
29,3,0.5,0.8021782237644984,-0.7431853058703419
29,3,0.25,0.7957574020746676,-0.10110313688725947
29,3,0.0,0.7920724209795448,0.26739497262502354
29,4,1.0,0.794746370705795,0.0
29,4,0.75,0.7603708909664824,3.4375479739312653
29,4,0.5,0.7306995951619353,6.404677554385973
29,4,0.25,0.690133368465719,10.461300224007598
29,4,0.0,0.6815266448385138,11.321972586728124
29,5,1.0,0.794746370705795,0.0
29,5,0.75,0.7772961769613236,1.7450193744471432
29,5,0.5,0.7389280417085916,5.58183289972034
29,5,0.25,0.6662982043388783,12.84481663669167
29,5,0.0,0.6502468092432527,14.449956146254229
29,6,1.0,0.794746370705795,0.0
29,6,0.75,0.8046969783153051,-0.9950607609510054
29,6,0.5,0.8080872256328977,-1.3340854927102686
29,6,0.25,0.8076300980158684,-1.2883727310073367
29,6,0.0,0.7917448935402789,0.3001477165516131
29,7,1.0,0.794746370705795,0.0
29,7,0.75,0.7810793000709537,1.3667070634841294
29,7,0.5,0.7635084120696916,3.123795863610346
29,7,0.25,0.7139376981614023,8.080867254439273
29,7,0.0,0.6924487107095803,10.229765999621476
29,8,1.0,0.794746370705795,0.0
29,8,0.75,0.7882454219614837,0.6500948744311286
29,8,0.5,0.7692720917095787,2.547427899621635
29,8,0.25,0.719426709622788,7.531966108300702
29,8,0.0,0.6459234960517538,14.88228746540412
30,0,1.0,0.8557071684884616,0.0
30,0,0.75,0.850691484193107,0.5015684295354594
30,0,0.5,0.8474723241511849,0.8234844337276725
30,0,0.25,0.8160525494650991,3.9654619023362536
30,0,0.0,0.7953305400061083,6.037662848235337
30,1,1.0,0.8557071684884616,0.0
30,1,0.75,0.8310398100681775,2.4667358420284113
30,1,0.5,0.8005965537341029,5.511061475435874
30,1,0.25,0.7848351787148552,7.087198977360643
30,1,0.0,0.7427199738053107,11.298719468315088
30,2,1.0,0.8557071684884616,0.0
30,2,0.75,0.8404029058233167,1.5304262665144952
30,2,0.5,0.833531552025925,2.217561646253663
30,2,0.25,0.8160850579314775,3.962211055698417
30,2,0.0,0.7795070426649373,7.620012582352431
30,3,1.0,0.8557071684884616,0.0
30,3,0.75,0.8261310629795537,2.957610550890788
30,3,0.5,0.8254966952471946,3.021047324126702
30,3,0.25,0.7924441681704366,6.326300031802501
30,3,0.0,0.7730068071665113,8.270036132195035
30,4,1.0,0.8557071684884616,0.0
30,4,0.75,0.8477440332858289,0.7963135202632698
30,4,0.5,0.8410743581874183,1.4632810301043353
30,4,0.25,0.8105816428307535,4.512552565770811
30,4,0.0,0.7866335632839988,6.907360520446282
30,5,1.0,0.8557071684884616,0.0
30,5,0.75,0.8598497875453158,-0.4142619056854202
30,5,0.5,0.8468608347532284,0.8846333735233247
30,5,0.25,0.7782870946182208,7.742007387024086
30,5,0.0,0.731414308164088,12.429286032437359
30,6,1.0,0.8557071684884616,0.0
30,6,0.75,0.8609430276458607,-0.5235859157399103
30,6,0.5,0.8593980732931531,-0.3690904804691475
30,6,0.25,0.856084609880968,-0.037744139250639464
30,6,0.0,0.8235333479460901,3.21738205423715
30,7,1.0,0.8557071684884616,0.0
30,7,0.75,0.8262254664756893,2.9481702012772337
30,7,0.5,0.8155295960790048,4.017757240945685
30,7,0.25,0.7657505239104591,8.995664457800256
30,7,0.0,0.723702492713598,13.200467577486364
30,8,1.0,0.8557071684884616,0.0
30,8,0.75,0.844514387268279,1.1192781220182635
30,8,0.5,0.8470951356732361,0.861203281522549
30,8,0.25,0.8226035949442692,3.3103573544192466
30,8,0.0,0.7625653975984307,9.314177089003095
31,0,1.0,0.7051461915958134,0.0
31,0,0.75,0.6987683474975341,0.637784409827924
31,0,0.5,0.6863234610772453,1.8822730518568087
31,0,0.25,0.6658078909591456,3.9338300636667767
31,0,0.0,0.6392245131314029,6.592167846441043
31,1,1.0,0.7051461915958134,0.0
31,1,0.75,0.6988258081758026,0.6320383420010733
31,1,0.5,0.6868107937611443,1.8335397834669087
31,1,0.25,0.6538318326480771,5.131435894773628
31,1,0.0,0.6195948730958201,8.55513184999933
31,2,1.0,0.7051461915958134,0.0
31,2,0.75,0.7133733178248237,-0.822712622901034
31,2,0.5,0.7054085476404237,-0.026235604461033457
31,2,0.25,0.6562246400099564,4.892155158585698
31,2,0.0,0.624627667197723,8.051852439809037
31,3,1.0,0.7051461915958134,0.0
31,3,0.75,0.7141291490124546,-0.8982957416641235
31,3,0.5,0.6987797284671495,0.6366463128663846
31,3,0.25,0.6677863234457957,3.7359868150017683
31,3,0.0,0.6428522730525551,6.2293918543258275
31,4,1.0,0.7051461915958134,0.0
31,4,0.75,0.7358974943648353,-3.0751302769021938
31,4,0.5,0.7213729850994577,-1.622679350364431
31,4,0.25,0.7123131316959014,-0.7166940100088004
31,4,0.0,0.6793610723451684,2.5785119250644972
31,5,1.0,0.7051461915958134,0.0
31,5,0.75,0.6862711595498081,1.887503204600527
31,5,0.5,0.6221413000286471,8.300489156716628
31,5,0.25,0.5889892083764747,11.615698321933865
31,5,0.0,0.5630152195073788,14.213097208843461
31,6,1.0,0.7051461915958134,0.0
31,6,0.75,0.710096807345991,-0.4950615750177634
31,6,0.5,0.7046448271569953,0.05013644388180971
31,6,0.25,0.6991994079535819,0.5946783642231446
31,6,0.0,0.6749361731547004,3.021001844111293
31,7,1.0,0.7051461915958134,0.0
31,7,0.75,0.7012613008030235,0.38848907927898635
31,7,0.5,0.6752378235710408,2.990836802477259
31,7,0.25,0.6093825757028294,9.576361589298399
31,7,0.0,0.4695583723888345,23.558781920697886
31,8,1.0,0.7051461915958134,0.0
31,8,0.75,0.6944496128675591,1.0696578728254247
31,8,0.5,0.6656289211885895,3.951727040722386
31,8,0.25,0.6304416156461293,7.470457594968405
31,8,0.0,0.5990752766660794,10.607091492973398
32,0,1.0,0.6347566130794775,0.0
32,0,0.75,0.6223082971752228,1.2448315904254659
32,0,0.5,0.5950383611097897,3.9718251969687812
32,0,0.25,0.5922922681911291,4.246434488834838
32,0,0.0,0.5757461632354758,5.901044984400173
32,1,1.0,0.6347566130794775,0.0
32,1,0.75,0.6219241492313863,1.2832463848091225
32,1,0.5,0.6168751894904182,1.7881423589059309
32,1,0.25,0.6046964876813596,3.0060125398117865
32,1,0.0,0.6076192856889512,2.7137327390526322
32,2,1.0,0.6347566130794775,0.0
32,2,0.75,0.6494151360833262,-1.4658523003848734
32,2,0.5,0.6550616592602141,-2.0305046180736586
32,2,0.25,0.6526876499936844,-1.7931036914206944
32,2,0.0,0.6130905629992034,2.1666050080274113
32,3,1.0,0.6347566130794775,0.0
32,3,0.75,0.6471836041953687,-1.2426991115891184
32,3,0.5,0.6439470499317698,-0.9190436852292261
32,3,0.25,0.6419438817652093,-0.7187268685731829
32,3,0.0,0.6394449835125291,-0.4688370433051592
32,4,1.0,0.6347566130794775,0.0
32,4,0.75,0.6348420687636133,-0.00854556841357601
32,4,0.5,0.6260438511365204,0.8712761942957115
32,4,0.25,0.6089562578561757,2.580035522330182
32,4,0.0,0.5880024862543108,4.675412682516667
32,5,1.0,0.6347566130794775,0.0
32,5,0.75,0.6431910661649767,-0.8434453085499172
32,5,0.5,0.642386799264766,-0.7630186185288546
32,5,0.25,0.6061340100619328,2.862260301754471
32,5,0.0,0.5586831647802112,7.607344829926632
32,6,1.0,0.6347566130794775,0.0
32,6,0.75,0.6437284565627702,-0.8971843483292719
32,6,0.5,0.6373703891449328,-0.261377606545532
32,6,0.25,0.6392147833589957,-0.44581702795182254
32,6,0.0,0.6271936408737796,0.7562972205697904
32,7,1.0,0.6347566130794775,0.0
32,7,0.75,0.6365749294952834,-0.18183164158058762
32,7,0.5,0.630589837289766,0.41667757897114743
32,7,0.25,0.6008791222786225,3.3877490800855004
32,7,0.0,0.5537203636934966,8.103624938598086
32,8,1.0,0.6347566130794775,0.0
32,8,0.75,0.6142353521066393,2.052126097283824
32,8,0.5,0.6104902452851613,2.4266367794316235
32,8,0.25,0.5963446743954512,3.841193868402626
32,8,0.0,0.6039605425258769,3.0796070553600563
33,0,1.0,0.8347844848203796,0.0
33,0,0.75,0.8365277654737138,-0.17432806533341783
33,0,0.5,0.7998098990253918,3.49745857949878
33,0,0.25,0.7479901307286356,8.679435409174395
33,0,0.0,0.6700435485370371,16.474093628334252
33,1,1.0,0.8347844848203796,0.0
33,1,0.75,0.8347151520397289,0.006933278065068826
33,1,0.5,0.8234853554702993,1.1299129350080261
33,1,0.25,0.817143472572688,1.7641012247691545
33,1,0.0,0.8009139367185081,3.387054810187151
33,2,1.0,0.8347844848203796,0.0
33,2,0.75,0.8332371945447165,0.1547290275663138
33,2,0.5,0.8154369777323337,1.934750708804589
33,2,0.25,0.797812260384007,3.6972224436372603
33,2,0.0,0.7605622242453718,7.42222605750078
33,3,1.0,0.8347844848203796,0.0
33,3,0.75,0.8481946044519273,-1.3410119631547701
33,3,0.5,0.8295290339715108,0.5255450848868803
33,3,0.25,0.795658800854443,3.912568396593663
33,3,0.0,0.7652701434687038,6.9514341351675775
33,4,1.0,0.8347844848203796,0.0
33,4,0.75,0.8342520671824187,0.053241763796085806
33,4,0.5,0.8183803971544165,1.640408766596313
33,4,0.25,0.7827601005047473,5.202438431563228
33,4,0.0,0.7560122927151225,7.87721921052571
33,5,1.0,0.8347844848203796,0.0
33,5,0.75,0.8211812218502001,1.3603262970179442
33,5,0.5,0.7367205898448577,9.806389497552193
33,5,0.25,0.6248688524590165,20.99156323613631
33,5,0.0,0.44522311976895695,38.95613650514226
33,6,1.0,0.8347844848203796,0.0
33,6,0.75,0.8288999603669072,0.5884524453472428
33,6,0.5,0.7997663478200512,3.501813700032841
33,6,0.25,0.7791907424430283,5.559374237735126
33,6,0.0,0.7395868765790182,9.519760824136137
33,7,1.0,0.8347844848203796,0.0
33,7,0.75,0.8262991806634059,0.8485304156973683
33,7,0.5,0.8136011015489855,2.118338327139413
33,7,0.25,0.7272826786726867,10.750180614769288
33,7,0.0,0.6583296322836818,17.64548525366978
33,8,1.0,0.8347844848203796,0.0
33,8,0.75,0.8356589959139603,-0.0874511093580721
33,8,0.5,0.8170385035859014,1.7745981234478236
33,8,0.25,0.7839113619840621,5.087312283631751
33,8,0.0,0.6426794766843255,19.210500813605414
34,0,1.0,0.8359411554234444,0.0
34,0,0.75,0.8460271385121406,-1.0085983088696238
34,0,0.5,0.8344370141403976,0.1504141283046767
34,0,0.25,0.7894196981600272,4.6521457263417165
34,0,0.0,0.743120755535628,9.282039988781642
34,1,1.0,0.8359411554234444,0.0
34,1,0.75,0.844993981952578,-0.905282652913364
34,1,0.5,0.8473138172763401,-1.137266185289576
34,1,0.25,0.8240604474059972,1.1880708017447228
34,1,0.0,0.7834998865607845,5.244126886265987
34,2,1.0,0.8359411554234444,0.0
34,2,0.75,0.8435337351557266,-0.7592579732282223
34,2,0.5,0.8355887498744641,0.035240554898030574
34,2,0.25,0.8226234869417017,1.331766848174265
34,2,0.0,0.7665984756637565,6.934267975968789
34,3,1.0,0.8359411554234444,0.0
34,3,0.75,0.8626081629482841,-2.6667007524839748
34,3,0.5,0.845467374001738,-0.952621857829361
34,3,0.25,0.8306462301842849,0.5294925239159531
34,3,0.0,0.7957909296047925,4.015022581865191
34,4,1.0,0.8359411554234444,0.0
34,4,0.75,0.8230994152046783,1.2841740218766051
34,4,0.5,0.8168893981392698,1.905175728417463
34,4,0.25,0.8001028394250653,3.5838315998379056
34,4,0.0,0.7738253553024048,6.211580012103957
34,5,1.0,0.8359411554234444,0.0
34,5,0.75,0.8219763012089427,1.3964854214501665
34,5,0.5,0.8127135387671786,2.3227616656265826
34,5,0.25,0.7910323477938705,4.490880762957383
34,5,0.0,0.7688433447865394,6.709781063690501
34,6,1.0,0.8359411554234444,0.0
34,6,0.75,0.8300051365719698,0.5936018851474545
34,6,0.5,0.8243444188267077,1.1596736596736656
34,6,0.25,0.8177603067827339,1.8180848640710456
34,6,0.0,0.8107901189206049,2.5151036502839452
34,7,1.0,0.8359411554234444,0.0
34,7,0.75,0.8391000671230682,-0.315891169962379
34,7,0.5,0.8061491081382386,2.979204728520579
34,7,0.25,0.6665346965729981,16.940645885044624
34,7,0.0,0.6223868903295101,21.35542650939343
34,8,1.0,0.8359411554234444,0.0
34,8,0.75,0.8293041697734795,0.6636985649964844
34,8,0.5,0.8259256790971325,1.0015476326311834
34,8,0.25,0.7682884606074246,6.765269481601976
34,8,0.0,0.6842077621382382,15.173339328520619
35,0,1.0,0.6891468732508098,0.0
35,0,0.75,0.6641317401762468,2.5015133074563045
35,0,0.5,0.6552608607377678,3.388601251304202
35,0,0.25,0.6301100336234978,5.903683962731199
35,0,0.0,0.602953405111634,8.619346813917584
35,1,1.0,0.6891468732508098,0.0
35,1,0.75,0.6685197298430057,2.062714340780414
35,1,0.5,0.6502167008958556,3.893017235495422
35,1,0.25,0.6345130339870007,5.463383926380915
35,1,0.0,0.6203055323794225,6.884134087138727
35,2,1.0,0.6891468732508098,0.0
35,2,0.75,0.6912000718965243,-0.20531986457145157
35,2,0.5,0.6956056284932545,-0.6458755242444658
35,2,0.25,0.6881581649354237,0.09887083153861109
35,2,0.0,0.6640976843617846,2.5049188889025187
35,3,1.0,0.6891468732508098,0.0
35,3,0.75,0.6900674536896207,-0.09205804388109362
35,3,0.5,0.6692479212344604,1.9898952016349392
35,3,0.25,0.6316214822361892,5.752539101462062
35,3,0.0,0.609518303666031,7.962856958477882
35,4,1.0,0.6891468732508098,0.0
35,4,0.75,0.6944294000880673,-0.5282526837257495
35,4,0.5,0.680139308293291,0.9007564957518865
35,4,0.25,0.6630956144342812,2.605125881652859
35,4,0.0,0.6467799799108827,4.236689333992716
35,5,1.0,0.6891468732508098,0.0
35,5,0.75,0.6935298981074142,-0.4383024856604356
35,5,0.5,0.6993260690692376,-1.0179195818427744
35,5,0.25,0.6912624591931329,-0.21155859423230838
35,5,0.0,0.6816912964328876,0.7455576817922194
35,6,1.0,0.6891468732508098,0.0
35,6,0.75,0.6882208142313638,0.09260590194459795
35,6,0.5,0.6878665998795227,0.12802733712871106
35,6,0.25,0.6859313530097277,0.32155202410820705
35,6,0.0,0.6872569459624854,0.18899272883243778
35,7,1.0,0.6891468732508098,0.0
35,7,0.75,0.6788712868565495,1.0275586394260294
35,7,0.5,0.6786928705496742,1.0454002701135612
35,7,0.25,0.6758619572769962,1.328491597381365
35,7,0.0,0.6719570085301796,1.7189864720630221
35,8,1.0,0.6891468732508098,0.0
35,8,0.75,0.6799227703191119,0.9224102931697953
35,8,0.5,0.683489038525791,0.5657834725018795
35,8,0.25,0.6724359098368371,1.6710963413972713
35,8,0.0,0.6607274948809956,2.841937836981423
36,0,1.0,0.6740911881994177,0.0
36,0,0.75,0.6530417537754327,2.104943442398499
36,0,0.5,0.6269134413117734,4.717774688764431
36,0,0.25,0.6269238663635215,4.716732183589622
36,0,0.0,0.6194020757013625,5.468911249805519
36,1,1.0,0.6740911881994177,0.0
36,1,0.75,0.6534289552807506,2.066223291866709
36,1,0.5,0.6464489092287632,2.764227897065452
36,1,0.25,0.6364689441984243,3.7622244000993454
36,1,0.0,0.6180898562186453,5.6001331980772395
36,2,1.0,0.6740911881994177,0.0
36,2,0.75,0.663380762227991,1.0710425971426685
36,2,0.5,0.6418423329783054,3.2248855221112316
36,2,0.25,0.6487231880912684,2.5368000108149324
36,2,0.0,0.6240869740798911,5.00042141195266
36,3,1.0,0.6740911881994177,0.0
36,3,0.75,0.6583730041450043,1.5718184054413387
36,3,0.5,0.6608244560733522,1.326673212606555
36,3,0.25,0.6667425158150677,0.7348672384349997
36,3,0.0,0.653712723394875,2.037846480454275
36,4,1.0,0.6740911881994177,0.0
36,4,0.75,0.6617368084428988,1.2354379756518874
36,4,0.5,0.6397274224191912,3.4363765780226485
36,4,0.25,0.6215673589415748,5.2523829257842936
36,4,0.0,0.6034541145197463,7.063707367967142
36,5,1.0,0.6740911881994177,0.0
36,5,0.75,0.6961166859249805,-2.2025497725562837
36,5,0.5,0.7031713098746926,-2.908012167527485
36,5,0.25,0.7050695908716988,-3.0978402672281136
36,5,0.0,0.732335432536736,-5.824424433731834
36,6,1.0,0.6740911881994177,0.0
36,6,0.75,0.6693847237703007,0.4706464429117041
36,6,0.5,0.6591642692251312,1.4926918974286552
36,6,0.25,0.6337588576719011,4.033233052751662
36,6,0.0,0.6097727217494332,6.431846644998451
36,7,1.0,0.6740911881994177,0.0
36,7,0.75,0.6855706795529121,-1.1479491353494353
36,7,0.5,0.6889570522011306,-1.4865864001712858
36,7,0.25,0.655324794331895,1.8766393867522657
36,7,0.0,0.5965537260162854,7.753746218313228
36,8,1.0,0.6740911881994177,0.0
36,8,0.75,0.6642149808028194,0.9876207396598335
36,8,0.5,0.6567511590431873,1.7340029156230452
36,8,0.25,0.6431541223097075,3.0937065889710236
36,8,0.0,0.6333108344021402,4.078035379727751
37,0,1.0,0.8313477352566392,0.0
37,0,0.75,0.8251547416954049,0.6192993561234261
37,0,0.5,0.8176910835328682,1.3656651723770952
37,0,0.25,0.7777777777777778,5.35699574788614
37,0,0.0,0.7511521855317832,8.019554972485599
37,1,1.0,0.8313477352566392,0.0
37,1,0.75,0.8339416473908237,-0.2593912134184473
37,1,0.5,0.821290033059958,1.0057702196681229
37,1,0.25,0.8036252958566042,2.7722439400034937
37,1,0.0,0.7837928524718127,4.755488278482645
37,2,1.0,0.8313477352566392,0.0
37,2,0.75,0.8280520334220276,0.32957018346115863
37,2,0.5,0.7935492779962825,3.779845726035669
37,2,0.25,0.7631157027797884,6.8232032476850835
37,2,0.0,0.7394023357402286,9.194539951641056
37,3,1.0,0.8313477352566392,0.0
37,3,0.75,0.8229022476145239,0.8445487642115279
37,3,0.5,0.8202496675239308,1.1098067732708383
37,3,0.25,0.8152596732129367,1.60880620437025
37,3,0.0,0.8154451049638457,1.5902630292793485
37,4,1.0,0.8313477352566392,0.0
37,4,0.75,0.8341978413581982,-0.28501061015590023
37,4,0.5,0.8083984904566507,2.29492447999885
37,4,0.25,0.7671335205947899,6.421421466184929
37,4,0.0,0.7310716400550519,10.02760952015873
37,5,1.0,0.8313477352566392,0.0
37,5,0.75,0.8445216728444159,-1.317393758777674
37,5,0.5,0.7769346255572902,5.441310969934898
37,5,0.25,0.6214600145134604,20.988772074317875
37,5,0.0,0.44112628799201203,39.02214472646271
37,6,1.0,0.8313477352566392,0.0
37,6,0.75,0.8214714842148824,0.9876251041756823
37,6,0.5,0.8170430234155723,1.4304711841066853
37,6,0.25,0.8070216448296266,2.4326090427012614
37,6,0.0,0.8020833333333333,2.9264401923305927
37,7,1.0,0.8313477352566392,0.0
37,7,0.75,0.8251862459790849,0.6161489277554333
37,7,0.5,0.8003552112234533,3.0992524033185864
37,7,0.25,0.7717758682403963,5.957186701624284
37,7,0.0,0.7571542267898543,7.419350846678485
37,8,1.0,0.8313477352566392,0.0
37,8,0.75,0.8265653675071805,0.4782367749458727
37,8,0.5,0.8152825140161593,1.6065221240479932
37,8,0.25,0.7856579505836895,4.56897846729497
37,8,0.0,0.738427293569411,9.292044168722825
38,0,1.0,0.8393012400923167,0.0
38,0,0.75,0.8350049400518037,0.4296300040512957
38,0,0.5,0.828027016004003,1.127422408831369
38,0,0.25,0.7914193225269962,4.788191756532045
38,0,0.0,0.7642105921253717,7.5090647966944974
38,1,1.0,0.8393012400923167,0.0
38,1,0.75,0.8456085059239773,-0.6307265831660636
38,1,0.5,0.8240055711309299,1.5295668961386788
38,1,0.25,0.7788024154253657,6.0498824666951005
38,1,0.0,0.7262638469917843,11.30373931005324
38,2,1.0,0.8393012400923167,0.0
38,2,0.75,0.848983792784782,-0.9682552692465318
38,2,0.5,0.8309814163622189,0.8319823730097764
38,2,0.25,0.7977942163260535,4.150702376626314
38,2,0.0,0.7596460735792254,7.965516651309123
38,3,1.0,0.8393012400923167,0.0
38,3,0.75,0.8462173980048533,-0.6916157912536636
38,3,0.5,0.8414417693908764,-0.214052929855979
38,3,0.25,0.8074550075546659,3.184623253765073
38,3,0.0,0.7633783470853853,7.592289300693134
38,4,1.0,0.8393012400923167,0.0
38,4,0.75,0.8307795093412167,0.8521730751099965
38,4,0.5,0.8243799253139872,1.4921314778329475
38,4,0.25,0.7791561279697916,6.014511212252504
38,4,0.0,0.6888353430601535,15.046589703216318
38,5,1.0,0.8393012400923167,0.0
38,5,0.75,0.8339329105661282,0.5368329526188487
38,5,0.5,0.7831929223576309,5.610831773468572
38,5,0.25,0.6733375325187847,16.596370757353196
38,5,0.0,0.5768692042562802,26.24320358360365
38,6,1.0,0.8393012400923167,0.0
38,6,0.75,0.8331519832983039,0.6149256794012792
38,6,0.5,0.8232748116810987,1.602642841121793
38,6,0.25,0.8066529916451239,3.264824844719272
38,6,0.0,0.7026225035616608,13.667873653065588
38,7,1.0,0.8393012400923167,0.0
38,7,0.75,0.845670268451686,-0.6369028359369366
38,7,0.5,0.8375980806373733,0.17031594549433704
38,7,0.25,0.8377528226157998,0.15484174765169056
38,7,0.0,0.7796395568993804,5.9661683192936295
38,8,1.0,0.8393012400923167,0.0
38,8,0.75,0.8391003984382591,0.02008416540575375
38,8,0.5,0.827900099805193,1.140114028712369
38,8,0.25,0.8113686303799604,2.7932609712356227
38,8,0.0,0.7786122240216141,6.068901607070254
39,0,1.0,0.719670009482882,0.0
39,0,0.75,0.6409742594359055,7.869575004697649
39,0,0.5,0.6029815151107984,11.668849437208351
39,0,0.25,0.5560014712467999,16.366853823608206
39,0,0.0,0.5447013548572655,17.49686546256165
39,1,1.0,0.719670009482882,0.0
39,1,0.75,0.7126408718062879,0.7029137676594077
39,1,0.5,0.6909430395710957,2.872696991178625
39,1,0.25,0.6858054138624791,3.3864595620402893
39,1,0.0,0.6866775332276545,3.29924762552275
39,2,1.0,0.719670009482882,0.0
39,2,0.75,0.7394900502209713,-1.9820040738089295
39,2,0.5,0.7222888311181304,-0.2618821635248403
39,2,0.25,0.7024088595731555,1.7261149909726492
39,2,0.0,0.6712979901529949,4.837201932988711
39,3,1.0,0.719670009482882,0.0
39,3,0.75,0.6928131582520858,2.6856851230796175
39,3,0.5,0.6726968969528694,4.697311253001257
39,3,0.25,0.6306365677507164,8.903344173216555
39,3,0.0,0.6056600648038326,11.400994467904935
39,4,1.0,0.719670009482882,0.0
39,4,0.75,0.7354387741588979,-1.5768764676015956
39,4,0.5,0.7241012397015525,-0.44312302186705343
39,4,0.25,0.7025784476432863,1.7091561839595704
39,4,0.0,0.6200939372437914,9.95760722390906
39,5,1.0,0.719670009482882,0.0
39,5,0.75,0.6611221176389717,5.854789184391029
39,5,0.5,0.6041242333480324,11.554577613484952
39,5,0.25,0.45576260057967377,26.390740890320817
39,5,0.0,0.3309810596685223,38.868894981435965
39,6,1.0,0.719670009482882,0.0
39,6,0.75,0.7041524242679132,1.551758521496871
39,6,0.5,0.690269874776282,2.9400134706599967
39,6,0.25,0.6511299067232621,6.854010275961986
39,6,0.0,0.6238665789215384,9.580343056134355
39,7,1.0,0.719670009482882,0.0
39,7,0.75,0.7373859139005267,-1.7715904417644701
39,7,0.5,0.7332809040902544,-1.3610894607372415
39,7,0.25,0.7079536019536019,1.1716407529280048
39,7,0.0,0.6898455073612018,2.9824502121680196
39,8,1.0,0.719670009482882,0.0
39,8,0.75,0.7509651054462319,-3.1295095963349895
39,8,0.5,0.7247579473588702,-0.5087937875988269
39,8,0.25,0.6891613390471848,3.050867043569716
39,8,0.0,0.6953512846953949,2.431872478748709
40,0,1.0,0.7471248608774347,0.0
40,0,0.75,0.7637237534678676,-1.65988925904329
40,0,0.5,0.7449698073591385,0.2155053518296146
40,0,0.25,0.708531253511487,3.8593607365947635
40,0,0.0,0.6778748175635552,6.925004331387951
40,1,1.0,0.7471248608774347,0.0
40,1,0.75,0.7418642166102541,0.5260644267180536
40,1,0.5,0.7317327396138879,1.5392121263546832
40,1,0.25,0.7251864683959969,2.1938392481437807
40,1,0.0,0.7220638144066136,2.506104647082108
40,2,1.0,0.7471248608774347,0.0
40,2,0.75,0.7555038480879449,-0.8378987210510225
40,2,0.5,0.7361581874288354,1.0966673448599251
40,2,0.25,0.724336673215517,2.2788187661917703
40,2,0.0,0.7322387278319482,1.4886133045486472
40,3,1.0,0.7471248608774347,0.0
40,3,0.75,0.7574913568310861,-1.0366495953651467
40,3,0.5,0.7560997605458224,-0.8974899668387715
40,3,0.25,0.7558881086470648,-0.8763247769630111
40,3,0.0,0.7409437073693618,0.6181153508072912
40,4,1.0,0.7471248608774347,0.0
40,4,0.75,0.7433928057644744,0.3732055112960264
40,4,0.5,0.7266254321836118,2.049942869382293
40,4,0.25,0.7212470974685293,2.587776340890535
40,4,0.0,0.7199734812983284,2.7151379579106294
40,5,1.0,0.7471248608774347,0.0
40,5,0.75,0.7512976758128496,-0.41728149354148814
40,5,0.5,0.7318890586928051,1.523580218462961
40,5,0.25,0.7289998949509445,1.8124965926490155
40,5,0.0,0.7029906634153447,4.4134197462090015
40,6,1.0,0.7471248608774347,0.0
40,6,0.75,0.7621859793880503,-1.5061118510615645
40,6,0.5,0.762481092222743,-1.535623134530828
40,6,0.25,0.7423102200412152,0.4814640836219519
40,6,0.0,0.7259018012839502,2.1223059593484472
40,7,1.0,0.7471248608774347,0.0
40,7,0.75,0.7386694067787104,0.845545409872428
40,7,0.5,0.712423259657773,3.4701601219661704
40,7,0.25,0.6457963938741316,10.132846700330312
40,7,0.0,0.55920352613266,18.792133474477467
40,8,1.0,0.7471248608774347,0.0
40,8,0.75,0.7517728290530662,-0.46479681756315117
40,8,0.5,0.7186795927991503,2.8445268078284403
40,8,0.25,0.6352589375992086,11.18659232782261
40,8,0.0,0.5890570446699768,15.806781620745792
