subject,channel,r,f1_drop_mean,f1_drop_sd
1,0,5,0.08075123508266373,0.014904846284880298
1,1,5,0.09756098406775697,0.01325313468119305
1,2,5,0.0796062258318688,0.013893424913448587
1,3,5,0.0831237573447517,0.011056758055902616
1,4,5,0.034717414029267556,0.0026303736555934125
1,5,5,0.025804549741166537,0.0023751380262520294
1,6,5,0.0037301285482079114,0.016108673737447208
1,7,5,0.08737413361752644,0.005445302056905279
1,8,5,0.10974179477401384,0.007700745408316378
2,0,5,0.12598286651739957,0.02273635161225765
2,1,5,0.15412897307131554,0.020273657939637743
2,2,5,0.08209663333646382,0.02725963586768117
2,3,5,0.13290353669019225,0.009513726070845373
2,4,5,0.06223306497318015,0.011188145965634127
2,5,5,0.1373079424349835,0.02546848842394988
2,6,5,0.09347197147938438,0.013294588913473666
2,7,5,0.228372690460505,0.018261120248067822
2,8,5,0.19183196675307795,0.012391152477444465
3,0,5,0.14558414041668788,0.014898877014967475
3,1,5,0.12054183234876222,0.010535664692722923
3,2,5,0.09519556543473937,0.02164394800257535
3,3,5,0.2048655814890795,0.008939292914528732
3,4,5,0.11872071690274644,0.014522617556894608
3,5,5,0.1911500404348175,0.009546956611155233
3,6,5,0.050281494346454014,0.010192188490248432
3,7,5,0.1347462347358029,0.010948364134422997
3,8,5,0.17437179166798286,0.013523920035648115
4,0,5,0.17148279361083713,0.019582201256925502
4,1,5,0.17984572462058118,0.011010986069193401
4,2,5,0.19157192585395413,0.011375974358044046
4,3,5,0.1646744133473504,0.006207097260617399
4,4,5,0.09639287817292737,0.009118319171937657
4,5,5,0.20517521799119914,0.011488846430433313
4,6,5,0.07267892903824558,0.014188079405330734
4,7,5,0.14896865784585836,0.018722301516833403
4,8,5,0.16403383560903945,0.00926042589398266
5,0,5,0.04674668490949063,0.007059928059728263
5,1,5,0.06893938070851426,0.00635214890545498
5,2,5,0.09952190702398617,0.015884576311123628
5,3,5,0.04470510570210694,0.019048377352864902
5,4,5,0.05374419591842981,0.011303867976134616
5,5,5,0.05264370126337235,0.01458219344398836
5,6,5,0.007890052007209858,0.0043062053215159974
5,7,5,0.05203952931296453,0.008596979993126672
5,8,5,0.08272080503450843,0.011961811242532852
6,0,5,0.08006252747152523,0.006432624336901237
6,1,5,0.14536030778062034,0.01584895630799046
6,2,5,0.05633764126990417,0.0073235630333040175
6,3,5,0.04189812095176173,0.015284521069792667
6,4,5,0.06824299463584904,0.016707375353079347
6,5,5,0.12919388394147915,0.014417834299439845
6,6,5,0.04936347371500811,0.01610978156770429
6,7,5,0.19231991655869002,0.010309573479497791
6,8,5,0.1246346859628209,0.009051615436208898
7,0,5,0.14542082406886497,0.0059684808261083536
7,1,5,0.1501698813015287,0.010176941374964506
7,2,5,0.13579834877005295,0.01012111914824314
7,3,5,0.12099259780841065,0.01605482048108484
7,4,5,0.10728642451644217,0.008360592364896353
7,5,5,0.15911016418840054,0.013683087772123436
7,6,5,0.11417344814208892,0.011108354305922373
7,7,5,0.17881229866998533,0.010927762179407125
7,8,5,0.16109707767247589,0.020149953113598237
8,0,5,0.10565472185907024,0.007079404385821541
8,1,5,0.09815274428707328,0.008995205729007735
8,2,5,0.11384824547061563,0.013313005000454467
8,3,5,0.13109252664425006,0.0105920728019878
8,4,5,0.11282601793883525,0.02598071097824631
8,5,5,0.2385986475578786,0.02621120592839719
8,6,5,0.07579000096496272,0.011953753843288496
8,7,5,0.15011930583780003,0.010567533652187154
8,8,5,0.15622142618181706,0.005592324695397938
9,0,5,0.07853340256246906,0.014108236472088212
9,1,5,0.12727414128337305,0.014335172109207052
9,2,5,0.11062524547276338,0.0074008264319716
9,3,5,0.05111701235867101,0.007375735320022339
9,4,5,0.07561727301855956,0.008985223409161459
9,5,5,0.11867197636557932,0.0063246794278425805
9,6,5,0.060280586514876534,0.007945504225310165
9,7,5,0.14590895534195997,0.011471201034291615
9,8,5,0.07817563754115939,0.01263274388376913
10,0,5,0.20402027583278612,0.02270038525102862
10,1,5,0.11705687727374654,0.014147348350765546
10,2,5,0.1073372332839502,0.013086597047858868
10,3,5,0.17382004368498843,0.011162884952006508
10,4,5,0.1152530285059206,0.012730838570403254
10,5,5,0.07891203696121633,0.01247969811695595
10,6,5,0.10119201025565856,0.017030783968177633
10,7,5,0.15695223219155902,0.009864002536432298
10,8,5,0.1507738771852144,0.014649837178694152
11,0,5,0.1269320053972121,0.013161873910467043
11,1,5,0.17551074404682102,0.023912557904824383
11,2,5,0.16066713764933727,0.01535145510882293
11,3,5,0.12185617693300241,0.009786253623779684
11,4,5,0.08815851886516377,0.010494499944143186
11,5,5,0.1856618818876127,0.014844044451363213
11,6,5,0.0396878527693413,0.007784667933127976
11,7,5,0.22481908756311314,0.018459837593113516
11,8,5,0.20669857392936106,0.021953949999511595
12,0,5,0.10879819103615154,0.006077829004080644
12,1,5,0.2206158582604525,0.006058482807605365
12,2,5,0.16892585617782094,0.01728198357378089
12,3,5,0.19538382879521138,0.021928530408161718
12,4,5,0.1781550796746543,0.012938860398185563
12,5,5,0.09780544288801019,0.014584810427942968
12,6,5,0.06279430100874658,0.0077976583247898745
12,7,5,0.16314677649761916,0.009952116083815911
12,8,5,0.14359169251417417,0.005958717730657006
13,0,5,0.11623811504948582,0.008735464936150693
13,1,5,0.07098822512130269,0.013758881548179999
13,2,5,0.14947402739214677,0.015804945022818807
13,3,5,0.058752479679756095,0.006462203581758714
13,4,5,0.12908929571974828,0.009648690957051205
13,5,5,0.2188223842539032,0.008894754244971164
13,6,5,0.09235875164525967,0.01605799608832351
13,7,5,0.15370438613377158,0.007073796695345667
13,8,5,0.19495200741265556,0.004880467084119426
14,0,5,0.10868372333676737,0.012958099657685405
14,1,5,0.12398816536787496,0.014076642591299244
14,2,5,0.08590241018702313,0.005713620489536024
14,3,5,0.10689822806894253,0.010222056904108599
14,4,5,0.09368192364980395,0.00714591197657824
14,5,5,0.16989418735830739,0.01675443746797577
14,6,5,0.04388604962563547,0.013269068850001613
14,7,5,0.10732909596350296,0.011982753080589485
14,8,5,0.16398126363148435,0.026798237810501037
15,0,5,0.2129377267325201,0.015474390181994317
15,1,5,0.17626477582064018,0.01205924694604535
15,2,5,0.18203257223310784,0.008017516885756673
15,3,5,0.09850777557836261,0.018001302177209043
15,4,5,0.15665461322623997,0.021486807026957332
15,5,5,0.20307738112207555,0.014089546207404248
15,6,5,0.14616882225044914,0.008102052047070788
15,7,5,0.12286063722376524,0.011572100940226981
15,8,5,0.11872938812211811,0.014641169396491353
16,0,5,0.18302490678700478,0.016352453309221266
16,1,5,0.13214105247125604,0.016072863103968615
16,2,5,0.16559806294498497,0.005495900422932171
16,3,5,0.14503476987609126,0.015679742465145474
16,4,5,0.17981638585922144,0.013308624335340816
16,5,5,0.20550066331435674,0.019104261367419592
16,6,5,0.046554795265116966,0.00954167461358102
16,7,5,0.18017458822408022,0.013281181291229613
16,8,5,0.1946021319677294,0.012354272307644283
17,0,5,0.25052571860175743,0.010504426557005741
17,1,5,0.2505977868305937,0.006343695771682468
17,2,5,0.1735353520871652,0.008166021808225036
17,3,5,0.1633319449491544,0.022896169579770732
17,4,5,0.1534463936508704,0.0058508294724079375
17,5,5,0.21810503003825996,0.013483754389821712
17,6,5,0.10003237572202903,0.0073812532185445175
17,7,5,0.160800364693304,0.011486229800640074
17,8,5,0.23402056383993736,0.010731087388025688
18,0,5,0.09978892064918374,0.007923833150076996
18,1,5,0.04895897152518551,0.0036865833555531427
18,2,5,0.06400412481042443,0.007341879309249604
18,3,5,0.10189080746049486,0.018638430639906403
18,4,5,0.0986427523117011,0.01386572617439276
18,5,5,0.13704730298810247,0.005307741659775122
18,6,5,0.010090863038079,0.012853306604317364
18,7,5,0.10707223944077875,0.011422532431764276
18,8,5,0.06699921715089874,0.0128244665028926
19,0,5,0.12404780658369552,0.010334542098338704
19,1,5,0.10285675442148154,0.0062657749103370375
19,2,5,0.12936903963961913,0.010582360567560225
19,3,5,0.0906044667234442,0.012175331545020531
19,4,5,0.07808550903428788,0.00818847487381364
19,5,5,0.14249055988106407,0.016169310920290156
19,6,5,0.06033213375695805,0.005745167446719697
19,7,5,0.18878468727240444,0.01768164952898113
19,8,5,0.15761252768277897,0.014390544249351326
20,0,5,0.13728614752195015,0.01785384408387442
20,1,5,0.13108983384072959,0.027479234970495932
20,2,5,0.21022947566232708,0.019663650326336164
20,3,5,0.09889108927019996,0.01645324625972
20,4,5,0.1625035965684908,0.018553574063921274
20,5,5,0.2331517638565676,0.009979222559825827
20,6,5,0.057000082869978,0.010009074578272771
20,7,5,0.11698821362062913,0.01629024505352493
20,8,5,0.17799558491212858,0.014564851389786648
21,0,5,0.14375049459162156,0.012700365413722901
21,1,5,0.025203722602237976,0.020303470886815205
21,2,5,0.040708894195351106,0.016582797349407728
21,3,5,0.0461157382322271,0.023051203475774763
21,4,5,0.044662023332135,0.011955573951032564
21,5,5,0.16428129318226906,0.015483410990852799
21,6,5,0.0649693380596569,0.01862122053386842
21,7,5,0.09924329634023625,0.014125549252108873
21,8,5,0.06410695337519567,0.010639546519431664
22,0,5,0.14161008210825987,0.01902377596436899
22,1,5,0.13719576511401937,0.013436264662364871
22,2,5,0.14181603515413096,0.011679656573793011
22,3,5,0.11789959658564861,0.009094786073822884
22,4,5,0.08115436692034214,0.008369972173012373
22,5,5,0.1476246355423163,0.010873166917801722
22,6,5,0.07318065970519452,0.015409531622077768
22,7,5,0.15789644793955374,0.013252509972548527
22,8,5,0.1437104036554104,0.012270689660744077
23,0,5,0.1307716486894463,0.02036861181247273
23,1,5,0.07787666535459084,0.01532828654417185
23,2,5,0.0629828795494852,0.010856977890467932
23,3,5,0.06196033481793013,0.009755941363767829
23,4,5,0.09536643432736921,0.012501773778625637
23,5,5,0.1341534870073122,0.012770025128184589
23,6,5,0.0995894045638452,0.011899284617871236
23,7,5,0.11820999930349559,0.010269904243094673
23,8,5,0.10018110268392352,0.011089776805835436
24,0,5,0.1041784644915571,0.007159372822958609
24,1,5,0.08879309718960857,0.020022684977846875
24,2,5,0.16517284707157806,0.01266269106277412
24,3,5,0.07329887411796279,0.010305796290682965
24,4,5,0.17593495447967122,0.010404293867388116
24,5,5,0.1807925385933427,0.01733847827720172
24,6,5,0.08101091921581276,0.01170911486498281
24,7,5,0.1521113581129578,0.010552642216652197
24,8,5,0.08641962681011583,0.008763110652475793
25,0,5,0.1840700893217863,0.00771654098728898
25,1,5,0.17390566756373804,0.0067757017424184005
25,2,5,0.18612039623837032,0.010972147521118851
25,3,5,0.1790387872803075,0.010465284263834486
25,4,5,0.17339008411836548,0.012308233132885028
25,5,5,0.17813040261826002,0.016362611862713903
25,6,5,0.05413494136057464,0.0043966282034570555
25,7,5,0.10628725192448926,0.01723989519512413
25,8,5,0.09268518854650527,0.007945761464591859
26,0,5,0.09444112227966997,0.011045038810215247
26,1,5,0.08568450099308841,0.008636509797291721
26,2,5,0.14243055028385138,0.012264199314234626
26,3,5,0.059304698777747356,0.016992433214856596
26,4,5,0.08676824782370629,0.014155727643537458
26,5,5,0.09089850680318985,0.01555458687310076
26,6,5,0.02001956129570206,0.010937696370605893
26,7,5,0.11970830003080317,0.01234428983506416
26,8,5,0.10116257798990054,0.008007135837775755
27,0,5,0.16292562296568178,0.014208949090772615
27,1,5,0.07171417361664914,0.007584278353827236
27,2,5,0.14133726061568078,0.012249873701929214
27,3,5,0.16067922846409594,0.010420442022999422
27,4,5,0.17974465331334105,0.016300963001740446
27,5,5,0.21630676828833853,0.01711751721798588
27,6,5,0.09976902121818813,0.005323932223766787
27,7,5,0.17256580794064016,0.017335905591936342
27,8,5,0.13296957710780405,0.007950567680684948
28,0,5,0.05744417628410856,0.00840311775738086
28,1,5,0.1140632166494627,0.010131333536894473
28,2,5,0.09053909414347058,0.0014551339257047938
28,3,5,0.12865006040303892,0.021219232515603457
28,4,5,0.12602767378335195,0.01749510206247613
28,5,5,0.22703693022408578,0.013871557615256248
28,6,5,0.03289242976601028,0.004872980988563401
28,7,5,0.08127182668557797,0.012447574944270684
28,8,5,0.1434090653424112,0.016291416998948125
29,0,5,0.1556346013216583,0.014853010739932093
29,1,5,0.13909908242104468,0.017799238894696198
29,2,5,0.15592779917724992,0.012100669713059151
29,3,5,0.08384047662970535,0.005239406330649517
29,4,5,0.1721960470289856,0.008271956761729747
29,5,5,0.2068337339685969,0.00839908541711369
29,6,5,0.0801758150844967,0.010469090229303979
29,7,5,0.15228185929582808,0.017616891065665573
29,8,5,0.1882896272607866,0.014257398741862905
30,0,5,0.11842227895409514,0.007551880407119475
30,1,5,0.0704827947035462,0.013728498146502538
30,2,5,0.13086960782488838,0.019617515453029876
30,3,5,0.1392497848321336,0.011962309685865018
30,4,5,0.10550709826859124,0.007302890570610491
30,5,5,0.1953537729419091,0.023162433290342045
30,6,5,0.060651762554392065,0.013433929746742318
30,7,5,0.2375577600967138,0.018515083961720864
30,8,5,0.1400484130694607,0.016658821636804193
31,0,5,0.06711026040236216,0.012978418824708243
31,1,5,0.11154449333902265,0.016281743923891177
31,2,5,0.12086510534004107,0.008027116905456
31,3,5,0.06743301324914149,0.01843931377712282
31,4,5,0.06942438528973413,0.0228341710771436
31,5,5,0.164093415812345,0.01062408583658493
31,6,5,0.072629961236465,0.014615161156917513
31,7,5,0.18180837118236687,0.009097761244014292
31,8,5,0.1157783231131176,0.020938587288606494
32,0,5,0.07503021511884297,0.011218851422465212
32,1,5,0.07797139516541411,0.016447712479380767
32,2,5,0.050481583481090817,0.010079703256004824
32,3,5,0.023280950670204394,0.01007736579613093
32,4,5,0.11693966447523133,0.01785005889391637
32,5,5,0.1523135050340529,0.004246291616644686
32,6,5,0.03371222295412395,0.008687577260889355
32,7,5,0.09616420202206051,0.013158094952632812
32,8,5,0.021371262380541788,0.012280309916094669
33,0,5,0.1837954763802097,0.012751239467167915
33,1,5,0.10672720378771983,0.010830161152694365
33,2,5,0.16175143305761988,0.012915409942477168
33,3,5,0.1206074758566692,0.00851424676964277
33,4,5,0.15215388650673092,0.004772480758457048
33,5,5,0.19447956304725697,0.013380588033661385
33,6,5,0.12907037854565503,0.010858390497665992
33,7,5,0.14780098696118396,0.0062362235625354505
33,8,5,0.21372648931116706,0.022976935023307787
34,0,5,0.15487574780764707,0.011687396041329087
34,1,5,0.13313185032846925,0.003264720284065443
34,2,5,0.17560604740914537,0.013077347224652218
34,3,5,0.11556758065958243,0.004713116129924782
34,4,5,0.08643931614175962,0.0094163843613937
34,5,5,0.05355942403290659,0.010247199466573785
34,6,5,0.0748238165466539,0.011831168378307649
34,7,5,0.18325211055342688,0.016924108610175886
34,8,5,0.169033310831082,0.013935939303099705
35,0,5,0.10852302960275999,0.008110864819286544
35,1,5,0.04657240864502958,0.009512204890354833
35,2,5,0.10300444621188184,0.023046494923817554
35,3,5,0.07750826629552918,0.008460957118531238
35,4,5,0.08990247790997963,0.006329920409174645
35,5,5,0.07681991811747253,0.009721855953969629
35,6,5,0.025135241190377466,0.010109814910835974
35,7,5,0.10173629176869388,0.009598141154368318
35,8,5,0.07253315361991372,0.013885729657369577
36,0,5,0.040350953637353616,0.008445835542387472
36,1,5,0.06334249748873548,0.007212018242317829
36,2,5,0.08577206102574171,0.013662802953651687
36,3,5,0.035567249353290295,0.01862222205615085
36,4,5,0.10700554630952261,0.008370746382241171
36,5,5,0.03542007457167375,0.010059881635515869
36,6,5,0.066341182504099,0.0065896777490081935
36,7,5,0.13310876108213424,0.008709097186079722
36,8,5,0.04783045629681271,0.008085920753703933
37,0,5,0.12111012435832433,0.014188964157534609
37,1,5,0.10497978745828399,0.014691998155704765
37,2,5,0.17611456984066745,0.013781379016377819
37,3,5,0.04768962681496427,0.01622275672284344
37,4,5,0.21851125469998456,0.01005542854255312
37,5,5,0.20614117797763704,0.004978188100520443
37,6,5,0.05361249278425695,0.0061322212826630555
37,7,5,0.11693386629371287,0.015339350589565277
37,8,5,0.12333663761275052,0.015080953128417063
38,0,5,0.12853283905472024,0.00928100196870677
38,1,5,0.1553486320259873,0.00861311493423688
38,2,5,0.21768522695891596,0.02101378517897932
38,3,5,0.16536428726886715,0.012980914817439113
38,4,5,0.2505536822518235,0.014845247787226215
38,5,5,0.20290076056162415,0.012941743422727338
38,6,5,0.12443905359954968,0.0162846893221829
38,7,5,0.09343964638857767,0.01622095864922457
38,8,5,0.13966891115444136,0.017626606362547204
39,0,5,0.11698800600778181,0.011535642780173177
39,1,5,0.06186933765331661,0.017208456864059994
39,2,5,0.09630848235521476,0.010411947656501656
39,3,5,0.10437744820278175,0.020529747112360403
39,4,5,0.11271384774083881,0.0074041830045011
39,5,5,0.2020472139378569,0.014088179932532858
39,6,5,0.08992164064323407,0.01804230201830397
39,7,5,0.11648418397498725,0.011341695330600938
39,8,5,0.086981144713002,0.010360723963880344
40,0,5,0.14531959415484524,0.009327563226450088
40,1,5,0.06254994732807875,0.012706927222478463
40,2,5,0.05929289264113517,0.012082354402278311
40,3,5,0.014951433894030974,0.010774883546906665
40,4,5,0.04007441513618526,0.006086629427157632
40,5,5,0.057577583017145176,0.013882640200377933
40,6,5,0.07723246787619431,0.012001814884234251
40,7,5,0.1867169798082542,0.011197071016963215
40,8,5,0.19497777134305588,0.006146587517494844
