subject,channel,alpha,f1,drop_pp
156,0,1.0,0.6778097286428459,0.0
156,0,0.75,0.6958267229375874,-1.8016994294741462
156,0,0.5,0.694092912590307,-1.6283183947461088
156,0,0.25,0.6681158191330856,0.9693909509760346
156,0,0.0,0.6548302698822748,2.297945876057117
156,1,1.0,0.6778097286428459,0.0
156,1,0.75,0.6654859246251568,1.2323804017689177
156,1,0.5,0.643266323602904,3.454340503994191
156,1,0.25,0.6145017728687432,6.330795577410275
156,1,0.0,0.5962508633271982,8.155886531564772
156,2,1.0,0.6778097286428459,0.0
156,2,0.75,0.6931224854299061,-1.5312756787060122
156,2,0.5,0.6803617378061578,-0.2552009163311886
156,2,0.25,0.6512226442319258,2.658708441092017
156,2,0.0,0.6271757973403671,5.063393130247884
156,3,1.0,0.6778097286428459,0.0
156,3,0.75,0.6697248209317719,0.8084907711074063
156,3,0.5,0.655497939707864,2.231178893498198
156,3,0.25,0.635148125085088,4.266160355775794
156,3,0.0,0.6190861432503132,5.872358539253275
156,4,1.0,0.6778097286428459,0.0
156,4,0.75,0.6766225139137134,0.11872147291325241
156,4,0.5,0.6684252917799833,0.9384436862862611
156,4,0.25,0.6482114600191341,2.9598268623711843
156,4,0.0,0.6196128747341327,5.819685390871321
156,5,1.0,0.6778097286428459,0.0
156,5,0.75,0.6632901859858636,1.4519542656982298
156,5,0.5,0.6331504795067213,4.465924913612462
156,5,0.25,0.5678055623570656,11.000416628578035
156,5,0.0,0.4484411239811961,22.936860466164983
156,6,1.0,0.6778097286428459,0.0
156,6,0.75,0.6827548881490935,-0.49451595062475207
156,6,0.5,0.6837750356122259,-0.5965306969379913
156,6,0.25,0.686985850116843,-0.9176121473997045
156,6,0.0,0.683679693524032,-0.5869964881186074
185,0,1.0,0.5452286905572019,0.0
185,0,0.75,0.5279236943029019,1.7304996254300042
185,0,0.5,0.508677099534304,3.6551591022897956
185,0,0.25,0.4867481073805239,5.848058317667803
185,0,0.0,0.4697158096226913,7.551288093451058
185,1,1.0,0.5452286905572019,0.0
185,1,0.75,0.5872780148999069,-4.2049324342705034
185,1,0.5,0.5954113361602706,-5.018264560306873
185,1,0.25,0.533563657386459,1.1665033170742967
185,1,0.0,0.470257018214003,7.497167234319891
185,2,1.0,0.5452286905572019,0.0
185,2,0.75,0.5250585578844686,2.0170132672733265
185,2,0.5,0.5013921286044067,4.383656195279517
185,2,0.25,0.456880569064662,8.83481214925399
185,2,0.0,0.38753200039730745,15.769669015989447
185,3,1.0,0.5452286905572019,0.0
185,3,0.75,0.5397728133756905,0.5455877181511415
185,3,0.5,0.523409719478823,2.1818971078378935
185,3,0.25,0.5071963858067668,3.8032304750435064
185,3,0.0,0.49365574664502776,5.157294391217415
185,4,1.0,0.5452286905572019,0.0
185,4,0.75,0.5147171760965643,3.05115144606376
185,4,0.5,0.47121460655494307,7.401408400225884
185,4,0.25,0.4369850704961594,10.824362006104248
185,4,0.0,0.41903439951974036,12.619429103746155
185,5,1.0,0.5452286905572019,0.0
185,5,0.75,0.5571177898533485,-1.1889099296146566
185,5,0.5,0.5596315951282878,-1.440290457108584
185,5,0.25,0.5398929074187304,0.5335783138471495
185,5,0.0,0.4595955024945396,8.56331880626623
185,6,1.0,0.5452286905572019,0.0
185,6,0.75,0.5326472077513315,1.2581482805870459
185,6,0.5,0.502862223831515,4.236646672568689
185,6,0.25,0.4847517246688289,6.0476965888373035
185,6,0.0,0.47806078433855115,6.716790621865076
186,0,1.0,0.7174641672121735,0.0
186,0,0.75,0.7033677445306924,1.4096422681481147
186,0,0.5,0.6791459023373198,3.831826487485379
186,0,0.25,0.627200772766738,9.026339444543552
186,0,0.0,0.5976552031050826,11.980896410709097
186,1,1.0,0.7174641672121735,0.0
186,1,0.75,0.7189868775330064,-0.1522710320832843
186,1,0.5,0.6929184145126142,2.4545752699559387
186,1,0.25,0.6524037393586175,6.5060427853556035
186,1,0.0,0.586760813594913,13.070335361726048
186,2,1.0,0.7174641672121735,0.0
186,2,0.75,0.7208138758101644,-0.3349708597990886
186,2,0.5,0.7065602362682961,1.0903930943877427
186,2,0.25,0.6706261973420911,4.6837969870082485
186,2,0.0,0.6426307275494859,7.483343966268762
186,3,1.0,0.7174641672121735,0.0
186,3,0.75,0.7169681595586057,0.04960076535678315
186,3,0.5,0.7149761411565465,0.2488026055627035
186,3,0.25,0.7029146879112712,1.4549479300902335
186,3,0.0,0.6903227911024619,2.714137610971168
186,4,1.0,0.7174641672121735,0.0
186,4,0.75,0.7063552281474184,1.1108939064755186
186,4,0.5,0.6933789423061065,2.4085224906067015
186,4,0.25,0.6668136367254869,5.065053048668666
186,4,0.0,0.6199834643130612,9.748070289911237
186,5,1.0,0.7174641672121735,0.0
186,5,0.75,0.7057584774368401,1.1705689775333483
186,5,0.5,0.6703588562918246,4.7105310920348975
186,5,0.25,0.5984161499525825,11.904801725959102
186,5,0.0,0.5439747007165948,17.348946649557874
186,6,1.0,0.7174641672121735,0.0
186,6,0.75,0.7038661227155761,1.3598044496597406
186,6,0.5,0.6925146200404506,2.494954717172293
186,6,0.25,0.6754578790007317,4.200628821144181
186,6,0.0,0.6609263967977689,5.653777041440467
188,0,1.0,0.5997473192349324,0.0
188,0,0.75,0.5893401834189413,1.0407135815991064
188,0,0.5,0.5726656368084851,2.708168242644726
188,0,0.25,0.5582304484150589,4.151687081987355
188,0,0.0,0.5603713813388829,3.937593789604954
188,1,1.0,0.5997473192349324,0.0
188,1,0.75,0.6009166608187853,-0.11693415838528454
188,1,0.5,0.5889852704415335,1.0762048793398926
188,1,0.25,0.5646833606864962,3.5063958548436247
188,1,0.0,0.5330567805863573,6.66905386485751
188,2,1.0,0.5997473192349324,0.0
188,2,0.75,0.5902186458159661,0.9528673418966349
188,2,0.5,0.5810213525535874,1.8725966681344963
188,2,0.25,0.5376344500979431,6.211286913698933
188,2,0.0,0.4812944119514745,11.845290728345791
188,3,1.0,0.5997473192349324,0.0
188,3,0.75,0.5962191520726517,0.352816716228066
188,3,0.5,0.5863107171994681,1.3436602035464262
188,3,0.25,0.5786156031352764,2.113171609965603
188,3,0.0,0.5639835562612676,3.576376297366479
188,4,1.0,0.5997473192349324,0.0
188,4,0.75,0.5893431163353453,1.04042028995871
188,4,0.5,0.582601935738188,1.7145383496744437
188,4,0.25,0.5690232760055842,3.0724043229348186
188,4,0.0,0.5528654680392486,4.688185119568377
188,5,1.0,0.5997473192349324,0.0
188,5,0.75,0.6018882979357257,-0.21409787007933279
188,5,0.5,0.5955136474019082,0.4233671833024255
188,5,0.25,0.5699361268494811,2.981119238545127
188,5,0.0,0.4962131549903556,10.353416424457679
188,6,1.0,0.5997473192349324,0.0
188,6,0.75,0.594902765895459,0.4844553339473423
188,6,0.5,0.5928615616445447,0.6885757590387676
188,6,0.25,0.5920746036435338,0.7672715591398593
188,6,0.0,0.5868565874111991,1.2890731823733348
189,0,1.0,0.6666028978070241,0.0
189,0,0.75,0.6704491685885181,-0.3846270781494021
189,0,0.5,0.6676322390896179,-0.10293412825937986
189,0,0.25,0.6466405608076359,1.9962336999388208
189,0,0.0,0.630062031139405,3.654086666761913
189,1,1.0,0.6666028978070241,0.0
189,1,0.75,0.6605315319321976,0.6071365874826484
189,1,0.5,0.6572540492481085,0.9348848558915601
189,1,0.25,0.640654219341232,2.5948678465792074
189,1,0.0,0.5743933426172525,9.220955518977158
189,2,1.0,0.6666028978070241,0.0
189,2,0.75,0.6823486809937798,-1.574578318675568
189,2,0.5,0.6732877587253461,-0.6684860918321989
189,2,0.25,0.6084340795601876,5.816881824683651
189,2,0.0,0.562665102246118,10.39377955609061
189,3,1.0,0.6666028978070241,0.0
189,3,0.75,0.6711943140756771,-0.45914162686530036
189,3,0.5,0.6668356121196166,-0.023271431259253017
189,3,0.25,0.6638103302542893,0.2792567552734826
189,3,0.0,0.6501483208654432,1.6454576941580923
189,4,1.0,0.6666028978070241,0.0
189,4,0.75,0.6666570877794138,-0.0054189972389706575
189,4,0.5,0.663659289313992,0.29436084930321016
189,4,0.25,0.6594702180854588,0.7132679721565283
189,4,0.0,0.6520426810528275,1.4560216754196609
189,5,1.0,0.6666028978070241,0.0
189,5,0.75,0.6567567967241075,0.9846101082916614
189,5,0.5,0.623494758706381,4.310813910064304
189,5,0.25,0.5544774729973443,11.21254248096798
189,5,0.0,0.45904986886535726,20.755302894166682
189,6,1.0,0.6666028978070241,0.0
189,6,0.75,0.68223987884339,-1.5636981036365905
189,6,0.5,0.6907072989829872,-2.410440117596313
189,6,0.25,0.7101812731629848,-4.357837535596076
189,6,0.0,0.7234191451519666,-5.6816247344942505
190,0,1.0,0.5551605159078232,0.0
190,0,0.75,0.581947110207221,-2.678659429939778
190,0,0.5,0.5805106207738778,-2.53501048660546
190,0,0.25,0.5448002652351047,1.0360250672718507
190,0,0.0,0.522285626278536,3.2874889629287196
190,1,1.0,0.5551605159078232,0.0
190,1,0.75,0.5471515419082567,0.8008973999566571
190,1,0.5,0.5190904947569537,3.6070021150869547
190,1,0.25,0.4790707686862077,7.6089747221615545
190,1,0.0,0.4393030396894675,11.585747621835573
190,2,1.0,0.5551605159078232,0.0
190,2,0.75,0.5518001778946043,0.33603380132188887
190,2,0.5,0.5181788750880014,3.6981640819821804
190,2,0.25,0.4589402741182477,9.62202417895755
190,2,0.0,0.42106903406293716,13.409148184488606
190,3,1.0,0.5551605159078232,0.0
190,3,0.75,0.5947817607055091,-3.9621244797685917
190,3,0.5,0.6056385232233543,-5.047800731553109
190,3,0.25,0.6095128941443375,-5.435237823651429
190,3,0.0,0.6178320477643491,-6.267153185652585
190,4,1.0,0.5551605159078232,0.0
190,4,0.75,0.5552209173441076,-0.006040143628438521
190,4,0.5,0.5603483759977537,-0.5187860089930441
190,4,0.25,0.560459197853771,-0.5298681945947736
190,4,0.0,0.5589037127650748,-0.37431968572515517
190,5,1.0,0.5551605159078232,0.0
190,5,0.75,0.5651309814770675,-0.9970465569244302
190,5,0.5,0.5346738532609979,2.0486662646825304
190,5,0.25,0.4892667856922709,6.589373021555234
190,5,0.0,0.43593808565093495,11.922243025688829
190,6,1.0,0.5551605159078232,0.0
190,6,0.75,0.551960064837907,0.3200451069916177
190,6,0.5,0.5474871437931295,0.7673372114693766
190,6,0.25,0.5415020856211256,1.3658430286697665
190,6,0.0,0.5206754144221276,3.4485101485695613
191,0,1.0,0.5771754391878845,0.0
191,0,0.75,0.5680927350443432,0.9082704143541287
191,0,0.5,0.5408452337697922,3.6330205418092287
191,0,0.25,0.5096080649197158,6.756737426816873
191,0,0.0,0.48292150528585714,9.425393390202736
191,1,1.0,0.5771754391878845,0.0
191,1,0.75,0.5872491503958635,-1.0073711207978953
191,1,0.5,0.578448722141359,-0.12732829534745083
191,1,0.25,0.5454805002404218,3.169493894746267
191,1,0.0,0.4945773184163461,8.259812077153839
191,2,1.0,0.5771754391878845,0.0
191,2,0.75,0.567586265442044,0.9589173745840451
191,2,0.5,0.5414973155404164,3.567812364746814
191,2,0.25,0.5143976738964708,6.277776529141366
191,2,0.0,0.4797007415275515,9.747469766033301
191,3,1.0,0.5771754391878845,0.0
191,3,0.75,0.5990164996369232,-2.1841060449038663
191,3,0.5,0.6063848555257436,-2.9209416337859118
191,3,0.25,0.6116228659530025,-3.4447426765118028
191,3,0.0,0.6110407238277837,-3.386528463989924
191,4,1.0,0.5771754391878845,0.0
191,4,0.75,0.5683595797890387,0.8815859398845771
191,4,0.5,0.5603728185526491,1.680262063523541
191,4,0.25,0.550741302574773,2.6434136613111447
191,4,0.0,0.5373248188723476,3.9850620315536878
191,5,1.0,0.5771754391878845,0.0
191,5,0.75,0.5854980580820732,-0.8322618894188727
191,5,0.5,0.5753495553883392,0.18258837995452915
191,5,0.25,0.5283762672605028,4.87991719273817
191,5,0.0,0.4588968437771581,11.827859541072637
191,6,1.0,0.5771754391878845,0.0
191,6,0.75,0.5682788625645391,0.889657662334542
191,6,0.5,0.5577455513678479,1.9429887820036629
191,6,0.25,0.5535824191986469,2.3593019989237574
191,6,0.0,0.5472054319786179,2.997000720926657
192,0,1.0,0.4263377725965638,0.0
192,0,0.75,0.4390154385485939,-1.267766595203007
192,0,0.5,0.4408332275619429,-1.4495454965379073
192,0,0.25,0.43056755382970313,-0.4229781233139329
192,0,0.0,0.42492895317654056,0.1408819420023244
192,1,1.0,0.4263377725965638,0.0
192,1,0.75,0.42312400423177565,0.321376836478815
192,1,0.5,0.4119243508752656,1.4413421721298225
192,1,0.25,0.3854109006627692,4.092687193379463
192,1,0.0,0.3621463736129036,6.419139898366022
192,2,1.0,0.4263377725965638,0.0
192,2,0.75,0.41305906859913444,1.3278703997429364
192,2,0.5,0.39188453472485285,3.445323787171095
192,2,0.25,0.341593135938541,8.47446366580228
192,2,0.0,0.3135256739845887,11.28120986119751
192,3,1.0,0.4263377725965638,0.0
192,3,0.75,0.4299850605915204,-0.3647287994956616
192,3,0.5,0.43395660136820535,-0.761882877164155
192,3,0.25,0.437328301558074,-1.0990528961510204
192,3,0.0,0.43624172367228076,-0.9903951075716955
192,4,1.0,0.4263377725965638,0.0
192,4,0.75,0.4364154247055454,-1.0077652108981594
192,4,0.5,0.4438341362015581,-1.7496363604994292
192,4,0.25,0.4548355881539128,-2.849781555734898
192,4,0.0,0.4285334602321637,-0.21956876355999078
192,5,1.0,0.4263377725965638,0.0
192,5,0.75,0.43152300148892003,-0.5185228892356231
192,5,0.5,0.4335400361571098,-0.7202263560545985
192,5,0.25,0.4267966263263978,-0.045885372983400785
192,5,0.0,0.41497226499363926,1.136550760292454
192,6,1.0,0.4263377725965638,0.0
192,6,0.75,0.42635961687588775,-0.0021844279323945948
192,6,0.5,0.42539561914717844,0.09421534493853634
192,6,0.25,0.42449317860517743,0.18445939913863674
192,6,0.0,0.41636061338961994,0.9977159206943864
193,0,1.0,0.5469060346147037,0.0
193,0,0.75,0.5396513360340376,0.7254698580666075
193,0,0.5,0.5199411156350504,2.696491897965325
193,0,0.25,0.4546310414179783,9.227499319672539
193,0,0.0,0.4165958170498677,13.031021756483597
193,1,1.0,0.5469060346147037,0.0
193,1,0.75,0.5346462158417425,1.2259818772961117
193,1,0.5,0.5103697200109233,3.6536314603780373
193,1,0.25,0.4729077643116504,7.399827030305328
193,1,0.0,0.44291813848400274,10.398789613070091
193,2,1.0,0.5469060346147037,0.0
193,2,0.75,0.5289037962939863,1.8002238320717345
193,2,0.5,0.4952503549160947,5.165567969860896
193,2,0.25,0.48667960043545344,6.022643417925022
193,2,0.0,0.4760631883775415,7.084284623716214
193,3,1.0,0.5469060346147037,0.0
193,3,0.75,0.5406856217522884,0.6220412862415259
193,3,0.5,0.5364615883165794,1.0444446298124244
193,3,0.25,0.5242835400705796,2.2622494544124017
193,3,0.0,0.5166527662180722,3.025326839663145
193,4,1.0,0.5469060346147037,0.0
193,4,0.75,0.5557619251763836,-0.8855890561679902
193,4,0.5,0.5592446618315784,-1.2338627216874731
193,4,0.25,0.5506948187536834,-0.37887841389797616
193,4,0.0,0.5414896173301407,0.5416417284562991
193,5,1.0,0.5469060346147037,0.0
193,5,0.75,0.5298698226061693,1.7036212008534335
193,5,0.5,0.49662367254145123,5.028236207325243
193,5,0.25,0.46376852204515306,8.31375125695506
193,5,0.0,0.4152535995480646,13.165243506663904
193,6,1.0,0.5469060346147037,0.0
193,6,0.75,0.5643927015181041,-1.7486666903400394
193,6,0.5,0.5590124018841514,-1.2106367269447693
193,6,0.25,0.5465277943418606,0.03782402728430556
193,6,0.0,0.5407525215481136,0.6153513066590066
194,0,1.0,0.727510801656585,0.0
194,0,0.75,0.7168602106370399,1.065059101954513
194,0,0.5,0.695307821057225,3.220298059936
194,0,0.25,0.6600501196518382,6.746068200474675
194,0,0.0,0.6341712252337681,9.333957642281687
194,1,1.0,0.727510801656585,0.0
194,1,0.75,0.7223048148377593,0.520598681882567
194,1,0.5,0.6998332471818505,2.7677554474734523
194,1,0.25,0.6387147153228201,8.87960863337649
194,1,0.0,0.5501789962107868,17.733180544579817
194,2,1.0,0.727510801656585,0.0
194,2,0.75,0.72034731536426,0.7163486292324994
194,2,0.5,0.7111599820698441,1.6350819586740895
194,2,0.25,0.6841807720115973,4.333002964498767
194,2,0.0,0.6252993209727294,10.221148068385554
194,3,1.0,0.727510801656585,0.0
194,3,0.75,0.7229702625703779,0.4540539086207107
194,3,0.5,0.7076361539207766,1.9874647735808382
194,3,0.25,0.6862603052010543,4.125049645553069
194,3,0.0,0.6732250875736966,5.428571408288841
194,4,1.0,0.727510801656585,0.0
194,4,0.75,0.725111803453416,0.23989982031690227
194,4,0.5,0.715605647578329,1.1905154078255986
194,4,0.25,0.6974036579841602,3.010714367242484
194,4,0.0,0.6636201978905988,6.389060376598621
194,5,1.0,0.727510801656585,0.0
194,5,0.75,0.7326557457574643,-0.514494410087929
194,5,0.5,0.7181162986362934,0.9394503020291545
194,5,0.25,0.6805884001602509,4.692240149633409
194,5,0.0,0.6131857632987505,11.432503835783447
194,6,1.0,0.727510801656585,0.0
194,6,0.75,0.7300483698995447,-0.2537568242959698
194,6,0.5,0.7195896970813589,0.7921104575226101
194,6,0.25,0.717263750251504,1.0247051405080976
194,6,0.0,0.7064848142068179,2.1025987449767136
