subject,block,block_width,feature_channel,gate_mean,gate_sd
156,0,32,0,0.649566650390625,0.04164140298962593
156,0,32,1,0.5799749493598938,0.035577382892370224
156,0,32,2,0.4555249512195587,0.057436972856521606
156,0,32,3,0.5617164969444275,0.07993927597999573
156,0,32,4,0.4233134984970093,0.06344935297966003
156,0,32,5,0.5347307920455933,0.07107765227556229
156,0,32,6,0.38973286747932434,0.08399009704589844
156,0,32,7,0.45996782183647156,0.104896180331707
156,0,32,8,0.5774129629135132,0.09057100117206573
156,0,32,9,0.45874398946762085,0.07160703092813492
156,0,32,10,0.6516642570495605,0.05016735941171646
156,0,32,11,0.5940534472465515,0.09094186872243881
156,0,32,12,0.4295324981212616,0.08209080994129181
156,0,32,13,0.42041176557540894,0.052358437329530716
156,0,32,14,0.4385453164577484,0.11675900965929031
156,0,32,15,0.4967082440853119,0.10942067950963974
156,0,32,16,0.4967983067035675,0.09785567969083786
156,0,32,17,0.36165595054626465,0.09328993409872055
156,0,32,18,0.42069634795188904,0.03084821254014969
156,0,32,19,0.48636773228645325,0.10739562660455704
156,0,32,20,0.41040661931037903,0.07058584690093994
156,0,32,21,0.6199513673782349,0.05237242579460144
156,0,32,22,0.5082266926765442,0.05235530063509941
156,0,32,23,0.6116175055503845,0.10396969318389893
156,0,32,24,0.5108447074890137,0.09607181698083878
156,0,32,25,0.4426872432231903,0.08412661403417587
156,0,32,26,0.546500027179718,0.0736919641494751
156,0,32,27,0.4316019117832184,0.062190793454647064
156,0,32,28,0.49326857924461365,0.05582529678940773
156,0,32,29,0.32145166397094727,0.06599569320678711
156,0,32,30,0.5418269634246826,0.08762121945619583
156,0,32,31,0.31398680806159973,0.07062725722789764
156,1,32,0,0.5528013706207275,0.13323724269866943
156,1,32,1,0.6417101621627808,0.15576738119125366
156,1,32,2,0.43877604603767395,0.12980212271213531
156,1,32,3,0.6148769855499268,0.1844252049922943
156,1,32,4,0.36701861023902893,0.16063013672828674
156,1,32,5,0.4883947968482971,0.10515863448381424
156,1,32,6,0.4060450494289398,0.12108172476291656
156,1,32,7,0.4356246292591095,0.14459194242954254
156,1,32,8,0.5966944098472595,0.1554778516292572
156,1,32,9,0.6959882378578186,0.07998589426279068
156,1,32,10,0.5447229743003845,0.09603963047266006
156,1,32,11,0.7143445014953613,0.06501876562833786
156,1,32,12,0.5423293709754944,0.04495573788881302
156,1,32,13,0.41985222697257996,0.1989765465259552
156,1,32,14,0.25893959403038025,0.12397315353155136
156,1,32,15,0.40824246406555176,0.09706079214811325
156,1,32,16,0.45625540614128113,0.05420158430933952
156,1,32,17,0.4534182548522949,0.16949380934238434
156,1,32,18,0.7031090259552002,0.09194781631231308
156,1,32,19,0.5502049326896667,0.044729940593242645
156,1,32,20,0.5345373749732971,0.08811669051647186
156,1,32,21,0.3707868754863739,0.11653110384941101
156,1,32,22,0.4355980455875397,0.15314635634422302
156,1,32,23,0.7069277167320251,0.14239290356636047
156,1,32,24,0.32972750067710876,0.09916116297245026
156,1,32,25,0.39386412501335144,0.02420460432767868
156,1,32,26,0.3496042490005493,0.15034779906272888
156,1,32,27,0.29546594619750977,0.1389913111925125
156,1,32,28,0.5461592078208923,0.0631137415766716
156,1,32,29,0.43657034635543823,0.07329223304986954
156,1,32,30,0.5655606985092163,0.17762327194213867
156,1,32,31,0.44924217462539673,0.10965429246425629
156,2,64,0,0.5796011090278625,0.12002971023321152
156,2,64,1,0.4651832580566406,0.1489449143409729
156,2,64,2,0.33523914217948914,0.13405898213386536
156,2,64,3,0.27496370673179626,0.10228164494037628
156,2,64,4,0.47381317615509033,0.10859315097332001
156,2,64,5,0.4549325406551361,0.13158945739269257
156,2,64,6,0.46368804574012756,0.05653345212340355
156,2,64,7,0.4614761471748352,0.14695051312446594
156,2,64,8,0.5378785133361816,0.14374028146266937
156,2,64,9,0.5563622117042542,0.12224217504262924
156,2,64,10,0.35179170966148376,0.0698600560426712
156,2,64,11,0.4671984016895294,0.18064378201961517
156,2,64,12,0.5484803915023804,0.17329362034797668
156,2,64,13,0.4468993842601776,0.12251521646976471
156,2,64,14,0.4411676526069641,0.10313181579113007
156,2,64,15,0.4737537205219269,0.13643524050712585
156,2,64,16,0.5833998918533325,0.15960080921649933
156,2,64,17,0.6195163130760193,0.11799461394548416
156,2,64,18,0.5057327151298523,0.14290040731430054
156,2,64,19,0.6310731172561646,0.1267501711845398
156,2,64,20,0.44573917984962463,0.11176096647977829
156,2,64,21,0.5574659705162048,0.11604099720716476
156,2,64,22,0.5893270969390869,0.10987194627523422
156,2,64,23,0.370720237493515,0.14006860554218292
156,2,64,24,0.5198849439620972,0.0940285176038742
156,2,64,25,0.43506595492362976,0.15153032541275024
156,2,64,26,0.4536324441432953,0.18068483471870422
156,2,64,27,0.3696945309638977,0.15566766262054443
156,2,64,28,0.36881324648857117,0.1390610933303833
156,2,64,29,0.37439724802970886,0.1828603893518448
156,2,64,30,0.6987144947052002,0.1222832053899765
156,2,64,31,0.35649439692497253,0.1275036484003067
156,2,64,32,0.5665236115455627,0.14800746738910675
156,2,64,33,0.5263777375221252,0.13681255280971527
156,2,64,34,0.49528124928474426,0.13939045369625092
156,2,64,35,0.4019714295864105,0.12446804344654083
156,2,64,36,0.5544019937515259,0.12207470089197159
156,2,64,37,0.4544967710971832,0.10133938491344452
156,2,64,38,0.5851918458938599,0.14889512956142426
156,2,64,39,0.3642650544643402,0.11156614869832993
156,2,64,40,0.3549771308898926,0.14612901210784912
156,2,64,41,0.39864203333854675,0.19225415587425232
156,2,64,42,0.3616628646850586,0.1404544711112976
156,2,64,43,0.37364551424980164,0.13752423226833344
156,2,64,44,0.3772006332874298,0.09365067631006241
156,2,64,45,0.5300281047821045,0.1342018097639084
156,2,64,46,0.5534346699714661,0.12673546373844147
156,2,64,47,0.44751614332199097,0.09308753162622452
156,2,64,48,0.529810905456543,0.14701667428016663
156,2,64,49,0.6087327003479004,0.06877575069665909
156,2,64,50,0.660783052444458,0.16118338704109192
156,2,64,51,0.6319911479949951,0.1263490617275238
156,2,64,52,0.5674310326576233,0.17161798477172852
156,2,64,53,0.3982938230037689,0.12537634372711182
156,2,64,54,0.5636658668518066,0.13569340109825134
156,2,64,55,0.4788816571235657,0.15168169140815735
156,2,64,56,0.2992709279060364,0.13012173771858215
156,2,64,57,0.4845677316188812,0.13148343563079834
156,2,64,58,0.5634927749633789,0.11423305422067642
156,2,64,59,0.47943827509880066,0.17972666025161743
156,2,64,60,0.5160849690437317,0.1188136413693428
156,2,64,61,0.5035824775695801,0.13218294084072113
156,2,64,62,0.38524654507637024,0.10313322395086288
156,2,64,63,0.4344818592071533,0.16425466537475586
156,3,64,0,0.5650140643119812,0.18258723616600037
156,3,64,1,0.3581894040107727,0.07087865471839905
156,3,64,2,0.4835968613624573,0.11196628957986832
156,3,64,3,0.5523583889007568,0.09005923569202423
156,3,64,4,0.5770969390869141,0.07878382503986359
156,3,64,5,0.5641583800315857,0.1200653463602066
156,3,64,6,0.4346345067024231,0.1356300413608551
156,3,64,7,0.4582765996456146,0.1192905604839325
156,3,64,8,0.3530612587928772,0.0978880301117897
156,3,64,9,0.4549897015094757,0.1718827337026596
156,3,64,10,0.40840423107147217,0.1317925602197647
156,3,64,11,0.40724241733551025,0.057171229273080826
156,3,64,12,0.4695751368999481,0.14521323144435883
156,3,64,13,0.30330371856689453,0.12437255680561066
156,3,64,14,0.45501917600631714,0.09375528991222382
156,3,64,15,0.6160439848899841,0.08996029198169708
156,3,64,16,0.5465392470359802,0.14524215459823608
156,3,64,17,0.36565113067626953,0.06162907928228378
156,3,64,18,0.5248989462852478,0.06957775354385376
156,3,64,19,0.5552154779434204,0.16080237925052643
156,3,64,20,0.612427294254303,0.09248711913824081
156,3,64,21,0.4368128478527069,0.0811978355050087
156,3,64,22,0.507230818271637,0.04916276037693024
156,3,64,23,0.42574429512023926,0.2231205254793167
156,3,64,24,0.46781954169273376,0.14916503429412842
156,3,64,25,0.5326225161552429,0.09151089936494827
156,3,64,26,0.27534958720207214,0.13175860047340393
156,3,64,27,0.6391042470932007,0.13358521461486816
156,3,64,28,0.6037083268165588,0.07779834419488907
156,3,64,29,0.48840975761413574,0.14142651855945587
156,3,64,30,0.514222264289856,0.1250704526901245
156,3,64,31,0.48353782296180725,0.1502029001712799
156,3,64,32,0.4730112552642822,0.1418253481388092
156,3,64,33,0.6112885475158691,0.06036316975951195
156,3,64,34,0.46491390466690063,0.06158753111958504
156,3,64,35,0.528407096862793,0.07246128469705582
156,3,64,36,0.467272013425827,0.22592003643512726
156,3,64,37,0.4754909873008728,0.06583843380212784
156,3,64,38,0.4400855302810669,0.2262054830789566
156,3,64,39,0.5858674645423889,0.06463494151830673
156,3,64,40,0.6225714087486267,0.11043201386928558
156,3,64,41,0.38433754444122314,0.2045983225107193
156,3,64,42,0.43321675062179565,0.2107158899307251
156,3,64,43,0.4999058246612549,0.07456761598587036
156,3,64,44,0.49176326394081116,0.08145824074745178
156,3,64,45,0.5974541902542114,0.19273152947425842
156,3,64,46,0.44951513409614563,0.09503161162137985
156,3,64,47,0.4215766191482544,0.14178192615509033
156,3,64,48,0.5542129874229431,0.06609939783811569
156,3,64,49,0.43124768137931824,0.06338267773389816
156,3,64,50,0.6325770616531372,0.14609074592590332
156,3,64,51,0.6241359710693359,0.08992457389831543
156,3,64,52,0.6074032187461853,0.0956675335764885
156,3,64,53,0.565611720085144,0.1619444340467453
156,3,64,54,0.4182800352573395,0.15737956762313843
156,3,64,55,0.5264438390731812,0.06355097889900208
156,3,64,56,0.39875879883766174,0.12074846774339676
156,3,64,57,0.5731251835823059,0.164735347032547
156,3,64,58,0.5949607491493225,0.10549931973218918
156,3,64,59,0.46071183681488037,0.07590658962726593
156,3,64,60,0.4031696617603302,0.12765273451805115
156,3,64,61,0.40891560912132263,0.08754440397024155
156,3,64,62,0.4554297924041748,0.1354045569896698
156,3,64,63,0.4844701588153839,0.03242504596710205
156,4,128,0,0.5894443392753601,0.2681853473186493
156,4,128,1,0.5047401189804077,0.18451589345932007
156,4,128,2,0.5931323766708374,0.1367712765932083
156,4,128,3,0.613664448261261,0.16384798288345337
156,4,128,4,0.5494763851165771,0.1920602023601532
156,4,128,5,0.4349813163280487,0.09857948869466782
156,4,128,6,0.5841376185417175,0.15299426019191742
156,4,128,7,0.6147094964981079,0.1449604034423828
156,4,128,8,0.3288445472717285,0.14230041205883026
156,4,128,9,0.6541925072669983,0.0795527920126915
156,4,128,10,0.594353199005127,0.08559080958366394
156,4,128,11,0.4186123311519623,0.15048886835575104
156,4,128,12,0.5279448628425598,0.217565655708313
156,4,128,13,0.6442503929138184,0.13861501216888428
156,4,128,14,0.37558937072753906,0.054227136075496674
156,4,128,15,0.7189338803291321,0.1391666829586029
156,4,128,16,0.42812979221343994,0.15104824304580688
156,4,128,17,0.5684186220169067,0.21695512533187866
156,4,128,18,0.5859292149543762,0.10445035994052887
156,4,128,19,0.6293466091156006,0.08636561036109924
156,4,128,20,0.5512034296989441,0.18228037655353546
156,4,128,21,0.4482373893260956,0.15674732625484467
156,4,128,22,0.5934970378875732,0.2642657160758972
156,4,128,23,0.5632553100585938,0.20194824039936066
156,4,128,24,0.4940092861652374,0.13880349695682526
156,4,128,25,0.6730901598930359,0.12863080203533173
156,4,128,26,0.5337466597557068,0.23088906705379486
156,4,128,27,0.6162774562835693,0.13968707621097565
156,4,128,28,0.5693013072013855,0.07974472641944885
156,4,128,29,0.3511953353881836,0.08710408955812454
156,4,128,30,0.4547955095767975,0.11788656562566757
156,4,128,31,0.5502926111221313,0.13325892388820648
156,4,128,32,0.5737278461456299,0.281252920627594
156,4,128,33,0.5219036340713501,0.2098410576581955
156,4,128,34,0.6285372376441956,0.16849513351917267
156,4,128,35,0.6736904978752136,0.1457664966583252
156,4,128,36,0.7328047752380371,0.14170871675014496
156,4,128,37,0.5662183165550232,0.08856704086065292
156,4,128,38,0.6217852234840393,0.20020978152751923
156,4,128,39,0.5026130080223083,0.1895025074481964
156,4,128,40,0.6989883184432983,0.11708804219961166
156,4,128,41,0.618540346622467,0.09789898991584778
156,4,128,42,0.39860936999320984,0.14404679834842682
156,4,128,43,0.6794618964195251,0.15329644083976746
156,4,128,44,0.49122774600982666,0.27176347374916077
156,4,128,45,0.5505668520927429,0.25731727480888367
156,4,128,46,0.5819094181060791,0.09264502674341202
156,4,128,47,0.5642478466033936,0.15836244821548462
156,4,128,48,0.4199284613132477,0.19545628130435944
156,4,128,49,0.4935300946235657,0.16713935136795044
156,4,128,50,0.6517921090126038,0.2199275940656662
156,4,128,51,0.5042198896408081,0.23192420601844788
156,4,128,52,0.6572860479354858,0.13095331192016602
156,4,128,53,0.3762081265449524,0.07911347597837448
156,4,128,54,0.47635704278945923,0.18197299540042877
156,4,128,55,0.6484015583992004,0.10855216532945633
156,4,128,56,0.5700642466545105,0.21731945872306824
156,4,128,57,0.6051992774009705,0.1437009871006012
156,4,128,58,0.6058874726295471,0.1644054800271988
156,4,128,59,0.41231003403663635,0.08765904605388641
156,4,128,60,0.5913798213005066,0.09460543096065521
156,4,128,61,0.6765023469924927,0.09553880244493484
156,4,128,62,0.5059309601783752,0.07113704085350037
156,4,128,63,0.7047731876373291,0.19589532911777496
156,4,128,64,0.7062368392944336,0.1379600316286087
156,4,128,65,0.6688123345375061,0.13581494987010956
156,4,128,66,0.45233938097953796,0.1400919109582901
156,4,128,67,0.6363945007324219,0.2655782103538513
156,4,128,68,0.5372239351272583,0.0742519274353981
156,4,128,69,0.40527886152267456,0.16281045973300934
156,4,128,70,0.5748131275177002,0.15002457797527313
156,4,128,71,0.4557092785835266,0.1689119040966034
156,4,128,72,0.5737422704696655,0.28706520795822144
156,4,128,73,0.6138071417808533,0.13794806599617004
156,4,128,74,0.674142062664032,0.1146262139081955
156,4,128,75,0.5922061204910278,0.1517821103334427
156,4,128,76,0.6839563250541687,0.16563111543655396
156,4,128,77,0.2991531789302826,0.09301728755235672
156,4,128,78,0.4660075008869171,0.20095613598823547
156,4,128,79,0.4150683283805847,0.06883023679256439
156,4,128,80,0.484544038772583,0.11167209595441818
156,4,128,81,0.6123499870300293,0.22760429978370667
156,4,128,82,0.5659059882164001,0.1955231875181198
156,4,128,83,0.5899186730384827,0.09583190083503723
156,4,128,84,0.5189003348350525,0.2831686735153198
156,4,128,85,0.6450403332710266,0.078244149684906
156,4,128,86,0.5548536777496338,0.15129929780960083
156,4,128,87,0.4812183976173401,0.21262496709823608
156,4,128,88,0.6588127017021179,0.13340279459953308
156,4,128,89,0.348859041929245,0.13285526633262634
156,4,128,90,0.6897093653678894,0.17731061577796936
156,4,128,91,0.6447628140449524,0.19768957793712616
156,4,128,92,0.5999255776405334,0.24846811592578888
156,4,128,93,0.4978550970554352,0.24253763258457184
156,4,128,94,0.6753928661346436,0.11727645248174667
156,4,128,95,0.6796056032180786,0.10096622258424759
156,4,128,96,0.6009950637817383,0.1705506592988968
156,4,128,97,0.4353582262992859,0.13148751854896545
156,4,128,98,0.34462013840675354,0.10078027844429016
156,4,128,99,0.5626575350761414,0.21560858190059662
156,4,128,100,0.6476964354515076,0.0519668385386467
156,4,128,101,0.5363813638687134,0.18753884732723236
156,4,128,102,0.40303730964660645,0.1726495772600174
156,4,128,103,0.6291258335113525,0.23490041494369507
156,4,128,104,0.621455192565918,0.19876138865947723
156,4,128,105,0.4645424485206604,0.24086894094944
156,4,128,106,0.511823832988739,0.0989186018705368
156,4,128,107,0.5881217122077942,0.16347932815551758
156,4,128,108,0.36219099164009094,0.23319919407367706
156,4,128,109,0.5996710062026978,0.1288214772939682
156,4,128,110,0.5411306023597717,0.28347885608673096
156,4,128,111,0.637748658657074,0.23816648125648499
156,4,128,112,0.7156505584716797,0.1484188735485077
156,4,128,113,0.451168954372406,0.24926047027111053
156,4,128,114,0.4844793975353241,0.1340421438217163
156,4,128,115,0.6504238247871399,0.23205247521400452
156,4,128,116,0.508283257484436,0.20167233049869537
156,4,128,117,0.6167469024658203,0.25293898582458496
156,4,128,118,0.5899531841278076,0.27430734038352966
156,4,128,119,0.5638546943664551,0.13446182012557983
156,4,128,120,0.5712586641311646,0.21538272500038147
156,4,128,121,0.5327925682067871,0.2036159783601761
156,4,128,122,0.6106520295143127,0.11732174456119537
156,4,128,123,0.57985520362854,0.25700390338897705
156,4,128,124,0.594752848148346,0.05130169913172722
156,4,128,125,0.5834348201751709,0.21476946771144867
156,4,128,126,0.6061307787895203,0.176914781332016
156,4,128,127,0.5912807583808899,0.19291500747203827
156,5,128,0,0.694413423538208,0.14868105947971344
156,5,128,1,0.7601485848426819,0.12151970714330673
156,5,128,2,0.5547462105751038,0.18741098046302795
156,5,128,3,0.7157940864562988,0.09370414167642593
156,5,128,4,0.7751262187957764,0.12468012422323227
156,5,128,5,0.5688856840133667,0.19281524419784546
156,5,128,6,0.5811719298362732,0.1288798600435257
156,5,128,7,0.5536342263221741,0.15717127919197083
156,5,128,8,0.46929648518562317,0.14296811819076538
156,5,128,9,0.5307367444038391,0.21028967201709747
156,5,128,10,0.7321405410766602,0.12459329515695572
156,5,128,11,0.6910889148712158,0.12159023433923721
156,5,128,12,0.5952419638633728,0.19461597502231598
156,5,128,13,0.6530848145484924,0.165896475315094
156,5,128,14,0.5258356332778931,0.16515502333641052
156,5,128,15,0.47003307938575745,0.09223605692386627
156,5,128,16,0.5337403416633606,0.11557997763156891
156,5,128,17,0.39608335494995117,0.15855294466018677
156,5,128,18,0.5599929690361023,0.1351134181022644
156,5,128,19,0.574692964553833,0.09601327776908875
156,5,128,20,0.38201531767845154,0.13030613958835602
156,5,128,21,0.4177805185317993,0.24180692434310913
156,5,128,22,0.7402792572975159,0.16243594884872437
156,5,128,23,0.6572712659835815,0.23792237043380737
156,5,128,24,0.7369257211685181,0.10952375829219818
156,5,128,25,0.696569561958313,0.11782170832157135
156,5,128,26,0.4756633937358856,0.21580126881599426
156,5,128,27,0.7080613970756531,0.15511758625507355
156,5,128,28,0.5965708494186401,0.1924130916595459
156,5,128,29,0.5783168077468872,0.18864372372627258
156,5,128,30,0.5454479455947876,0.16200792789459229
156,5,128,31,0.42174527049064636,0.17785072326660156
156,5,128,32,0.6885712742805481,0.16286525130271912
156,5,128,33,0.47741180658340454,0.2157207578420639
156,5,128,34,0.5335526466369629,0.1848282814025879
156,5,128,35,0.611782431602478,0.1509619504213333
156,5,128,36,0.7238888144493103,0.13110387325286865
156,5,128,37,0.6001964211463928,0.13419240713119507
156,5,128,38,0.4468297064304352,0.23896822333335876
156,5,128,39,0.6753020882606506,0.15346111357212067
156,5,128,40,0.6929928660392761,0.1693517416715622
156,5,128,41,0.42259177565574646,0.2421610802412033
156,5,128,42,0.5019477605819702,0.11614622920751572
156,5,128,43,0.6427723169326782,0.09653954952955246
156,5,128,44,0.6393431425094604,0.1851068139076233
156,5,128,45,0.7476924061775208,0.14715823531150818
156,5,128,46,0.5964040160179138,0.16306869685649872
156,5,128,47,0.7565175890922546,0.09943865984678268
156,5,128,48,0.6260225772857666,0.17471005022525787
156,5,128,49,0.7282041311264038,0.1589479148387909
156,5,128,50,0.581238865852356,0.2014956921339035
156,5,128,51,0.5640593767166138,0.173086017370224
156,5,128,52,0.5543317794799805,0.14576010406017303
156,5,128,53,0.6395256519317627,0.15967123210430145
156,5,128,54,0.6047771573066711,0.2155056595802307
156,5,128,55,0.7186497449874878,0.14365550875663757
156,5,128,56,0.49962666630744934,0.23575639724731445
156,5,128,57,0.567622184753418,0.059782639145851135
156,5,128,58,0.5750499963760376,0.1857527494430542
156,5,128,59,0.6397451162338257,0.08848756551742554
156,5,128,60,0.7414693832397461,0.14609408378601074
156,5,128,61,0.4367119371891022,0.13852089643478394
156,5,128,62,0.5753631591796875,0.16963794827461243
156,5,128,63,0.6486648321151733,0.2119910717010498
156,5,128,64,0.6774138808250427,0.09226970374584198
156,5,128,65,0.7470227479934692,0.14642451703548431
156,5,128,66,0.5082178115844727,0.27320051193237305
156,5,128,67,0.6484787464141846,0.19906656444072723
156,5,128,68,0.5606423616409302,0.19465531408786774
156,5,128,69,0.689843475818634,0.15365253388881683
156,5,128,70,0.7756756544113159,0.09445017576217651
156,5,128,71,0.4638630151748657,0.10435500741004944
156,5,128,72,0.607837975025177,0.20727331936359406
156,5,128,73,0.6510779857635498,0.07865950465202332
156,5,128,74,0.5989916324615479,0.1216818317770958
156,5,128,75,0.48683181405067444,0.202076256275177
156,5,128,76,0.7626732587814331,0.09043709933757782
156,5,128,77,0.49805930256843567,0.06535989791154861
156,5,128,78,0.5265260338783264,0.14820890128612518
156,5,128,79,0.6778455972671509,0.10433799028396606
156,5,128,80,0.5830579996109009,0.23797446489334106
156,5,128,81,0.5305797457695007,0.07464253157377243
156,5,128,82,0.5764225125312805,0.11486349254846573
156,5,128,83,0.6411665081977844,0.13715772330760956
156,5,128,84,0.35641324520111084,0.1162225529551506
156,5,128,85,0.6336445808410645,0.19394662976264954
156,5,128,86,0.6843108534812927,0.12776672840118408
156,5,128,87,0.41335007548332214,0.12304164469242096
156,5,128,88,0.5527253746986389,0.1771652102470398
156,5,128,89,0.6250234842300415,0.07470463961362839
156,5,128,90,0.6275084614753723,0.1808992624282837
156,5,128,91,0.7034980058670044,0.1116623654961586
156,5,128,92,0.7393328547477722,0.15207061171531677
156,5,128,93,0.5120955109596252,0.1986245959997177
156,5,128,94,0.5589285492897034,0.154458686709404
156,5,128,95,0.5293176770210266,0.19058825075626373
156,5,128,96,0.700426459312439,0.1412426233291626
156,5,128,97,0.539332926273346,0.18607017397880554
156,5,128,98,0.5962070822715759,0.13272643089294434
156,5,128,99,0.4436824917793274,0.24554115533828735
156,5,128,100,0.6597469449043274,0.128804549574852
156,5,128,101,0.5915734767913818,0.08135569095611572
156,5,128,102,0.6494309306144714,0.1710336059331894
156,5,128,103,0.7726460695266724,0.1253443956375122
156,5,128,104,0.46999937295913696,0.16211247444152832
156,5,128,105,0.5133388638496399,0.08143468201160431
156,5,128,106,0.5403890013694763,0.10485003888607025
156,5,128,107,0.7177173495292664,0.15646138787269592
156,5,128,108,0.5557227730751038,0.21873784065246582
156,5,128,109,0.6050292253494263,0.2028931826353073
156,5,128,110,0.6806407570838928,0.12273853272199631
156,5,128,111,0.7465046048164368,0.10643525421619415
156,5,128,112,0.4552246034145355,0.17402328550815582
156,5,128,113,0.7340162992477417,0.12196096032857895
156,5,128,114,0.6347384452819824,0.13595537841320038
156,5,128,115,0.6940168738365173,0.15767954289913177
156,5,128,116,0.5502896308898926,0.1576586663722992
156,5,128,117,0.6928742527961731,0.1372203677892685
156,5,128,118,0.4969027638435364,0.25122687220573425
156,5,128,119,0.6802693009376526,0.14555546641349792
156,5,128,120,0.7084391713142395,0.14220251142978668
156,5,128,121,0.6497083902359009,0.12387830018997192
156,5,128,122,0.6678059101104736,0.11173027008771896
156,5,128,123,0.6190264225006104,0.26385870575904846
156,5,128,124,0.6812778115272522,0.1526215523481369
156,5,128,125,0.6272399425506592,0.1266636997461319
156,5,128,126,0.7423046231269836,0.14242590963840485
156,5,128,127,0.7603020668029785,0.13129520416259766
185,0,32,0,0.5273171663284302,0.11096565425395966
185,0,32,1,0.46371808648109436,0.13026852905750275
185,0,32,2,0.40429678559303284,0.1386794000864029
185,0,32,3,0.3649006485939026,0.09295019507408142
185,0,32,4,0.37881141901016235,0.16822680830955505
185,0,32,5,0.656902551651001,0.1546967774629593
185,0,32,6,0.4049476683139801,0.07274828106164932
185,0,32,7,0.45315083861351013,0.09394527226686478
185,0,32,8,0.32554689049720764,0.06737112998962402
185,0,32,9,0.3735558092594147,0.08089132606983185
185,0,32,10,0.361818790435791,0.1107192412018776
185,0,32,11,0.44174423813819885,0.10383737832307816
185,0,32,12,0.5985643267631531,0.10540858656167984
185,0,32,13,0.5461660027503967,0.06572158634662628
185,0,32,14,0.49814483523368835,0.08541952073574066
185,0,32,15,0.4910358488559723,0.056469108909368515
185,0,32,16,0.5405872464179993,0.08712845295667648
185,0,32,17,0.6798326969146729,0.11912143230438232
185,0,32,18,0.40890225768089294,0.05809716507792473
185,0,32,19,0.4336610734462738,0.07987388968467712
185,0,32,20,0.5266624689102173,0.09411139786243439
185,0,32,21,0.552886962890625,0.09066348522901535
185,0,32,22,0.5602530837059021,0.04767010360956192
185,0,32,23,0.4015006721019745,0.06361185014247894
185,0,32,24,0.531857967376709,0.08254033327102661
185,0,32,25,0.4619137644767761,0.04918760806322098
185,0,32,26,0.6421748995780945,0.07524183392524719
185,0,32,27,0.5774775147438049,0.08314184844493866
185,0,32,28,0.4635600447654724,0.10466160625219345
185,0,32,29,0.591709315776825,0.06331748515367508
185,0,32,30,0.49437612295150757,0.041120100766420364
185,0,32,31,0.3463422954082489,0.11919199675321579
185,1,32,0,0.3156481981277466,0.08255768567323685
185,1,32,1,0.4555754065513611,0.13241428136825562
185,1,32,2,0.4946422278881073,0.10732567310333252
185,1,32,3,0.49920204281806946,0.10730012506246567
185,1,32,4,0.4124743938446045,0.10430782288312912
185,1,32,5,0.3595380187034607,0.1141669899225235
185,1,32,6,0.45952531695365906,0.13015151023864746
185,1,32,7,0.4918658435344696,0.11072323471307755
185,1,32,8,0.4379120171070099,0.10602770000696182
185,1,32,9,0.5533790588378906,0.11270605772733688
185,1,32,10,0.4954471290111542,0.06595789641141891
185,1,32,11,0.3493523895740509,0.124271921813488
185,1,32,12,0.4397065043449402,0.11208126693964005
185,1,32,13,0.41270503401756287,0.07369676232337952
185,1,32,14,0.5112317800521851,0.11924873292446136
185,1,32,15,0.49861574172973633,0.056314144283533096
185,1,32,16,0.48980775475502014,0.0425696074962616
185,1,32,17,0.5241455435752869,0.06569667160511017
185,1,32,18,0.6175057291984558,0.07054425030946732
185,1,32,19,0.3245851695537567,0.059026431292295456
185,1,32,20,0.4283028841018677,0.08135843276977539
185,1,32,21,0.4195883572101593,0.13124661147594452
185,1,32,22,0.38676968216896057,0.10282330960035324
185,1,32,23,0.5578935146331787,0.076872318983078
185,1,32,24,0.5863152742385864,0.013571110554039478
185,1,32,25,0.5852959156036377,0.05436168983578682
185,1,32,26,0.40758875012397766,0.10474463552236557
185,1,32,27,0.3986225128173828,0.14349468052387238
185,1,32,28,0.3197037875652313,0.0854976624250412
185,1,32,29,0.5896494388580322,0.1340857446193695
185,1,32,30,0.5277445912361145,0.1651218682527542
185,1,32,31,0.4392719864845276,0.1443028748035431
185,2,64,0,0.5233553051948547,0.05084584280848503
185,2,64,1,0.5211088061332703,0.06280411034822464
185,2,64,2,0.4152061939239502,0.08515719324350357
185,2,64,3,0.43378129601478577,0.12529638409614563
185,2,64,4,0.4036518335342407,0.12635581195354462
185,2,64,5,0.4789760410785675,0.08040160685777664
185,2,64,6,0.5132697224617004,0.04084661230444908
185,2,64,7,0.38913241028785706,0.11973212659358978
185,2,64,8,0.6383599638938904,0.08928496390581131
185,2,64,9,0.5556866526603699,0.061055202037096024
185,2,64,10,0.4513299763202667,0.09922973066568375
185,2,64,11,0.5024230480194092,0.1073591336607933
185,2,64,12,0.39787667989730835,0.08306524902582169
185,2,64,13,0.5552476048469543,0.08155148476362228
185,2,64,14,0.4838191568851471,0.08200826495885849
185,2,64,15,0.4563058912754059,0.0727558434009552
185,2,64,16,0.42501404881477356,0.14938324689865112
185,2,64,17,0.6096760034561157,0.09361320734024048
185,2,64,18,0.5323975682258606,0.05177915096282959
185,2,64,19,0.44051891565322876,0.05811483412981033
185,2,64,20,0.569092869758606,0.05035441368818283
185,2,64,21,0.49425777792930603,0.1025388315320015
185,2,64,22,0.540340781211853,0.09687814861536026
185,2,64,23,0.37220826745033264,0.11508487164974213
185,2,64,24,0.38767972588539124,0.09885261952877045
185,2,64,25,0.5103932619094849,0.08686265349388123
185,2,64,26,0.3595369756221771,0.11542356759309769
185,2,64,27,0.4754851460456848,0.10101652145385742
185,2,64,28,0.5435977578163147,0.03790251165628433
185,2,64,29,0.4452369213104248,0.131296768784523
185,2,64,30,0.5541405081748962,0.08222531527280807
185,2,64,31,0.3964150547981262,0.06249845400452614
185,2,64,32,0.41070982813835144,0.13493087887763977
185,2,64,33,0.47881054878234863,0.06426842510700226
185,2,64,34,0.3797270655632019,0.08167999237775803
185,2,64,35,0.3975815773010254,0.0590941458940506
185,2,64,36,0.3942945599555969,0.09562230855226517
185,2,64,37,0.6002796292304993,0.07229235768318176
185,2,64,38,0.4494974613189697,0.057736586779356
185,2,64,39,0.5157681107521057,0.09180862456560135
185,2,64,40,0.5033394694328308,0.07505451142787933
185,2,64,41,0.4148204028606415,0.07203004509210587
185,2,64,42,0.39671754837036133,0.12470963597297668
185,2,64,43,0.49478211998939514,0.12558355927467346
185,2,64,44,0.48545822501182556,0.1030442863702774
185,2,64,45,0.47219038009643555,0.07110568135976791
185,2,64,46,0.4940244257450104,0.05132327228784561
185,2,64,47,0.48903459310531616,0.07743581384420395
185,2,64,48,0.6878545880317688,0.08908744901418686
185,2,64,49,0.49505099654197693,0.07150044292211533
185,2,64,50,0.5172736644744873,0.11080695688724518
185,2,64,51,0.34217628836631775,0.09695042669773102
185,2,64,52,0.46069222688674927,0.09861975163221359
185,2,64,53,0.5852497816085815,0.05541630834341049
185,2,64,54,0.5614137649536133,0.09938166290521622
185,2,64,55,0.4461938738822937,0.07499987632036209
185,2,64,56,0.45718809962272644,0.14323978126049042
185,2,64,57,0.5211797952651978,0.06525616347789764
185,2,64,58,0.3343751132488251,0.1034008264541626
185,2,64,59,0.5334736704826355,0.12585288286209106
185,2,64,60,0.6032525300979614,0.08240516483783722
185,2,64,61,0.48211994767189026,0.07982432842254639
185,2,64,62,0.5692156553268433,0.07849740236997604
185,2,64,63,0.5710533857345581,0.1100003570318222
185,3,64,0,0.41139015555381775,0.06218159571290016
185,3,64,1,0.4662763476371765,0.046735212206840515
185,3,64,2,0.628227174282074,0.06693609803915024
185,3,64,3,0.5921316146850586,0.06318438053131104
185,3,64,4,0.45969071984291077,0.07553449273109436
185,3,64,5,0.524348258972168,0.0410354807972908
185,3,64,6,0.43106648325920105,0.055079806596040726
185,3,64,7,0.41217124462127686,0.07991267740726471
185,3,64,8,0.5110817551612854,0.07471385598182678
185,3,64,9,0.4511268138885498,0.10050750523805618
185,3,64,10,0.46777141094207764,0.06139438971877098
185,3,64,11,0.641356348991394,0.0803951844573021
185,3,64,12,0.5075154900550842,0.04920312389731407
185,3,64,13,0.45304179191589355,0.08981414884328842
185,3,64,14,0.36238956451416016,0.09965670108795166
185,3,64,15,0.6308916807174683,0.036439768970012665
185,3,64,16,0.5791013836860657,0.029130276292562485
185,3,64,17,0.4974682629108429,0.08293464034795761
185,3,64,18,0.5010075569152832,0.07342817634344101
185,3,64,19,0.5364164710044861,0.056683607399463654
185,3,64,20,0.5390618443489075,0.08735494315624237
185,3,64,21,0.4943857192993164,0.0803370326757431
185,3,64,22,0.46971359848976135,0.0630071684718132
185,3,64,23,0.46181628108024597,0.040209606289863586
185,3,64,24,0.5727481245994568,0.07954269647598267
185,3,64,25,0.5898603200912476,0.06516611576080322
185,3,64,26,0.5069705843925476,0.08309306204319
185,3,64,27,0.6224324703216553,0.038016803562641144
185,3,64,28,0.6118592619895935,0.037958938628435135
185,3,64,29,0.5308352112770081,0.07336251437664032
185,3,64,30,0.5534749031066895,0.05653079226613045
185,3,64,31,0.6272493004798889,0.0760398879647255
185,3,64,32,0.4744018614292145,0.10800205916166306
185,3,64,33,0.45030272006988525,0.03786533698439598
185,3,64,34,0.5602096915245056,0.09256438165903091
185,3,64,35,0.3471754491329193,0.06927385181188583
185,3,64,36,0.49586787819862366,0.06960570067167282
185,3,64,37,0.5325807929039001,0.08861692249774933
185,3,64,38,0.34989312291145325,0.0775802731513977
185,3,64,39,0.6006724238395691,0.08471894264221191
185,3,64,40,0.5581977367401123,0.056405916810035706
185,3,64,41,0.5008898377418518,0.054130103439092636
185,3,64,42,0.45788872241973877,0.06912237405776978
185,3,64,43,0.33911946415901184,0.10177624970674515
185,3,64,44,0.5649770498275757,0.06851010769605637
185,3,64,45,0.4170811176300049,0.08352329581975937
185,3,64,46,0.44412723183631897,0.06857580691576004
185,3,64,47,0.5614290237426758,0.08605526387691498
185,3,64,48,0.5596869587898254,0.042050909250974655
185,3,64,49,0.5110248923301697,0.05450276657938957
185,3,64,50,0.4716760218143463,0.09034015983343124
185,3,64,51,0.4621509611606598,0.06833162158727646
185,3,64,52,0.4936441481113434,0.0485740527510643
185,3,64,53,0.5564813017845154,0.03419434651732445
185,3,64,54,0.5854704976081848,0.031238602474331856
185,3,64,55,0.5435163974761963,0.052679192274808884
185,3,64,56,0.5781076550483704,0.04632169008255005
185,3,64,57,0.41839900612831116,0.0525348037481308
185,3,64,58,0.5117364525794983,0.06977824866771698
185,3,64,59,0.5497470498085022,0.05964067205786705
185,3,64,60,0.494125634431839,0.0820532888174057
185,3,64,61,0.48006463050842285,0.06778271496295929
185,3,64,62,0.537823498249054,0.0723540410399437
185,3,64,63,0.6059455871582031,0.031550806015729904
185,4,128,0,0.6718920469284058,0.0797334611415863
185,4,128,1,0.550105631351471,0.05168985202908516
185,4,128,2,0.4844397008419037,0.21341077983379364
185,4,128,3,0.5556809902191162,0.18642005324363708
185,4,128,4,0.5366995334625244,0.2647174894809723
185,4,128,5,0.6271085739135742,0.1529141664505005
185,4,128,6,0.44770050048828125,0.1869216114282608
185,4,128,7,0.539252519607544,0.2541571259498596
185,4,128,8,0.4834584891796112,0.09298514574766159
185,4,128,9,0.5742183923721313,0.24206925928592682
185,4,128,10,0.4471113681793213,0.16774603724479675
185,4,128,11,0.4649457037448883,0.06952136754989624
185,4,128,12,0.4737354516983032,0.2584361135959625
185,4,128,13,0.6366121768951416,0.1035686656832695
185,4,128,14,0.5160920023918152,0.1368171125650406
185,4,128,15,0.669911801815033,0.1716293841600418
185,4,128,16,0.6444286108016968,0.07544662058353424
185,4,128,17,0.402738094329834,0.207753524184227
185,4,128,18,0.5754300951957703,0.19655922055244446
185,4,128,19,0.3880351483821869,0.14340424537658691
185,4,128,20,0.7039011716842651,0.10060881078243256
185,4,128,21,0.5831120610237122,0.15641741454601288
185,4,128,22,0.5669901371002197,0.12518322467803955
185,4,128,23,0.5496249794960022,0.05627089738845825
185,4,128,24,0.6279778480529785,0.157594233751297
185,4,128,25,0.5709218978881836,0.12142844498157501
185,4,128,26,0.4440135359764099,0.20433881878852844
185,4,128,27,0.5341777801513672,0.11382989585399628
185,4,128,28,0.3723832666873932,0.12931644916534424
185,4,128,29,0.5028876066207886,0.0668727308511734
185,4,128,30,0.5176324844360352,0.1264670193195343
185,4,128,31,0.4743843078613281,0.13768921792507172
185,4,128,32,0.5067362785339355,0.19589275121688843
185,4,128,33,0.5819326639175415,0.07651593536138535
185,4,128,34,0.5821358561515808,0.1332205981016159
185,4,128,35,0.5389765501022339,0.1724226176738739
185,4,128,36,0.4669295847415924,0.09018371999263763
185,4,128,37,0.47142115235328674,0.24020180106163025
185,4,128,38,0.6464312076568604,0.16800498962402344
185,4,128,39,0.4396417737007141,0.13353417813777924
185,4,128,40,0.4905206561088562,0.0932312160730362
185,4,128,41,0.573515772819519,0.13094349205493927
185,4,128,42,0.5322733521461487,0.16858789324760437
185,4,128,43,0.38869959115982056,0.10085105895996094
185,4,128,44,0.5496830940246582,0.16659069061279297
185,4,128,45,0.5395206809043884,0.20321303606033325
185,4,128,46,0.4402039349079132,0.11573611199855804
185,4,128,47,0.694340705871582,0.1086842343211174
185,4,128,48,0.5456838607788086,0.15688204765319824
185,4,128,49,0.5816410779953003,0.1550293117761612
185,4,128,50,0.37741416692733765,0.15892474353313446
185,4,128,51,0.35322239995002747,0.08519367128610611
185,4,128,52,0.5075363516807556,0.13853339850902557
185,4,128,53,0.6773623824119568,0.10132404416799545
185,4,128,54,0.4433133602142334,0.10207563638687134
185,4,128,55,0.5376497507095337,0.08872098475694656
185,4,128,56,0.3514636158943176,0.08110848069190979
185,4,128,57,0.4870181679725647,0.12008406221866608
185,4,128,58,0.5789438486099243,0.08048074692487717
185,4,128,59,0.5475148558616638,0.09339242428541183
185,4,128,60,0.6555873155593872,0.2028854340314865
185,4,128,61,0.4966888427734375,0.05934695154428482
185,4,128,62,0.48112738132476807,0.21739736199378967
185,4,128,63,0.6509085297584534,0.16062821447849274
185,4,128,64,0.5328183174133301,0.1782226860523224
185,4,128,65,0.5180653929710388,0.13512931764125824
185,4,128,66,0.34341931343078613,0.10858345776796341
185,4,128,67,0.553712010383606,0.25079187750816345
185,4,128,68,0.44008925557136536,0.23930864036083221
185,4,128,69,0.34122681617736816,0.08015569299459457
185,4,128,70,0.42952609062194824,0.15791833400726318
185,4,128,71,0.4754161834716797,0.10271500051021576
185,4,128,72,0.4165668487548828,0.1687106043100357
185,4,128,73,0.6161466240882874,0.15262973308563232
185,4,128,74,0.3942168951034546,0.1321878731250763
185,4,128,75,0.4783881902694702,0.11060775816440582
185,4,128,76,0.48993927240371704,0.13357554376125336
185,4,128,77,0.6022961139678955,0.052492931485176086
185,4,128,78,0.4273545444011688,0.09060044586658478
185,4,128,79,0.4717715084552765,0.10719289630651474
185,4,128,80,0.5902360677719116,0.2000207155942917
185,4,128,81,0.3952879309654236,0.11743300408124924
185,4,128,82,0.49432599544525146,0.15088540315628052
185,4,128,83,0.479682981967926,0.10569455474615097
185,4,128,84,0.5489709377288818,0.12234130501747131
185,4,128,85,0.556941032409668,0.15642118453979492
185,4,128,86,0.6022745370864868,0.19117915630340576
185,4,128,87,0.5794851779937744,0.14094963669776917
185,4,128,88,0.45754051208496094,0.2083914875984192
185,4,128,89,0.5037259459495544,0.2015613466501236
185,4,128,90,0.4047388434410095,0.1665099561214447
185,4,128,91,0.5035085678100586,0.1148986667394638
185,4,128,92,0.5166965126991272,0.11913071572780609
185,4,128,93,0.5263867378234863,0.18247582018375397
185,4,128,94,0.5182933211326599,0.0735505223274231
185,4,128,95,0.4450773596763611,0.16339893639087677
185,4,128,96,0.5703356862068176,0.1889195293188095
185,4,128,97,0.5489878058433533,0.22535958886146545
185,4,128,98,0.6654838919639587,0.10983400791883469
185,4,128,99,0.5559081435203552,0.107272207736969
185,4,128,100,0.6102909445762634,0.18308481574058533
185,4,128,101,0.45807909965515137,0.10102615505456924
185,4,128,102,0.679701030254364,0.12110771983861923
185,4,128,103,0.46127036213874817,0.17808499932289124
185,4,128,104,0.5053763389587402,0.11906516551971436
185,4,128,105,0.6891933679580688,0.09007610380649567
185,4,128,106,0.616521954536438,0.0847674310207367
185,4,128,107,0.39944085478782654,0.16531790792942047
185,4,128,108,0.5977991819381714,0.05254789814352989
185,4,128,109,0.57269287109375,0.10592044144868851
185,4,128,110,0.48768705129623413,0.14622512459754944
185,4,128,111,0.7298943996429443,0.08256830275058746
185,4,128,112,0.4464910626411438,0.1697784960269928
185,4,128,113,0.42851462960243225,0.18549835681915283
185,4,128,114,0.529453694820404,0.1210036426782608
185,4,128,115,0.6943311095237732,0.0901997834444046
185,4,128,116,0.27501624822616577,0.08380994200706482
185,4,128,117,0.5322770476341248,0.07383770495653152
185,4,128,118,0.5222552418708801,0.15645098686218262
185,4,128,119,0.6073318719863892,0.11795816570520401
185,4,128,120,0.7763091325759888,0.10470844060182571
185,4,128,121,0.3927399814128876,0.08909682184457779
185,4,128,122,0.5685214400291443,0.1633203774690628
185,4,128,123,0.43820875883102417,0.22621163725852966
185,4,128,124,0.4597528278827667,0.07504485547542572
185,4,128,125,0.43713101744651794,0.1902828812599182
185,4,128,126,0.40451210737228394,0.20216387510299683
185,4,128,127,0.5497981905937195,0.12589722871780396
185,5,128,0,0.5628957748413086,0.13913188874721527
185,5,128,1,0.36717668175697327,0.09965258836746216
185,5,128,2,0.6287603974342346,0.060068268328905106
185,5,128,3,0.6755849123001099,0.1408858299255371
185,5,128,4,0.43973657488822937,0.1779610812664032
185,5,128,5,0.47514188289642334,0.059062451124191284
185,5,128,6,0.5310361385345459,0.06428347527980804
185,5,128,7,0.6205598711967468,0.09650745242834091
185,5,128,8,0.6195118427276611,0.09570886939764023
185,5,128,9,0.5894018411636353,0.0863674208521843
185,5,128,10,0.6794760227203369,0.104855976998806
185,5,128,11,0.48553454875946045,0.04527659714221954
185,5,128,12,0.4582388401031494,0.18976208567619324
185,5,128,13,0.6187470555305481,0.11844421923160553
185,5,128,14,0.6701065897941589,0.11632945388555527
185,5,128,15,0.5399175882339478,0.1014852300286293
185,5,128,16,0.5079378485679626,0.08234299719333649
185,5,128,17,0.41953545808792114,0.10665873438119888
185,5,128,18,0.6575590968132019,0.1827160120010376
185,5,128,19,0.5964440107345581,0.07418305426836014
185,5,128,20,0.5083544254302979,0.086212158203125
185,5,128,21,0.5666888356208801,0.08108507841825485
185,5,128,22,0.5489888191223145,0.048122305423021317
185,5,128,23,0.5615074634552002,0.24084052443504333
185,5,128,24,0.5649606585502625,0.12131379544734955
185,5,128,25,0.5973224639892578,0.14826515316963196
185,5,128,26,0.5764086842536926,0.09150391817092896
185,5,128,27,0.35055992007255554,0.1498473733663559
185,5,128,28,0.687452495098114,0.1109469011425972
185,5,128,29,0.44380736351013184,0.11728271096944809
185,5,128,30,0.48630058765411377,0.10688479244709015
185,5,128,31,0.46490439772605896,0.16172577440738678
185,5,128,32,0.5648451447486877,0.08506286889314651
185,5,128,33,0.6486157178878784,0.17092090845108032
185,5,128,34,0.6661836504936218,0.17413243651390076
185,5,128,35,0.5162713527679443,0.08887480199337006
185,5,128,36,0.33370059728622437,0.11970669776201248
185,5,128,37,0.5908269882202148,0.1352064162492752
185,5,128,38,0.5512369275093079,0.13533155620098114
185,5,128,39,0.5319667458534241,0.15390542149543762
185,5,128,40,0.4879668056964874,0.16291159391403198
185,5,128,41,0.6719076037406921,0.12471088767051697
185,5,128,42,0.46266970038414,0.07192029803991318
185,5,128,43,0.3849993050098419,0.0874851867556572
185,5,128,44,0.5139498114585876,0.11127667874097824
185,5,128,45,0.447797566652298,0.15724776685237885
185,5,128,46,0.6883050799369812,0.07431470602750778
185,5,128,47,0.6058831214904785,0.10330452769994736
185,5,128,48,0.45578524470329285,0.15131345391273499
185,5,128,49,0.5963559150695801,0.07416588068008423
185,5,128,50,0.6090043783187866,0.10645812004804611
185,5,128,51,0.6547862887382507,0.08007383346557617
185,5,128,52,0.5017776489257812,0.1542607992887497
185,5,128,53,0.3623930811882019,0.14633964002132416
185,5,128,54,0.4537869095802307,0.22734495997428894
185,5,128,55,0.6490635275840759,0.09086655080318451
185,5,128,56,0.5103989243507385,0.10485910624265671
185,5,128,57,0.5173256397247314,0.1277129054069519
185,5,128,58,0.5634294152259827,0.10261674225330353
185,5,128,59,0.48197025060653687,0.09371578693389893
185,5,128,60,0.7231266498565674,0.06593026220798492
185,5,128,61,0.6998050808906555,0.14641880989074707
185,5,128,62,0.48769858479499817,0.16609981656074524
185,5,128,63,0.6886855959892273,0.09427361935377121
185,5,128,64,0.4892581105232239,0.14947131276130676
185,5,128,65,0.6530735492706299,0.10175476223230362
185,5,128,66,0.4366157054901123,0.12778832018375397
185,5,128,67,0.5058144330978394,0.0733305811882019
185,5,128,68,0.571641743183136,0.08027444779872894
185,5,128,69,0.6722092628479004,0.10938789695501328
185,5,128,70,0.4643396735191345,0.07140687853097916
185,5,128,71,0.6828691363334656,0.11877254396677017
185,5,128,72,0.7268534302711487,0.11364411562681198
185,5,128,73,0.6134747862815857,0.1823553442955017
185,5,128,74,0.5659916996955872,0.1212017759680748
185,5,128,75,0.6051928400993347,0.15873627364635468
185,5,128,76,0.42101484537124634,0.13968102633953094
185,5,128,77,0.5059398412704468,0.1443747729063034
185,5,128,78,0.5649238228797913,0.10609040409326553
185,5,128,79,0.5034939646720886,0.0812423974275589
185,5,128,80,0.5587006211280823,0.05953960493206978
185,5,128,81,0.44170641899108887,0.02261224575340748
185,5,128,82,0.4888785779476166,0.22156748175621033
185,5,128,83,0.44770148396492004,0.060512758791446686
185,5,128,84,0.649318277835846,0.11311304569244385
185,5,128,85,0.35217636823654175,0.14004890620708466
185,5,128,86,0.5651024580001831,0.16535837948322296
185,5,128,87,0.5351170897483826,0.12955361604690552
185,5,128,88,0.522227942943573,0.09167826920747757
185,5,128,89,0.5636981725692749,0.10487689822912216
185,5,128,90,0.37339797616004944,0.09532079845666885
185,5,128,91,0.5888922214508057,0.13448841869831085
185,5,128,92,0.46812787652015686,0.13170072436332703
185,5,128,93,0.6804338097572327,0.12739135324954987
185,5,128,94,0.6307216286659241,0.05337135121226311
185,5,128,95,0.6736977696418762,0.14970000088214874
185,5,128,96,0.531920850276947,0.13753387331962585
185,5,128,97,0.6358461976051331,0.12909963726997375
185,5,128,98,0.7024714946746826,0.1932767778635025
185,5,128,99,0.7674838304519653,0.1344507932662964
185,5,128,100,0.5082666277885437,0.2168670892715454
185,5,128,101,0.56050044298172,0.18512582778930664
185,5,128,102,0.6128707528114319,0.11394809186458588
185,5,128,103,0.6357864141464233,0.12840235233306885
185,5,128,104,0.4351068437099457,0.09612713754177094
185,5,128,105,0.6120423674583435,0.14673012495040894
185,5,128,106,0.6941550970077515,0.18797604739665985
185,5,128,107,0.6480267643928528,0.11025921255350113
185,5,128,108,0.47493717074394226,0.18241989612579346
185,5,128,109,0.612407922744751,0.15106457471847534
185,5,128,110,0.728865385055542,0.09644118696451187
185,5,128,111,0.6458337306976318,0.09615703672170639
185,5,128,112,0.6077449321746826,0.12133119255304337
185,5,128,113,0.4943373203277588,0.21081073582172394
185,5,128,114,0.6434229016304016,0.11215918511152267
185,5,128,115,0.5261041522026062,0.08501828461885452
185,5,128,116,0.5811175107955933,0.13351701200008392
185,5,128,117,0.5826635360717773,0.06524094194173813
185,5,128,118,0.4625900089740753,0.11248070746660233
185,5,128,119,0.5306335091590881,0.09293678402900696
185,5,128,120,0.4856725037097931,0.07081308215856552
185,5,128,121,0.47595006227493286,0.1043890044093132
185,5,128,122,0.630759596824646,0.16378368437290192
185,5,128,123,0.4645251929759979,0.10059592872858047
185,5,128,124,0.6450247764587402,0.13007406890392303
185,5,128,125,0.4134668707847595,0.09470481425523758
185,5,128,126,0.6884623169898987,0.07369894534349442
185,5,128,127,0.3682548403739929,0.18260417878627777
186,0,32,0,0.49998822808265686,0.1352313756942749
186,0,32,1,0.6149922013282776,0.06907919049263
186,0,32,2,0.471571683883667,0.05034975707530975
186,0,32,3,0.474762886762619,0.06433641910552979
186,0,32,4,0.5541274547576904,0.09616900980472565
186,0,32,5,0.4333212971687317,0.06454634666442871
186,0,32,6,0.360904723405838,0.05074719339609146
186,0,32,7,0.47357726097106934,0.13247567415237427
186,0,32,8,0.561383843421936,0.05355028063058853
186,0,32,9,0.5641252398490906,0.06377511471509933
186,0,32,10,0.4618391990661621,0.046329889446496964
186,0,32,11,0.5719743967056274,0.10856884717941284
186,0,32,12,0.6459600925445557,0.1089043989777565
186,0,32,13,0.4570496380329132,0.1218004897236824
186,0,32,14,0.5226661562919617,0.10146024078130722
186,0,32,15,0.35327795147895813,0.051872581243515015
186,0,32,16,0.6282160878181458,0.03505038470029831
186,0,32,17,0.47768089175224304,0.12234662473201752
186,0,32,18,0.5515363216400146,0.0951729267835617
186,0,32,19,0.41712889075279236,0.056857772171497345
186,0,32,20,0.5764574408531189,0.08037377148866653
186,0,32,21,0.5480530858039856,0.10015641152858734
186,0,32,22,0.3858874440193176,0.04258951544761658
186,0,32,23,0.52716463804245,0.048652734607458115
186,0,32,24,0.5695390105247498,0.08608072996139526
186,0,32,25,0.4617135226726532,0.04303218051791191
186,0,32,26,0.4490687847137451,0.05991503596305847
186,0,32,27,0.6156815886497498,0.09244120121002197
186,0,32,28,0.537487268447876,0.10208968073129654
186,0,32,29,0.470888614654541,0.035085372626781464
186,0,32,30,0.4298500418663025,0.07378161698579788
186,0,32,31,0.6000680923461914,0.11950462311506271
186,1,32,0,0.49299830198287964,0.11753346771001816
186,1,32,1,0.3947640359401703,0.09521861374378204
186,1,32,2,0.33392372727394104,0.05798385664820671
186,1,32,3,0.41165685653686523,0.08229955285787582
186,1,32,4,0.46217799186706543,0.03551967069506645
186,1,32,5,0.5549865961074829,0.11255604773759842
186,1,32,6,0.45523950457572937,0.13346417248249054
186,1,32,7,0.4319474697113037,0.10569840669631958
186,1,32,8,0.33076608180999756,0.042544491589069366
186,1,32,9,0.460263192653656,0.052428148686885834
186,1,32,10,0.41896557807922363,0.08666124194860458
186,1,32,11,0.5045486092567444,0.10198667645454407
186,1,32,12,0.5944170355796814,0.0892983004450798
186,1,32,13,0.49396106600761414,0.12475403398275375
186,1,32,14,0.34689438343048096,0.08508893102407455
186,1,32,15,0.552006721496582,0.06314747035503387
186,1,32,16,0.47457191348075867,0.073166623711586
186,1,32,17,0.35943859815597534,0.11053279787302017
186,1,32,18,0.5556168556213379,0.05917682126164436
186,1,32,19,0.39387914538383484,0.07035237550735474
186,1,32,20,0.4474585950374603,0.08542108535766602
186,1,32,21,0.4700999855995178,0.10522319376468658
186,1,32,22,0.6244490742683411,0.03751540184020996
186,1,32,23,0.5355160236358643,0.07406631112098694
186,1,32,24,0.5334466099739075,0.05585317686200142
186,1,32,25,0.45442965626716614,0.06201109290122986
186,1,32,26,0.5760349035263062,0.03934336453676224
186,1,32,27,0.44379928708076477,0.033777378499507904
186,1,32,28,0.47760793566703796,0.02574130706489086
186,1,32,29,0.3970184922218323,0.07703166455030441
186,1,32,30,0.26735401153564453,0.08503655344247818
186,1,32,31,0.5164653658866882,0.042477380484342575
186,2,64,0,0.4290519654750824,0.16719554364681244
186,2,64,1,0.30934906005859375,0.10620338469743729
186,2,64,2,0.4223191738128662,0.13726931810379028
186,2,64,3,0.31636136770248413,0.12832295894622803
186,2,64,4,0.36378246545791626,0.15498404204845428
186,2,64,5,0.4805983603000641,0.08201611787080765
186,2,64,6,0.49157944321632385,0.117923304438591
186,2,64,7,0.5042727589607239,0.18026646971702576
186,2,64,8,0.38963747024536133,0.0706394612789154
186,2,64,9,0.553240954875946,0.1212310865521431
186,2,64,10,0.5280887484550476,0.12249451875686646
186,2,64,11,0.3587583303451538,0.11124241352081299
186,2,64,12,0.5914098024368286,0.08941508829593658
186,2,64,13,0.46095025539398193,0.22254958748817444
186,2,64,14,0.48200616240501404,0.13469919562339783
186,2,64,15,0.5430450439453125,0.10526841878890991
186,2,64,16,0.5535439252853394,0.19962871074676514
186,2,64,17,0.5069903135299683,0.11266904324293137
186,2,64,18,0.5508747696876526,0.09681488573551178
186,2,64,19,0.4923388361930847,0.12351632118225098
186,2,64,20,0.4095054268836975,0.11863977462053299
186,2,64,21,0.43226128816604614,0.19450627267360687
186,2,64,22,0.39021673798561096,0.14038284122943878
186,2,64,23,0.5746820569038391,0.1298668384552002
186,2,64,24,0.6268416047096252,0.06859328597784042
186,2,64,25,0.43348345160484314,0.10264942049980164
186,2,64,26,0.539114236831665,0.049218807369470596
186,2,64,27,0.6082855463027954,0.13938704133033752
186,2,64,28,0.38483864068984985,0.06569653749465942
186,2,64,29,0.35649755597114563,0.09694596379995346
186,2,64,30,0.3771708309650421,0.1590202897787094
186,2,64,31,0.37926754355430603,0.13714323937892914
186,2,64,32,0.5009871125221252,0.12204843014478683
186,2,64,33,0.6078768968582153,0.1460357904434204
186,2,64,34,0.5156903862953186,0.09102312475442886
186,2,64,35,0.5346289873123169,0.11398225277662277
186,2,64,36,0.3834266662597656,0.14232002198696136
186,2,64,37,0.4450252950191498,0.11800981312990189
186,2,64,38,0.3862384259700775,0.16391246020793915
186,2,64,39,0.35981035232543945,0.14335961639881134
186,2,64,40,0.5853157639503479,0.07689415663480759
186,2,64,41,0.3922380208969116,0.13009785115718842
186,2,64,42,0.45436468720436096,0.1178150624036789
186,2,64,43,0.523442268371582,0.1053660437464714
186,2,64,44,0.4495547115802765,0.09542594850063324
186,2,64,45,0.5785654783248901,0.18908436596393585
186,2,64,46,0.4236926734447479,0.1685267835855484
186,2,64,47,0.3511849641799927,0.10620242357254028
186,2,64,48,0.46729934215545654,0.15324454009532928
186,2,64,49,0.3496071398258209,0.12673212587833405
186,2,64,50,0.6425934433937073,0.13528914749622345
186,2,64,51,0.4378175735473633,0.1637539267539978
186,2,64,52,0.5137943029403687,0.1323753148317337
186,2,64,53,0.6841391921043396,0.09458649903535843
186,2,64,54,0.532603919506073,0.0626588687300682
186,2,64,55,0.6484699845314026,0.1772291213274002
186,2,64,56,0.4858208894729614,0.19656866788864136
186,2,64,57,0.3903520405292511,0.15038985013961792
186,2,64,58,0.5985581278800964,0.07896428555250168
186,2,64,59,0.568332850933075,0.10783467441797256
186,2,64,60,0.5449401140213013,0.14111757278442383
186,2,64,61,0.36213168501853943,0.10474973917007446
186,2,64,62,0.5479498505592346,0.15807658433914185
186,2,64,63,0.42480629682540894,0.15019384026527405
186,3,64,0,0.4984392523765564,0.12911982834339142
186,3,64,1,0.5629671812057495,0.10501346737146378
186,3,64,2,0.5110058188438416,0.12709753215312958
186,3,64,3,0.4729958176612854,0.16889990866184235
186,3,64,4,0.40904346108436584,0.06818638741970062
186,3,64,5,0.5202794075012207,0.06550697982311249
186,3,64,6,0.3817722201347351,0.1507139801979065
186,3,64,7,0.6301178336143494,0.0766732394695282
186,3,64,8,0.5348533987998962,0.18015795946121216
186,3,64,9,0.5320531725883484,0.14818917214870453
186,3,64,10,0.4891979396343231,0.18502619862556458
186,3,64,11,0.4599032998085022,0.13351450860500336
186,3,64,12,0.4698024392127991,0.16467273235321045
186,3,64,13,0.5073635578155518,0.19283662736415863
186,3,64,14,0.49001333117485046,0.1248324066400528
186,3,64,15,0.6024978756904602,0.2079811990261078
186,3,64,16,0.5075515508651733,0.11618106067180634
186,3,64,17,0.4992302358150482,0.0870201364159584
186,3,64,18,0.3924020230770111,0.2147739678621292
186,3,64,19,0.4528254270553589,0.19064970314502716
186,3,64,20,0.4779508411884308,0.16637176275253296
186,3,64,21,0.5916981101036072,0.12002550065517426
186,3,64,22,0.5582429766654968,0.10485189408063889
186,3,64,23,0.543572723865509,0.14723898470401764
186,3,64,24,0.5908785462379456,0.09691314399242401
186,3,64,25,0.612419068813324,0.13420219719409943
186,3,64,26,0.37287965416908264,0.10302135348320007
186,3,64,27,0.4099194407463074,0.12971538305282593
186,3,64,28,0.5318695306777954,0.13756218552589417
186,3,64,29,0.4881369471549988,0.11553800851106644
186,3,64,30,0.5342322587966919,0.07923320680856705
186,3,64,31,0.5114830732345581,0.15536926686763763
186,3,64,32,0.503458559513092,0.1250554323196411
186,3,64,33,0.4797297716140747,0.08050443232059479
186,3,64,34,0.6996837854385376,0.10633095353841782
186,3,64,35,0.602022111415863,0.17948229610919952
186,3,64,36,0.4934525191783905,0.13408541679382324
186,3,64,37,0.5557260513305664,0.1051926463842392
186,3,64,38,0.4768538177013397,0.08925367146730423
186,3,64,39,0.4983205497264862,0.17768678069114685
186,3,64,40,0.5615315437316895,0.1188897117972374
186,3,64,41,0.45732250809669495,0.10609043389558792
186,3,64,42,0.3984069526195526,0.05698416009545326
186,3,64,43,0.4945206344127655,0.1075776219367981
186,3,64,44,0.4909977614879608,0.09464285522699356
186,3,64,45,0.5726258158683777,0.13311171531677246
186,3,64,46,0.5996894240379333,0.07268677651882172
186,3,64,47,0.48139703273773193,0.18711039423942566
186,3,64,48,0.47707781195640564,0.24360544979572296
186,3,64,49,0.43646106123924255,0.19946515560150146
186,3,64,50,0.3904867172241211,0.14941060543060303
186,3,64,51,0.3831254243850708,0.09233276546001434
186,3,64,52,0.36606356501579285,0.17798537015914917
186,3,64,53,0.47048869729042053,0.1630968451499939
186,3,64,54,0.47374242544174194,0.15538084506988525
186,3,64,55,0.5383954644203186,0.11085681617259979
186,3,64,56,0.5056231617927551,0.15936289727687836
186,3,64,57,0.5499789714813232,0.13314250111579895
186,3,64,58,0.6126834154129028,0.09685730934143066
186,3,64,59,0.3880186975002289,0.13394741714000702
186,3,64,60,0.5666722655296326,0.19088932871818542
186,3,64,61,0.6013944149017334,0.07555994391441345
186,3,64,62,0.648047149181366,0.10145929455757141
186,3,64,63,0.4687720537185669,0.14853711426258087
186,4,128,0,0.6364035606384277,0.25645092129707336
186,4,128,1,0.5731742978096008,0.19615893065929413
186,4,128,2,0.62518310546875,0.16928832232952118
186,4,128,3,0.6023421883583069,0.08801183104515076
186,4,128,4,0.6123495101928711,0.13923947513103485
186,4,128,5,0.40559080243110657,0.13387635350227356
186,4,128,6,0.5247803926467896,0.08859982341527939
186,4,128,7,0.5329734683036804,0.09078998118638992
186,4,128,8,0.35754209756851196,0.09871051460504532
186,4,128,9,0.4557540714740753,0.07539533078670502
186,4,128,10,0.6212384700775146,0.10551545768976212
186,4,128,11,0.5063689351081848,0.15726768970489502
186,4,128,12,0.7135329246520996,0.1460951417684555
186,4,128,13,0.5488527417182922,0.14618942141532898
186,4,128,14,0.5970146656036377,0.21803581714630127
186,4,128,15,0.45323193073272705,0.1644928902387619
186,4,128,16,0.5493319034576416,0.13342484831809998
186,4,128,17,0.5494226813316345,0.12900809943675995
186,4,128,18,0.4167700707912445,0.07730969786643982
186,4,128,19,0.5687798857688904,0.17239752411842346
186,4,128,20,0.5011340379714966,0.23677241802215576
186,4,128,21,0.5401073098182678,0.17113333940505981
186,4,128,22,0.6210370063781738,0.22424514591693878
186,4,128,23,0.49491822719573975,0.18721775710582733
186,4,128,24,0.6328913569450378,0.1729521006345749
186,4,128,25,0.4487206041812897,0.11325757205486298
186,4,128,26,0.49082186818122864,0.094262033700943
186,4,128,27,0.5686362981796265,0.2222721129655838
186,4,128,28,0.6607639193534851,0.0883517786860466
186,4,128,29,0.5206970572471619,0.07571585476398468
186,4,128,30,0.4789261221885681,0.14254087209701538
186,4,128,31,0.5539126992225647,0.09391508996486664
186,4,128,32,0.46046221256256104,0.1425711065530777
186,4,128,33,0.6444393992424011,0.15290288627147675
186,4,128,34,0.5997703671455383,0.17140255868434906
186,4,128,35,0.42797932028770447,0.20368726551532745
186,4,128,36,0.5810580849647522,0.0727776437997818
186,4,128,37,0.40052926540374756,0.16255761682987213
186,4,128,38,0.6734933853149414,0.1016329899430275
186,4,128,39,0.5247841477394104,0.09205358475446701
186,4,128,40,0.580102264881134,0.09348121285438538
186,4,128,41,0.6168210506439209,0.15648341178894043
186,4,128,42,0.6520195603370667,0.10193820297718048
186,4,128,43,0.48286503553390503,0.12419440597295761
186,4,128,44,0.552067220211029,0.18362149596214294
186,4,128,45,0.6518189907073975,0.1861741989850998
186,4,128,46,0.6130809783935547,0.19635926187038422
186,4,128,47,0.560239315032959,0.1853047013282776
186,4,128,48,0.5397598743438721,0.13583308458328247
186,4,128,49,0.5447813868522644,0.10763423889875412
186,4,128,50,0.6655477285385132,0.13405340909957886
186,4,128,51,0.48747172951698303,0.10073734819889069
186,4,128,52,0.6292697787284851,0.17361420392990112
186,4,128,53,0.4349451959133148,0.13866280019283295
186,4,128,54,0.5293565392494202,0.14728598296642303
186,4,128,55,0.5991330146789551,0.08863216638565063
186,4,128,56,0.4329129159450531,0.160883367061615
186,4,128,57,0.612636148929596,0.12739931046962738
186,4,128,58,0.5165439248085022,0.09306977689266205
186,4,128,59,0.3706609308719635,0.11884701251983643
186,4,128,60,0.502103865146637,0.13369575142860413
186,4,128,61,0.37180638313293457,0.13589856028556824
186,4,128,62,0.693268358707428,0.08819636702537537
186,4,128,63,0.5615924000740051,0.15109705924987793
186,4,128,64,0.5738238096237183,0.15463849902153015
186,4,128,65,0.6745561361312866,0.1589057892560959
186,4,128,66,0.5474363565444946,0.08692260086536407
186,4,128,67,0.5190891623497009,0.17056117951869965
186,4,128,68,0.3890329599380493,0.1249113380908966
186,4,128,69,0.5254887938499451,0.15243156254291534
186,4,128,70,0.46819379925727844,0.1356898546218872
186,4,128,71,0.41462746262550354,0.22049281001091003
186,4,128,72,0.35951316356658936,0.13736672699451447
186,4,128,73,0.4021868407726288,0.15347503125667572
186,4,128,74,0.502589762210846,0.113967165350914
186,4,128,75,0.5354152917861938,0.17600367963314056
186,4,128,76,0.6596996188163757,0.11624234914779663
186,4,128,77,0.5021929740905762,0.07774490863084793
186,4,128,78,0.31478428840637207,0.12303994596004486
186,4,128,79,0.5687618851661682,0.12902745604515076
186,4,128,80,0.5986617207527161,0.12426271289587021
186,4,128,81,0.5096002221107483,0.26999935507774353
186,4,128,82,0.49913036823272705,0.15541806817054749
186,4,128,83,0.5439403653144836,0.1449640691280365
186,4,128,84,0.45103922486305237,0.15551325678825378
186,4,128,85,0.4785391688346863,0.13692012429237366
186,4,128,86,0.5403380393981934,0.1455344557762146
186,4,128,87,0.39854902029037476,0.18143558502197266
186,4,128,88,0.6512201428413391,0.1521681547164917
186,4,128,89,0.6654617190361023,0.07246734201908112
186,4,128,90,0.6982617378234863,0.13445021212100983
186,4,128,91,0.6437368988990784,0.13425703346729279
186,4,128,92,0.45163097977638245,0.18010647594928741
186,4,128,93,0.45700129866600037,0.12603209912776947
186,4,128,94,0.6557789444923401,0.13329103589057922
186,4,128,95,0.5681526064872742,0.06479059904813766
186,4,128,96,0.4532039165496826,0.25317251682281494
186,4,128,97,0.5123097896575928,0.14002764225006104
186,4,128,98,0.5094807147979736,0.17116235196590424
186,4,128,99,0.5061498880386353,0.1990508735179901
186,4,128,100,0.6329296231269836,0.15599791705608368
186,4,128,101,0.5127180814743042,0.1751975417137146
186,4,128,102,0.4106137752532959,0.15626314282417297
186,4,128,103,0.5687659978866577,0.25267019867897034
186,4,128,104,0.4265074133872986,0.11439700424671173
186,4,128,105,0.6036666035652161,0.10725729167461395
186,4,128,106,0.5990000367164612,0.2097141146659851
186,4,128,107,0.48777779936790466,0.1340353637933731
186,4,128,108,0.5971271991729736,0.22736535966396332
186,4,128,109,0.5833029747009277,0.19893302023410797
186,4,128,110,0.46790286898612976,0.12607774138450623
186,4,128,111,0.6763349175453186,0.13033601641654968
186,4,128,112,0.577409029006958,0.17351044714450836
186,4,128,113,0.4837184250354767,0.20259973406791687
186,4,128,114,0.5269909501075745,0.13761372864246368
186,4,128,115,0.40585070848464966,0.20098571479320526
186,4,128,116,0.5286462903022766,0.2013927847146988
186,4,128,117,0.5630316734313965,0.09724138677120209
186,4,128,118,0.4121313691139221,0.13296034932136536
186,4,128,119,0.5809037685394287,0.060999806970357895
186,4,128,120,0.4460000991821289,0.13555455207824707
186,4,128,121,0.525586724281311,0.2154640257358551
186,4,128,122,0.6410415768623352,0.15290459990501404
186,4,128,123,0.6161583065986633,0.15834081172943115
186,4,128,124,0.6275831460952759,0.23268209397792816
186,4,128,125,0.6373116374015808,0.11933523416519165
186,4,128,126,0.4703543484210968,0.2649148106575012
186,4,128,127,0.5543010830879211,0.11474579572677612
186,5,128,0,0.7115595936775208,0.14381250739097595
186,5,128,1,0.5911449193954468,0.09586111456155777
186,5,128,2,0.6408447027206421,0.1792163997888565
186,5,128,3,0.5705783367156982,0.15349799394607544
186,5,128,4,0.6964262127876282,0.12366007268428802
186,5,128,5,0.40321317315101624,0.08326739072799683
186,5,128,6,0.5718686580657959,0.13806350529193878
186,5,128,7,0.6201478242874146,0.13013878464698792
186,5,128,8,0.40204328298568726,0.098835289478302
186,5,128,9,0.46821698546409607,0.22090527415275574
186,5,128,10,0.7770816087722778,0.15118998289108276
186,5,128,11,0.4882597029209137,0.182726189494133
186,5,128,12,0.5222428441047668,0.14390505850315094
186,5,128,13,0.7176108360290527,0.07235870510339737
186,5,128,14,0.8044681549072266,0.10382508486509323
186,5,128,15,0.7486956119537354,0.13374972343444824
186,5,128,16,0.7820128202438354,0.19894979894161224
186,5,128,17,0.550564169883728,0.14057563245296478
186,5,128,18,0.712623119354248,0.19171364605426788
186,5,128,19,0.6145386099815369,0.14835573732852936
186,5,128,20,0.7459623217582703,0.1183391585946083
186,5,128,21,0.7712803483009338,0.1350705474615097
186,5,128,22,0.6826578378677368,0.21321970224380493
186,5,128,23,0.677744448184967,0.08237522095441818
186,5,128,24,0.8057180643081665,0.11575865745544434
186,5,128,25,0.5918987393379211,0.16857631504535675
186,5,128,26,0.46205970644950867,0.06518712639808655
186,5,128,27,0.5978658199310303,0.13928142189979553
186,5,128,28,0.6800031661987305,0.20404551923274994
186,5,128,29,0.5850369334220886,0.136622354388237
186,5,128,30,0.4783245027065277,0.11324485391378403
186,5,128,31,0.7051835656166077,0.09797978401184082
186,5,128,32,0.4746589660644531,0.16461028158664703
186,5,128,33,0.7100094556808472,0.08894722163677216
186,5,128,34,0.4784001111984253,0.16321466863155365
186,5,128,35,0.7861326336860657,0.15661180019378662
186,5,128,36,0.7045496106147766,0.10936442017555237
186,5,128,37,0.7198997139930725,0.12056069076061249
186,5,128,38,0.5747911334037781,0.13934606313705444
186,5,128,39,0.6914670467376709,0.20603816211223602
186,5,128,40,0.5838318467140198,0.05157054215669632
186,5,128,41,0.7236515879631042,0.1460779309272766
186,5,128,42,0.7179172039031982,0.1086563989520073
186,5,128,43,0.4352104663848877,0.21741196513175964
186,5,128,44,0.6920436024665833,0.12333527207374573
186,5,128,45,0.7746602892875671,0.14527150988578796
186,5,128,46,0.5698286890983582,0.08094560354948044
186,5,128,47,0.7085650563240051,0.15488873422145844
186,5,128,48,0.6199703812599182,0.1741238385438919
186,5,128,49,0.7278456091880798,0.07284896075725555
186,5,128,50,0.7507784962654114,0.12068364769220352
186,5,128,51,0.7152672410011292,0.15129967033863068
186,5,128,52,0.7941588759422302,0.11921609938144684
186,5,128,53,0.5841978788375854,0.11991795897483826
186,5,128,54,0.7143335342407227,0.14265958964824677
186,5,128,55,0.6731880307197571,0.17494416236877441
186,5,128,56,0.42295899987220764,0.1670612394809723
186,5,128,57,0.6034879684448242,0.11228632926940918
186,5,128,58,0.6331113576889038,0.10917051881551743
186,5,128,59,0.7590928077697754,0.13068845868110657
186,5,128,60,0.6086156964302063,0.07758636772632599
186,5,128,61,0.40831857919692993,0.06758672744035721
186,5,128,62,0.6653027534484863,0.14656716585159302
186,5,128,63,0.8324994444847107,0.10772402584552765
186,5,128,64,0.7729024887084961,0.1192343533039093
186,5,128,65,0.6629413366317749,0.14736764132976532
186,5,128,66,0.40631312131881714,0.10461840778589249
186,5,128,67,0.49388307332992554,0.1596672534942627
186,5,128,68,0.604573667049408,0.09672565758228302
186,5,128,69,0.35530003905296326,0.1723780333995819
186,5,128,70,0.45003741979599,0.03587838634848595
186,5,128,71,0.7234354615211487,0.1278267353773117
186,5,128,72,0.6409469842910767,0.1250852346420288
186,5,128,73,0.3589014708995819,0.0817144587635994
186,5,128,74,0.8263538479804993,0.11615290492773056
186,5,128,75,0.7219921946525574,0.10673125088214874
186,5,128,76,0.8002863526344299,0.11678947508335114
186,5,128,77,0.47154128551483154,0.10423149913549423
186,5,128,78,0.49974459409713745,0.18841293454170227
186,5,128,79,0.6175265908241272,0.15768997371196747
186,5,128,80,0.6380286812782288,0.21485431492328644
186,5,128,81,0.5532563328742981,0.09700188785791397
186,5,128,82,0.49533289670944214,0.11935831606388092
186,5,128,83,0.7648279070854187,0.10716739296913147
186,5,128,84,0.5219602584838867,0.16490137577056885
186,5,128,85,0.4159493148326874,0.12495259940624237
186,5,128,86,0.618455171585083,0.24105606973171234
186,5,128,87,0.5061883330345154,0.11348353326320648
186,5,128,88,0.6669963598251343,0.13058342039585114
186,5,128,89,0.6208013296127319,0.12080411612987518
186,5,128,90,0.6344034075737,0.07687166333198547
186,5,128,91,0.6274697780609131,0.18823710083961487
186,5,128,92,0.4694504141807556,0.08607535809278488
186,5,128,93,0.39633116126060486,0.17287874221801758
186,5,128,94,0.5692173838615417,0.07190849632024765
186,5,128,95,0.6766297221183777,0.07743541151285172
186,5,128,96,0.5348649024963379,0.16678014397621155
186,5,128,97,0.7819806337356567,0.17311856150627136
186,5,128,98,0.5454825162887573,0.10801560431718826
186,5,128,99,0.6812238097190857,0.24500586092472076
186,5,128,100,0.7320749759674072,0.18509532511234283
186,5,128,101,0.7632763981819153,0.19323532283306122
186,5,128,102,0.6565803289413452,0.18859274685382843
186,5,128,103,0.7898890376091003,0.12002202868461609
186,5,128,104,0.5812585353851318,0.13693197071552277
186,5,128,105,0.803950846195221,0.13183434307575226
186,5,128,106,0.8154651522636414,0.12537257373332977
186,5,128,107,0.7682992815971375,0.1509280651807785
186,5,128,108,0.687116801738739,0.10089357942342758
186,5,128,109,0.764994204044342,0.11133193969726562
186,5,128,110,0.5010501146316528,0.07277491688728333
186,5,128,111,0.3760419487953186,0.08066094666719437
186,5,128,112,0.6355165243148804,0.1112319752573967
186,5,128,113,0.654624879360199,0.1769244372844696
186,5,128,114,0.6579172611236572,0.19565518200397491
186,5,128,115,0.7334168553352356,0.23378774523735046
186,5,128,116,0.5082892179489136,0.0930137112736702
186,5,128,117,0.7170364856719971,0.21449418365955353
186,5,128,118,0.37446531653404236,0.06249290332198143
186,5,128,119,0.7020983695983887,0.09467025846242905
186,5,128,120,0.30758410692214966,0.07275301218032837
186,5,128,121,0.6215509176254272,0.06825149059295654
186,5,128,122,0.5514420866966248,0.09276721626520157
186,5,128,123,0.37499767541885376,0.07238851487636566
186,5,128,124,0.7785830497741699,0.14318838715553284
186,5,128,125,0.5653759241104126,0.08471062779426575
186,5,128,126,0.6618618965148926,0.09554717689752579
186,5,128,127,0.7073009610176086,0.11193069815635681
188,0,32,0,0.5061229467391968,0.029057275503873825
188,0,32,1,0.4327854514122009,0.058749258518218994
188,0,32,2,0.48820731043815613,0.04337717592716217
188,0,32,3,0.5528966784477234,0.03502366691827774
188,0,32,4,0.6046656370162964,0.0398847721517086
188,0,32,5,0.5079672932624817,0.056432630866765976
188,0,32,6,0.4535002112388611,0.043365444988012314
188,0,32,7,0.4155828654766083,0.07516006380319595
188,0,32,8,0.6015726327896118,0.03022787533700466
188,0,32,9,0.6092019081115723,0.05173396319150925
188,0,32,10,0.5296544432640076,0.06630885601043701
188,0,32,11,0.5629236102104187,0.03837736323475838
188,0,32,12,0.38472938537597656,0.049127329140901566
188,0,32,13,0.4014285206794739,0.06005183607339859
188,0,32,14,0.42479443550109863,0.05848601832985878
188,0,32,15,0.4793563783168793,0.03957108408212662
188,0,32,16,0.41652002930641174,0.015498089604079723
188,0,32,17,0.6229769587516785,0.03199998289346695
188,0,32,18,0.5275915861129761,0.04012115299701691
188,0,32,19,0.4525183439254761,0.04273597151041031
188,0,32,20,0.5421739220619202,0.031070947647094727
188,0,32,21,0.4716998338699341,0.07644044607877731
188,0,32,22,0.4786224961280823,0.040880899876356125
188,0,32,23,0.5573188066482544,0.018979599699378014
188,0,32,24,0.4282239079475403,0.07054416090250015
188,0,32,25,0.6591719388961792,0.06660963594913483
188,0,32,26,0.389647901058197,0.04658064618706703
188,0,32,27,0.36852842569351196,0.06064862385392189
188,0,32,28,0.4202026426792145,0.03226621821522713
188,0,32,29,0.5204535722732544,0.046214912086725235
188,0,32,30,0.5465444326400757,0.041145727038383484
188,0,32,31,0.5631664395332336,0.02865610644221306
188,1,32,0,0.6105235815048218,0.08444379270076752
188,1,32,1,0.38272881507873535,0.0590481199324131
188,1,32,2,0.4839954972267151,0.044653844088315964
188,1,32,3,0.46819689869880676,0.048685744404792786
188,1,32,4,0.4384097158908844,0.047555916011333466
188,1,32,5,0.3339495062828064,0.054576750844717026
188,1,32,6,0.4372691810131073,0.09674739837646484
188,1,32,7,0.594106137752533,0.07731123268604279
188,1,32,8,0.5156583786010742,0.040768496692180634
188,1,32,9,0.4756511449813843,0.04782884195446968
188,1,32,10,0.5901116132736206,0.05548339709639549
188,1,32,11,0.30641642212867737,0.03986688703298569
188,1,32,12,0.5268813967704773,0.05303721874952316
188,1,32,13,0.35885539650917053,0.05460904538631439
188,1,32,14,0.4751364290714264,0.0650036409497261
188,1,32,15,0.3963086009025574,0.040193378925323486
188,1,32,16,0.561221182346344,0.04489940032362938
188,1,32,17,0.3770465850830078,0.06036878377199173
188,1,32,18,0.3616579473018646,0.06949096918106079
188,1,32,19,0.522409200668335,0.0660637840628624
188,1,32,20,0.5702192187309265,0.04576873406767845
188,1,32,21,0.5417910814285278,0.026086973026394844
188,1,32,22,0.5728510022163391,0.029173146933317184
188,1,32,23,0.5036206245422363,0.05438752472400665
188,1,32,24,0.38823816180229187,0.040717482566833496
188,1,32,25,0.6167234778404236,0.03972352296113968
188,1,32,26,0.35736075043678284,0.04423397779464722
188,1,32,27,0.6391050815582275,0.031582701951265335
188,1,32,28,0.4348320960998535,0.0598478801548481
188,1,32,29,0.35845857858657837,0.04891803115606308
188,1,32,30,0.4604351818561554,0.032467249780893326
188,1,32,31,0.5016604065895081,0.057836420834064484
188,2,64,0,0.503515362739563,0.10599794238805771
188,2,64,1,0.44006896018981934,0.11879048496484756
188,2,64,2,0.5016586184501648,0.08988317102193832
188,2,64,3,0.5558992624282837,0.07974753528833389
188,2,64,4,0.4849708676338196,0.12505003809928894
188,2,64,5,0.4479810893535614,0.12874813377857208
188,2,64,6,0.4157678782939911,0.09623651206493378
188,2,64,7,0.5726636648178101,0.11126969009637833
188,2,64,8,0.4651525914669037,0.12372972816228867
188,2,64,9,0.6184895038604736,0.07687466591596603
188,2,64,10,0.5801283121109009,0.09355571120977402
188,2,64,11,0.5377942323684692,0.0793519839644432
188,2,64,12,0.4468149244785309,0.05773346498608589
188,2,64,13,0.5339152216911316,0.1027902364730835
188,2,64,14,0.49677416682243347,0.1290505826473236
188,2,64,15,0.527550995349884,0.0936034768819809
188,2,64,16,0.44677409529685974,0.11121756583452225
188,2,64,17,0.5602627992630005,0.09036752581596375
188,2,64,18,0.4775816798210144,0.11166079342365265
188,2,64,19,0.5239186882972717,0.09027685225009918
188,2,64,20,0.5596486926078796,0.09486169368028641
188,2,64,21,0.42120614647865295,0.04376983642578125
188,2,64,22,0.524151086807251,0.06133167818188667
188,2,64,23,0.48555272817611694,0.11630912125110626
188,2,64,24,0.5120883584022522,0.07946424931287766
188,2,64,25,0.35792258381843567,0.11396516114473343
188,2,64,26,0.5042818188667297,0.14197014272212982
188,2,64,27,0.497293084859848,0.06501471251249313
188,2,64,28,0.3717174828052521,0.12849625945091248
188,2,64,29,0.5764051079750061,0.07448875159025192
188,2,64,30,0.4972812533378601,0.07839639484882355
188,2,64,31,0.4803731143474579,0.06435073912143707
188,2,64,32,0.4646398425102234,0.11638445407152176
188,2,64,33,0.41351696848869324,0.08348099887371063
188,2,64,34,0.4576597213745117,0.11126261204481125
188,2,64,35,0.48839643597602844,0.09939413517713547
188,2,64,36,0.43664273619651794,0.11079917848110199
188,2,64,37,0.3957734704017639,0.10345207154750824
188,2,64,38,0.46449923515319824,0.11235357820987701
188,2,64,39,0.5638138055801392,0.03610660135746002
188,2,64,40,0.43298107385635376,0.036211103200912476
188,2,64,41,0.44977080821990967,0.1282934695482254
188,2,64,42,0.4988408386707306,0.13427169620990753
188,2,64,43,0.41429007053375244,0.1115204393863678
188,2,64,44,0.506011426448822,0.05900504067540169
188,2,64,45,0.4234437942504883,0.12094864249229431
188,2,64,46,0.5066660046577454,0.07718315720558167
188,2,64,47,0.44916045665740967,0.05736694112420082
188,2,64,48,0.5300159454345703,0.09195694327354431
188,2,64,49,0.49213406443595886,0.062291935086250305
188,2,64,50,0.6441142559051514,0.09352904558181763
188,2,64,51,0.5317857265472412,0.08433874696493149
188,2,64,52,0.49499475955963135,0.12082841247320175
188,2,64,53,0.47003188729286194,0.10374733060598373
188,2,64,54,0.4404372274875641,0.08527808636426926
188,2,64,55,0.5297354459762573,0.023811107501387596
188,2,64,56,0.4425451457500458,0.07653580605983734
188,2,64,57,0.5511828064918518,0.10145297646522522
188,2,64,58,0.4434488117694855,0.1360219419002533
188,2,64,59,0.3994220197200775,0.11181231588125229
188,2,64,60,0.5211449861526489,0.07645062357187271
188,2,64,61,0.5013458728790283,0.11955669522285461
188,2,64,62,0.4916989803314209,0.09359630942344666
188,2,64,63,0.47748053073883057,0.07666631042957306
188,3,64,0,0.668283998966217,0.16458384692668915
188,3,64,1,0.3578057289123535,0.09754651039838791
188,3,64,2,0.3436228632926941,0.10948245972394943
188,3,64,3,0.402323454618454,0.10419947654008865
188,3,64,4,0.7114666700363159,0.15126308798789978
188,3,64,5,0.5451420545578003,0.17888058722019196
188,3,64,6,0.5226593613624573,0.11693380773067474
188,3,64,7,0.4253435730934143,0.14651666581630707
188,3,64,8,0.40951046347618103,0.053064603358507156
188,3,64,9,0.43895223736763,0.15813186764717102
188,3,64,10,0.6012037396430969,0.11953319609165192
188,3,64,11,0.6695438027381897,0.15087270736694336
188,3,64,12,0.5821994543075562,0.0967957079410553
188,3,64,13,0.5464016795158386,0.06608376652002335
188,3,64,14,0.6830699443817139,0.06158486008644104
188,3,64,15,0.328664094209671,0.17245039343833923
188,3,64,16,0.3820021152496338,0.25899049639701843
188,3,64,17,0.4116637706756592,0.10828026384115219
188,3,64,18,0.6077802777290344,0.10865604132413864
188,3,64,19,0.6384031176567078,0.1094624251127243
188,3,64,20,0.480979323387146,0.15872277319431305
188,3,64,21,0.45157790184020996,0.12529028952121735
188,3,64,22,0.6210848689079285,0.11665422469377518
188,3,64,23,0.3371816873550415,0.1487751603126526
188,3,64,24,0.2745817005634308,0.08843588083982468
188,3,64,25,0.4943602681159973,0.14543657004833221
188,3,64,26,0.4458639919757843,0.06456352025270462
188,3,64,27,0.5121008157730103,0.1847514510154724
188,3,64,28,0.5130491852760315,0.1360093206167221
188,3,64,29,0.6995924115180969,0.0999574288725853
188,3,64,30,0.5270349979400635,0.13590645790100098
188,3,64,31,0.721311628818512,0.10131443291902542
188,3,64,32,0.5291278958320618,0.12465594708919525
188,3,64,33,0.6295563578605652,0.12933412194252014
188,3,64,34,0.4721863269805908,0.2281070500612259
188,3,64,35,0.37029793858528137,0.12506525218486786
188,3,64,36,0.6363588571548462,0.16804800927639008
188,3,64,37,0.42849305272102356,0.18103477358818054
188,3,64,38,0.501181423664093,0.11706280708312988
188,3,64,39,0.47875431180000305,0.1996428519487381
188,3,64,40,0.5089467763900757,0.1509784311056137
188,3,64,41,0.5748934149742126,0.15720267593860626
188,3,64,42,0.6057632565498352,0.17462868988513947
188,3,64,43,0.5129522085189819,0.10781050473451614
188,3,64,44,0.582927405834198,0.16875149309635162
188,3,64,45,0.4962759017944336,0.14890989661216736
188,3,64,46,0.4616391062736511,0.17033042013645172
188,3,64,47,0.440053790807724,0.10684985667467117
188,3,64,48,0.4775024950504303,0.12519367039203644
188,3,64,49,0.49426883459091187,0.14302261173725128
188,3,64,50,0.5253299474716187,0.08739162981510162
188,3,64,51,0.49841687083244324,0.11207080632448196
188,3,64,52,0.5068017840385437,0.17622914910316467
188,3,64,53,0.4848518669605255,0.11599981039762497
188,3,64,54,0.49273309111595154,0.16496384143829346
188,3,64,55,0.6745687127113342,0.07250106334686279
188,3,64,56,0.4440903067588806,0.20656917989253998
188,3,64,57,0.6618620157241821,0.057257264852523804
188,3,64,58,0.43798932433128357,0.10120697319507599
188,3,64,59,0.5114482045173645,0.18481320142745972
188,3,64,60,0.30553916096687317,0.09467540681362152
188,3,64,61,0.4072597920894623,0.19101867079734802
188,3,64,62,0.39888712763786316,0.09266331791877747
188,3,64,63,0.4346320629119873,0.10499659925699234
188,4,128,0,0.6224580407142639,0.22199824452400208
188,4,128,1,0.6342313885688782,0.07690383493900299
188,4,128,2,0.27851539850234985,0.09514693170785904
188,4,128,3,0.7085296511650085,0.19706857204437256
188,4,128,4,0.6608206629753113,0.08628549426794052
188,4,128,5,0.4584602117538452,0.09822458028793335
188,4,128,6,0.4732941687107086,0.09111317247152328
188,4,128,7,0.529059648513794,0.19715265929698944
188,4,128,8,0.32159659266471863,0.16760697960853577
188,4,128,9,0.3981853425502777,0.1520419418811798
188,4,128,10,0.4928074777126312,0.16261765360832214
188,4,128,11,0.6947536468505859,0.17614246904850006
188,4,128,12,0.5875377655029297,0.10230527073144913
188,4,128,13,0.4160800278186798,0.2432796210050583
188,4,128,14,0.7279244661331177,0.0940791517496109
188,4,128,15,0.33102256059646606,0.1413349062204361
188,4,128,16,0.4848233461380005,0.13415853679180145
188,4,128,17,0.7180051803588867,0.07744365930557251
188,4,128,18,0.505217969417572,0.23246191442012787
188,4,128,19,0.5528501868247986,0.16412107646465302
188,4,128,20,0.42486080527305603,0.05725233256816864
188,4,128,21,0.6087877154350281,0.1387307345867157
188,4,128,22,0.29588747024536133,0.13730980455875397
188,4,128,23,0.5126866102218628,0.09518230706453323
188,4,128,24,0.20752263069152832,0.09619500488042831
188,4,128,25,0.4695689380168915,0.05003209039568901
188,4,128,26,0.6411321759223938,0.06841940432786942
188,4,128,27,0.7383424043655396,0.11282029002904892
188,4,128,28,0.508384644985199,0.117691770195961
188,4,128,29,0.5074829459190369,0.18041817843914032
188,4,128,30,0.4453696310520172,0.11027804017066956
188,4,128,31,0.656803548336029,0.20683811604976654
188,4,128,32,0.7094979286193848,0.15227214992046356
188,4,128,33,0.4702101945877075,0.16919533908367157
188,4,128,34,0.46939900517463684,0.08663485199213028
188,4,128,35,0.6802023649215698,0.15841926634311676
188,4,128,36,0.40674513578414917,0.15867756307125092
188,4,128,37,0.4250185787677765,0.1669299602508545
188,4,128,38,0.3887117803096771,0.24239064753055573
188,4,128,39,0.6821802258491516,0.14203964173793793
188,4,128,40,0.5173569917678833,0.2320893257856369
188,4,128,41,0.6429530382156372,0.13898086547851562
188,4,128,42,0.6662577986717224,0.11332061886787415
188,4,128,43,0.6706562638282776,0.2568593919277191
188,4,128,44,0.3358905613422394,0.1450190395116806
188,4,128,45,0.6284304857254028,0.060694579035043716
188,4,128,46,0.3721722662448883,0.0956968143582344
188,4,128,47,0.6873573660850525,0.09218864142894745
188,4,128,48,0.49075815081596375,0.13687632977962494
188,4,128,49,0.381357878446579,0.16263552010059357
188,4,128,50,0.7220087051391602,0.09552168846130371
188,4,128,51,0.4521716833114624,0.08585862815380096
188,4,128,52,0.5527494549751282,0.21829313039779663
188,4,128,53,0.5401290655136108,0.150600865483284
188,4,128,54,0.6584455370903015,0.11356619745492935
188,4,128,55,0.5834815502166748,0.12069763243198395
188,4,128,56,0.6285982728004456,0.18991126120090485
188,4,128,57,0.36686646938323975,0.22014033794403076
188,4,128,58,0.4996829032897949,0.12451763451099396
188,4,128,59,0.577343761920929,0.15621666610240936
188,4,128,60,0.5616244077682495,0.13738307356834412
188,4,128,61,0.5041431784629822,0.09844770282506943
188,4,128,62,0.4835318624973297,0.23317724466323853
188,4,128,63,0.583763837814331,0.10396236181259155
188,4,128,64,0.459262877702713,0.15060462057590485
188,4,128,65,0.5339316129684448,0.19207309186458588
188,4,128,66,0.6614059805870056,0.22142158448696136
188,4,128,67,0.4075736999511719,0.10611681640148163
188,4,128,68,0.41094666719436646,0.06154193729162216
188,4,128,69,0.5638420581817627,0.08387383073568344
188,4,128,70,0.3788243532180786,0.08258051425218582
188,4,128,71,0.41907110810279846,0.13967649638652802
188,4,128,72,0.2801385521888733,0.17580938339233398
188,4,128,73,0.6127703785896301,0.17090928554534912
188,4,128,74,0.47333455085754395,0.21916107833385468
188,4,128,75,0.6292101740837097,0.13350267708301544
188,4,128,76,0.6010662317276001,0.14225158095359802
188,4,128,77,0.3125070631504059,0.17495593428611755
188,4,128,78,0.5901458859443665,0.08743511885404587
188,4,128,79,0.4599997103214264,0.2400323450565338
188,4,128,80,0.5931022763252258,0.19111113250255585
188,4,128,81,0.6203092932701111,0.09455189108848572
188,4,128,82,0.5465004444122314,0.22808998823165894
188,4,128,83,0.6572054624557495,0.12931828200817108
188,4,128,84,0.4095958471298218,0.15185077488422394
188,4,128,85,0.4039585292339325,0.2262444943189621
188,4,128,86,0.7339616417884827,0.14236336946487427
188,4,128,87,0.6830682158470154,0.12792763113975525
188,4,128,88,0.6509586572647095,0.16214199364185333
188,4,128,89,0.5295230150222778,0.1630580574274063
188,4,128,90,0.5604664087295532,0.22181373834609985
188,4,128,91,0.46813929080963135,0.18148201704025269
188,4,128,92,0.435609370470047,0.07643217593431473
188,4,128,93,0.666650116443634,0.24622362852096558
188,4,128,94,0.40632182359695435,0.2211543768644333
188,4,128,95,0.5993918180465698,0.13219238817691803
188,4,128,96,0.49732375144958496,0.08997298032045364
188,4,128,97,0.7336347103118896,0.0882575586438179
188,4,128,98,0.6731432676315308,0.09397802501916885
188,4,128,99,0.5346177816390991,0.1867280900478363
188,4,128,100,0.7044757008552551,0.08039839565753937
188,4,128,101,0.5642967224121094,0.10452856868505478
188,4,128,102,0.6327635645866394,0.09121940284967422
188,4,128,103,0.4626214802265167,0.1401720494031906
188,4,128,104,0.5915836691856384,0.2058047503232956
188,4,128,105,0.5182926058769226,0.1204175353050232
188,4,128,106,0.5394294261932373,0.09183002263307571
188,4,128,107,0.5825045704841614,0.1459949016571045
188,4,128,108,0.5508111715316772,0.2176445871591568
188,4,128,109,0.5759643316268921,0.19400684535503387
188,4,128,110,0.5612993240356445,0.22403594851493835
188,4,128,111,0.45758509635925293,0.14231137931346893
188,4,128,112,0.6371126770973206,0.16216640174388885
188,4,128,113,0.4596339166164398,0.1294988989830017
188,4,128,114,0.4502423405647278,0.2533234655857086
188,4,128,115,0.5338293313980103,0.23265185952186584
188,4,128,116,0.7821429371833801,0.09713984280824661
188,4,128,117,0.593193769454956,0.21659725904464722
188,4,128,118,0.5923478007316589,0.1913643330335617
188,4,128,119,0.5264607071876526,0.2467174232006073
188,4,128,120,0.7029359936714172,0.141416534781456
188,4,128,121,0.6834692358970642,0.11119592189788818
188,4,128,122,0.4366210103034973,0.08408563584089279
188,4,128,123,0.45148107409477234,0.16992297768592834
188,4,128,124,0.6230477690696716,0.1945217251777649
188,4,128,125,0.49784839153289795,0.09109549969434738
188,4,128,126,0.42405855655670166,0.1492658406496048
188,4,128,127,0.5945864319801331,0.280128538608551
188,5,128,0,0.8069461584091187,0.15659506618976593
188,5,128,1,0.2717674970626831,0.1508091241121292
188,5,128,2,0.5354562401771545,0.13120658695697784
188,5,128,3,0.362447589635849,0.16126687824726105
188,5,128,4,0.30344825983047485,0.17504660785198212
188,5,128,5,0.5505114793777466,0.1512981355190277
188,5,128,6,0.30097198486328125,0.2265041619539261
188,5,128,7,0.3661502003669739,0.2236585021018982
188,5,128,8,0.565635085105896,0.08161524683237076
188,5,128,9,0.7452881932258606,0.09256462752819061
188,5,128,10,0.3404729664325714,0.14167730510234833
188,5,128,11,0.7388178110122681,0.14917470514774323
188,5,128,12,0.5861213207244873,0.1316952258348465
188,5,128,13,0.6655135750770569,0.19177095592021942
188,5,128,14,0.6770700812339783,0.12314893305301666
188,5,128,15,0.6870884895324707,0.12527471780776978
188,5,128,16,0.49309274554252625,0.2389104664325714
188,5,128,17,0.7560380101203918,0.1632794439792633
188,5,128,18,0.6255295872688293,0.10514860600233078
188,5,128,19,0.6146653890609741,0.11295410245656967
188,5,128,20,0.6543412804603577,0.1411834955215454
188,5,128,21,0.7752448916435242,0.14437410235404968
188,5,128,22,0.7514572143554688,0.14621689915657043
188,5,128,23,0.6202412843704224,0.20156145095825195
188,5,128,24,0.7026160359382629,0.16343870759010315
188,5,128,25,0.8003508448600769,0.12288103997707367
188,5,128,26,0.6959540843963623,0.16723930835723877
188,5,128,27,0.8035950064659119,0.09553635120391846
188,5,128,28,0.701790452003479,0.11914416402578354
188,5,128,29,0.6379833221435547,0.11025848239660263
188,5,128,30,0.6841986775398254,0.23054946959018707
188,5,128,31,0.6971937417984009,0.1974291056394577
188,5,128,32,0.7238431572914124,0.09285211563110352
188,5,128,33,0.6793720126152039,0.09989238530397415
188,5,128,34,0.5311463475227356,0.12736199796199799
188,5,128,35,0.7368850708007812,0.1670251041650772
188,5,128,36,0.5014283061027527,0.10593682527542114
188,5,128,37,0.3700021803379059,0.20364773273468018
188,5,128,38,0.4630988538265228,0.2534600496292114
188,5,128,39,0.48819953203201294,0.18093472719192505
188,5,128,40,0.5280911922454834,0.2103695571422577
188,5,128,41,0.7023434638977051,0.15800803899765015
188,5,128,42,0.39239946007728577,0.19183118641376495
188,5,128,43,0.7323267459869385,0.1441699117422104
188,5,128,44,0.2872714102268219,0.08309052884578705
188,5,128,45,0.39349043369293213,0.0933169350028038
188,5,128,46,0.4877426326274872,0.16699422895908356
188,5,128,47,0.6478050947189331,0.09265200048685074
188,5,128,48,0.7359422445297241,0.14981140196323395
188,5,128,49,0.3034583628177643,0.1115657389163971
188,5,128,50,0.7357529401779175,0.10007284581661224
188,5,128,51,0.7857675552368164,0.11720787733793259
188,5,128,52,0.7438963651657104,0.2044759839773178
188,5,128,53,0.5718620419502258,0.1317698061466217
188,5,128,54,0.36113879084587097,0.21021972596645355
188,5,128,55,0.6800627112388611,0.1372329294681549
188,5,128,56,0.5657040476799011,0.13481314480304718
188,5,128,57,0.5818825960159302,0.09338396042585373
188,5,128,58,0.42442142963409424,0.0800383985042572
188,5,128,59,0.732086718082428,0.17777837812900543
188,5,128,60,0.5844794511795044,0.17368455231189728
188,5,128,61,0.640527069568634,0.15880785882472992
188,5,128,62,0.7230344414710999,0.14397786557674408
188,5,128,63,0.6900023221969604,0.19816435873508453
188,5,128,64,0.717950165271759,0.1545240432024002
188,5,128,65,0.6707215905189514,0.09976993501186371
188,5,128,66,0.7440727353096008,0.185299351811409
188,5,128,67,0.7126456499099731,0.14560434222221375
188,5,128,68,0.5198439359664917,0.13507069647312164
188,5,128,69,0.7302297949790955,0.19653239846229553
188,5,128,70,0.7393011450767517,0.1344400942325592
188,5,128,71,0.693587064743042,0.18054668605327606
188,5,128,72,0.5412452220916748,0.17400433123111725
188,5,128,73,0.7600346803665161,0.13682398200035095
188,5,128,74,0.4652484357357025,0.1549510657787323
188,5,128,75,0.6891400814056396,0.14445222914218903
188,5,128,76,0.7321323156356812,0.1518368273973465
188,5,128,77,0.7801783680915833,0.12866123020648956
188,5,128,78,0.7193789482116699,0.132213294506073
188,5,128,79,0.7303579449653625,0.14781740307807922
188,5,128,80,0.7026588320732117,0.20900985598564148
188,5,128,81,0.725067138671875,0.09480080753564835
188,5,128,82,0.7175660729408264,0.22914011776447296
188,5,128,83,0.6806488633155823,0.15072736144065857
188,5,128,84,0.5553516745567322,0.08509387075901031
188,5,128,85,0.5776606798171997,0.15537545084953308
188,5,128,86,0.5776852965354919,0.22173278033733368
188,5,128,87,0.6677604913711548,0.12632331252098083
188,5,128,88,0.449798047542572,0.22866018116474152
188,5,128,89,0.6109457612037659,0.1317410171031952
188,5,128,90,0.7149943709373474,0.19214403629302979
188,5,128,91,0.7011087536811829,0.20430004596710205
188,5,128,92,0.5974941253662109,0.07062863558530807
188,5,128,93,0.4334702789783478,0.21705493330955505
188,5,128,94,0.5979387760162354,0.1317770779132843
188,5,128,95,0.49740147590637207,0.07884126901626587
188,5,128,96,0.61083984375,0.1113867461681366
188,5,128,97,0.5904754996299744,0.15908555686473846
188,5,128,98,0.6822888851165771,0.1053316593170166
188,5,128,99,0.3778248429298401,0.23783981800079346
188,5,128,100,0.7576860785484314,0.180647611618042
188,5,128,101,0.6269643902778625,0.16359589993953705
188,5,128,102,0.7683186531066895,0.13989493250846863
188,5,128,103,0.5350049138069153,0.10660677403211594
188,5,128,104,0.6389330625534058,0.12693136930465698
188,5,128,105,0.6309555768966675,0.15383802354335785
188,5,128,106,0.5109107494354248,0.15655545890331268
188,5,128,107,0.7941198348999023,0.1262902021408081
188,5,128,108,0.6490122675895691,0.11715992540121078
188,5,128,109,0.6631997227668762,0.16185592114925385
188,5,128,110,0.6288089156150818,0.20449599623680115
188,5,128,111,0.8112505078315735,0.1503256857395172
188,5,128,112,0.6080739498138428,0.1499186009168625
188,5,128,113,0.5150012373924255,0.13324189186096191
188,5,128,114,0.5815040469169617,0.13680905103683472
188,5,128,115,0.784855842590332,0.14344795048236847
188,5,128,116,0.7480825185775757,0.1446172297000885
188,5,128,117,0.7343553304672241,0.17761662602424622
188,5,128,118,0.5653238892555237,0.12415073066949844
188,5,128,119,0.5488070845603943,0.19701164960861206
188,5,128,120,0.45494624972343445,0.13897289335727692
188,5,128,121,0.28492411971092224,0.16610278189182281
188,5,128,122,0.5744821429252625,0.1485491394996643
188,5,128,123,0.5696337819099426,0.16466951370239258
188,5,128,124,0.7437450885772705,0.1973990648984909
188,5,128,125,0.6171515583992004,0.11387951672077179
188,5,128,126,0.5969229340553284,0.0949287861585617
188,5,128,127,0.7947245240211487,0.15658938884735107
189,0,32,0,0.509104311466217,0.041301120072603226
189,0,32,1,0.4345361590385437,0.08078396320343018
189,0,32,2,0.49699896574020386,0.04627055674791336
189,0,32,3,0.568892240524292,0.07283291220664978
189,0,32,4,0.5918075442314148,0.050789009779691696
189,0,32,5,0.524970293045044,0.06253542006015778
189,0,32,6,0.44171541929244995,0.09107159823179245
189,0,32,7,0.3681974411010742,0.10319443792104721
189,0,32,8,0.6144638657569885,0.047465354204177856
189,0,32,9,0.6006080508232117,0.05867503955960274
189,0,32,10,0.5501086711883545,0.055879492312669754
189,0,32,11,0.545640766620636,0.05758412182331085
189,0,32,12,0.35156241059303284,0.07867389172315598
189,0,32,13,0.3551894724369049,0.08632034063339233
189,0,32,14,0.4156719148159027,0.07956419885158539
189,0,32,15,0.48043614625930786,0.06340412050485611
189,0,32,16,0.41739463806152344,0.02841828390955925
189,0,32,17,0.6438184380531311,0.04152028262615204
189,0,32,18,0.5169480443000793,0.07744983583688736
189,0,32,19,0.44589486718177795,0.06517466902732849
189,0,32,20,0.5464486479759216,0.03945663571357727
189,0,32,21,0.5028817057609558,0.09261660277843475
189,0,32,22,0.47271186113357544,0.07308467477560043
189,0,32,23,0.5581470131874084,0.014365560375154018
189,0,32,24,0.41056182980537415,0.087064228951931
189,0,32,25,0.688057005405426,0.08560293167829514
189,0,32,26,0.3861011564731598,0.057309024035930634
189,0,32,27,0.35124436020851135,0.06499678641557693
189,0,32,28,0.4455694556236267,0.054995398968458176
189,0,32,29,0.5157279372215271,0.056258540600538254
189,0,32,30,0.5551613569259644,0.04787718877196312
189,0,32,31,0.5634382963180542,0.05660632997751236
189,1,32,0,0.5820810198783875,0.0949217826128006
189,1,32,1,0.3884676992893219,0.04880976676940918
189,1,32,2,0.48042377829551697,0.03872611001133919
189,1,32,3,0.4854828119277954,0.0711289495229721
189,1,32,4,0.4373885989189148,0.047260582447052
189,1,32,5,0.3544866144657135,0.09542234241962433
189,1,32,6,0.43427956104278564,0.07043245434761047
189,1,32,7,0.5841230750083923,0.0711558610200882
189,1,32,8,0.5012083053588867,0.11474549025297165
189,1,32,9,0.5047626495361328,0.11213453859090805
189,1,32,10,0.5932491421699524,0.09368450194597244
189,1,32,11,0.3466668725013733,0.11239591985940933
189,1,32,12,0.5437229871749878,0.04983557015657425
189,1,32,13,0.3557966351509094,0.060415010899305344
189,1,32,14,0.4868699610233307,0.1373588889837265
189,1,32,15,0.4003191888332367,0.0735345259308815
189,1,32,16,0.5428051352500916,0.04884663596749306
189,1,32,17,0.3713959753513336,0.07491236180067062
189,1,32,18,0.3672725260257721,0.04594912379980087
189,1,32,19,0.5171056985855103,0.10264328867197037
189,1,32,20,0.5745028257369995,0.056257057934999466
189,1,32,21,0.5526419281959534,0.03740973770618439
189,1,32,22,0.5877809524536133,0.0522051565349102
189,1,32,23,0.48465120792388916,0.060479942709207535
189,1,32,24,0.40299710631370544,0.09959743916988373
189,1,32,25,0.6068174242973328,0.0400896817445755
189,1,32,26,0.3776915371417999,0.10568247735500336
189,1,32,27,0.6211687326431274,0.043897904455661774
189,1,32,28,0.43907037377357483,0.0847776010632515
189,1,32,29,0.3855554759502411,0.05876997858285904
189,1,32,30,0.4828560948371887,0.040750592947006226
189,1,32,31,0.5322896242141724,0.10857455432415009
189,2,64,0,0.4754091501235962,0.12376737594604492
189,2,64,1,0.4910615086555481,0.1386619508266449
189,2,64,2,0.4749322533607483,0.0679086372256279
189,2,64,3,0.5181893110275269,0.07977645099163055
189,2,64,4,0.46724772453308105,0.12099085003137589
189,2,64,5,0.4496329724788666,0.10350661724805832
189,2,64,6,0.4287634491920471,0.07781483232975006
189,2,64,7,0.5830087661743164,0.12161406874656677
189,2,64,8,0.4829469919204712,0.12195415794849396
189,2,64,9,0.6284237504005432,0.0884438082575798
189,2,64,10,0.5610175132751465,0.15776866674423218
189,2,64,11,0.5735869407653809,0.1063622236251831
189,2,64,12,0.4400864541530609,0.07080250233411789
189,2,64,13,0.5507387518882751,0.12129761278629303
189,2,64,14,0.5238539576530457,0.13105446100234985
189,2,64,15,0.5715651512145996,0.08858748525381088
189,2,64,16,0.4606950581073761,0.10664556920528412
189,2,64,17,0.5314459800720215,0.09352291375398636
189,2,64,18,0.48065122961997986,0.10052792727947235
189,2,64,19,0.535262405872345,0.10395670682191849
189,2,64,20,0.5531054139137268,0.1179652288556099
189,2,64,21,0.4273274540901184,0.06440162658691406
189,2,64,22,0.546110212802887,0.06426853686571121
189,2,64,23,0.5234442353248596,0.10669220238924026
189,2,64,24,0.5422861576080322,0.09150167554616928
189,2,64,25,0.3324994146823883,0.09838264435529709
189,2,64,26,0.513712465763092,0.15651459991931915
189,2,64,27,0.49569764733314514,0.09565931558609009
189,2,64,28,0.318569153547287,0.08351639658212662
189,2,64,29,0.5642552971839905,0.08409562706947327
189,2,64,30,0.48818597197532654,0.09484218060970306
189,2,64,31,0.5392749309539795,0.048977021127939224
189,2,64,32,0.5134242177009583,0.13554006814956665
189,2,64,33,0.35772162675857544,0.0918649211525917
189,2,64,34,0.442587673664093,0.10700458288192749
189,2,64,35,0.4607214629650116,0.12446258962154388
189,2,64,36,0.3796450197696686,0.09136495739221573
189,2,64,37,0.4169040620326996,0.09586900472640991
189,2,64,38,0.4816831946372986,0.06868724524974823
189,2,64,39,0.5738478899002075,0.05851965770125389
189,2,64,40,0.4124429523944855,0.049596186727285385
189,2,64,41,0.5034769177436829,0.13487914204597473
189,2,64,42,0.45341983437538147,0.11062826216220856
189,2,64,43,0.42692095041275024,0.09128599613904953
189,2,64,44,0.42221975326538086,0.07815075665712357
189,2,64,45,0.4595080018043518,0.10630643367767334
189,2,64,46,0.5124046206474304,0.05653497949242592
189,2,64,47,0.48540323972702026,0.10480907559394836
189,2,64,48,0.5316924452781677,0.08782701194286346
189,2,64,49,0.5036430358886719,0.059019625186920166
189,2,64,50,0.6209151148796082,0.08477690070867538
189,2,64,51,0.5384938716888428,0.07639682292938232
189,2,64,52,0.5020055174827576,0.10478682816028595
189,2,64,53,0.4815160930156708,0.11664127558469772
189,2,64,54,0.45339247584342957,0.10885033011436462
189,2,64,55,0.5367914438247681,0.07426121830940247
189,2,64,56,0.44216611981391907,0.11319520324468613
189,2,64,57,0.5344669818878174,0.11427919566631317
189,2,64,58,0.4528423845767975,0.09819767624139786
189,2,64,59,0.40525802969932556,0.09049563109874725
189,2,64,60,0.4659656584262848,0.08635889738798141
189,2,64,61,0.5326189994812012,0.07560938596725464
189,2,64,62,0.5266933441162109,0.10804514586925507
189,2,64,63,0.49468788504600525,0.12199349701404572
189,3,64,0,0.6275899410247803,0.06977363675832748
189,3,64,1,0.42821386456489563,0.0634644478559494
189,3,64,2,0.42450693249702454,0.08509846776723862
189,3,64,3,0.43366751074790955,0.06838750839233398
189,3,64,4,0.6696625351905823,0.0973999947309494
189,3,64,5,0.49575021862983704,0.14974862337112427
189,3,64,6,0.43303805589675903,0.07078348100185394
189,3,64,7,0.5298876166343689,0.09461659938097
189,3,64,8,0.39998409152030945,0.0760127529501915
189,3,64,9,0.47325190901756287,0.1469482034444809
189,3,64,10,0.5685825943946838,0.07718119770288467
189,3,64,11,0.5627889633178711,0.09022742509841919
189,3,64,12,0.55965256690979,0.10923238843679428
189,3,64,13,0.5345757603645325,0.07121528685092926
189,3,64,14,0.6297847628593445,0.0696864053606987
189,3,64,15,0.4570280611515045,0.15378138422966003
189,3,64,16,0.4745621085166931,0.2281416803598404
189,3,64,17,0.4950152337551117,0.08733760565519333
189,3,64,18,0.6144505143165588,0.11536884307861328
189,3,64,19,0.5383315086364746,0.05869641527533531
189,3,64,20,0.5297726392745972,0.06585416197776794
189,3,64,21,0.553220808506012,0.08571703732013702
189,3,64,22,0.6710191965103149,0.10222774744033813
189,3,64,23,0.4013536870479584,0.1302933543920517
189,3,64,24,0.25492843985557556,0.1122344434261322
189,3,64,25,0.4842538833618164,0.11188642680644989
189,3,64,26,0.432392418384552,0.06014963611960411
189,3,64,27,0.49893367290496826,0.1448909044265747
189,3,64,28,0.4463062882423401,0.1508156955242157
189,3,64,29,0.6507886052131653,0.08379452675580978
189,3,64,30,0.6336126923561096,0.09350711107254028
189,3,64,31,0.6584464907646179,0.09572738409042358
189,3,64,32,0.46122676134109497,0.12078413367271423
189,3,64,33,0.5556061267852783,0.05874693766236305
189,3,64,34,0.49814650416374207,0.15477338433265686
189,3,64,35,0.414517343044281,0.08675964176654816
189,3,64,36,0.5687015652656555,0.1500369906425476
189,3,64,37,0.4682754576206207,0.10433027148246765
189,3,64,38,0.5454440116882324,0.044896453619003296
189,3,64,39,0.5660448670387268,0.18381133675575256
189,3,64,40,0.456453800201416,0.20958100259304047
189,3,64,41,0.48786118626594543,0.062396448105573654
189,3,64,42,0.5881462693214417,0.10215150564908981
189,3,64,43,0.5232170224189758,0.03400399535894394
189,3,64,44,0.5386645793914795,0.1307983100414276
189,3,64,45,0.40728724002838135,0.11827151477336884
189,3,64,46,0.5548779964447021,0.08012756705284119
189,3,64,47,0.3680899739265442,0.14388562738895416
189,3,64,48,0.520237147808075,0.15284298360347748
189,3,64,49,0.5775087475776672,0.06439785659313202
189,3,64,50,0.5131372213363647,0.10336470603942871
189,3,64,51,0.3858235478401184,0.12193553149700165
189,3,64,52,0.5588852167129517,0.14560046792030334
189,3,64,53,0.4628066420555115,0.11168178915977478
189,3,64,54,0.5721213817596436,0.19927991926670074
189,3,64,55,0.6054815649986267,0.08980359137058258
189,3,64,56,0.44101160764694214,0.1394159197807312
189,3,64,57,0.5545086860656738,0.11654173582792282
189,3,64,58,0.517326831817627,0.06833866983652115
189,3,64,59,0.5185307860374451,0.14436770975589752
189,3,64,60,0.35538357496261597,0.10240157693624496
189,3,64,61,0.480540931224823,0.1662292629480362
189,3,64,62,0.48596200346946716,0.06873800605535507
189,3,64,63,0.47603440284729004,0.1436908096075058
189,4,128,0,0.5965312719345093,0.26547735929489136
189,4,128,1,0.6513937711715698,0.0725732371211052
189,4,128,2,0.40002697706222534,0.061440080404281616
189,4,128,3,0.6700379848480225,0.19448085129261017
189,4,128,4,0.5115330815315247,0.09281644225120544
189,4,128,5,0.4062518775463104,0.2272692173719406
189,4,128,6,0.3537481427192688,0.1596573442220688
189,4,128,7,0.5965901017189026,0.1000204011797905
189,4,128,8,0.3059562146663666,0.14334599673748016
189,4,128,9,0.38044214248657227,0.12877799570560455
189,4,128,10,0.4022640883922577,0.2696562707424164
189,4,128,11,0.5902038216590881,0.15463276207447052
189,4,128,12,0.4981164336204529,0.2746232748031616
189,4,128,13,0.44926291704177856,0.27882447838783264
189,4,128,14,0.7489767074584961,0.08131922036409378
189,4,128,15,0.4520755112171173,0.11446233093738556
189,4,128,16,0.5714827179908752,0.06625843793153763
189,4,128,17,0.7263167500495911,0.1910092979669571
189,4,128,18,0.5409299731254578,0.32902342081069946
189,4,128,19,0.5211912989616394,0.25183895230293274
189,4,128,20,0.37236809730529785,0.23511481285095215
189,4,128,21,0.6322609186172485,0.17969869077205658
189,4,128,22,0.3697330355644226,0.08923786878585815
189,4,128,23,0.4675571918487549,0.13841882348060608
189,4,128,24,0.2350618541240692,0.12836754322052002
189,4,128,25,0.4532991945743561,0.20104645192623138
189,4,128,26,0.5627747774124146,0.09794950485229492
189,4,128,27,0.5618099570274353,0.1133684292435646
189,4,128,28,0.652782678604126,0.17163197696208954
189,4,128,29,0.3527134954929352,0.11631413549184799
189,4,128,30,0.47928762435913086,0.2379244714975357
189,4,128,31,0.7121209502220154,0.2283904254436493
189,4,128,32,0.696567952632904,0.18413980305194855
189,4,128,33,0.38101524114608765,0.15420036017894745
189,4,128,34,0.46024465560913086,0.21601271629333496
189,4,128,35,0.6487611532211304,0.17407970130443573
189,4,128,36,0.3543660342693329,0.15509730577468872
189,4,128,37,0.4118780493736267,0.1768037974834442
189,4,128,38,0.5809488296508789,0.23557616770267487
189,4,128,39,0.5628610253334045,0.13117559254169464
189,4,128,40,0.6619910001754761,0.19085071980953217
189,4,128,41,0.4736572802066803,0.15257860720157623
189,4,128,42,0.5499787926673889,0.1193934977054596
189,4,128,43,0.6914271712303162,0.18499048054218292
189,4,128,44,0.4110246002674103,0.0875048041343689
189,4,128,45,0.5447931289672852,0.10179094970226288
189,4,128,46,0.48593613505363464,0.16278280317783356
189,4,128,47,0.5683802366256714,0.10658974200487137
189,4,128,48,0.5698094964027405,0.1403476446866989
189,4,128,49,0.31327199935913086,0.10266817361116409
189,4,128,50,0.7042905688285828,0.11662879586219788
189,4,128,51,0.4200053811073303,0.11755193024873734
189,4,128,52,0.5204244256019592,0.23421768844127655
189,4,128,53,0.48672521114349365,0.14756594598293304
189,4,128,54,0.47557133436203003,0.16840407252311707
189,4,128,55,0.4804201126098633,0.15574826300144196
189,4,128,56,0.5351890325546265,0.06316395103931427
189,4,128,57,0.3797471821308136,0.1204509437084198
189,4,128,58,0.39357656240463257,0.1406036764383316
189,4,128,59,0.3711203634738922,0.15051227807998657
189,4,128,60,0.5760484337806702,0.17000016570091248
189,4,128,61,0.3542546033859253,0.16594628989696503
189,4,128,62,0.7048425674438477,0.11567618697881699
189,4,128,63,0.582831859588623,0.2036481499671936
189,4,128,64,0.4810447096824646,0.08669748902320862
189,4,128,65,0.5724536180496216,0.16640757024288177
189,4,128,66,0.5736756920814514,0.13945618271827698
189,4,128,67,0.4587785005569458,0.10767585039138794
189,4,128,68,0.3730008602142334,0.18568529188632965
189,4,128,69,0.48651501536369324,0.12639528512954712
189,4,128,70,0.43947356939315796,0.2358957827091217
189,4,128,71,0.3710509240627289,0.13073259592056274
189,4,128,72,0.33439773321151733,0.11956849694252014
189,4,128,73,0.6200745701789856,0.2113698571920395
189,4,128,74,0.5839069485664368,0.22042140364646912
189,4,128,75,0.4961521327495575,0.1653335690498352
189,4,128,76,0.5540742874145508,0.20134837925434113
189,4,128,77,0.34975191950798035,0.1940946877002716
189,4,128,78,0.5763115882873535,0.15597806870937347
189,4,128,79,0.53952556848526,0.2566968500614166
189,4,128,80,0.5174740552902222,0.19683785736560822
189,4,128,81,0.516007661819458,0.2179102748632431
189,4,128,82,0.4573969542980194,0.16099131107330322
189,4,128,83,0.6210002303123474,0.13368715345859528
189,4,128,84,0.3465830683708191,0.10741103440523148
189,4,128,85,0.45844292640686035,0.19916516542434692
189,4,128,86,0.5984560251235962,0.20413215458393097
189,4,128,87,0.5717841386795044,0.15330742299556732
189,4,128,88,0.4731850326061249,0.09356039762496948
189,4,128,89,0.5178171992301941,0.24255166947841644
189,4,128,90,0.5342308282852173,0.30073967576026917
189,4,128,91,0.5766790509223938,0.24440997838974
189,4,128,92,0.39347198605537415,0.07746326923370361
189,4,128,93,0.6786128282546997,0.2518604099750519
189,4,128,94,0.5956081748008728,0.22265727818012238
189,4,128,95,0.5109208226203918,0.13498039543628693
189,4,128,96,0.4520821273326874,0.14963845908641815
189,4,128,97,0.6479666233062744,0.1890636533498764
189,4,128,98,0.7591677308082581,0.08126416057348251
189,4,128,99,0.4967113435268402,0.16080325841903687
189,4,128,100,0.702741801738739,0.15377135574817657
189,4,128,101,0.44411593675613403,0.2170306146144867
189,4,128,102,0.6455230116844177,0.19144567847251892
189,4,128,103,0.5005821585655212,0.15897168219089508
189,4,128,104,0.47468075156211853,0.21512044966220856
189,4,128,105,0.6162165999412537,0.1523427814245224
189,4,128,106,0.4477943778038025,0.16273002326488495
189,4,128,107,0.6074422597885132,0.1250373125076294
189,4,128,108,0.5305407047271729,0.2237403392791748
189,4,128,109,0.5918466448783875,0.1628197878599167
189,4,128,110,0.6590362787246704,0.1849147528409958
189,4,128,111,0.49608609080314636,0.21100343763828278
189,4,128,112,0.5757209658622742,0.27642375230789185
189,4,128,113,0.42292851209640503,0.23201091587543488
189,4,128,114,0.45505329966545105,0.18231691420078278
189,4,128,115,0.5800811052322388,0.27299338579177856
189,4,128,116,0.6603662967681885,0.10766419768333435
189,4,128,117,0.5893868207931519,0.20000191032886505
189,4,128,118,0.592721700668335,0.1111014112830162
189,4,128,119,0.5874443650245667,0.1997762769460678
189,4,128,120,0.5654974579811096,0.10625316202640533
189,4,128,121,0.7079787850379944,0.17992667853832245
189,4,128,122,0.5359630584716797,0.13464413583278656
189,4,128,123,0.41565966606140137,0.23329758644104004
189,4,128,124,0.5920907855033875,0.24121929705142975
189,4,128,125,0.37977513670921326,0.16479866206645966
189,4,128,126,0.494314581155777,0.08174562454223633
189,4,128,127,0.5723042488098145,0.2634305953979492
189,5,128,0,0.7607417106628418,0.14728794991970062
189,5,128,1,0.32964712381362915,0.10231518745422363
189,5,128,2,0.3888453245162964,0.07831348478794098
189,5,128,3,0.37297964096069336,0.1506812572479248
189,5,128,4,0.4961971044540405,0.06227215379476547
189,5,128,5,0.4586307108402252,0.08079119771718979
189,5,128,6,0.2719888985157013,0.1689823567867279
189,5,128,7,0.38838547468185425,0.12005698680877686
189,5,128,8,0.3052324056625366,0.13455714285373688
189,5,128,9,0.6875560879707336,0.12420514225959778
189,5,128,10,0.4088551700115204,0.15812507271766663
189,5,128,11,0.6399750709533691,0.12021816521883011
189,5,128,12,0.4492138922214508,0.15916737914085388
189,5,128,13,0.624975860118866,0.17708589136600494
189,5,128,14,0.6280642151832581,0.09137984365224838
189,5,128,15,0.6493168473243713,0.07947897911071777
189,5,128,16,0.4695451557636261,0.13264428079128265
189,5,128,17,0.7453515529632568,0.14430537819862366
189,5,128,18,0.629230797290802,0.15648972988128662
189,5,128,19,0.3949901759624481,0.13240858912467957
189,5,128,20,0.6057811379432678,0.12494640797376633
189,5,128,21,0.703920841217041,0.11815666407346725
189,5,128,22,0.6139670014381409,0.144943967461586
189,5,128,23,0.5414238572120667,0.12499459832906723
189,5,128,24,0.5863276124000549,0.15243183076381683
189,5,128,25,0.7060315608978271,0.12975066900253296
189,5,128,26,0.6756588816642761,0.14250458776950836
189,5,128,27,0.7536441683769226,0.11026382446289062
189,5,128,28,0.6954237818717957,0.16306225955486298
189,5,128,29,0.715021550655365,0.09940896928310394
189,5,128,30,0.6486195921897888,0.22751590609550476
189,5,128,31,0.6760251522064209,0.12065842002630234
189,5,128,32,0.6751253008842468,0.1360020488500595
189,5,128,33,0.5511967539787292,0.07378626614809036
189,5,128,34,0.5341673493385315,0.10946505516767502
189,5,128,35,0.6748064160346985,0.17149296402931213
189,5,128,36,0.5799768567085266,0.08638909459114075
189,5,128,37,0.3353576064109802,0.13614222407341003
189,5,128,38,0.5042679309844971,0.15950657427310944
189,5,128,39,0.4600798785686493,0.1283475011587143
189,5,128,40,0.5293501615524292,0.1458951234817505
189,5,128,41,0.6083278059959412,0.1709127575159073
189,5,128,42,0.48308107256889343,0.09714888781309128
189,5,128,43,0.6310373544692993,0.16937711834907532
189,5,128,44,0.3943999111652374,0.0765199363231659
189,5,128,45,0.3833584785461426,0.08819635212421417
189,5,128,46,0.533633828163147,0.10926437377929688
189,5,128,47,0.5925794243812561,0.08705691993236542
189,5,128,48,0.6298955082893372,0.1661572903394699
189,5,128,49,0.47777262330055237,0.07479306310415268
189,5,128,50,0.6639920473098755,0.09799855947494507
189,5,128,51,0.7126407027244568,0.10476285219192505
189,5,128,52,0.7419548034667969,0.1442273110151291
189,5,128,53,0.4868454039096832,0.08275147527456284
189,5,128,54,0.3761504590511322,0.17837120592594147
189,5,128,55,0.6532782912254333,0.17833241820335388
189,5,128,56,0.6034521460533142,0.17067833244800568
189,5,128,57,0.6174291372299194,0.08095259964466095
189,5,128,58,0.49918150901794434,0.09874134510755539
189,5,128,59,0.6302908658981323,0.1594926118850708
189,5,128,60,0.42305880784988403,0.07283557206392288
189,5,128,61,0.6369624137878418,0.1288745254278183
189,5,128,62,0.6784003973007202,0.10882825404405594
189,5,128,63,0.5965093374252319,0.18238547444343567
189,5,128,64,0.675674319267273,0.1344001740217209
189,5,128,65,0.4060674011707306,0.07157109677791595
189,5,128,66,0.7256746888160706,0.1749228686094284
189,5,128,67,0.5916680097579956,0.14728684723377228
189,5,128,68,0.4980190396308899,0.13760337233543396
189,5,128,69,0.6613951325416565,0.13123251497745514
189,5,128,70,0.7267270088195801,0.10961944609880447
189,5,128,71,0.6491237878799438,0.13808830082416534
189,5,128,72,0.5884566903114319,0.1241365596652031
189,5,128,73,0.6950961351394653,0.170914426445961
189,5,128,74,0.44787871837615967,0.10810746252536774
189,5,128,75,0.6246256828308105,0.14315412938594818
189,5,128,76,0.6917364597320557,0.156533882021904
189,5,128,77,0.7533608078956604,0.10873095691204071
189,5,128,78,0.6325620412826538,0.09509234130382538
189,5,128,79,0.7361987829208374,0.08959489315748215
189,5,128,80,0.6454087495803833,0.11282987147569656
189,5,128,81,0.5825522541999817,0.0814087986946106
189,5,128,82,0.739764928817749,0.1674690842628479
189,5,128,83,0.6445538401603699,0.13883891701698303
189,5,128,84,0.624217689037323,0.059262800961732864
189,5,128,85,0.6218128800392151,0.09236198663711548
189,5,128,86,0.38713955879211426,0.11046469211578369
189,5,128,87,0.5859877467155457,0.05965963006019592
189,5,128,88,0.46358731389045715,0.1152157261967659
189,5,128,89,0.5480846762657166,0.12514598667621613
189,5,128,90,0.6960658431053162,0.14338643848896027
189,5,128,91,0.579005777835846,0.1680692881345749
189,5,128,92,0.568529486656189,0.08401379734277725
189,5,128,93,0.5644310712814331,0.05977597460150719
189,5,128,94,0.3637824058532715,0.12893882393836975
189,5,128,95,0.6249803304672241,0.11833462864160538
189,5,128,96,0.4074217677116394,0.13869555294513702
189,5,128,97,0.6667010188102722,0.11864569783210754
189,5,128,98,0.6319924592971802,0.09219222515821457
189,5,128,99,0.4675537645816803,0.1241346001625061
189,5,128,100,0.7328664660453796,0.14434517920017242
189,5,128,101,0.4289819300174713,0.13759158551692963
189,5,128,102,0.7208837866783142,0.1320054531097412
189,5,128,103,0.40438854694366455,0.15355230867862701
189,5,128,104,0.6170130968093872,0.05341895669698715
189,5,128,105,0.6398083567619324,0.1294635832309723
189,5,128,106,0.591791570186615,0.12261167168617249
189,5,128,107,0.7250176072120667,0.09577366709709167
189,5,128,108,0.629321277141571,0.1393880993127823
189,5,128,109,0.6251233816146851,0.15834581851959229
189,5,128,110,0.5755016803741455,0.11790111660957336
189,5,128,111,0.8054910898208618,0.1307615488767624
189,5,128,112,0.6028966307640076,0.0843312069773674
189,5,128,113,0.42757725715637207,0.10768596082925797
189,5,128,114,0.5349797010421753,0.14787214994430542
189,5,128,115,0.7308250069618225,0.13628914952278137
189,5,128,116,0.7467220425605774,0.12384764105081558
189,5,128,117,0.7219653725624084,0.13412722945213318
189,5,128,118,0.4672321379184723,0.1256818175315857
189,5,128,119,0.5073623657226562,0.11535830050706863
189,5,128,120,0.3997211158275604,0.07414387911558151
189,5,128,121,0.3395899534225464,0.11644749343395233
189,5,128,122,0.38772153854370117,0.10844143480062485
189,5,128,123,0.5559660792350769,0.12608471512794495
189,5,128,124,0.6917744874954224,0.16460074484348297
189,5,128,125,0.5982164740562439,0.1131366416811943
189,5,128,126,0.45425286889076233,0.054991915822029114
189,5,128,127,0.7704164981842041,0.14500445127487183
190,0,32,0,0.43703678250312805,0.05209320783615112
190,0,32,1,0.3588821291923523,0.043725572526454926
190,0,32,2,0.5783560872077942,0.07166121900081635
190,0,32,3,0.6120573878288269,0.036310914903879166
190,0,32,4,0.36885175108909607,0.06029117852449417
190,0,32,5,0.5369457006454468,0.0607779435813427
190,0,32,6,0.6674319505691528,0.0362066850066185
190,0,32,7,0.5709278583526611,0.07932016998529434
190,0,32,8,0.505465030670166,0.07324963808059692
190,0,32,9,0.43772047758102417,0.05479424446821213
190,0,32,10,0.6753758788108826,0.047090090811252594
190,0,32,11,0.4917551875114441,0.05895001068711281
190,0,32,12,0.5812500715255737,0.06905955821275711
190,0,32,13,0.4465253949165344,0.06146984174847603
190,0,32,14,0.6428666114807129,0.06375623494386673
190,0,32,15,0.3928687870502472,0.055413976311683655
190,0,32,16,0.3030019700527191,0.04690003767609596
190,0,32,17,0.46700751781463623,0.058577749878168106
190,0,32,18,0.483857125043869,0.09075284004211426
190,0,32,19,0.4577241539955139,0.05433003976941109
190,0,32,20,0.4658419191837311,0.06644336879253387
190,0,32,21,0.5621007084846497,0.04007431119680405
190,0,32,22,0.5945470929145813,0.06321016699075699
190,0,32,23,0.4423738718032837,0.06843311339616776
190,0,32,24,0.5076757669448853,0.06802205741405487
190,0,32,25,0.586752712726593,0.04624314606189728
190,0,32,26,0.6283348798751831,0.06986569613218307
190,0,32,27,0.6147190928459167,0.04009739309549332
190,0,32,28,0.5003953576087952,0.05475683882832527
190,0,32,29,0.6336450576782227,0.0936129242181778
190,0,32,30,0.5119059085845947,0.06630261242389679
190,0,32,31,0.39604875445365906,0.034539397805929184
190,1,32,0,0.34171321988105774,0.07301792502403259
190,1,32,1,0.42001453042030334,0.08478736132383347
190,1,32,2,0.37331637740135193,0.11634014546871185
190,1,32,3,0.42343026399612427,0.10305175185203552
190,1,32,4,0.4956703782081604,0.1377067118883133
190,1,32,5,0.37899526953697205,0.06777369976043701
190,1,32,6,0.3675287663936615,0.053690750151872635
190,1,32,7,0.4859064519405365,0.05632217973470688
190,1,32,8,0.43756669759750366,0.09233826398849487
190,1,32,9,0.4905197024345398,0.08287181705236435
190,1,32,10,0.5403059720993042,0.12922172248363495
190,1,32,11,0.4791366755962372,0.09665162861347198
190,1,32,12,0.4144050180912018,0.08976756781339645
190,1,32,13,0.3139689564704895,0.07123062759637833
190,1,32,14,0.44937995076179504,0.06819242238998413
190,1,32,15,0.5391753911972046,0.07022568583488464
190,1,32,16,0.468020498752594,0.15018294751644135
190,1,32,17,0.5877640843391418,0.09714753925800323
190,1,32,18,0.6179705858230591,0.08532271534204483
190,1,32,19,0.3079056143760681,0.05318388342857361
190,1,32,20,0.4226225018501282,0.11179064959287643
190,1,32,21,0.4469905495643616,0.06636913865804672
190,1,32,22,0.3869079351425171,0.0729064792394638
190,1,32,23,0.4203249514102936,0.0913785919547081
190,1,32,24,0.4597854018211365,0.09665010869503021
190,1,32,25,0.5747091174125671,0.09094512462615967
190,1,32,26,0.5907406806945801,0.03697504848241806
190,1,32,27,0.6140965819358826,0.033721644431352615
190,1,32,28,0.5180882215499878,0.07156484574079514
190,1,32,29,0.3440673053264618,0.12800940871238708
190,1,32,30,0.4644746482372284,0.07379297912120819
190,1,32,31,0.336845338344574,0.08917198330163956
190,2,64,0,0.5312934517860413,0.11896564066410065
190,2,64,1,0.49525803327560425,0.0901169702410698
190,2,64,2,0.3826757073402405,0.09359286725521088
190,2,64,3,0.34096643328666687,0.13063807785511017
190,2,64,4,0.47987425327301025,0.041128065437078476
190,2,64,5,0.5111474990844727,0.1087646409869194
190,2,64,6,0.6178262233734131,0.07000311464071274
190,2,64,7,0.38241806626319885,0.11684322357177734
190,2,64,8,0.38842272758483887,0.0756629928946495
190,2,64,9,0.624785304069519,0.08185351639986038
190,2,64,10,0.4567483961582184,0.1537105292081833
190,2,64,11,0.6085590124130249,0.12414536625146866
190,2,64,12,0.5614029765129089,0.11556141823530197
190,2,64,13,0.4971771836280823,0.08923415094614029
190,2,64,14,0.4612770676612854,0.11604781448841095
190,2,64,15,0.49968403577804565,0.06211934611201286
190,2,64,16,0.3740798234939575,0.1062607616186142
190,2,64,17,0.5231770873069763,0.06557925790548325
190,2,64,18,0.5341572165489197,0.13882900774478912
190,2,64,19,0.45881444215774536,0.13580086827278137
190,2,64,20,0.4584255814552307,0.20408742129802704
190,2,64,21,0.4293135106563568,0.07167725265026093
190,2,64,22,0.6153789758682251,0.07124722748994827
190,2,64,23,0.4729064702987671,0.05639496073126793
190,2,64,24,0.47693896293640137,0.053382664918899536
190,2,64,25,0.5377552509307861,0.05434316396713257
190,2,64,26,0.5365612506866455,0.11708010733127594
