subject,channel,alpha,f1,drop_pp
156,0,1.0,0.7138135945658614,0.0
156,0,0.75,0.7408666828417236,-2.705308827586228
156,0,0.5,0.7404305565308156,-2.661696196495422
156,0,0.25,0.7153639871535026,-0.1550392587641225
156,0,0.0,0.7017155926679755,1.2098001897885902
156,1,1.0,0.7138135945658614,0.0
156,1,0.75,0.708045822360441,0.5767772205420352
156,1,0.5,0.6981077059919742,1.5705888573887106
156,1,0.25,0.6843270259680291,2.9486568597832274
156,1,0.0,0.6620429898677502,5.177060469811112
156,2,1.0,0.7138135945658614,0.0
156,2,0.75,0.71248899637132,0.13245981945413376
156,2,0.5,0.7007507665813273,1.3062827984534064
156,2,0.25,0.69498365353946,1.8829941026401342
156,2,0.0,0.6956881189829612,1.812547558290012
156,3,1.0,0.7138135945658614,0.0
156,3,0.75,0.7133812588631381,0.04323357027232744
156,3,0.5,0.7110872057822122,0.27263887836491696
156,3,0.25,0.7055896967402477,0.8223897825613613
156,3,0.0,0.6926055446497859,2.12080499160755
156,4,1.0,0.7138135945658614,0.0
156,4,0.75,0.7150970735732685,-0.12834790074071067
156,4,0.5,0.711387055019039,0.24265395468223705
156,4,0.25,0.7003776057713251,1.3435988794536224
156,4,0.0,0.6744935050907106,3.9320089475150755
156,5,1.0,0.7138135945658614,0.0
156,5,0.75,0.7113107637961322,0.2502830769729125
156,5,0.5,0.6969345865083203,1.6879008057541056
156,5,0.25,0.6817919797106214,3.202161485523991
156,5,0.0,0.6362901543861398,7.752344017972157
156,6,1.0,0.7138135945658614,0.0
156,6,0.75,0.7152997656572322,-0.1486171091370836
156,6,0.5,0.715376612551373,-0.15630179855116166
156,6,0.25,0.7115655076596845,0.22480869061768383
156,6,0.0,0.7087982949473797,0.5015299618481683
185,0,1.0,0.6228714239376738,0.0
185,0,0.75,0.6324692890719482,-0.9597865134274408
185,0,0.5,0.6282559224215803,-0.5384498483906541
185,0,0.25,0.6181560956884642,0.4715328249209616
185,0,0.0,0.6005071573869216,2.2364266550752188
185,1,1.0,0.6228714239376738,0.0
185,1,0.75,0.6271066229705539,-0.4235199032880055
185,1,0.5,0.6291425739533533,-0.6271150015679461
185,1,0.25,0.627090290050449,-0.42188661127752214
185,1,0.0,0.6219026065759684,0.09688173617053986
185,2,1.0,0.6228714239376738,0.0
185,2,0.75,0.6117754567900512,1.109596714762262
185,2,0.5,0.6043029915136301,1.8568432424043713
185,2,0.25,0.5845021808214277,3.836924311624612
185,2,0.0,0.5613028454293414,6.156857850833242
185,3,1.0,0.6228714239376738,0.0
185,3,0.75,0.6269452226163459,-0.40737986786720803
185,3,0.5,0.6289531120753749,-0.6081688137701047
185,3,0.25,0.6259473413916328,-0.3075917453958965
185,3,0.0,0.6244275139930592,-0.1556090055385373
185,4,1.0,0.6228714239376738,0.0
185,4,0.75,0.6164423680087308,0.642905592894305
185,4,0.5,0.6085132349903025,1.4358188947371286
185,4,0.25,0.5973846101439503,2.548681379372353
185,4,0.0,0.5789622984918601,4.390912544581371
185,5,1.0,0.6228714239376738,0.0
185,5,0.75,0.632174869231496,-0.930344529382221
185,5,0.5,0.6346499319012692,-1.1778507963595364
185,5,0.25,0.6294965314874625,-0.6625107549788734
185,5,0.0,0.602445944811581,2.0425479126092827
185,6,1.0,0.6228714239376738,0.0
185,6,0.75,0.6292408812918782,-0.6369457354204355
185,6,0.5,0.632502277222106,-0.9630853284432139
185,6,0.25,0.6249015211352057,-0.20300971975318882
185,6,0.0,0.6245051217988551,-0.16336978611812825
186,0,1.0,0.7219314808886572,0.0
186,0,0.75,0.7173078944180774,0.462358647057981
186,0,0.5,0.6968543742884568,2.507710660020046
186,0,0.25,0.6770292374487998,4.490224343985738
186,0,0.0,0.6569882427335789,6.49432381550783
186,1,1.0,0.7219314808886572,0.0
186,1,0.75,0.7216871877896391,0.024429309901807805
186,1,0.5,0.7218500127326332,0.0081468156024056
186,1,0.25,0.7151527154314711,0.6778765457186142
186,1,0.0,0.6945486071684104,2.7382873720246836
186,2,1.0,0.7219314808886572,0.0
186,2,0.75,0.729591025897832,-0.7659545009174762
186,2,0.5,0.7306390127671619,-0.8707531878504704
186,2,0.25,0.700540900183129,2.139058070552824
186,2,0.0,0.6863108320857648,3.5620648802892396
186,3,1.0,0.7219314808886572,0.0
186,3,0.75,0.724678439473978,-0.27469585853208134
186,3,0.5,0.7195688223320833,0.23626585565739155
186,3,0.25,0.7104651814616441,1.146629942701316
186,3,0.0,0.6931003882408765,2.883109264778072
186,4,1.0,0.7219314808886572,0.0
186,4,0.75,0.7210715949392537,0.08598859494035604
186,4,0.5,0.7109410172303654,1.0990463658291816
186,4,0.25,0.687860002680474,3.4071478208183237
186,4,0.0,0.6597528963912499,6.217858449740731
186,5,1.0,0.7219314808886572,0.0
186,5,0.75,0.7159558948442494,0.5975586044407843
186,5,0.5,0.7081862964696592,1.3745184418997969
186,5,0.25,0.6667878010180169,5.514367987064029
186,5,0.0,0.6243491629707864,9.758231791787086
186,6,1.0,0.7219314808886572,0.0
186,6,0.75,0.7254999112395197,-0.3568430350862517
186,6,0.5,0.7236265718745198,-0.1695090985862624
186,6,0.25,0.7248633595814247,-0.29318786927674534
186,6,0.0,0.720912937543903,0.10185433447542636
188,0,1.0,0.6270359539585235,0.0
188,0,0.75,0.6117226490048847,1.5313304953638807
188,0,0.5,0.5976061122454214,2.9429841713102145
188,0,0.25,0.5887769134803004,3.825904047822315
188,0,0.0,0.5784627658376699,4.857318812085365
188,1,1.0,0.6270359539585235,0.0
188,1,0.75,0.6251386603509973,0.1897293607526218
188,1,0.5,0.6194494607538086,0.7586493204714939
188,1,0.25,0.604327653087763,2.270830087076048
188,1,0.0,0.5929612988866748,3.4074655071848703
188,2,1.0,0.6270359539585235,0.0
188,2,0.75,0.6239900385587102,0.3045915399813359
188,2,0.5,0.6041062528547756,2.2929701103747924
188,2,0.25,0.5825070418213636,4.452891213715993
188,2,0.0,0.5624339060596253,6.460204789889823
188,3,1.0,0.6270359539585235,0.0
188,3,0.75,0.6090613045033926,1.7974649455130942
188,3,0.5,0.596017033226321,3.101892073220247
188,3,0.25,0.5822319467298135,4.480400722871003
188,3,0.0,0.5587330569390244,6.83028970194991
188,4,1.0,0.6270359539585235,0.0
188,4,0.75,0.6165053102814715,1.0530643677052032
188,4,0.5,0.6075282602625189,1.950769369600458
188,4,0.25,0.6018508694892051,2.518508446931844
188,4,0.0,0.5870340154773488,4.000193848117473
188,5,1.0,0.6270359539585235,0.0
188,5,0.75,0.6192319948201606,0.7803959138362959
188,5,0.5,0.5902033003458089,3.6832653612714594
188,5,0.25,0.563529513991911,6.350643996661254
188,5,0.0,0.537871796200897,8.916415775762655
188,6,1.0,0.6270359539585235,0.0
188,6,0.75,0.6265794477109152,0.04565062476082904
188,6,0.5,0.6304968772135533,-0.34609232550297797
188,6,0.25,0.6325823229703013,-0.5546369011777741
188,6,0.0,0.6338991706868938,-0.6863216728370314
189,0,1.0,0.7225875504503992,0.0
189,0,0.75,0.719193303720315,0.33942467300842605
189,0,0.5,0.7080410290010408,1.4546521449358418
189,0,0.25,0.6748082666779621,4.777928377243712
189,0,0.0,0.6492012491090751,7.338630134132417
189,1,1.0,0.7225875504503992,0.0
189,1,0.75,0.7285895260066308,-0.6001975556231609
189,1,0.5,0.718617377539355,0.39701729110442896
189,1,0.25,0.7053329552453983,1.7254595205000944
189,1,0.0,0.6820936855529178,4.049386489748141
189,2,1.0,0.7225875504503992,0.0
189,2,0.75,0.7328610312950944,-1.0273480844695149
189,2,0.5,0.7293732926248323,-0.6785742174433063
189,2,0.25,0.7182172200065071,0.4370330443892123
189,2,0.0,0.7131552974063666,0.9432253044032612
189,3,1.0,0.7225875504503992,0.0
189,3,0.75,0.7193967296870567,0.3190820763342539
189,3,0.5,0.7102080123082326,1.2379538142166635
189,3,0.25,0.6974269594696625,2.5160590980736752
189,3,0.0,0.6933717126386241,2.921583781177517
189,4,1.0,0.7225875504503992,0.0
189,4,0.75,0.7242390899414071,-0.16515394910078252
189,4,0.5,0.7226404026505564,-0.0052852200157160745
189,4,0.25,0.7099538783535049,1.2633672096894366
189,4,0.0,0.6906761559535939,3.1911394496805356
189,5,1.0,0.7225875504503992,0.0
189,5,0.75,0.7156437362951259,0.6943814155273342
189,5,0.5,0.6841193562299402,3.8468194220458996
189,5,0.25,0.6358117327032999,8.67758177470993
189,5,0.0,0.5888339618979613,13.37535885524379
189,6,1.0,0.7225875504503992,0.0
189,6,0.75,0.7426649452067247,-2.0077394756325417
189,6,0.5,0.7548763116400264,-3.22887611896272
189,6,0.25,0.7661004208883968,-4.351287043799756
189,6,0.0,0.7697580874712191,-4.717053702081985
190,0,1.0,0.6635105136541193,0.0
190,0,0.75,0.6853667347780098,-2.185622112389052
190,0,0.5,0.674172696611172,-1.066218295705268
190,0,0.25,0.6415861173137042,2.1924396340415098
190,0,0.0,0.6024616830805025,6.104883057361676
190,1,1.0,0.6635105136541193,0.0
190,1,0.75,0.6493178695530171,1.4192644101102214
190,1,0.5,0.629139723619675,3.437079003444432
190,1,0.25,0.6037891818488588,5.972133180526051
190,1,0.0,0.568814050176072,9.469646347804728
190,2,1.0,0.6635105136541193,0.0
190,2,0.75,0.6649880588239212,-0.14775451698019193
190,2,0.5,0.6436002847743184,1.9910228879800873
190,2,0.25,0.6214409104206549,4.2069603233464425
190,2,0.0,0.5863155088026513,7.719500485146802
190,3,1.0,0.6635105136541193,0.0
190,3,0.75,0.6630575114732744,0.045300218084487476
190,3,0.5,0.6447305335634672,1.877998009065207
190,3,0.25,0.6186364894687559,4.487402418536335
190,3,0.0,0.5872092920215701,7.630122163254915
190,4,1.0,0.6635105136541193,0.0
190,4,0.75,0.661475684980191,0.2034828673928235
190,4,0.5,0.6433052790778547,2.0205234576264552
190,4,0.25,0.6141308656013219,4.937964805279737
190,4,0.0,0.5659948097579159,9.751570389620333
190,5,1.0,0.6635105136541193,0.0
190,5,0.75,0.660716578952388,0.2793934701731282
190,5,0.5,0.647352747936074,1.615776571804528
190,5,0.25,0.6274214962772503,3.608901737686898
190,5,0.0,0.5874371616257956,7.607335202832366
190,6,1.0,0.6635105136541193,0.0
190,6,0.75,0.6762719017835122,-1.276138812939287
190,6,0.5,0.6783100555542043,-1.4799541900085034
190,6,0.25,0.6755358576444664,-1.202534399034716
190,6,0.0,0.6742953961329852,-1.0784882478865887
191,0,1.0,0.6548415751103506,0.0
191,0,0.75,0.6446258072615773,1.0215767848773316
191,0,0.5,0.6225056461515326,3.2335928958817983
191,0,0.25,0.5745971945425283,8.024438056782223
191,0,0.0,0.5407850652217678,11.405650988858273
191,1,1.0,0.6548415751103506,0.0
191,1,0.75,0.6504461509658299,0.43954241445206543
191,1,0.5,0.6398926341325082,1.4948940977842384
191,1,0.25,0.6103484698120569,4.449310529829365
191,1,0.0,0.5761668557457471,7.867471936460346
191,2,1.0,0.6548415751103506,0.0
191,2,0.75,0.6671410971063219,-1.2299521995971285
191,2,0.5,0.6714345005947403,-1.6592925484389731
191,2,0.25,0.6732592281866515,-1.8417653076300944
191,2,0.0,0.6626425060311106,-0.7800930920760063
191,3,1.0,0.6548415751103506,0.0
191,3,0.75,0.6734131222356552,-1.8571547125304622
191,3,0.5,0.686510920337756,-3.1669345227405388
191,3,0.25,0.7053363490794915,-5.049477396914092
191,3,0.0,0.7266472226614362,-7.1805647551085645
191,4,1.0,0.6548415751103506,0.0
191,4,0.75,0.6483064021155789,0.6535172994771687
191,4,0.5,0.6356695583053318,1.9172016805018788
191,4,0.25,0.614028461046261,4.081311406408961
191,4,0.0,0.5876171951092615,6.722438000108911
191,5,1.0,0.6548415751103506,0.0
191,5,0.75,0.64712221147405,0.7719363636300547
191,5,0.5,0.6244424640422874,3.0399111068063145
191,5,0.25,0.6019613235981033,5.288025151224729
191,5,0.0,0.58568120950256,6.91603656077906
191,6,1.0,0.6548415751103506,0.0
191,6,0.75,0.6612695570911628,-0.6427981980812181
191,6,0.5,0.6578495015632221,-0.3007926452871512
191,6,0.25,0.6528769499133626,0.19646251969879236
191,6,0.0,0.6437268030009604,1.1114772109390159
192,0,1.0,0.4322508130173667,0.0
192,0,0.75,0.4520639383695949,-1.9813125352228234
192,0,0.5,0.45780261378707215,-2.555180076970548
192,0,0.25,0.44363662647917035,-1.1385813461803673
192,0,0.0,0.4341218202496956,-0.1871007232328914
192,1,1.0,0.4322508130173667,0.0
192,1,0.75,0.4285858022594876,0.36650107578790614
192,1,0.5,0.4149631344727043,1.72876785446624
192,1,0.25,0.40841668145956056,2.3834131557806115
192,1,0.0,0.4024891939986895,2.9761619018677186
192,2,1.0,0.4322508130173667,0.0
192,2,0.75,0.43269577635691947,-0.04449633395527952
192,2,0.5,0.4209506984139089,1.1300114603457756
192,2,0.25,0.41260995975792,1.96408532594467
192,2,0.0,0.40199663995073864,3.025417306662803
192,3,1.0,0.4322508130173667,0.0
192,3,0.75,0.4390717760226923,-0.6820963005325642
192,3,0.5,0.44075474623084143,-0.8503933213474757
192,3,0.25,0.44199470391227047,-0.9743890894903795
192,3,0.0,0.44394074847374293,-1.1689935456376255
192,4,1.0,0.4322508130173667,0.0
192,4,0.75,0.43168570630521164,0.056510671215503905
192,4,0.5,0.42860521771494897,0.36455953024177035
192,4,0.25,0.4191592243203993,1.309158869696736
192,4,0.0,0.4073934834637807,2.4857329553585994
192,5,1.0,0.4322508130173667,0.0
192,5,0.75,0.44128987650561735,-0.9039063488250676
192,5,0.5,0.44787945645165006,-1.5628643434283385
192,5,0.25,0.4338842739512224,-0.1633460933855746
192,5,0.0,0.43366781200336396,-0.14169989859972865
192,6,1.0,0.4322508130173667,0.0
192,6,0.75,0.43118813371005027,0.10626793073164054
192,6,0.5,0.4265757821826666,0.5675030834700057
192,6,0.25,0.42586636961960145,0.6384443397765227
192,6,0.0,0.42487208894775885,0.7378724069607823
193,0,1.0,0.5948691945866809,0.0
193,0,0.75,0.5876857613408875,0.7183433245793402
193,0,0.5,0.5622105834190572,3.2658611167623697
193,0,0.25,0.5135423313903106,8.132686319637028
193,0,0.0,0.49826685125243686,9.6602343334244
193,1,1.0,0.5948691945866809,0.0
193,1,0.75,0.587843946478922,0.7025248107758841
193,1,0.5,0.5697649140732399,2.5104280513440935
193,1,0.25,0.5499448600384703,4.492433454821054
193,1,0.0,0.5236119650796007,7.125722950708013
193,2,1.0,0.5948691945866809,0.0
193,2,0.75,0.5779141691819838,1.6955025404697066
193,2,0.5,0.5602555821588504,3.4613612427830454
193,2,0.25,0.5549970503244177,3.9872144262263154
193,2,0.0,0.5467697453278696,4.809944925881126
193,3,1.0,0.5948691945866809,0.0
193,3,0.75,0.6086777686966187,-1.3808574109937855
193,3,0.5,0.609193038289517,-1.4323843702836125
193,3,0.25,0.6029833583586668,-0.8114163771985927
193,3,0.0,0.5959880641753952,-0.11188695887143218
193,4,1.0,0.5948691945866809,0.0
193,4,0.75,0.6213813174349673,-2.6512122848286412
193,4,0.5,0.6507931789107527,-5.592398432407187
193,4,0.25,0.6575434523637795,-6.267425777709867
193,4,0.0,0.6482977142035351,-5.342851961685424
193,5,1.0,0.5948691945866809,0.0
193,5,0.75,0.5737638218392493,2.1105372747431517
193,5,0.5,0.5445934984563657,5.027569613031513
193,5,0.25,0.5153242633550679,7.954493123161299
193,5,0.0,0.4963210572455738,9.854813734110706
193,6,1.0,0.5948691945866809,0.0
193,6,0.75,0.605786132691513,-1.0916938104832186
193,6,0.5,0.6077181504455061,-1.2848955858825284
193,6,0.25,0.5985798013856896,-0.37106067990086977
193,6,0.0,0.600978927254829,-0.6109732668148182
194,0,1.0,0.7411306411494678,0.0
194,0,0.75,0.7377341985315331,0.3396442617934703
194,0,0.5,0.7171421411822839,2.3988499967183885
194,0,0.25,0.7016387634238826,3.9491877725585156
194,0,0.0,0.6917219397763612,4.94087013731066
194,1,1.0,0.7411306411494678,0.0
194,1,0.75,0.7301529591149232,1.0977682034544634
194,1,0.5,0.7230746407892037,1.8056000360264113
194,1,0.25,0.7135628563650959,2.756778478437194
194,1,0.0,0.6895605955654256,5.157004558404221
194,2,1.0,0.7411306411494678,0.0
194,2,0.75,0.7418980237128104,-0.07673825633426334
194,2,0.5,0.7326743867090709,0.8456254440396882
194,2,0.25,0.7187385883662792,2.2392052783188565
194,2,0.0,0.7110216014448805,3.0109039704587337
194,3,1.0,0.7411306411494678,0.0
194,3,0.75,0.7369651251134474,0.41655160360204446
194,3,0.5,0.7299758725830496,1.1154768566418172
194,3,0.25,0.7179550604985515,2.3175580650916294
194,3,0.0,0.7109590505006086,3.0171590648859214
194,4,1.0,0.7411306411494678,0.0
194,4,0.75,0.7378151337813721,0.3315507368095716
194,4,0.5,0.7314950034265317,0.9635637722936075
194,4,0.25,0.7247795034372946,1.6351137712173225
194,4,0.0,0.6988333144872064,4.229732666226138
194,5,1.0,0.7411306411494678,0.0
194,5,0.75,0.7392272148576877,0.1903426291780086
194,5,0.5,0.7269573067665528,1.4173334382915015
194,5,0.25,0.6919257417847915,4.920489936467631
194,5,0.0,0.6773492742453058,6.378136690416203
194,6,1.0,0.7411306411494678,0.0
194,6,0.75,0.7422934177429946,-0.11627765935268153
194,6,0.5,0.7483050278418634,-0.7174386692395562
194,6,0.25,0.7496119855988423,-0.8481344449374539
194,6,0.0,0.7468427188381072,-0.571207768863935
