subject,block,block_width,feature_channel,gate_mean,gate_sd
156,0,32,0,0.6490814089775085,0.10494972765445709
156,0,32,1,0.6116941571235657,0.06951453536748886
156,0,32,2,0.5451804995536804,0.14875666797161102
156,0,32,3,0.4291444718837738,0.21250616014003754
156,0,32,4,0.48538774251937866,0.062601238489151
156,0,32,5,0.4701744019985199,0.16099867224693298
156,0,32,6,0.36961349844932556,0.09958308190107346
156,0,32,7,0.41215071082115173,0.10851387679576874
156,0,32,8,0.612082302570343,0.09545043855905533
156,0,32,9,0.48300227522850037,0.07225207984447479
156,0,32,10,0.6614732146263123,0.07722297310829163
156,0,32,11,0.5592241287231445,0.09311804920434952
156,0,32,12,0.48878350853919983,0.1755167543888092
156,0,32,13,0.44667649269104004,0.06727029383182526
156,0,32,14,0.489707350730896,0.17331527173519135
156,0,32,15,0.5375506281852722,0.1636175513267517
156,0,32,16,0.5535026788711548,0.20565329492092133
156,0,32,17,0.39891746640205383,0.1696506142616272
156,0,32,18,0.3763647675514221,0.09461337327957153
156,0,32,19,0.5154823660850525,0.09602493047714233
156,0,32,20,0.42708122730255127,0.03894469514489174
156,0,32,21,0.5596702098846436,0.04851371422410011
156,0,32,22,0.47371983528137207,0.10365593433380127
156,0,32,23,0.5823918581008911,0.10217401385307312
156,0,32,24,0.5066844820976257,0.12906385958194733
156,0,32,25,0.3719872534275055,0.09275855123996735
156,0,32,26,0.6008375287055969,0.14882968366146088
156,0,32,27,0.4122505187988281,0.07337363809347153
156,0,32,28,0.5808786749839783,0.16509993374347687
156,0,32,29,0.3295629918575287,0.10911446064710617
156,0,32,30,0.5257401466369629,0.06138622760772705
156,0,32,31,0.3144683837890625,0.09779706597328186
156,1,32,0,0.598235547542572,0.06762521713972092
156,1,32,1,0.5441818833351135,0.1018652468919754
156,1,32,2,0.4874076247215271,0.06456807255744934
156,1,32,3,0.557952880859375,0.14314691722393036
156,1,32,4,0.40173569321632385,0.11795438826084137
156,1,32,5,0.5289815664291382,0.14453010261058807
156,1,32,6,0.38950011134147644,0.14258673787117004
156,1,32,7,0.45711222290992737,0.09619463980197906
156,1,32,8,0.4769003391265869,0.11718370020389557
156,1,32,9,0.6507711410522461,0.07694359868764877
156,1,32,10,0.5341334939002991,0.11897367984056473
156,1,32,11,0.6885533332824707,0.054281145334243774
156,1,32,12,0.5638514757156372,0.10355592519044876
156,1,32,13,0.48535773158073425,0.1269487589597702
156,1,32,14,0.3468414545059204,0.12665338814258575
156,1,32,15,0.4435993432998657,0.14389270544052124
156,1,32,16,0.44874581694602966,0.04085841402411461
156,1,32,17,0.49831193685531616,0.10131879150867462
156,1,32,18,0.6364414691925049,0.059008318930864334
156,1,32,19,0.5350682139396667,0.048551443964242935
156,1,32,20,0.5753705501556396,0.13835662603378296
156,1,32,21,0.350848913192749,0.11317214369773865
156,1,32,22,0.5170570015907288,0.13835091888904572
156,1,32,23,0.6671149134635925,0.0976710170507431
156,1,32,24,0.4002097547054291,0.04680910333991051
156,1,32,25,0.4104920029640198,0.016594093292951584
156,1,32,26,0.39697688817977905,0.10782141983509064
156,1,32,27,0.2971629500389099,0.1284870207309723
156,1,32,28,0.5173628330230713,0.049771588295698166
156,1,32,29,0.5233064889907837,0.13511016964912415
156,1,32,30,0.44282880425453186,0.11290988326072693
156,1,32,31,0.5041493773460388,0.16291283071041107
156,2,64,0,0.4339982569217682,0.18660162389278412
156,2,64,1,0.4027862548828125,0.1632988154888153
156,2,64,2,0.3738289773464203,0.09664202481508255
156,2,64,3,0.3082592487335205,0.1296921819448471
156,2,64,4,0.45166099071502686,0.11455313116312027
156,2,64,5,0.5363351702690125,0.14817827939987183
156,2,64,6,0.34731441736221313,0.09959806501865387
156,2,64,7,0.4333299696445465,0.2585395574569702
156,2,64,8,0.5786392092704773,0.14852523803710938
156,2,64,9,0.470876008272171,0.15084208548069
156,2,64,10,0.4824751317501068,0.24619337916374207
156,2,64,11,0.3196335434913635,0.2646183967590332
156,2,64,12,0.5471358299255371,0.23561140894889832
156,2,64,13,0.45048126578330994,0.21612676978111267
156,2,64,14,0.32697153091430664,0.14143986999988556
156,2,64,15,0.46428900957107544,0.1805291324853897
156,2,64,16,0.6435773372650146,0.16198082268238068
156,2,64,17,0.4903148114681244,0.2902608811855316
156,2,64,18,0.61082923412323,0.2499064952135086
156,2,64,19,0.4011461138725281,0.2746680676937103
156,2,64,20,0.39249807596206665,0.18223415315151215
156,2,64,21,0.530213475227356,0.26125568151474
156,2,64,22,0.6929460763931274,0.2295687198638916
156,2,64,23,0.3620717227458954,0.18593554198741913
156,2,64,24,0.4987283945083618,0.1540103703737259
156,2,64,25,0.47344887256622314,0.24254314601421356
156,2,64,26,0.4292605519294739,0.18089891970157623
156,2,64,27,0.33369383215904236,0.1935809850692749
156,2,64,28,0.34387460350990295,0.15828128159046173
156,2,64,29,0.382607102394104,0.21325938403606415
156,2,64,30,0.6305524706840515,0.25017961859703064
156,2,64,31,0.4504272937774658,0.26407408714294434
156,2,64,32,0.4822920560836792,0.29666346311569214
156,2,64,33,0.6033617258071899,0.2160043865442276
156,2,64,34,0.5476862192153931,0.13689009845256805
156,2,64,35,0.3279939293861389,0.10046527534723282
156,2,64,36,0.5786601901054382,0.19996590912342072
156,2,64,37,0.4860075116157532,0.13048934936523438
156,2,64,38,0.4909649193286896,0.2371649295091629
156,2,64,39,0.3932865560054779,0.15086284279823303
156,2,64,40,0.35897818207740784,0.12108389288187027
156,2,64,41,0.3765418529510498,0.183479905128479
156,2,64,42,0.44267910718917847,0.20601652562618256
156,2,64,43,0.3468729853630066,0.17833660542964935
156,2,64,44,0.3631233870983124,0.107309490442276
156,2,64,45,0.6380729675292969,0.18922556936740875
156,2,64,46,0.5983836054801941,0.20415660738945007
156,2,64,47,0.4711785614490509,0.1385902762413025
156,2,64,48,0.4144337475299835,0.2219889760017395
156,2,64,49,0.6596593260765076,0.10587358474731445
156,2,64,50,0.7100319266319275,0.1730175018310547
156,2,64,51,0.4844849407672882,0.2687695324420929
156,2,64,52,0.5163813233375549,0.2526074945926666
156,2,64,53,0.44217848777770996,0.12722522020339966
156,2,64,54,0.5830169320106506,0.13600249588489532
156,2,64,55,0.44037243723869324,0.21819132566452026
156,2,64,56,0.20601430535316467,0.09696947783231735
156,2,64,57,0.36855918169021606,0.10557929426431656
156,2,64,58,0.3876376450061798,0.202170729637146
156,2,64,59,0.43028685450553894,0.1960400938987732
156,2,64,60,0.5663169622421265,0.26428818702697754
156,2,64,61,0.560149610042572,0.28191009163856506
156,2,64,62,0.49940022826194763,0.1330294907093048
156,2,64,63,0.48521238565444946,0.17004096508026123
156,3,64,0,0.5439821481704712,0.057958874851465225
156,3,64,1,0.46200594305992126,0.08914600312709808
156,3,64,2,0.5386452078819275,0.07846622169017792
156,3,64,3,0.6032856702804565,0.08252637088298798
156,3,64,4,0.5692398548126221,0.10534390807151794
156,3,64,5,0.44670790433883667,0.12838435173034668
156,3,64,6,0.43683701753616333,0.1217980608344078
156,3,64,7,0.4759655296802521,0.10073094815015793
156,3,64,8,0.37462034821510315,0.07925650477409363
156,3,64,9,0.3812883794307709,0.09732691943645477
156,3,64,10,0.45871028304100037,0.12651042640209198
156,3,64,11,0.4550359845161438,0.11287440359592438
156,3,64,12,0.4719444513320923,0.06790930032730103
156,3,64,13,0.3674256503582001,0.10909609496593475
156,3,64,14,0.5044717788696289,0.12691369652748108
156,3,64,15,0.5569501519203186,0.13838985562324524
156,3,64,16,0.4732542634010315,0.13279172778129578
156,3,64,17,0.37638023495674133,0.09049626439809799
156,3,64,18,0.48074615001678467,0.16688324511051178
156,3,64,19,0.5226337313652039,0.1346929967403412
156,3,64,20,0.6039170622825623,0.0853608101606369
156,3,64,21,0.5006760954856873,0.08580925315618515
156,3,64,22,0.5289485454559326,0.09850668162107468
156,3,64,23,0.4459526836872101,0.14057941734790802
156,3,64,24,0.49111056327819824,0.15318548679351807
156,3,64,25,0.5248628854751587,0.11888748407363892
156,3,64,26,0.3096230924129486,0.09215713292360306
156,3,64,27,0.5863521695137024,0.1234644427895546
156,3,64,28,0.5723975300788879,0.06299349665641785
156,3,64,29,0.4191012680530548,0.1230153739452362
156,3,64,30,0.5263840556144714,0.08773338794708252
156,3,64,31,0.4945586323738098,0.054429180920124054
156,3,64,32,0.4971381723880768,0.0864248275756836
156,3,64,33,0.5472996234893799,0.10284580290317535
156,3,64,34,0.4568708837032318,0.06875777244567871
156,3,64,35,0.5764645338058472,0.15883870422840118
156,3,64,36,0.4866931140422821,0.14281094074249268
156,3,64,37,0.47362175583839417,0.043312326073646545
156,3,64,38,0.4465934932231903,0.13992170989513397
156,3,64,39,0.6356735825538635,0.08504446595907211
156,3,64,40,0.6252562403678894,0.10715141892433167
156,3,64,41,0.3980439603328705,0.11275769025087357
156,3,64,42,0.4534827768802643,0.17704163491725922
156,3,64,43,0.47778090834617615,0.07026451081037521
156,3,64,44,0.48246562480926514,0.08436866849660873
156,3,64,45,0.6175007224082947,0.06778198480606079
156,3,64,46,0.4545370638370514,0.14034715294837952
156,3,64,47,0.49387335777282715,0.12294187396764755
156,3,64,48,0.5093973875045776,0.07318108528852463
156,3,64,49,0.5525286793708801,0.06017002463340759
156,3,64,50,0.5318688750267029,0.10865268111228943
156,3,64,51,0.5676860809326172,0.11626427620649338
156,3,64,52,0.6049010157585144,0.13614726066589355
156,3,64,53,0.5564030408859253,0.09222579002380371
156,3,64,54,0.42673224210739136,0.06388507038354874
156,3,64,55,0.4859616756439209,0.04464217275381088
156,3,64,56,0.4526115655899048,0.09632906317710876
156,3,64,57,0.5552560091018677,0.15741463005542755
156,3,64,58,0.5143679976463318,0.07434625178575516
156,3,64,59,0.4588278830051422,0.1680300235748291
156,3,64,60,0.4602765440940857,0.11030741780996323
156,3,64,61,0.41154879331588745,0.1066613420844078
156,3,64,62,0.5358448624610901,0.0844823345541954
156,3,64,63,0.5055009126663208,0.1071544736623764
156,4,128,0,0.6474000811576843,0.22880558669567108
156,4,128,1,0.5840896964073181,0.25610047578811646
156,4,128,2,0.5462343096733093,0.18315866589546204
156,4,128,3,0.5440387725830078,0.09840583056211472
156,4,128,4,0.43466418981552124,0.2007453590631485
156,4,128,5,0.38135266304016113,0.1848394274711609
156,4,128,6,0.6029305458068848,0.2836999297142029
156,4,128,7,0.5906033515930176,0.2534233033657074
156,4,128,8,0.3891182243824005,0.1744382232427597
156,4,128,9,0.5154320597648621,0.2052091509103775
156,4,128,10,0.6747271418571472,0.2621787488460541
156,4,128,11,0.43654754757881165,0.20230065286159515
156,4,128,12,0.5643974542617798,0.10830668359994888
156,4,128,13,0.3641492426395416,0.12850293517112732
156,4,128,14,0.48195749521255493,0.21105585992336273
156,4,128,15,0.5856102108955383,0.08408002555370331
156,4,128,16,0.43554583191871643,0.23384305834770203
156,4,128,17,0.6118181943893433,0.21852748095989227
156,4,128,18,0.3408006429672241,0.2091146558523178
156,4,128,19,0.5808560252189636,0.12447169423103333
156,4,128,20,0.5589221715927124,0.1458885222673416
156,4,128,21,0.4397231638431549,0.17646785080432892
156,4,128,22,0.6191736459732056,0.2644275426864624
156,4,128,23,0.6756701469421387,0.2664283812046051
156,4,128,24,0.5987011194229126,0.22877384722232819
156,4,128,25,0.6005012392997742,0.20965760946273804
156,4,128,26,0.6842814087867737,0.13060830533504486
156,4,128,27,0.5402165651321411,0.15654700994491577
156,4,128,28,0.5204033851623535,0.16725802421569824
156,4,128,29,0.3453400433063507,0.11882364749908447
156,4,128,30,0.42139312624931335,0.20961441099643707
156,4,128,31,0.37755560874938965,0.12773717939853668
156,4,128,32,0.37872806191444397,0.17916904389858246
156,4,128,33,0.4412178695201874,0.15294606983661652
156,4,128,34,0.5014309883117676,0.18600335717201233
156,4,128,35,0.49316710233688354,0.22880326211452484
156,4,128,36,0.6585717797279358,0.15088295936584473
156,4,128,37,0.5635280609130859,0.10188044607639313
156,4,128,38,0.5837081670761108,0.06577607989311218
156,4,128,39,0.46637916564941406,0.20337191224098206
156,4,128,40,0.5351443886756897,0.16714879870414734
156,4,128,41,0.37845712900161743,0.2213163822889328
156,4,128,42,0.5620374083518982,0.19041641056537628
156,4,128,43,0.4697808623313904,0.1492890566587448
156,4,128,44,0.5648638606071472,0.20525063574314117
156,4,128,45,0.650343656539917,0.2880394160747528
156,4,128,46,0.5830395817756653,0.1743815392255783
156,4,128,47,0.5248847603797913,0.260261595249176
156,4,128,48,0.41334882378578186,0.1280023157596588
156,4,128,49,0.6138588190078735,0.17831112444400787
156,4,128,50,0.6459269523620605,0.22267718613147736
156,4,128,51,0.507036030292511,0.2771948575973511
156,4,128,52,0.4982644021511078,0.2010907530784607
156,4,128,53,0.4938841760158539,0.10678857564926147
156,4,128,54,0.42466846108436584,0.1422295868396759
156,4,128,55,0.4164913594722748,0.2447655200958252
156,4,128,56,0.5452049374580383,0.28218233585357666
156,4,128,57,0.6402072906494141,0.12349799275398254
156,4,128,58,0.5587329268455505,0.12130431085824966
156,4,128,59,0.376741886138916,0.0844980999827385
156,4,128,60,0.42013970017433167,0.17099988460540771
156,4,128,61,0.4443317651748657,0.23773272335529327
156,4,128,62,0.6012772917747498,0.12909726798534393
156,4,128,63,0.7044051289558411,0.18335308134555817
156,4,128,64,0.585586667060852,0.1804351806640625
156,4,128,65,0.6519858241081238,0.15122276544570923
156,4,128,66,0.3787800073623657,0.16038087010383606
156,4,128,67,0.6734711527824402,0.22453071177005768
156,4,128,68,0.40926122665405273,0.2236224263906479
156,4,128,69,0.5134475231170654,0.21442671120166779
156,4,128,70,0.5265117287635803,0.28657266497612
156,4,128,71,0.5758158564567566,0.08902395516633987
156,4,128,72,0.6295533776283264,0.22466064989566803
156,4,128,73,0.521507740020752,0.1881943941116333
156,4,128,74,0.6053788661956787,0.11863244324922562
156,4,128,75,0.6128438711166382,0.23494428396224976
156,4,128,76,0.5583241581916809,0.08742516487836838
156,4,128,77,0.5012782216072083,0.190216064453125
156,4,128,78,0.5163620114326477,0.13604967296123505
156,4,128,79,0.4594555199146271,0.2711977958679199
156,4,128,80,0.3974516987800598,0.24317261576652527
156,4,128,81,0.6221231818199158,0.24262548983097076
156,4,128,82,0.6441003680229187,0.24613608419895172
156,4,128,83,0.5195513963699341,0.1850651055574417
156,4,128,84,0.5942898392677307,0.26117753982543945
156,4,128,85,0.40883758664131165,0.16376766562461853
156,4,128,86,0.6161790490150452,0.15474316477775574
156,4,128,87,0.5830385088920593,0.2130572348833084
156,4,128,88,0.5466768741607666,0.1575435847043991
156,4,128,89,0.39195260405540466,0.07561551779508591
156,4,128,90,0.7107526659965515,0.1452639400959015
156,4,128,91,0.4954749047756195,0.22189421951770782
156,4,128,92,0.6346380114555359,0.2593499720096588
156,4,128,93,0.5746148824691772,0.13776105642318726
156,4,128,94,0.6932477951049805,0.18122462928295135
156,4,128,95,0.5445990562438965,0.1530328243970871
156,4,128,96,0.4934373199939728,0.07855164259672165
156,4,128,97,0.3940590023994446,0.13735397160053253
156,4,128,98,0.4098335802555084,0.15602846443653107
156,4,128,99,0.5048465728759766,0.1863667517900467
156,4,128,100,0.4756578803062439,0.18901076912879944
156,4,128,101,0.5350580215454102,0.22900880873203278
156,4,128,102,0.46160420775413513,0.09721193462610245
156,4,128,103,0.676732063293457,0.13174094259738922
156,4,128,104,0.694888710975647,0.14016824960708618
156,4,128,105,0.47889769077301025,0.26782533526420593
156,4,128,106,0.4911147952079773,0.11927478760480881
156,4,128,107,0.5944668054580688,0.19145488739013672
156,4,128,108,0.4090776741504669,0.17551887035369873
156,4,128,109,0.5346615314483643,0.0898348018527031
156,4,128,110,0.6309612393379211,0.25657856464385986
156,4,128,111,0.6522740721702576,0.17007194459438324
156,4,128,112,0.6494975090026855,0.18830817937850952
156,4,128,113,0.505710780620575,0.28389811515808105
156,4,128,114,0.4491623640060425,0.13748347759246826
156,4,128,115,0.6870145797729492,0.26952338218688965
156,4,128,116,0.5034652352333069,0.2440527081489563
156,4,128,117,0.7038999795913696,0.23972100019454956
156,4,128,118,0.6088986992835999,0.2310125231742859
156,4,128,119,0.5410584807395935,0.1649255007505417
156,4,128,120,0.5329870581626892,0.23169583082199097
156,4,128,121,0.6923921704292297,0.12649106979370117
156,4,128,122,0.475522518157959,0.126683309674263
156,4,128,123,0.6484880447387695,0.23979705572128296
156,4,128,124,0.48197221755981445,0.25615647435188293
156,4,128,125,0.5617287158966064,0.18122990429401398
156,4,128,126,0.49838006496429443,0.10192215442657471
156,4,128,127,0.6311087608337402,0.20301982760429382
156,5,128,0,0.6102930903434753,0.27709540724754333
156,5,128,1,0.6002559065818787,0.1971396505832672
156,5,128,2,0.7139427065849304,0.13554181158542633
156,5,128,3,0.7700701355934143,0.16535551846027374
156,5,128,4,0.8174952864646912,0.14939181506633759
156,5,128,5,0.6510735154151917,0.14384795725345612
156,5,128,6,0.6121382713317871,0.25628653168678284
156,5,128,7,0.6608145236968994,0.22165551781654358
156,5,128,8,0.5480178594589233,0.2143581360578537
156,5,128,9,0.7249977588653564,0.11325979232788086
156,5,128,10,0.8253473043441772,0.12708833813667297
156,5,128,11,0.8021999597549438,0.11929986625909805
156,5,128,12,0.6083176732063293,0.19014525413513184
156,5,128,13,0.7339015603065491,0.12165083736181259
156,5,128,14,0.44609519839286804,0.2517908811569214
156,5,128,15,0.46700260043144226,0.29916346073150635
156,5,128,16,0.6791893243789673,0.15992607176303864
156,5,128,17,0.332437664270401,0.13456480205059052
156,5,128,18,0.6879321336746216,0.23651450872421265
156,5,128,19,0.5830582976341248,0.11536766588687897
156,5,128,20,0.44680267572402954,0.14939050376415253
156,5,128,21,0.5591400265693665,0.23772592842578888
156,5,128,22,0.749090850353241,0.16840162873268127
156,5,128,23,0.6668687462806702,0.29181599617004395
156,5,128,24,0.691778838634491,0.13399402797222137
156,5,128,25,0.7913432121276855,0.1485254168510437
156,5,128,26,0.47658634185791016,0.1971861869096756
156,5,128,27,0.8012449741363525,0.12396561354398727
156,5,128,28,0.6636821627616882,0.16963157057762146
156,5,128,29,0.6338410973548889,0.17790718376636505
156,5,128,30,0.6584854125976562,0.0696074441075325
156,5,128,31,0.6052300930023193,0.13594116270542145
156,5,128,32,0.7557429075241089,0.12170460820198059
156,5,128,33,0.661875307559967,0.12253855913877487
156,5,128,34,0.5759560465812683,0.18639840185642242
156,5,128,35,0.6809102296829224,0.13573651015758514
156,5,128,36,0.7442238330841064,0.11374782770872116
156,5,128,37,0.7454833984375,0.12529999017715454
156,5,128,38,0.46444597840309143,0.22989937663078308
156,5,128,39,0.7670436501502991,0.11592262983322144
156,5,128,40,0.44338130950927734,0.2786705791950226
156,5,128,41,0.6352559924125671,0.3433702290058136
156,5,128,42,0.6900273561477661,0.10997617244720459
156,5,128,43,0.511274516582489,0.2697311043739319
156,5,128,44,0.5998668074607849,0.21112221479415894
156,5,128,45,0.7993713617324829,0.1304454356431961
156,5,128,46,0.5256251692771912,0.19760052859783173
156,5,128,47,0.8192716836929321,0.1394912600517273
156,5,128,48,0.6923519372940063,0.11142235994338989
156,5,128,49,0.7625171542167664,0.104352205991745
156,5,128,50,0.5582913160324097,0.09019767493009567
156,5,128,51,0.36021846532821655,0.15615221858024597
156,5,128,52,0.662817656993866,0.11197959631681442
156,5,128,53,0.6611365675926208,0.26571163535118103
156,5,128,54,0.7155439853668213,0.1917247325181961
156,5,128,55,0.8564956784248352,0.11779964715242386
156,5,128,56,0.5103079080581665,0.2975994646549225
156,5,128,57,0.5132968425750732,0.2713482677936554
156,5,128,58,0.5376695990562439,0.17448686063289642
156,5,128,59,0.7374730110168457,0.114689901471138
156,5,128,60,0.747124195098877,0.12377103418111801
156,5,128,61,0.655348002910614,0.2703167498111725
156,5,128,62,0.7323981523513794,0.13072477281093597
156,5,128,63,0.6632180213928223,0.3102741837501526
156,5,128,64,0.6508533358573914,0.14409947395324707
156,5,128,65,0.6482271552085876,0.14028967916965485
156,5,128,66,0.6700366139411926,0.1572801172733307
156,5,128,67,0.8107677698135376,0.13387592136859894
156,5,128,68,0.7128534317016602,0.10328002274036407
156,5,128,69,0.5389740467071533,0.19304978847503662
156,5,128,70,0.7537811398506165,0.11838367581367493
156,5,128,71,0.6033085584640503,0.2050628960132599
156,5,128,72,0.7255879640579224,0.14565670490264893
156,5,128,73,0.7271916270256042,0.10615597665309906
156,5,128,74,0.48108455538749695,0.2455126941204071
156,5,128,75,0.5686759948730469,0.12851524353027344
156,5,128,76,0.6523029804229736,0.20454107224941254
156,5,128,77,0.42077478766441345,0.19474469125270844
156,5,128,78,0.49232420325279236,0.14410436153411865
156,5,128,79,0.5720935463905334,0.18977002799510956
156,5,128,80,0.6273372173309326,0.311866819858551
156,5,128,81,0.6859831809997559,0.19547444581985474
156,5,128,82,0.6377668976783752,0.21581536531448364
156,5,128,83,0.6498334407806396,0.15051627159118652
156,5,128,84,0.33882319927215576,0.1096251830458641
156,5,128,85,0.6798120737075806,0.14600665867328644
156,5,128,86,0.6891392469406128,0.108477383852005
156,5,128,87,0.6200598478317261,0.1431431919336319
156,5,128,88,0.7685254812240601,0.1325584501028061
156,5,128,89,0.7001249194145203,0.11410659551620483
156,5,128,90,0.6477158069610596,0.32301217317581177
156,5,128,91,0.7808926701545715,0.1414320170879364
156,5,128,92,0.7660360336303711,0.13377489149570465
156,5,128,93,0.5017062425613403,0.246119424700737
156,5,128,94,0.5378055572509766,0.23772792518138885
156,5,128,95,0.5054372549057007,0.26436054706573486
156,5,128,96,0.7519461512565613,0.1291288286447525
156,5,128,97,0.6209312081336975,0.1524065136909485
156,5,128,98,0.5465138554573059,0.25251415371894836
156,5,128,99,0.46009811758995056,0.23118698596954346
156,5,128,100,0.7070709466934204,0.21927092969417572
156,5,128,101,0.6851814985275269,0.13790442049503326
156,5,128,102,0.6774240136146545,0.09250061213970184
156,5,128,103,0.7516786456108093,0.21123245358467102
156,5,128,104,0.5439090728759766,0.21310436725616455
156,5,128,105,0.46787574887275696,0.11917988955974579
156,5,128,106,0.4650958180427551,0.30670106410980225
156,5,128,107,0.7360312342643738,0.23568876087665558
156,5,128,108,0.6408378481864929,0.11316882073879242
156,5,128,109,0.7593712210655212,0.13604508340358734
156,5,128,110,0.8061968684196472,0.12836702167987823
156,5,128,111,0.7976244688034058,0.1586076319217682
156,5,128,112,0.7506403923034668,0.1371411681175232
156,5,128,113,0.6662582755088806,0.11298930644989014
156,5,128,114,0.5760524272918701,0.25842607021331787
156,5,128,115,0.6904940009117126,0.22396975755691528
156,5,128,116,0.5877296328544617,0.21478958427906036
156,5,128,117,0.7721322178840637,0.12581875920295715
156,5,128,118,0.47736063599586487,0.3021802008152008
156,5,128,119,0.6532723903656006,0.18262752890586853
156,5,128,120,0.6430616974830627,0.20963066816329956
156,5,128,121,0.6108992099761963,0.15154141187667847
156,5,128,122,0.7074335813522339,0.14108631014823914
156,5,128,123,0.8185581564903259,0.12406012415885925
156,5,128,124,0.7325844168663025,0.13283932209014893
156,5,128,125,0.5919352769851685,0.11760500818490982
156,5,128,126,0.7887555360794067,0.12776853144168854
156,5,128,127,0.8275865316390991,0.12537327408790588
185,0,32,0,0.44298481941223145,0.08170177042484283
185,0,32,1,0.4626682996749878,0.034972019493579865
185,0,32,2,0.4638883173465729,0.05732663348317146
185,0,32,3,0.6327648162841797,0.06519528478384018
185,0,32,4,0.5063819289207458,0.05431541055440903
185,0,32,5,0.4940957725048065,0.08405347168445587
185,0,32,6,0.6338999271392822,0.06651712208986282
185,0,32,7,0.5402226448059082,0.08807701617479324
185,0,32,8,0.46632900834083557,0.07676378637552261
185,0,32,9,0.3675832152366638,0.03438180312514305
185,0,32,10,0.4394131302833557,0.056133732199668884
185,0,32,11,0.641566812992096,0.07615776360034943
185,0,32,12,0.4287927746772766,0.06492195278406143
185,0,32,13,0.5270955562591553,0.029713867232203484
185,0,32,14,0.4457041919231415,0.045538611710071564
185,0,32,15,0.5462897419929504,0.07164239883422852
185,0,32,16,0.4569481909275055,0.07484932243824005
185,0,32,17,0.4490692615509033,0.10810486227273941
185,0,32,18,0.44538018107414246,0.05012894794344902
185,0,32,19,0.45229971408843994,0.07114389538764954
185,0,32,20,0.5519111752510071,0.05887455493211746
185,0,32,21,0.5232512354850769,0.03671152889728546
185,0,32,22,0.5336593389511108,0.07662668824195862
185,0,32,23,0.37109726667404175,0.0328093059360981
185,0,32,24,0.4676540493965149,0.03041759319603443
185,0,32,25,0.3328203558921814,0.09409961104393005
185,0,32,26,0.4318065643310547,0.03262864425778389
185,0,32,27,0.4145636260509491,0.07559018582105637
185,0,32,28,0.41321077942848206,0.061086997389793396
185,0,32,29,0.45053723454475403,0.03886152431368828
185,0,32,30,0.490884929895401,0.07215970754623413
185,0,32,31,0.5040749311447144,0.021376686170697212
185,1,32,0,0.4016358256340027,0.08014749735593796
185,1,32,1,0.4021686911582947,0.047995276749134064
185,1,32,2,0.3588155210018158,0.10799416154623032
185,1,32,3,0.39955785870552063,0.02039574831724167
185,1,32,4,0.3439823389053345,0.09084349870681763
185,1,32,5,0.5218009352684021,0.09386249631643295
185,1,32,6,0.5438179969787598,0.04354815557599068
185,1,32,7,0.564534604549408,0.04710559546947479
185,1,32,8,0.5741239786148071,0.05200866237282753
185,1,32,9,0.6072221994400024,0.06622588634490967
185,1,32,10,0.4915125072002411,0.12050456553697586
185,1,32,11,0.42273321747779846,0.12317196279764175
185,1,32,12,0.5220921635627747,0.09313404560089111
185,1,32,13,0.4685822129249573,0.08751914650201797
185,1,32,14,0.387248158454895,0.04248766228556633
185,1,32,15,0.4453425705432892,0.009997844696044922
185,1,32,16,0.5689368844032288,0.10716603696346283
185,1,32,17,0.5029634237289429,0.09105353057384491
185,1,32,18,0.5293399095535278,0.06365587562322617
185,1,32,19,0.34083089232444763,0.09498068690299988
185,1,32,20,0.5696521401405334,0.04772927239537239
185,1,32,21,0.42517104744911194,0.10749544948339462
185,1,32,22,0.48391205072402954,0.1033271923661232
185,1,32,23,0.4003709554672241,0.08959174901247025
185,1,32,24,0.40336501598358154,0.0622403509914875
185,1,32,25,0.47677016258239746,0.08417539298534393
185,1,32,26,0.5531015992164612,0.08253216743469238
185,1,32,27,0.5372570753097534,0.058904197067022324
185,1,32,28,0.397104948759079,0.03531361743807793
185,1,32,29,0.6134634613990784,0.10118705779314041
185,1,32,30,0.6637031435966492,0.09815365821123123
185,1,32,31,0.5189180970191956,0.05794261768460274
185,2,64,0,0.4235149621963501,0.16723677515983582
185,2,64,1,0.552091658115387,0.2850205898284912
185,2,64,2,0.3994120955467224,0.12829548120498657
185,2,64,3,0.5796869993209839,0.25291916728019714
185,2,64,4,0.45008987188339233,0.2247186303138733
185,2,64,5,0.47547852993011475,0.10505961626768112
185,2,64,6,0.46847981214523315,0.0637577697634697
185,2,64,7,0.34401819109916687,0.0885387659072876
185,2,64,8,0.6196541786193848,0.16979382932186127
185,2,64,9,0.4216695725917816,0.1954331398010254
185,2,64,10,0.463032603263855,0.0909876599907875
185,2,64,11,0.3564428389072418,0.11992362141609192
185,2,64,12,0.5348716974258423,0.15025269985198975
185,2,64,13,0.6120628714561462,0.18599466979503632
185,2,64,14,0.5146583914756775,0.04782302677631378
185,2,64,15,0.42162832617759705,0.17663443088531494
185,2,64,16,0.4709487557411194,0.16350416839122772
185,2,64,17,0.5472276210784912,0.12382207810878754
185,2,64,18,0.5138069987297058,0.11013059318065643
185,2,64,19,0.22226344048976898,0.100319504737854
185,2,64,20,0.4319828450679779,0.22259406745433807
185,2,64,21,0.4578035771846771,0.2987233102321625
185,2,64,22,0.3988268971443176,0.2819535434246063
185,2,64,23,0.5275689363479614,0.07440783083438873
185,2,64,24,0.5527428388595581,0.19675065577030182
185,2,64,25,0.42764654755592346,0.05310614034533501
185,2,64,26,0.5491732954978943,0.14882904291152954
185,2,64,27,0.399521142244339,0.14204341173171997
185,2,64,28,0.43529313802719116,0.24200281500816345
185,2,64,29,0.3205196261405945,0.12497907131910324
185,2,64,30,0.4221954047679901,0.2626017928123474
185,2,64,31,0.3875064551830292,0.17080481350421906
185,2,64,32,0.4234424829483032,0.23055218160152435
185,2,64,33,0.4492434859275818,0.08971497416496277
185,2,64,34,0.4713137745857239,0.3252624571323395
185,2,64,35,0.7011875510215759,0.14671015739440918
185,2,64,36,0.5146896243095398,0.08184604346752167
185,2,64,37,0.5773302316665649,0.207290381193161
185,2,64,38,0.24272947013378143,0.13084138929843903
185,2,64,39,0.6631289720535278,0.09877309203147888
185,2,64,40,0.45853808522224426,0.26875361800193787
185,2,64,41,0.4502473771572113,0.17340777814388275
185,2,64,42,0.5659312605857849,0.2256019562482834
185,2,64,43,0.5148196220397949,0.23261450231075287
185,2,64,44,0.6525405645370483,0.15024049580097198
185,2,64,45,0.5954731702804565,0.1130312904715538
185,2,64,46,0.4124419093132019,0.1786063015460968
185,2,64,47,0.3927270770072937,0.20415298640727997
185,2,64,48,0.4919981062412262,0.2056250423192978
185,2,64,49,0.4362328052520752,0.27578988671302795
185,2,64,50,0.6114872097969055,0.2767518162727356
185,2,64,51,0.5367740392684937,0.23081257939338684
185,2,64,52,0.5229407548904419,0.2626550495624542
185,2,64,53,0.3711172938346863,0.12555143237113953
185,2,64,54,0.44346848130226135,0.06537844240665436
185,2,64,55,0.6088420152664185,0.057611770927906036
185,2,64,56,0.6229360699653625,0.1884372979402542
185,2,64,57,0.45350775122642517,0.13629047572612762
185,2,64,58,0.6398611068725586,0.13458244502544403
185,2,64,59,0.5171049237251282,0.2095629870891571
185,2,64,60,0.5430088639259338,0.21406476199626923
185,2,64,61,0.4496344029903412,0.10896614193916321
185,2,64,62,0.4877994656562805,0.19310010969638824
185,2,64,63,0.5466400384902954,0.200652614235878
185,3,64,0,0.5355523824691772,0.07562386244535446
185,3,64,1,0.5025690793991089,0.21340841054916382
185,3,64,2,0.4995376169681549,0.18504860997200012
185,3,64,3,0.5581200122833252,0.15419869124889374
185,3,64,4,0.5794733166694641,0.15707635879516602
185,3,64,5,0.45413723587989807,0.2500104606151581
185,3,64,6,0.4660325050354004,0.14438293874263763
185,3,64,7,0.5193836092948914,0.05388471856713295
185,3,64,8,0.5066749453544617,0.14397001266479492
185,3,64,9,0.3728110194206238,0.1434195637702942
185,3,64,10,0.5024259686470032,0.1694735586643219
185,3,64,11,0.5863745808601379,0.12922631204128265
185,3,64,12,0.6384110450744629,0.06319330632686615
185,3,64,13,0.6235898733139038,0.1618351936340332
185,3,64,14,0.37219110131263733,0.1369464099407196
185,3,64,15,0.5724425911903381,0.15984034538269043
185,3,64,16,0.3675396144390106,0.167294442653656
185,3,64,17,0.32530587911605835,0.17623743414878845
185,3,64,18,0.46985259652137756,0.1926089972257614
185,3,64,19,0.5570565462112427,0.07755709439516068
185,3,64,20,0.6831854581832886,0.1178765594959259
185,3,64,21,0.38921549916267395,0.08857916295528412
185,3,64,22,0.5091615915298462,0.1650436371564865
185,3,64,23,0.6250367760658264,0.13005878031253815
185,3,64,24,0.6818307638168335,0.06564704328775406
185,3,64,25,0.5370896458625793,0.18243885040283203
185,3,64,26,0.6026594638824463,0.1621885448694229
185,3,64,27,0.5345900654792786,0.18317130208015442
185,3,64,28,0.45611321926116943,0.15805405378341675
185,3,64,29,0.4694339334964752,0.20525360107421875
185,3,64,30,0.4653160274028778,0.13907849788665771
185,3,64,31,0.4804700016975403,0.17471818625926971
185,3,64,32,0.28274914622306824,0.0702873170375824
185,3,64,33,0.5423024296760559,0.08862504363059998
185,3,64,34,0.38372012972831726,0.11630810797214508
185,3,64,35,0.6202782392501831,0.11537496000528336
185,3,64,36,0.5704084634780884,0.11493705958127975
185,3,64,37,0.5102740526199341,0.15215907990932465
185,3,64,38,0.401010125875473,0.1425454318523407
185,3,64,39,0.3874534070491791,0.19321812689304352
185,3,64,40,0.35168784856796265,0.11157584935426712
185,3,64,41,0.31728091835975647,0.1275463104248047
185,3,64,42,0.5020015239715576,0.08671540766954422
185,3,64,43,0.5044591426849365,0.17069193720817566
185,3,64,44,0.31476911902427673,0.10309508442878723
185,3,64,45,0.39223402738571167,0.15208156406879425
185,3,64,46,0.6227267980575562,0.10071567445993423
185,3,64,47,0.49352341890335083,0.09961840510368347
185,3,64,48,0.5759947299957275,0.1285448521375656
185,3,64,49,0.5011471509933472,0.08103448152542114
185,3,64,50,0.563971757888794,0.1229458600282669
185,3,64,51,0.5306054949760437,0.20182310044765472
185,3,64,52,0.7161505818367004,0.0778975859284401
185,3,64,53,0.4459782540798187,0.08008851110935211
185,3,64,54,0.4439833462238312,0.13345609605312347
185,3,64,55,0.4954468905925751,0.14001749455928802
185,3,64,56,0.438918799161911,0.1645313799381256
185,3,64,57,0.5811741948127747,0.12765417993068695
185,3,64,58,0.5306737422943115,0.1822640746831894
185,3,64,59,0.6471464037895203,0.08767442405223846
185,3,64,60,0.5063212513923645,0.1977466493844986
185,3,64,61,0.4911867380142212,0.08305112272500992
185,3,64,62,0.6891835927963257,0.1052037850022316
185,3,64,63,0.5626493692398071,0.13677836954593658
185,4,128,0,0.4798327088356018,0.07114926725625992
185,4,128,1,0.6182413697242737,0.10573859512805939
185,4,128,2,0.6159413456916809,0.10808346420526505
185,4,128,3,0.41419702768325806,0.05856017768383026
185,4,128,4,0.4246198236942291,0.1687820851802826
185,4,128,5,0.5095281600952148,0.11564620584249496
185,4,128,6,0.52496337890625,0.1715659499168396
185,4,128,7,0.5165534615516663,0.10823958367109299
185,4,128,8,0.5475645065307617,0.11899788677692413
185,4,128,9,0.5906711220741272,0.1553572565317154
185,4,128,10,0.44930699467658997,0.055713120847940445
185,4,128,11,0.5301063060760498,0.14947721362113953
185,4,128,12,0.562178373336792,0.0742468610405922
185,4,128,13,0.4501075744628906,0.07686971127986908
185,4,128,14,0.4322734475135803,0.07405911386013031
185,4,128,15,0.559932291507721,0.061760514974594116
185,4,128,16,0.498432993888855,0.1643826961517334
185,4,128,17,0.5742332339286804,0.21743854880332947
185,4,128,18,0.6080653667449951,0.13347920775413513
185,4,128,19,0.4947097897529602,0.08456569910049438
185,4,128,20,0.4598323106765747,0.19848915934562683
185,4,128,21,0.4553006887435913,0.07178734242916107
185,4,128,22,0.5385141372680664,0.14315301179885864
185,4,128,23,0.5958406329154968,0.1559542864561081
185,4,128,24,0.6325726509094238,0.08443816751241684
185,4,128,25,0.3794182240962982,0.08858750760555267
185,4,128,26,0.467225044965744,0.16536110639572144
185,4,128,27,0.4397900700569153,0.17404167354106903
185,4,128,28,0.5421159267425537,0.17596496641635895
185,4,128,29,0.66165691614151,0.06890256702899933
185,4,128,30,0.4508444666862488,0.10322438180446625
185,4,128,31,0.5189488530158997,0.15982061624526978
185,4,128,32,0.5472480654716492,0.2009679675102234
185,4,128,33,0.5004757642745972,0.16118477284908295
185,4,128,34,0.48939448595046997,0.0869843140244484
185,4,128,35,0.4767162799835205,0.2025119662284851
185,4,128,36,0.47443628311157227,0.22509171068668365
185,4,128,37,0.5389668345451355,0.15840113162994385
185,4,128,38,0.4319884181022644,0.15170617401599884
185,4,128,39,0.5987707376480103,0.06391937285661697
185,4,128,40,0.47216498851776123,0.1789095401763916
185,4,128,41,0.5940553545951843,0.18382112681865692
185,4,128,42,0.46201908588409424,0.13200996816158295
185,4,128,43,0.49991574883461,0.0727248415350914
185,4,128,44,0.5110886693000793,0.16832733154296875
185,4,128,45,0.5819529294967651,0.1702059507369995
185,4,128,46,0.4574233591556549,0.09368538856506348
185,4,128,47,0.5907230973243713,0.15080393850803375
185,4,128,48,0.5164925456047058,0.12595941126346588
185,4,128,49,0.3320632576942444,0.08266997337341309
185,4,128,50,0.554675817489624,0.1444227397441864
185,4,128,51,0.44119876623153687,0.08508027344942093
185,4,128,52,0.42426902055740356,0.12478215992450714
185,4,128,53,0.4529058039188385,0.10344775021076202
185,4,128,54,0.4707787334918976,0.11622364819049835
185,4,128,55,0.49132347106933594,0.06579387187957764
185,4,128,56,0.4490242898464203,0.07912497222423553
185,4,128,57,0.5714418888092041,0.2662385404109955
185,4,128,58,0.5500999093055725,0.0961952656507492
185,4,128,59,0.5777029991149902,0.11083181202411652
185,4,128,60,0.538198709487915,0.057348381727933884
185,4,128,61,0.4837016463279724,0.08564826846122742
185,4,128,62,0.6262665390968323,0.07099731266498566
185,4,128,63,0.4437270164489746,0.11513157933950424
185,4,128,64,0.48614075779914856,0.14508582651615143
185,4,128,65,0.4266221821308136,0.10224510729312897
185,4,128,66,0.34877851605415344,0.0979258269071579
185,4,128,67,0.38205042481422424,0.15228143334388733
185,4,128,68,0.4389055371284485,0.08266420662403107
185,4,128,69,0.468036949634552,0.1201004907488823
185,4,128,70,0.4849867522716522,0.22209909558296204
185,4,128,71,0.649580717086792,0.11627395451068878
185,4,128,72,0.4051768183708191,0.1738598346710205
185,4,128,73,0.46750718355178833,0.23446641862392426
185,4,128,74,0.5688931941986084,0.08775212615728378
185,4,128,75,0.517829179763794,0.07248767465353012
185,4,128,76,0.5453565716743469,0.04694138839840889
185,4,128,77,0.44385579228401184,0.1632772535085678
185,4,128,78,0.5223820805549622,0.08849962800741196
185,4,128,79,0.4499583840370178,0.13652987778186798
185,4,128,80,0.5116353631019592,0.11941445618867874
185,4,128,81,0.42964795231819153,0.07617391645908356
185,4,128,82,0.6565987467765808,0.10624907165765762
185,4,128,83,0.5279658436775208,0.2558138072490692
185,4,128,84,0.5956789255142212,0.09458088874816895
185,4,128,85,0.573628306388855,0.22899383306503296
185,4,128,86,0.5848823189735413,0.08705834299325943
185,4,128,87,0.4319959580898285,0.15762172639369965
185,4,128,88,0.4424382448196411,0.0876789316534996
185,4,128,89,0.6052039265632629,0.10320264101028442
185,4,128,90,0.34968897700309753,0.08592358231544495
185,4,128,91,0.5219051837921143,0.10700742900371552
185,4,128,92,0.5424390435218811,0.1830182522535324
185,4,128,93,0.4874292016029358,0.08610492199659348
185,4,128,94,0.6614205241203308,0.11075393855571747
185,4,128,95,0.525810956954956,0.06631212681531906
185,4,128,96,0.7502032518386841,0.0995044857263565
185,4,128,97,0.4648350179195404,0.06723879277706146
185,4,128,98,0.5824487209320068,0.11936256289482117
185,4,128,99,0.47774767875671387,0.06684059649705887
185,4,128,100,0.4224388599395752,0.10147153586149216
185,4,128,101,0.48595887422561646,0.07699684798717499
185,4,128,102,0.422501802444458,0.08938175439834595
185,4,128,103,0.7651346325874329,0.09098401665687561
185,4,128,104,0.5965593457221985,0.1756187081336975
185,4,128,105,0.346352219581604,0.1253591626882553
185,4,128,106,0.5754987597465515,0.22700028121471405
185,4,128,107,0.5964393019676208,0.186677947640419
185,4,128,108,0.5735769271850586,0.12136521190404892
185,4,128,109,0.5198591947555542,0.10049450397491455
185,4,128,110,0.45631512999534607,0.06462006270885468
185,4,128,111,0.5292865037918091,0.0963907539844513
185,4,128,112,0.5729601383209229,0.16366489231586456
185,4,128,113,0.5224726796150208,0.23195281624794006
185,4,128,114,0.5261003375053406,0.20949311554431915
185,4,128,115,0.5351880192756653,0.20345020294189453
185,4,128,116,0.6012401580810547,0.047595106065273285
185,4,128,117,0.6732540130615234,0.09432432055473328
185,4,128,118,0.5657320618629456,0.10373317450284958
185,4,128,119,0.565880537033081,0.12175609171390533
185,4,128,120,0.47452083230018616,0.057224199175834656
185,4,128,121,0.45919933915138245,0.17681626975536346
185,4,128,122,0.5084514617919922,0.08135993778705597
185,4,128,123,0.5172111392021179,0.0957283079624176
185,4,128,124,0.548196017742157,0.16556338965892792
185,4,128,125,0.5276594758033752,0.06109534204006195
185,4,128,126,0.4153786301612854,0.17973239719867706
185,4,128,127,0.5978337526321411,0.07883366197347641
185,5,128,0,0.3824692368507385,0.1365254521369934
185,5,128,1,0.6291883587837219,0.19332921504974365
185,5,128,2,0.325874388217926,0.17063213884830475
185,5,128,3,0.34320956468582153,0.21531464159488678
185,5,128,4,0.3706567883491516,0.11265624314546585
185,5,128,5,0.7365213632583618,0.15812860429286957
185,5,128,6,0.6246233582496643,0.21958687901496887
185,5,128,7,0.45156311988830566,0.08090323209762573
185,5,128,8,0.3509034216403961,0.14827467501163483
185,5,128,9,0.3710094392299652,0.14725720882415771
185,5,128,10,0.6030580401420593,0.12441292405128479
185,5,128,11,0.41418471932411194,0.07843475043773651
185,5,128,12,0.641930878162384,0.12043758481740952
185,5,128,13,0.6451253890991211,0.16167563199996948
185,5,128,14,0.6796018481254578,0.17621852457523346
185,5,128,15,0.6853440999984741,0.17155371606349945
185,5,128,16,0.6485689282417297,0.13500551879405975
185,5,128,17,0.39166244864463806,0.19253869354724884
185,5,128,18,0.6080408096313477,0.06614241003990173
185,5,128,19,0.5625823140144348,0.06518473476171494
185,5,128,20,0.5432437062263489,0.041139114648103714
185,5,128,21,0.6223441362380981,0.15923920273780823
185,5,128,22,0.7149348855018616,0.17619337141513824
185,5,128,23,0.7266912460327148,0.1786453276872635
185,5,128,24,0.7070297002792358,0.16888542473316193
185,5,128,25,0.5367687940597534,0.12961575388908386
185,5,128,26,0.7503529191017151,0.17996017634868622
185,5,128,27,0.5361014604568481,0.07651607692241669
185,5,128,28,0.7373877167701721,0.16927401721477509
185,5,128,29,0.5802339911460876,0.12931711971759796
185,5,128,30,0.6970832943916321,0.17328758537769318
185,5,128,31,0.6397051811218262,0.16680501401424408
185,5,128,32,0.6586155891418457,0.15831978619098663
185,5,128,33,0.31713664531707764,0.15143528580665588
185,5,128,34,0.46280840039253235,0.10059948265552521
185,5,128,35,0.42050543427467346,0.05514831095933914
185,5,128,36,0.6673155426979065,0.14331166446208954
185,5,128,37,0.6267133355140686,0.24156199395656586
185,5,128,38,0.6068107485771179,0.14795364439487457
185,5,128,39,0.7042475342750549,0.11395692080259323
185,5,128,40,0.34039822220802307,0.10844352841377258
185,5,128,41,0.5388866662979126,0.1001536101102829
185,5,128,42,0.34918922185897827,0.12789355218410492
185,5,128,43,0.49340811371803284,0.1376425325870514
185,5,128,44,0.38483062386512756,0.11786361038684845
185,5,128,45,0.56465083360672,0.15583845973014832
185,5,128,46,0.6720874309539795,0.2071741372346878
185,5,128,47,0.4100758731365204,0.16800814867019653
185,5,128,48,0.5212389230728149,0.07489950954914093
185,5,128,49,0.6455974578857422,0.12025675177574158
185,5,128,50,0.444295734167099,0.10995466262102127
185,5,128,51,0.45932623744010925,0.14267230033874512
185,5,128,52,0.6099696755409241,0.17394788563251495
185,5,128,53,0.6956506371498108,0.19206172227859497
185,5,128,54,0.6080734133720398,0.11773166060447693
185,5,128,55,0.5227396488189697,0.0633518397808075
185,5,128,56,0.581293523311615,0.193561851978302
185,5,128,57,0.7173581719398499,0.21815259754657745
185,5,128,58,0.6590613722801208,0.09697923064231873
185,5,128,59,0.6998431086540222,0.17578420042991638
185,5,128,60,0.5250632166862488,0.07894083857536316
185,5,128,61,0.7533726692199707,0.12090319395065308
185,5,128,62,0.7427912950515747,0.19941706955432892
185,5,128,63,0.707217812538147,0.14911703765392303
185,5,128,64,0.5681664943695068,0.14852751791477203
185,5,128,65,0.6558548212051392,0.1899784654378891
185,5,128,66,0.5141462087631226,0.07432583719491959
185,5,128,67,0.6819950342178345,0.1616637408733368
185,5,128,68,0.3215261399745941,0.09095089882612228
185,5,128,69,0.6027410626411438,0.10250765830278397
185,5,128,70,0.7331711053848267,0.1964564174413681
185,5,128,71,0.6007305383682251,0.15505753457546234
185,5,128,72,0.5626159310340881,0.09510181844234467
185,5,128,73,0.7512545585632324,0.18202906847000122
185,5,128,74,0.6381009221076965,0.1363300085067749
185,5,128,75,0.6333030462265015,0.1452121138572693
185,5,128,76,0.600986897945404,0.1430796980857849
185,5,128,77,0.24920427799224854,0.15207745134830475
185,5,128,78,0.7200436592102051,0.16280849277973175
185,5,128,79,0.5501415729522705,0.06876157224178314
185,5,128,80,0.35703375935554504,0.14017529785633087
185,5,128,81,0.591585099697113,0.10762446373701096
185,5,128,82,0.5083048343658447,0.12081315368413925
185,5,128,83,0.35403546690940857,0.15425287187099457
185,5,128,84,0.5917484164237976,0.16331665217876434
185,5,128,85,0.5837216377258301,0.15079185366630554
185,5,128,86,0.6919991374015808,0.1790810376405716
185,5,128,87,0.3958843946456909,0.11228099465370178
185,5,128,88,0.36456620693206787,0.15631897747516632
185,5,128,89,0.6032184958457947,0.10276905447244644
185,5,128,90,0.49865150451660156,0.060264915227890015
185,5,128,91,0.5889359712600708,0.15433430671691895
185,5,128,92,0.3221650719642639,0.15043431520462036
185,5,128,93,0.7475653290748596,0.14145681262016296
185,5,128,94,0.3506956398487091,0.10640737414360046
185,5,128,95,0.6853216290473938,0.10085352510213852
185,5,128,96,0.6473368406295776,0.1255587935447693
185,5,128,97,0.7233625650405884,0.16560478508472443
185,5,128,98,0.6981465220451355,0.1807519644498825
185,5,128,99,0.5957893133163452,0.11635450273752213
185,5,128,100,0.6935045719146729,0.1475958675146103
185,5,128,101,0.670781135559082,0.18113820254802704
185,5,128,102,0.5487741231918335,0.10976555943489075
185,5,128,103,0.7131490111351013,0.10995318740606308
185,5,128,104,0.49303504824638367,0.05475395545363426
185,5,128,105,0.6271635890007019,0.14665663242340088
185,5,128,106,0.6877873539924622,0.2286597043275833
185,5,128,107,0.670372724533081,0.17936187982559204
185,5,128,108,0.6375071406364441,0.21800841391086578
185,5,128,109,0.6348563432693481,0.12912024557590485
185,5,128,110,0.6172306537628174,0.12989386916160583
185,5,128,111,0.6224205493927002,0.11549022793769836
185,5,128,112,0.6993480920791626,0.18819010257720947
185,5,128,113,0.5638803839683533,0.11755730211734772
185,5,128,114,0.6267560124397278,0.11150603741407394
185,5,128,115,0.4335644245147705,0.06816291064023972
185,5,128,116,0.3424470126628876,0.15705114603042603
185,5,128,117,0.30578622221946716,0.13524270057678223
185,5,128,118,0.5407489538192749,0.06543203443288803
185,5,128,119,0.5049094557762146,0.05770879611372948
185,5,128,120,0.42202553153038025,0.10984686762094498
185,5,128,121,0.4084855318069458,0.145264133810997
185,5,128,122,0.6946176290512085,0.18777397274971008
185,5,128,123,0.6845373511314392,0.1235097348690033
185,5,128,124,0.6052018404006958,0.15499868988990784
185,5,128,125,0.567090630531311,0.19530782103538513
185,5,128,126,0.5845127701759338,0.08670669794082642
185,5,128,127,0.2817818224430084,0.16417217254638672
186,0,32,0,0.6068746447563171,0.08302690088748932
186,0,32,1,0.36676663160324097,0.09401331841945648
186,0,32,2,0.6988116502761841,0.07387702167034149
186,0,32,3,0.573240339756012,0.08162235468626022
186,0,32,4,0.43117207288742065,0.15963038802146912
186,0,32,5,0.5187167525291443,0.16397128999233246
186,0,32,6,0.6384427547454834,0.08137623220682144
186,0,32,7,0.5026382803916931,0.09119912981987
186,0,32,8,0.4108581840991974,0.2149917185306549
186,0,32,9,0.5243486166000366,0.09257064759731293
186,0,32,10,0.5765733122825623,0.1367153376340866
186,0,32,11,0.5159875750541687,0.20737239718437195
186,0,32,12,0.3261911869049072,0.12886789441108704
186,0,32,13,0.3165479004383087,0.10450974106788635
186,0,32,14,0.5381003618240356,0.1741110384464264
186,0,32,15,0.5172964334487915,0.15198691189289093
186,0,32,16,0.6149981617927551,0.05461358278989792
186,0,32,17,0.5581085085868835,0.18748123943805695
186,0,32,18,0.43916264176368713,0.09257017076015472
186,0,32,19,0.45913150906562805,0.11810243129730225
186,0,32,20,0.34918731451034546,0.09692829847335815
186,0,32,21,0.5198036432266235,0.1236245408654213
186,0,32,22,0.561506450176239,0.09495680779218674
186,0,32,23,0.6170572638511658,0.09568887948989868
186,0,32,24,0.5259473919868469,0.05917104333639145
186,0,32,25,0.37065449357032776,0.17635893821716309
186,0,32,26,0.682787299156189,0.09691046923398972
186,0,32,27,0.5848425030708313,0.13547006249427795
186,0,32,28,0.42540591955184937,0.08809605240821838
186,0,32,29,0.5486200451850891,0.18616138398647308
186,0,32,30,0.494690865278244,0.11529277265071869
186,0,32,31,0.597153902053833,0.07615432888269424
186,1,32,0,0.5828800797462463,0.13136272132396698
186,1,32,1,0.40061134099960327,0.1306612193584442
186,1,32,2,0.4577138125896454,0.15494361519813538
186,1,32,3,0.43895211815834045,0.12175456434488297
186,1,32,4,0.6330747008323669,0.20371544361114502
186,1,32,5,0.5790867805480957,0.03979538008570671
186,1,32,6,0.4584309458732605,0.11688045412302017
186,1,32,7,0.5550640821456909,0.13334397971630096
186,1,32,8,0.5481064319610596,0.056473392993211746
186,1,32,9,0.3592982292175293,0.11235733330249786
186,1,32,10,0.2844793200492859,0.11657256633043289
186,1,32,11,0.350685715675354,0.14320193231105804
186,1,32,12,0.34545227885246277,0.1588873267173767
186,1,32,13,0.4052852690219879,0.09089893102645874
186,1,32,14,0.5084668397903442,0.21840742230415344
186,1,32,15,0.4263640344142914,0.11382696032524109
186,1,32,16,0.605224072933197,0.09971074014902115
186,1,32,17,0.44434303045272827,0.1815570890903473
186,1,32,18,0.4138767123222351,0.15477125346660614
186,1,32,19,0.2992578148841858,0.08510759472846985
186,1,32,20,0.594437301158905,0.16074059903621674
186,1,32,21,0.5387049913406372,0.10364940017461777
186,1,32,22,0.4778525233268738,0.08861394226551056
186,1,32,23,0.4308954179286957,0.051983244717121124
186,1,32,24,0.49148306250572205,0.06297432631254196
186,1,32,25,0.2918742001056671,0.08781217783689499
186,1,32,26,0.4026098847389221,0.12838037312030792
186,1,32,27,0.4246538579463959,0.12079562991857529
186,1,32,28,0.5537718534469604,0.21535353362560272
186,1,32,29,0.41438034176826477,0.039001066237688065
186,1,32,30,0.541976273059845,0.05085110291838646
186,1,32,31,0.6469658613204956,0.09140344709157944
186,2,64,0,0.41726797819137573,0.08387284725904465
186,2,64,1,0.3810648024082184,0.10001259297132492
186,2,64,2,0.4780370593070984,0.17050756514072418
186,2,64,3,0.53524249792099,0.13552971184253693
186,2,64,4,0.5088829398155212,0.10698021948337555
186,2,64,5,0.39568594098091125,0.11105846613645554
186,2,64,6,0.5556765198707581,0.13626326620578766
186,2,64,7,0.4153308868408203,0.15736065804958344
186,2,64,8,0.5954265594482422,0.11529408395290375
186,2,64,9,0.5748009085655212,0.12542788684368134
186,2,64,10,0.41399475932121277,0.10962735116481781
186,2,64,11,0.6574739217758179,0.22570769488811493
186,2,64,12,0.5357925891876221,0.10866574943065643
186,2,64,13,0.4675822854042053,0.08048936724662781
186,2,64,14,0.543022871017456,0.13605083525180817
186,2,64,15,0.4354265630245209,0.10406670719385147
186,2,64,16,0.5232813954353333,0.09667622298002243
186,2,64,17,0.4453146755695343,0.06569875031709671
186,2,64,18,0.5112429857254028,0.11010680347681046
186,2,64,19,0.37346479296684265,0.08287104964256287
186,2,64,20,0.6996909379959106,0.08095496147871017
186,2,64,21,0.4996165931224823,0.1384003758430481
186,2,64,22,0.4598979651927948,0.13364125788211823
186,2,64,23,0.5935760736465454,0.18149276077747345
186,2,64,24,0.5098716020584106,0.09035879373550415
186,2,64,25,0.5158047080039978,0.17177708446979523
186,2,64,26,0.3128162920475006,0.08989068120718002
186,2,64,27,0.3433639109134674,0.13924464583396912
186,2,64,28,0.4355514943599701,0.06263624131679535
186,2,64,29,0.2808099091053009,0.16191363334655762
186,2,64,30,0.6058833599090576,0.11639247089624405
186,2,64,31,0.5164244174957275,0.1381048709154129
186,2,64,32,0.5126388072967529,0.15229040384292603
186,2,64,33,0.4855538010597229,0.17385248839855194
186,2,64,34,0.3828248977661133,0.11723484843969345
186,2,64,35,0.37931546568870544,0.0797593742609024
186,2,64,36,0.5082753300666809,0.1540876179933548
186,2,64,37,0.4005367159843445,0.13131308555603027
186,2,64,38,0.4176549017429352,0.22610658407211304
186,2,64,39,0.397167444229126,0.06223859637975693
186,2,64,40,0.5989581942558289,0.13853684067726135
186,2,64,41,0.5034105777740479,0.1205478236079216
186,2,64,42,0.4180932343006134,0.20512646436691284
186,2,64,43,0.5037817358970642,0.1259203553199768
186,2,64,44,0.4111231565475464,0.2028476893901825
186,2,64,45,0.5242836475372314,0.22196391224861145
186,2,64,46,0.4532327651977539,0.15037314593791962
186,2,64,47,0.6311060786247253,0.20162348449230194
186,2,64,48,0.4597078561782837,0.15574653446674347
186,2,64,49,0.6202037334442139,0.25138789415359497
186,2,64,50,0.55034339427948,0.17198504507541656
186,2,64,51,0.5468519926071167,0.24434705078601837
186,2,64,52,0.5847492814064026,0.109598807990551
186,2,64,53,0.47208115458488464,0.14036159217357635
186,2,64,54,0.44545602798461914,0.05813116580247879
186,2,64,55,0.5519781708717346,0.13107092678546906
186,2,64,56,0.5523515343666077,0.1711130142211914
186,2,64,57,0.41422000527381897,0.23396211862564087
186,2,64,58,0.5424079895019531,0.14481845498085022
186,2,64,59,0.40596267580986023,0.21363839507102966
186,2,64,60,0.4695194661617279,0.17633500695228577
186,2,64,61,0.4132017195224762,0.10537230223417282
186,2,64,62,0.45838648080825806,0.10754714906215668
186,2,64,63,0.6336386799812317,0.10165006667375565
186,3,64,0,0.43608081340789795,0.09871494770050049
186,3,64,1,0.5510697364807129,0.04751471430063248
186,3,64,2,0.3450290858745575,0.08760006725788116
186,3,64,3,0.5398388504981995,0.103282131254673
186,3,64,4,0.4965657889842987,0.07243096828460693
186,3,64,5,0.6121073961257935,0.08691348135471344
186,3,64,6,0.5776626467704773,0.11122125387191772
186,3,64,7,0.43515539169311523,0.10200037062168121
186,3,64,8,0.5369387865066528,0.08990848064422607
186,3,64,9,0.5293229818344116,0.06842826306819916
186,3,64,10,0.5210379362106323,0.10158251225948334
186,3,64,11,0.5491741299629211,0.057610318064689636
186,3,64,12,0.5468578338623047,0.08763617277145386
186,3,64,13,0.46945902705192566,0.07918041199445724
186,3,64,14,0.5047681331634521,0.08632878959178925
186,3,64,15,0.4255805015563965,0.07351291179656982
186,3,64,16,0.4381609857082367,0.10662543773651123
186,3,64,17,0.4651474356651306,0.13338224589824677
186,3,64,18,0.6003475189208984,0.08034046739339828
186,3,64,19,0.5370863080024719,0.053649067878723145
186,3,64,20,0.5928096175193787,0.052946459501981735
186,3,64,21,0.5268238186836243,0.04822681471705437
186,3,64,22,0.5229576826095581,0.07993771135807037
186,3,64,23,0.5202254056930542,0.12464524805545807
186,3,64,24,0.3765935003757477,0.08184753358364105
186,3,64,25,0.3915131390094757,0.09134586155414581
186,3,64,26,0.47112444043159485,0.09013157337903976
186,3,64,27,0.5194238424301147,0.03975210711359978
186,3,64,28,0.5408115386962891,0.08010608702898026
186,3,64,29,0.4878174364566803,0.07052014768123627
186,3,64,30,0.5424240827560425,0.052418485283851624
186,3,64,31,0.5392912030220032,0.07407774031162262
186,3,64,32,0.478546679019928,0.14065226912498474
186,3,64,33,0.4676971137523651,0.07965003699064255
186,3,64,34,0.4802497327327728,0.04254782944917679
186,3,64,35,0.5212233066558838,0.06930847465991974
186,3,64,36,0.5154306888580322,0.04851995408535004
186,3,64,37,0.5048010349273682,0.07640339434146881
186,3,64,38,0.4450191557407379,0.041393548250198364
186,3,64,39,0.48655983805656433,0.0791373923420906
186,3,64,40,0.5500321388244629,0.08298220485448837
186,3,64,41,0.38659748435020447,0.12727640569210052
186,3,64,42,0.5997840762138367,0.0684598907828331
186,3,64,43,0.5644451975822449,0.06383080035448074
186,3,64,44,0.5805320143699646,0.07799554616212845
186,3,64,45,0.5241519808769226,0.09836683422327042
186,3,64,46,0.48585736751556396,0.08607881516218185
186,3,64,47,0.5543069243431091,0.08223557472229004
186,3,64,48,0.43483588099479675,0.06157541647553444
186,3,64,49,0.4917946457862854,0.08409719914197922
186,3,64,50,0.5605301260948181,0.09350443631410599
186,3,64,51,0.5345785021781921,0.11776483803987503
186,3,64,52,0.4963572323322296,0.09312711656093597
186,3,64,53,0.5505644083023071,0.08656030148267746
186,3,64,54,0.5300303101539612,0.09399130195379257
186,3,64,55,0.567075788974762,0.06892723590135574
186,3,64,56,0.6373080015182495,0.03389618173241615
186,3,64,57,0.4883124530315399,0.06283459812402725
186,3,64,58,0.5896797776222229,0.038833022117614746
186,3,64,59,0.40808311104774475,0.049617718905210495
186,3,64,60,0.5938538908958435,0.09320851415395737
186,3,64,61,0.4604053497314453,0.050646670162677765
186,3,64,62,0.4281257688999176,0.06826981157064438
186,3,64,63,0.4544863700866699,0.08199042081832886
186,4,128,0,0.554714024066925,0.061623260378837585
186,4,128,1,0.46426865458488464,0.047691844403743744
186,4,128,2,0.5832616686820984,0.08189120888710022
186,4,128,3,0.5927890539169312,0.10323572158813477
186,4,128,4,0.49474063515663147,0.24807611107826233
186,4,128,5,0.6000048518180847,0.14901427924633026
186,4,128,6,0.5914192795753479,0.1997116655111313
186,4,128,7,0.4863728880882263,0.1272018998861313
186,4,128,8,0.46510377526283264,0.0568176694214344
186,4,128,9,0.5208393335342407,0.12808364629745483
186,4,128,10,0.6072523593902588,0.19693590700626373
186,4,128,11,0.5803877115249634,0.0930124893784523
186,4,128,12,0.3953995406627655,0.11411416530609131
186,4,128,13,0.6066625714302063,0.17360204458236694
186,4,128,14,0.4150713086128235,0.10065577924251556
186,4,128,15,0.6185110807418823,0.12645871937274933
186,4,128,16,0.4300578236579895,0.1629551351070404
186,4,128,17,0.6020277738571167,0.09361518919467926
186,4,128,18,0.5268798470497131,0.09166886657476425
186,4,128,19,0.47271767258644104,0.20404498279094696
186,4,128,20,0.5194477438926697,0.17971228063106537
186,4,128,21,0.6603623628616333,0.11132822185754776
186,4,128,22,0.5589919686317444,0.10831845551729202
186,4,128,23,0.5004839897155762,0.12002282589673996
186,4,128,24,0.5182748436927795,0.0922580361366272
186,4,128,25,0.5023486018180847,0.056542932987213135
186,4,128,26,0.5300167202949524,0.11879458278417587
186,4,128,27,0.5504193902015686,0.2862054407596588
186,4,128,28,0.5256165862083435,0.2576330304145813
186,4,128,29,0.5139353275299072,0.09035982936620712
186,4,128,30,0.4985802471637726,0.16874372959136963
186,4,128,31,0.5740153193473816,0.16619844734668732
186,4,128,32,0.5425168871879578,0.05133846402168274
186,4,128,33,0.5160423517227173,0.04729023575782776
186,4,128,34,0.5503871440887451,0.22482235729694366
186,4,128,35,0.48194265365600586,0.10721828043460846
186,4,128,36,0.591289222240448,0.2428068071603775
186,4,128,37,0.5976818203926086,0.18197302520275116
186,4,128,38,0.5186384916305542,0.13430920243263245
186,4,128,39,0.6720634698867798,0.13866810500621796
186,4,128,40,0.601506233215332,0.044012825936079025
186,4,128,41,0.497197687625885,0.1663006693124771
186,4,128,42,0.4915550947189331,0.044071223586797714
186,4,128,43,0.5264845490455627,0.10229257494211197
186,4,128,44,0.4892692565917969,0.18221603333950043
186,4,128,45,0.6070027351379395,0.08931983262300491
186,4,128,46,0.5384145379066467,0.14373981952667236
186,4,128,47,0.5192550420761108,0.14267562329769135
186,4,128,48,0.41925448179244995,0.0729353278875351
186,4,128,49,0.5964757800102234,0.0843474268913269
186,4,128,50,0.36147594451904297,0.07510201632976532
186,4,128,51,0.6178268790245056,0.11593803018331528
186,4,128,52,0.37889543175697327,0.1276303380727768
186,4,128,53,0.5003361105918884,0.06583623588085175
186,4,128,54,0.5554535984992981,0.10167157649993896
186,4,128,55,0.4614846110343933,0.13378599286079407
186,4,128,56,0.5918121337890625,0.11394454538822174
186,4,128,57,0.5243545174598694,0.049454037100076675
186,4,128,58,0.5257857441902161,0.23851168155670166
186,4,128,59,0.5654503107070923,0.08307631313800812
186,4,128,60,0.4078536629676819,0.09852469712495804
186,4,128,61,0.6254774332046509,0.10390371829271317
186,4,128,62,0.4648928940296173,0.1612471044063568
186,4,128,63,0.4820263385772705,0.1470751017332077
186,4,128,64,0.5662052035331726,0.1550864726305008
186,4,128,65,0.5793429017066956,0.07489243894815445
186,4,128,66,0.6079500913619995,0.15764407813549042
186,4,128,67,0.41392582654953003,0.08318633586168289
186,4,128,68,0.5287759304046631,0.10663717985153198
186,4,128,69,0.36690300703048706,0.12577955424785614
186,4,128,70,0.44390547275543213,0.16229860484600067
186,4,128,71,0.394012451171875,0.07058046013116837
186,4,128,72,0.3968689739704132,0.09895849972963333
186,4,128,73,0.49615511298179626,0.17327316105365753
186,4,128,74,0.4335730969905853,0.07846950739622116
186,4,128,75,0.5378929972648621,0.11652352660894394
186,4,128,76,0.48336511850357056,0.06225159764289856
186,4,128,77,0.3647116720676422,0.08516756445169449
186,4,128,78,0.488761305809021,0.16359765827655792
186,4,128,79,0.5763336420059204,0.05835053324699402
186,4,128,80,0.5639563798904419,0.1106644719839096
186,4,128,81,0.4564788043498993,0.09536818414926529
186,4,128,82,0.40124446153640747,0.05945877730846405
186,4,128,83,0.4673002362251282,0.12568898499011993
186,4,128,84,0.5240650177001953,0.18240396678447723
186,4,128,85,0.4452672302722931,0.12052696943283081
186,4,128,86,0.48090991377830505,0.1635890007019043
186,4,128,87,0.6242546439170837,0.1188109889626503
186,4,128,88,0.6254748106002808,0.11222099512815475
186,4,128,89,0.6790850758552551,0.08483899384737015
186,4,128,90,0.5521690845489502,0.1825716197490692
186,4,128,91,0.48751166462898254,0.09648875892162323
186,4,128,92,0.3094444274902344,0.07386521250009537
186,4,128,93,0.5568277835845947,0.12480656057596207
186,4,128,94,0.4168587923049927,0.18003113567829132
186,4,128,95,0.4726288318634033,0.05383387953042984
186,4,128,96,0.5454734563827515,0.24311724305152893
186,4,128,97,0.2707868218421936,0.07287817448377609
186,4,128,98,0.6398475766181946,0.09720533341169357
186,4,128,99,0.6186425685882568,0.08970094472169876
186,4,128,100,0.5389015078544617,0.07678044587373734
186,4,128,101,0.4318821430206299,0.061563074588775635
186,4,128,102,0.5535581111907959,0.16458536684513092
186,4,128,103,0.6013672947883606,0.16411861777305603
186,4,128,104,0.6011172533035278,0.07470301538705826
186,4,128,105,0.47365647554397583,0.12645621597766876
186,4,128,106,0.6140928268432617,0.11071942001581192
186,4,128,107,0.6808329224586487,0.08861871808767319
186,4,128,108,0.6456820964813232,0.11951149255037308
186,4,128,109,0.3362272083759308,0.062317486852407455
186,4,128,110,0.5209608674049377,0.1552373766899109
186,4,128,111,0.453048437833786,0.11571129411458969
186,4,128,112,0.363649845123291,0.19359686970710754
186,4,128,113,0.537983238697052,0.1075226366519928
186,4,128,114,0.3607499897480011,0.07772761583328247
186,4,128,115,0.5169494152069092,0.17484979331493378
186,4,128,116,0.5567598342895508,0.26511597633361816
186,4,128,117,0.5593330264091492,0.22222524881362915
186,4,128,118,0.5057319402694702,0.09016822278499603
186,4,128,119,0.4369155168533325,0.15579140186309814
186,4,128,120,0.5763715505599976,0.19281218945980072
186,4,128,121,0.7348419427871704,0.1005597934126854
186,4,128,122,0.6594929099082947,0.04874158278107643
186,4,128,123,0.550652801990509,0.07438994199037552
186,4,128,124,0.5390990376472473,0.05413978546857834
186,4,128,125,0.5542168617248535,0.20581765472888947
186,4,128,126,0.4904271960258484,0.10734428465366364
186,4,128,127,0.42305272817611694,0.04291733354330063
186,5,128,0,0.7343470454216003,0.12418103218078613
186,5,128,1,0.6132633090019226,0.2623372972011566
186,5,128,2,0.6415098905563354,0.1860838681459427
186,5,128,3,0.4938090145587921,0.19083407521247864
186,5,128,4,0.6527310609817505,0.2950429916381836
186,5,128,5,0.4823473393917084,0.22572314739227295
186,5,128,6,0.683571457862854,0.20927560329437256
186,5,128,7,0.49391406774520874,0.1315779685974121
186,5,128,8,0.47490641474723816,0.054434195160865784
186,5,128,9,0.37729009985923767,0.14454108476638794
186,5,128,10,0.3537527024745941,0.2238609343767166
186,5,128,11,0.5597108006477356,0.19939401745796204
186,5,128,12,0.559320867061615,0.14937029778957367
186,5,128,13,0.3928013741970062,0.21254897117614746
186,5,128,14,0.5821356177330017,0.17857101559638977
186,5,128,15,0.6630264520645142,0.10924863815307617
186,5,128,16,0.3698132336139679,0.10389257967472076
186,5,128,17,0.6221892237663269,0.19116298854351044
186,5,128,18,0.5924221277236938,0.12500163912773132
186,5,128,19,0.45220649242401123,0.18679989874362946
186,5,128,20,0.4867208003997803,0.11059095710515976
186,5,128,21,0.72840416431427,0.11260868608951569
186,5,128,22,0.4666649103164673,0.1976238489151001
186,5,128,23,0.68338543176651,0.1123470813035965
186,5,128,24,0.509676992893219,0.17235836386680603
186,5,128,25,0.6482235789299011,0.14549966156482697
186,5,128,26,0.5225876569747925,0.1456504911184311
186,5,128,27,0.7578657269477844,0.18239779770374298
186,5,128,28,0.7092958688735962,0.1843201071023941
186,5,128,29,0.6201027035713196,0.10623499751091003
186,5,128,30,0.694425642490387,0.18298333883285522
186,5,128,31,0.6671544313430786,0.19853417575359344
186,5,128,32,0.5895093679428101,0.08059858530759811
186,5,128,33,0.7029605507850647,0.10628768056631088
186,5,128,34,0.7660906910896301,0.15961533784866333
186,5,128,35,0.44959932565689087,0.06546080112457275
186,5,128,36,0.6607224941253662,0.23967932164669037
186,5,128,37,0.6599337458610535,0.24272142350673676
186,5,128,38,0.6797168850898743,0.1576722413301468
186,5,128,39,0.6083534359931946,0.1626431941986084
186,5,128,40,0.5008861422538757,0.10492419451475143
186,5,128,41,0.6362957954406738,0.276007741689682
186,5,128,42,0.6774218678474426,0.10708175599575043
186,5,128,43,0.42731720209121704,0.20398534834384918
186,5,128,44,0.4464629590511322,0.24392129480838776
186,5,128,45,0.4292173683643341,0.23146332800388336
186,5,128,46,0.5823997259140015,0.1471475213766098
186,5,128,47,0.6293665766716003,0.30003583431243896
186,5,128,48,0.4546275734901428,0.16152559220790863
186,5,128,49,0.5821160078048706,0.07663458585739136
186,5,128,50,0.4786684811115265,0.05664046108722687
186,5,128,51,0.6080714464187622,0.2112436443567276
186,5,128,52,0.6545759439468384,0.09907163679599762
186,5,128,53,0.4091142416000366,0.17072650790214539
186,5,128,54,0.5720574855804443,0.1245647519826889
186,5,128,55,0.49494677782058716,0.08942557126283646
186,5,128,56,0.6688742637634277,0.14575986564159393
186,5,128,57,0.6234937906265259,0.2367793619632721
186,5,128,58,0.7168239951133728,0.14190828800201416
186,5,128,59,0.5547937750816345,0.12353647500276566
186,5,128,60,0.4825369417667389,0.17366202175617218
186,5,128,61,0.6027688980102539,0.1289028525352478
186,5,128,62,0.5854981541633606,0.11834929883480072
186,5,128,63,0.6417531967163086,0.08858714252710342
186,5,128,64,0.6579726338386536,0.11502235382795334
186,5,128,65,0.6602029204368591,0.2177884429693222
186,5,128,66,0.6735259890556335,0.18370400369167328
186,5,128,67,0.6596166491508484,0.1417117863893509
186,5,128,68,0.35437077283859253,0.08366517722606659
186,5,128,69,0.5856031179428101,0.09043557941913605
186,5,128,70,0.6722702383995056,0.12739039957523346
186,5,128,71,0.5206272006034851,0.2145361453294754
186,5,128,72,0.6396151781082153,0.14558637142181396
186,5,128,73,0.6819065809249878,0.15014901757240295
186,5,128,74,0.7151185274124146,0.13681663572788239
186,5,128,75,0.6851054430007935,0.21655891835689545
186,5,128,76,0.6668583750724792,0.11638641357421875
186,5,128,77,0.5611151456832886,0.1546858251094818
186,5,128,78,0.44939330220222473,0.22086705267429352
186,5,128,79,0.7097719311714172,0.10861171782016754
186,5,128,80,0.5055882930755615,0.12055350095033646
186,5,128,81,0.5540561079978943,0.09157264977693558
186,5,128,82,0.5902993679046631,0.09589938074350357
186,5,128,83,0.5002133846282959,0.16036002337932587
186,5,128,84,0.6559388041496277,0.12452202290296555
186,5,128,85,0.5596067309379578,0.13710975646972656
186,5,128,86,0.44150757789611816,0.179336279630661
186,5,128,87,0.5691745281219482,0.09547705948352814
186,5,128,88,0.6937083005905151,0.22905680537223816
186,5,128,89,0.5919564962387085,0.2484491914510727
186,5,128,90,0.66191166639328,0.1354166865348816
186,5,128,91,0.5386698842048645,0.06088168919086456
186,5,128,92,0.3661425709724426,0.2133726328611374
186,5,128,93,0.4182378947734833,0.07957875728607178
186,5,128,94,0.6228200197219849,0.10493793338537216
186,5,128,95,0.3447711169719696,0.1438833624124527
186,5,128,96,0.7612380385398865,0.14639300107955933
186,5,128,97,0.6920344829559326,0.1423870474100113
186,5,128,98,0.6104873418807983,0.11947234719991684
186,5,128,99,0.6804053783416748,0.0946304202079773
186,5,128,100,0.5592459440231323,0.07254060357809067
186,5,128,101,0.6100033521652222,0.07878819853067398
186,5,128,102,0.4080062508583069,0.25600090622901917
186,5,128,103,0.3834313750267029,0.1805974245071411
186,5,128,104,0.6433476209640503,0.11136727035045624
186,5,128,105,0.5956341028213501,0.09572463482618332
186,5,128,106,0.6466041803359985,0.10977745056152344
186,5,128,107,0.5422442555427551,0.1741163432598114
186,5,128,108,0.6599970459938049,0.11112315207719803
186,5,128,109,0.4509594142436981,0.17655523121356964
186,5,128,110,0.5085349082946777,0.2072664499282837
186,5,128,111,0.7291446924209595,0.11712328344583511
186,5,128,112,0.49615710973739624,0.11307190358638763
186,5,128,113,0.7336488962173462,0.13212577998638153
186,5,128,114,0.4335023760795593,0.11092804372310638
186,5,128,115,0.6594530940055847,0.12453429400920868
186,5,128,116,0.6195857524871826,0.21220485866069794
186,5,128,117,0.7703427076339722,0.13345131278038025
186,5,128,118,0.5979791879653931,0.10246128588914871
186,5,128,119,0.41651707887649536,0.11304738372564316
186,5,128,120,0.5416414141654968,0.10547661036252975
186,5,128,121,0.6633033156394958,0.15782244503498077
186,5,128,122,0.7364686131477356,0.13438810408115387
186,5,128,123,0.7385480999946594,0.13145940005779266
186,5,128,124,0.4084406793117523,0.22524666786193848
186,5,128,125,0.6397291421890259,0.20931167900562286
186,5,128,126,0.49608713388442993,0.18758834898471832
186,5,128,127,0.6129384636878967,0.1259794384241104
188,0,32,0,0.5321090817451477,0.08938278257846832
188,0,32,1,0.476301908493042,0.12208510935306549
188,0,32,2,0.43737295269966125,0.08993612974882126
188,0,32,3,0.5094234347343445,0.09332239627838135
188,0,32,4,0.6107861399650574,0.05635326728224754
188,0,32,5,0.5500210523605347,0.0956270769238472
188,0,32,6,0.4883310794830322,0.1267319768667221
188,0,32,7,0.41052189469337463,0.09623127430677414
188,0,32,8,0.6231469511985779,0.07257089018821716
188,0,32,9,0.5349494218826294,0.08185092359781265
188,0,32,10,0.5484539866447449,0.08336848765611649
188,0,32,11,0.5077823400497437,0.09363970160484314
188,0,32,12,0.4439471364021301,0.09185025840997696
188,0,32,13,0.3911213278770447,0.05834490805864334
188,0,32,14,0.42720603942871094,0.07195986807346344
188,0,32,15,0.5193064212799072,0.0925525575876236
188,0,32,16,0.3913356065750122,0.03754473105072975
188,0,32,17,0.5892996788024902,0.09291709214448929
188,0,32,18,0.5042495131492615,0.08263746649026871
188,0,32,19,0.498791366815567,0.10324699431657791
188,0,32,20,0.5320959687232971,0.05262502282857895
188,0,32,21,0.4756942093372345,0.09204056859016418
188,0,32,22,0.4470422565937042,0.08584712445735931
188,0,32,23,0.5656179785728455,0.036234766244888306
188,0,32,24,0.4850940406322479,0.09129710495471954
188,0,32,25,0.6646531224250793,0.07996279746294022
188,0,32,26,0.3709182143211365,0.06821498274803162
188,0,32,27,0.3416842222213745,0.08285363018512726
188,0,32,28,0.3910068869590759,0.07753627002239227
188,0,32,29,0.4980204701423645,0.09672358632087708
188,0,32,30,0.5812561511993408,0.07951599359512329
188,0,32,31,0.5161803960800171,0.10109534114599228
188,1,32,0,0.5975369215011597,0.16894401609897614
188,1,32,1,0.34613174200057983,0.0824463814496994
188,1,32,2,0.4442736506462097,0.044840920716524124
188,1,32,3,0.48142218589782715,0.08525903522968292
188,1,32,4,0.4264986217021942,0.08671543747186661
188,1,32,5,0.35738077759742737,0.10815709829330444
188,1,32,6,0.4966232180595398,0.09260784089565277
188,1,32,7,0.6061787605285645,0.16121062636375427
188,1,32,8,0.5017284154891968,0.126666858792305
188,1,32,9,0.48842746019363403,0.12072904407978058
188,1,32,10,0.6431771516799927,0.05488241836428642
188,1,32,11,0.33439570665359497,0.14792108535766602
188,1,32,12,0.5583662986755371,0.08642306178808212
188,1,32,13,0.32903313636779785,0.07889329642057419
188,1,32,14,0.5023720264434814,0.15032778680324554
188,1,32,15,0.36133939027786255,0.0918264389038086
188,1,32,16,0.5378690958023071,0.02981257438659668
188,1,32,17,0.3805347979068756,0.10662492364645004
188,1,32,18,0.2904861569404602,0.05911017209291458
188,1,32,19,0.5500971078872681,0.10000868886709213
188,1,32,20,0.6147322654724121,0.05959801748394966
188,1,32,21,0.5058177709579468,0.05948362872004509
188,1,32,22,0.5763188600540161,0.05218544229865074
188,1,32,23,0.4926363527774811,0.10120520740747452
188,1,32,24,0.3757641911506653,0.08368808031082153
188,1,32,25,0.6052538752555847,0.049650222063064575
188,1,32,26,0.3540577292442322,0.09059800207614899
188,1,32,27,0.5740495324134827,0.03356301039457321
188,1,32,28,0.4094850420951843,0.07699168473482132
188,1,32,29,0.38566121459007263,0.08914797753095627
188,1,32,30,0.4150785207748413,0.06506246328353882
188,1,32,31,0.5634512901306152,0.11844294518232346
188,2,64,0,0.4308410882949829,0.1043960303068161
188,2,64,1,0.38820645213127136,0.1920693963766098
188,2,64,2,0.45887720584869385,0.09413769096136093
188,2,64,3,0.5961997509002686,0.11501026898622513
188,2,64,4,0.5141829252243042,0.20085619390010834
188,2,64,5,0.43526050448417664,0.10179014503955841
188,2,64,6,0.42869845032691956,0.04523099958896637
188,2,64,7,0.49789488315582275,0.1938798427581787
188,2,64,8,0.45093291997909546,0.1451895534992218
188,2,64,9,0.5813190340995789,0.1606239527463913
188,2,64,10,0.5928081274032593,0.25632503628730774
188,2,64,11,0.6136794090270996,0.11068398505449295
188,2,64,12,0.5209841728210449,0.07931745797395706
188,2,64,13,0.5926274657249451,0.15112081170082092
188,2,64,14,0.4690660834312439,0.18240970373153687
188,2,64,15,0.5612978339195251,0.155791237950325
188,2,64,16,0.41828253865242004,0.08386470377445221
188,2,64,17,0.564543604850769,0.20545345544815063
188,2,64,18,0.421742707490921,0.09669890999794006
188,2,64,19,0.5865147709846497,0.16190855205059052
188,2,64,20,0.6143703460693359,0.083554707467556
188,2,64,21,0.38632696866989136,0.08795483410358429
188,2,64,22,0.5500392913818359,0.08834747225046158
188,2,64,23,0.49144598841667175,0.21559762954711914
188,2,64,24,0.5017561912536621,0.10942374914884567
188,2,64,25,0.3456801772117615,0.1384119987487793
188,2,64,26,0.42077362537384033,0.11158400774002075
188,2,64,27,0.5057917833328247,0.11259376257658005
188,2,64,28,0.3396807610988617,0.07539546489715576
188,2,64,29,0.5582365989685059,0.1853237748146057
188,2,64,30,0.44919905066490173,0.11115380376577377
188,2,64,31,0.5339870452880859,0.07615822553634644
188,2,64,32,0.5181297063827515,0.23599572479724884
188,2,64,33,0.38614413142204285,0.14624124765396118
188,2,64,34,0.44014811515808105,0.0941486731171608
188,2,64,35,0.45561105012893677,0.16517655551433563
188,2,64,36,0.3048841953277588,0.08885978162288666
188,2,64,37,0.33118948340415955,0.1278243213891983
188,2,64,38,0.4747656583786011,0.19828355312347412
188,2,64,39,0.6324405074119568,0.0990932509303093
188,2,64,40,0.4079653322696686,0.07478898763656616
188,2,64,41,0.43297678232192993,0.21784253418445587
188,2,64,42,0.5737678408622742,0.22870752215385437
188,2,64,43,0.38651517033576965,0.08752303570508957
188,2,64,44,0.45661240816116333,0.1329343169927597
188,2,64,45,0.4547831416130066,0.237764373421669
188,2,64,46,0.5747646689414978,0.08437494933605194
188,2,64,47,0.46018147468566895,0.19992151856422424
188,2,64,48,0.6026312112808228,0.11622032523155212
188,2,64,49,0.5189053416252136,0.0904025286436081
188,2,64,50,0.6370271444320679,0.15260879695415497
188,2,64,51,0.5465505719184875,0.10919833183288574
188,2,64,52,0.47003811597824097,0.17470401525497437
188,2,64,53,0.40488532185554504,0.1961834579706192
188,2,64,54,0.4370562434196472,0.1630830466747284
188,2,64,55,0.6124376058578491,0.07912945002317429
188,2,64,56,0.4422430396080017,0.22128070890903473
188,2,64,57,0.6199567317962646,0.14572973549365997
188,2,64,58,0.4031965434551239,0.12897717952728271
188,2,64,59,0.40555429458618164,0.14971230924129486
188,2,64,60,0.4900553226470947,0.1789826601743698
188,2,64,61,0.48466163873672485,0.1172732412815094
188,2,64,62,0.5622333288192749,0.16004960238933563
188,2,64,63,0.4519888460636139,0.18515990674495697
188,3,64,0,0.6106457710266113,0.06526266783475876
188,3,64,1,0.3792998790740967,0.06961145997047424
188,3,64,2,0.5269318222999573,0.0660153180360794
188,3,64,3,0.5187160968780518,0.0745735839009285
188,3,64,4,0.6414486169815063,0.0796920582652092
188,3,64,5,0.500694215297699,0.0851360335946083
188,3,64,6,0.509682297706604,0.10319194942712784
188,3,64,7,0.4642518162727356,0.16678398847579956
188,3,64,8,0.41161030530929565,0.15719974040985107
188,3,64,9,0.44135117530822754,0.13088931143283844
188,3,64,10,0.5174070596694946,0.10439244657754898
188,3,64,11,0.6149653196334839,0.0575389638543129
188,3,64,12,0.5440762639045715,0.06629380583763123
188,3,64,13,0.4849924147129059,0.08110850304365158
188,3,64,14,0.5888376235961914,0.057160183787345886
188,3,64,15,0.44914668798446655,0.13936716318130493
188,3,64,16,0.3884161114692688,0.18416620790958405
188,3,64,17,0.4375437796115875,0.12410781532526016
188,3,64,18,0.550177276134491,0.114902064204216
188,3,64,19,0.5628689527511597,0.06601440161466599
188,3,64,20,0.5388025045394897,0.11755022406578064
188,3,64,21,0.5120742917060852,0.1322237104177475
188,3,64,22,0.6530638933181763,0.08536600321531296
188,3,64,23,0.4103979468345642,0.1493195742368698
188,3,64,24,0.3149016201496124,0.09290949255228043
188,3,64,25,0.45054537057876587,0.06683278828859329
188,3,64,26,0.4212620258331299,0.05931306257843971
188,3,64,27,0.47439509630203247,0.1436624974012375
188,3,64,28,0.48314595222473145,0.109876349568367
188,3,64,29,0.6075434684753418,0.07364292442798615
188,3,64,30,0.5891972184181213,0.07277528196573257
188,3,64,31,0.6156627535820007,0.09682803601026535
188,3,64,32,0.47772616147994995,0.16452433168888092
188,3,64,33,0.5670205950737,0.18165412545204163
188,3,64,34,0.5682257413864136,0.12634001672267914
188,3,64,35,0.3796291947364807,0.079632468521595
188,3,64,36,0.6228235960006714,0.05292998254299164
188,3,64,37,0.48183006048202515,0.1903974860906601
188,3,64,38,0.482784628868103,0.09946229308843613
188,3,64,39,0.4432351887226105,0.14374446868896484
188,3,64,40,0.5527362823486328,0.16403263807296753
188,3,64,41,0.4753910005092621,0.09642823785543442
188,3,64,42,0.6083260774612427,0.10586024820804596
188,3,64,43,0.5364181995391846,0.13243940472602844
188,3,64,44,0.5327418446540833,0.16621236503124237
188,3,64,45,0.5271986722946167,0.09632430970668793
188,3,64,46,0.4681874215602875,0.11268645524978638
188,3,64,47,0.46072059869766235,0.11557625234127045
188,3,64,48,0.48292484879493713,0.19991885125637054
188,3,64,49,0.5293410420417786,0.12508268654346466
188,3,64,50,0.5451540350914001,0.09496151655912399
188,3,64,51,0.5052757263183594,0.10347360372543335
188,3,64,52,0.5460405945777893,0.19873858988285065
188,3,64,53,0.487077921628952,0.1324286162853241
188,3,64,54,0.4908546507358551,0.11770012974739075
188,3,64,55,0.5924031138420105,0.07206042110919952
188,3,64,56,0.3773132264614105,0.13408853113651276
188,3,64,57,0.4567692279815674,0.15137040615081787
188,3,64,58,0.46657586097717285,0.1441606730222702
188,3,64,59,0.5911026000976562,0.11411486566066742
188,3,64,60,0.4569602906703949,0.10725388675928116
188,3,64,61,0.44277051091194153,0.1788630336523056
188,3,64,62,0.48445916175842285,0.09669467806816101
188,3,64,63,0.4354657530784607,0.13526572287082672
188,4,128,0,0.513433039188385,0.18536876142024994
188,4,128,1,0.6396081447601318,0.0968494638800621
188,4,128,2,0.47735506296157837,0.08800981193780899
188,4,128,3,0.6796661019325256,0.10708989202976227
188,4,128,4,0.6105635166168213,0.17432713508605957
188,4,128,5,0.544291615486145,0.11676058918237686
188,4,128,6,0.34087932109832764,0.1365812122821808
188,4,128,7,0.5342119932174683,0.23039814829826355
188,4,128,8,0.40228667855262756,0.17085571587085724
188,4,128,9,0.33605143427848816,0.08474234491586685
188,4,128,10,0.5842135548591614,0.20744533836841583
188,4,128,11,0.5307061672210693,0.14452266693115234
188,4,128,12,0.5580798387527466,0.19443905353546143
188,4,128,13,0.3595742881298065,0.11280319839715958
188,4,128,14,0.7360734939575195,0.12256547808647156
188,4,128,15,0.32420462369918823,0.09581535309553146
188,4,128,16,0.4655225872993469,0.20145349204540253
188,4,128,17,0.6053687334060669,0.13649626076221466
188,4,128,18,0.47095468640327454,0.1489921361207962
188,4,128,19,0.4740784466266632,0.16243483126163483
188,4,128,20,0.5032368898391724,0.18479812145233154
188,4,128,21,0.607157826423645,0.12241819500923157
188,4,128,22,0.4416852295398712,0.1569243222475052
188,4,128,23,0.5664197206497192,0.08899495005607605
188,4,128,24,0.26484084129333496,0.10742265731096268
188,4,128,25,0.45433399081230164,0.10760970413684845
188,4,128,26,0.5669201612472534,0.17488454282283783
188,4,128,27,0.6332115530967712,0.14456671476364136
188,4,128,28,0.5842893123626709,0.09060665965080261
188,4,128,29,0.3883804380893707,0.08873549848794937
188,4,128,30,0.44781410694122314,0.24192959070205688
188,4,128,31,0.5902511477470398,0.12244915217161179
188,4,128,32,0.6025117039680481,0.11189480870962143
188,4,128,33,0.6102893948554993,0.11610545217990875
188,4,128,34,0.49858447909355164,0.104767806828022
188,4,128,35,0.5223914384841919,0.22158832848072052
188,4,128,36,0.46229425072669983,0.12637048959732056
188,4,128,37,0.4932190179824829,0.13104161620140076
188,4,128,38,0.5137284398078918,0.07098879665136337
188,4,128,39,0.5091995596885681,0.1745835691690445
188,4,128,40,0.5600537657737732,0.12207738310098648
188,4,128,41,0.5878565311431885,0.10168372839689255
188,4,128,42,0.5879735350608826,0.11589761823415756
188,4,128,43,0.502551257610321,0.23374396562576294
188,4,128,44,0.4933091998100281,0.08042749762535095
188,4,128,45,0.6801043152809143,0.11808770149946213
188,4,128,46,0.457252562046051,0.09139041602611542
188,4,128,47,0.6089157462120056,0.09431160241365433
188,4,128,48,0.5438224077224731,0.0982879251241684
188,4,128,49,0.387856125831604,0.22021517157554626
188,4,128,50,0.6549423933029175,0.09447158128023148
188,4,128,51,0.4011417031288147,0.10012013465166092
188,4,128,52,0.41872838139533997,0.2550101578235626
188,4,128,53,0.5404525399208069,0.07059551775455475
188,4,128,54,0.5651807188987732,0.06398181617259979
188,4,128,55,0.38667964935302734,0.07696544378995895
188,4,128,56,0.500784695148468,0.20541143417358398
188,4,128,57,0.39722850918769836,0.1331566572189331
188,4,128,58,0.45023980736732483,0.13449430465698242
188,4,128,59,0.47951018810272217,0.20316636562347412
188,4,128,60,0.49289003014564514,0.13514988124370575
188,4,128,61,0.5445796251296997,0.20563501119613647
188,4,128,62,0.5917152762413025,0.11135102808475494
188,4,128,63,0.5717727541923523,0.07325447350740433
188,4,128,64,0.4752846658229828,0.08412359654903412
188,4,128,65,0.6064956784248352,0.15239273011684418
188,4,128,66,0.43243134021759033,0.17338323593139648
188,4,128,67,0.48708340525627136,0.041724927723407745
188,4,128,68,0.370988130569458,0.07362645864486694
188,4,128,69,0.43510711193084717,0.19100147485733032
188,4,128,70,0.39838749170303345,0.10595392435789108
188,4,128,71,0.4086405634880066,0.21293747425079346
188,4,128,72,0.33829227089881897,0.15247517824172974
188,4,128,73,0.4243902564048767,0.17131495475769043
188,4,128,74,0.5285845398902893,0.19128639996051788
188,4,128,75,0.5290307402610779,0.22024990618228912
188,4,128,76,0.4221602976322174,0.09578178077936172
188,4,128,77,0.3549501895904541,0.1114823967218399
188,4,128,78,0.5063302516937256,0.03624690696597099
188,4,128,79,0.46571311354637146,0.11412666738033295
188,4,128,80,0.47201013565063477,0.17813637852668762
188,4,128,81,0.396968275308609,0.12413862347602844
188,4,128,82,0.42108169198036194,0.25373566150665283
188,4,128,83,0.49847692251205444,0.22581784427165985
188,4,128,84,0.46843603253364563,0.16403241455554962
188,4,128,85,0.48525574803352356,0.12359024584293365
188,4,128,86,0.6857016086578369,0.08579633384943008
188,4,128,87,0.4681621789932251,0.20383000373840332
188,4,128,88,0.5285202264785767,0.061689138412475586
188,4,128,89,0.5409876108169556,0.11218342185020447
188,4,128,90,0.42617493867874146,0.22078266739845276
188,4,128,91,0.42777448892593384,0.183490589261055
188,4,128,92,0.5113240480422974,0.18015067279338837
188,4,128,93,0.45540210604667664,0.2496945858001709
188,4,128,94,0.41054567694664,0.1823730170726776
188,4,128,95,0.535599410533905,0.1932447999715805
188,4,128,96,0.5170201063156128,0.1163119375705719
188,4,128,97,0.6018596887588501,0.0979313850402832
188,4,128,98,0.5686920285224915,0.1627456694841385
188,4,128,99,0.6168145537376404,0.22389495372772217
188,4,128,100,0.6675156354904175,0.10026939958333969
188,4,128,101,0.5215050578117371,0.12425316870212555
188,4,128,102,0.6039736270904541,0.09254664927721024
188,4,128,103,0.5206045508384705,0.13114400207996368
188,4,128,104,0.4054911434650421,0.06032842397689819
188,4,128,105,0.46563324332237244,0.08604937791824341
188,4,128,106,0.5411750674247742,0.14240698516368866
188,4,128,107,0.5494615435600281,0.2201644629240036
188,4,128,108,0.5097025036811829,0.1305212825536728
188,4,128,109,0.459857702255249,0.14011216163635254
188,4,128,110,0.6319697499275208,0.2017991691827774
188,4,128,111,0.4445001184940338,0.23285356163978577
188,4,128,112,0.4664682447910309,0.2211049199104309
188,4,128,113,0.4174269139766693,0.08760923147201538
188,4,128,114,0.4442238509654999,0.2275407314300537
188,4,128,115,0.460926353931427,0.18979324400424957
188,4,128,116,0.5616344213485718,0.04937431216239929
188,4,128,117,0.5037230253219604,0.041833944618701935
188,4,128,118,0.5160658359527588,0.15982629358768463
188,4,128,119,0.5313849449157715,0.20690222084522247
188,4,128,120,0.6525951027870178,0.08212428539991379
188,4,128,121,0.5593575835227966,0.15335781872272491
188,4,128,122,0.6176816821098328,0.12353000044822693
188,4,128,123,0.5587721467018127,0.08385049551725388
188,4,128,124,0.451699823141098,0.21356363594532013
188,4,128,125,0.5459933876991272,0.1818525791168213
188,4,128,126,0.5025177001953125,0.04180274158716202
188,4,128,127,0.48714151978492737,0.22867222130298615
188,5,128,0,0.7129071950912476,0.22038578987121582
188,5,128,1,0.2960568070411682,0.17151081562042236
188,5,128,2,0.377593070268631,0.17386171221733093
188,5,128,3,0.4195040464401245,0.09094265103340149
188,5,128,4,0.3357663154602051,0.1543664038181305
188,5,128,5,0.5816025733947754,0.22943906486034393
188,5,128,6,0.31972721219062805,0.2680685520172119
188,5,128,7,0.4277920722961426,0.2506120800971985
188,5,128,8,0.5548785924911499,0.11908929795026779
188,5,128,9,0.7106837630271912,0.10635211318731308
188,5,128,10,0.36769407987594604,0.10266544669866562
188,5,128,11,0.7300753593444824,0.10171518474817276
188,5,128,12,0.4945516586303711,0.19536758959293365
188,5,128,13,0.5322120189666748,0.15152309834957123
188,5,128,14,0.5241671800613403,0.09565528482198715
188,5,128,15,0.7536501288414001,0.11249300837516785
188,5,128,16,0.380662202835083,0.289935827255249
188,5,128,17,0.7567682862281799,0.14730285108089447
188,5,128,18,0.5610843896865845,0.11376266181468964
188,5,128,19,0.38869109749794006,0.24324989318847656
188,5,128,20,0.6668132543563843,0.11847260594367981
188,5,128,21,0.7590380311012268,0.1480574607849121
188,5,128,22,0.7010334730148315,0.1751849353313446
188,5,128,23,0.5948220491409302,0.14442597329616547
188,5,128,24,0.6838759779930115,0.16737300157546997
188,5,128,25,0.7546749711036682,0.10085150599479675
188,5,128,26,0.6803262829780579,0.14928428828716278
188,5,128,27,0.7766848802566528,0.11012396961450577
188,5,128,28,0.7107005715370178,0.18879787623882294
188,5,128,29,0.7506484985351562,0.1377442628145218
188,5,128,30,0.6421295404434204,0.29593122005462646
188,5,128,31,0.7368416786193848,0.13785256445407867
188,5,128,32,0.7301329970359802,0.09003081917762756
188,5,128,33,0.4279995560646057,0.2585783898830414
188,5,128,34,0.7068806886672974,0.10895293205976486
188,5,128,35,0.7345625162124634,0.16588662564754486
188,5,128,36,0.6547665596008301,0.08293861150741577
188,5,128,37,0.3653185963630676,0.2456742376089096
188,5,128,38,0.4058591425418854,0.2725573182106018
188,5,128,39,0.4037141501903534,0.28300875425338745
188,5,128,40,0.5158988833427429,0.1298084408044815
188,5,128,41,0.7186955213546753,0.19223029911518097
188,5,128,42,0.4576753079891205,0.13578180968761444
188,5,128,43,0.7217907905578613,0.1823289841413498
188,5,128,44,0.5209925174713135,0.16044071316719055
188,5,128,45,0.3480898439884186,0.10175765305757523
188,5,128,46,0.39696601033210754,0.14174000918865204
188,5,128,47,0.3538069725036621,0.09380301088094711
188,5,128,48,0.6307429671287537,0.13875114917755127
188,5,128,49,0.584693431854248,0.20522846281528473
188,5,128,50,0.7017189860343933,0.09135714918375015
188,5,128,51,0.7072141766548157,0.14294901490211487
188,5,128,52,0.7508702278137207,0.166282519698143
188,5,128,53,0.5813575983047485,0.14371855556964874
188,5,128,54,0.4278070330619812,0.23602677881717682
188,5,128,55,0.574139416217804,0.23387135565280914
188,5,128,56,0.42972221970558167,0.17905563116073608
188,5,128,57,0.46980711817741394,0.11008145660161972
188,5,128,58,0.42665109038352966,0.08440756052732468
188,5,128,59,0.7061000466346741,0.2300596386194229
188,5,128,60,0.5851844549179077,0.1524738222360611
188,5,128,61,0.7174578905105591,0.11888525635004044
188,5,128,62,0.7143593430519104,0.13981381058692932
188,5,128,63,0.65523362159729,0.2342827022075653
188,5,128,64,0.6419275403022766,0.11478028446435928
188,5,128,65,0.45938199758529663,0.10804495960474014
188,5,128,66,0.6815782189369202,0.13901160657405853
188,5,128,67,0.661636233329773,0.18566930294036865
188,5,128,68,0.5236545205116272,0.03003573976457119
188,5,128,69,0.7039504647254944,0.17636607587337494
188,5,128,70,0.6130070090293884,0.13038313388824463
188,5,128,71,0.597436249256134,0.14890776574611664
188,5,128,72,0.6470702886581421,0.07026249170303345
188,5,128,73,0.7950416207313538,0.12094825506210327
188,5,128,74,0.5052762627601624,0.1811046600341797
188,5,128,75,0.6733494400978088,0.160557821393013
188,5,128,76,0.642828106880188,0.18213139474391937
188,5,128,77,0.6692083477973938,0.26618409156799316
188,5,128,78,0.7201061248779297,0.14080552756786346
188,5,128,79,0.6733207702636719,0.0934610664844513
188,5,128,80,0.7005416750907898,0.23302501440048218
188,5,128,81,0.6798192262649536,0.08860286325216293
188,5,128,82,0.7144354581832886,0.23727771639823914
188,5,128,83,0.6471453309059143,0.20347261428833008
188,5,128,84,0.7035843133926392,0.11224775016307831
188,5,128,85,0.5092424750328064,0.1656080186367035
188,5,128,86,0.39655572175979614,0.15309447050094604
188,5,128,87,0.5377081036567688,0.12374743819236755
188,5,128,88,0.52064049243927,0.15585726499557495
188,5,128,89,0.6174373626708984,0.09624362736940384
188,5,128,90,0.7063938975334167,0.1977909952402115
188,5,128,91,0.6219252943992615,0.2759789526462555
188,5,128,92,0.6417436599731445,0.08918053656816483
188,5,128,93,0.4144483804702759,0.11427414417266846
188,5,128,94,0.5386180281639099,0.06331536918878555
188,5,128,95,0.6535114049911499,0.16459105908870697
188,5,128,96,0.41383886337280273,0.2547997534275055
188,5,128,97,0.5773451924324036,0.1555527299642563
188,5,128,98,0.4114105999469757,0.25855979323387146
188,5,128,99,0.4860081076622009,0.18843859434127808
188,5,128,100,0.7421630620956421,0.14635837078094482
188,5,128,101,0.4893290102481842,0.08844370394945145
188,5,128,102,0.6686586141586304,0.17830784618854523
188,5,128,103,0.3991589844226837,0.17096301913261414
188,5,128,104,0.6988876461982727,0.10785133391618729
188,5,128,105,0.5649448037147522,0.17822447419166565
188,5,128,106,0.5738276839256287,0.14202344417572021
188,5,128,107,0.7843436598777771,0.1293633133172989
188,5,128,108,0.7220590710639954,0.1270020306110382
188,5,128,109,0.6753207445144653,0.1485435515642166
188,5,128,110,0.4002551734447479,0.19701282680034637
188,5,128,111,0.7518891096115112,0.1934366524219513
188,5,128,112,0.632401168346405,0.10622131079435349
188,5,128,113,0.6152545809745789,0.11500095576047897
188,5,128,114,0.6384479999542236,0.12238830327987671
188,5,128,115,0.7649112939834595,0.14655722677707672
188,5,128,116,0.7403144240379333,0.16929852962493896
188,5,128,117,0.7785789370536804,0.1407802402973175
188,5,128,118,0.40645501017570496,0.2049240618944168
188,5,128,119,0.6289428472518921,0.23192986845970154
188,5,128,120,0.41883209347724915,0.24676929414272308
188,5,128,121,0.2804166376590729,0.14108425378799438
188,5,128,122,0.43500426411628723,0.07510524988174438
188,5,128,123,0.5733193159103394,0.11415889859199524
188,5,128,124,0.7268438339233398,0.15109755098819733
188,5,128,125,0.6174065470695496,0.1338721215724945
188,5,128,126,0.3971518874168396,0.16765955090522766
188,5,128,127,0.7453275322914124,0.18247638642787933
189,0,32,0,0.5254651308059692,0.04051683470606804
189,0,32,1,0.5495418310165405,0.10062555968761444
189,0,32,2,0.33823248744010925,0.08913987129926682
189,0,32,3,0.26419350504875183,0.057464394718408585
189,0,32,4,0.32740291953086853,0.05734487250447273
189,0,32,5,0.6565567255020142,0.06265143305063248
189,0,32,6,0.4034789204597473,0.07289634644985199
189,0,32,7,0.43260958790779114,0.08665881305932999
189,0,32,8,0.3264559209346771,0.062184080481529236
189,0,32,9,0.34025606513023376,0.15622611343860626
189,0,32,10,0.3134968876838684,0.034105412662029266
189,0,32,11,0.4399482011795044,0.07812584936618805
189,0,32,12,0.6302846074104309,0.06694425642490387
189,0,32,13,0.4864269196987152,0.06267095357179642
189,0,32,14,0.44358280301094055,0.1338881552219391
189,0,32,15,0.46454116702079773,0.08295278251171112
189,0,32,16,0.581828236579895,0.09141753613948822
189,0,32,17,0.6114902496337891,0.08748354017734528
189,0,32,18,0.38901081681251526,0.02824188582599163
189,0,32,19,0.37901610136032104,0.07304609566926956
189,0,32,20,0.49795350432395935,0.11691190302371979
189,0,32,21,0.4977717697620392,0.1434006690979004
189,0,32,22,0.5706283450126648,0.028774315491318703
189,0,32,23,0.4361395537853241,0.09261127561330795
189,0,32,24,0.535129725933075,0.06771070510149002
189,0,32,25,0.4438875615596771,0.10318652540445328
189,0,32,26,0.6496015191078186,0.11651508510112762
189,0,32,27,0.5086811184883118,0.07426563650369644
189,0,32,28,0.4363519847393036,0.04869399219751358
189,0,32,29,0.5935556888580322,0.07747732102870941
189,0,32,30,0.44570907950401306,0.06733840703964233
189,0,32,31,0.34726202487945557,0.10146822035312653
189,1,32,0,0.2980216145515442,0.07927282899618149
189,1,32,1,0.3760063350200653,0.18474078178405762
189,1,32,2,0.4108339250087738,0.16818754374980927
189,1,32,3,0.5899683833122253,0.11577054113149643
189,1,32,4,0.35585641860961914,0.11646207422018051
189,1,32,5,0.317830890417099,0.08446403592824936
189,1,32,6,0.4921140670776367,0.14429989457130432
189,1,32,7,0.4174940288066864,0.15938293933868408
189,1,32,8,0.40427103638648987,0.08154086023569107
189,1,32,9,0.619211733341217,0.1621030867099762
189,1,32,10,0.40830326080322266,0.15400491654872894
189,1,32,11,0.310941219329834,0.16286703944206238
189,1,32,12,0.4359510540962219,0.050809603184461594
189,1,32,13,0.48780521750450134,0.17788007855415344
189,1,32,14,0.4620444178581238,0.09729621559381485
189,1,32,15,0.5221254229545593,0.09945619851350784
189,1,32,16,0.4872104227542877,0.12588836252689362
189,1,32,17,0.4846700131893158,0.0668000876903534
189,1,32,18,0.5577992796897888,0.10613788664340973
189,1,32,19,0.40360087156295776,0.13433493673801422
189,1,32,20,0.39463311433792114,0.16162195801734924
189,1,32,21,0.48047173023223877,0.13315074145793915
189,1,32,22,0.3448208272457123,0.144936665892601
189,1,32,23,0.5036967396736145,0.07847464829683304
189,1,32,24,0.5529560446739197,0.07487301528453827
189,1,32,25,0.4723101854324341,0.1468130201101303
189,1,32,26,0.3534192144870758,0.05128251016139984
189,1,32,27,0.471899151802063,0.15692666172981262
189,1,32,28,0.3825554847717285,0.13529552519321442
189,1,32,29,0.4515697956085205,0.22867242991924286
189,1,32,30,0.58773273229599,0.19195176661014557
189,1,32,31,0.5093837380409241,0.18208597600460052
189,2,64,0,0.5459559559822083,0.16226671636104584
189,2,64,1,0.5587257742881775,0.0667809247970581
189,2,64,2,0.41455113887786865,0.10502726584672928
189,2,64,3,0.3242581784725189,0.19692030549049377
189,2,64,4,0.4390373229980469,0.10823479294776917
189,2,64,5,0.5871464014053345,0.14968475699424744
189,2,64,6,0.49091005325317383,0.04723750427365303
189,2,64,7,0.39391061663627625,0.09021623432636261
189,2,64,8,0.5331278443336487,0.17908407747745514
189,2,64,9,0.5519163608551025,0.2505013346672058
189,2,64,10,0.41876524686813354,0.16803663969039917
189,2,64,11,0.4499632716178894,0.05953375622630119
189,2,64,12,0.3535013496875763,0.15509456396102905
189,2,64,13,0.5975867509841919,0.09388221055269241
189,2,64,14,0.5371585488319397,0.192746102809906
189,2,64,15,0.45136576890945435,0.1408247947692871
189,2,64,16,0.5122238993644714,0.13512694835662842
189,2,64,17,0.6207424402236938,0.15980881452560425
189,2,64,18,0.550883948802948,0.10227745026350021
189,2,64,19,0.44898730516433716,0.28237447142601013
189,2,64,20,0.5793200135231018,0.0922073945403099
189,2,64,21,0.5741257071495056,0.1916247010231018
189,2,64,22,0.538623571395874,0.06435271352529526
189,2,64,23,0.3137444257736206,0.12074041366577148
189,2,64,24,0.40172645449638367,0.1867537945508957
189,2,64,25,0.46658653020858765,0.28220367431640625
189,2,64,26,0.32504981756210327,0.1514793485403061
189,2,64,27,0.5330505967140198,0.12662449479103088
189,2,64,28,0.5984221696853638,0.25185635685920715
189,2,64,29,0.43686729669570923,0.12161293625831604
189,2,64,30,0.5679784417152405,0.16189026832580566
189,2,64,31,0.3019896447658539,0.09328632056713104
189,2,64,32,0.37809187173843384,0.1267797350883484
189,2,64,33,0.41858014464378357,0.08149509876966476
189,2,64,34,0.45954832434654236,0.13721789419651031
189,2,64,35,0.38395634293556213,0.08608262985944748
189,2,64,36,0.476662278175354,0.13934767246246338
189,2,64,37,0.5656945705413818,0.06819428503513336
189,2,64,38,0.48462361097335815,0.18156370520591736
189,2,64,39,0.4842546582221985,0.12938052415847778
189,2,64,40,0.4604713022708893,0.216721773147583
189,2,64,41,0.41540244221687317,0.11273729801177979
189,2,64,42,0.5161110162734985,0.2500036656856537
189,2,64,43,0.5219904780387878,0.24781733751296997
189,2,64,44,0.3893626630306244,0.1496226042509079
189,2,64,45,0.5807122588157654,0.23110470175743103
189,2,64,46,0.5371897220611572,0.21058371663093567
189,2,64,47,0.40689489245414734,0.12495080381631851
189,2,64,48,0.6450176239013672,0.2671034336090088
189,2,64,49,0.46124792098999023,0.06698444485664368
189,2,64,50,0.5867271423339844,0.1889140009880066
189,2,64,51,0.3553248941898346,0.18909059464931488
189,2,64,52,0.41759607195854187,0.22594799101352692
189,2,64,53,0.513584315776825,0.22208546102046967
189,2,64,54,0.5549622178077698,0.10871317237615585
189,2,64,55,0.41499966382980347,0.18636852502822876
189,2,64,56,0.5347389578819275,0.12872949242591858
189,2,64,57,0.49877890944480896,0.20437675714492798
189,2,64,58,0.40588071942329407,0.16570140421390533
189,2,64,59,0.5341970324516296,0.06283551454544067
189,2,64,60,0.5864726305007935,0.10561960190534592
189,2,64,61,0.41193026304244995,0.15963663160800934
189,2,64,62,0.6310390830039978,0.10950301587581635
189,2,64,63,0.6853891611099243,0.15673424303531647
189,3,64,0,0.48932403326034546,0.17980575561523438
189,3,64,1,0.4330005347728729,0.08582499623298645
189,3,64,2,0.6015130281448364,0.04236537590622902
189,3,64,3,0.6424587965011597,0.07099869847297668
189,3,64,4,0.5015990734100342,0.18559370934963226
189,3,64,5,0.4991823434829712,0.07301777601242065
189,3,64,6,0.5830203294754028,0.15793076157569885
189,3,64,7,0.43875858187675476,0.2267773598432541
189,3,64,8,0.4813394248485565,0.06902890652418137
189,3,64,9,0.45945170521736145,0.07135114818811417
189,3,64,10,0.44641560316085815,0.13306927680969238
189,3,64,11,0.6737167835235596,0.09183821827173233
189,3,64,12,0.4134123623371124,0.20891578495502472
189,3,64,13,0.37153857946395874,0.13116447627544403
189,3,64,14,0.42733266949653625,0.16078494489192963
189,3,64,15,0.6394147872924805,0.07757898420095444
189,3,64,16,0.6318545937538147,0.15767228603363037
189,3,64,17,0.5112279653549194,0.08130669593811035
189,3,64,18,0.46606743335723877,0.07560334354639053
189,3,64,19,0.5880711078643799,0.12362554669380188
189,3,64,20,0.5574226975440979,0.1375480592250824
189,3,64,21,0.47129738330841064,0.11252813786268234
189,3,64,22,0.4651096761226654,0.17186321318149567
189,3,64,23,0.48536813259124756,0.15105658769607544
189,3,64,24,0.5754784345626831,0.1288382112979889
189,3,64,25,0.45801353454589844,0.14547936618328094
189,3,64,26,0.552962601184845,0.1267755776643753
189,3,64,27,0.6030515432357788,0.06654771417379379
189,3,64,28,0.7167361378669739,0.08761195838451385
189,3,64,29,0.6655299663543701,0.10615909099578857
189,3,64,30,0.6006513833999634,0.08529230207204819
189,3,64,31,0.4558958411216736,0.1916385293006897
189,3,64,32,0.48949578404426575,0.10245370119810104
189,3,64,33,0.5126903057098389,0.0870400071144104
189,3,64,34,0.49934932589530945,0.08430930227041245
189,3,64,35,0.37801897525787354,0.04545728489756584
189,3,64,36,0.3890562653541565,0.16073846817016602
189,3,64,37,0.5323440432548523,0.06982076913118362
189,3,64,38,0.3850483000278473,0.11205514520406723
189,3,64,39,0.5870029330253601,0.08286993205547333
189,3,64,40,0.6703415513038635,0.11684630066156387
189,3,64,41,0.47497713565826416,0.05939805507659912
189,3,64,42,0.38276663422584534,0.15386420488357544
189,3,64,43,0.45042312145233154,0.13160566985607147
189,3,64,44,0.5269771218299866,0.18962712585926056
189,3,64,45,0.4579196572303772,0.19402679800987244
189,3,64,46,0.5908825397491455,0.20331916213035583
189,3,64,47,0.46324318647384644,0.07639101147651672
189,3,64,48,0.5769066214561462,0.23580089211463928
189,3,64,49,0.4973791837692261,0.11717004328966141
189,3,64,50,0.5977514386177063,0.1831769198179245
189,3,64,51,0.41395479440689087,0.1643664687871933
189,3,64,52,0.4531702697277069,0.2264333963394165
189,3,64,53,0.4691975712776184,0.1721312552690506
189,3,64,54,0.5910463929176331,0.114129438996315
189,3,64,55,0.5409305095672607,0.1371804028749466
189,3,64,56,0.6311002373695374,0.1494552493095398
189,3,64,57,0.4558229148387909,0.06123955175280571
189,3,64,58,0.4042859673500061,0.14130552113056183
189,3,64,59,0.6446754336357117,0.13716240227222443
189,3,64,60,0.5202276110649109,0.14260630309581757
189,3,64,61,0.5846375823020935,0.16324612498283386
189,3,64,62,0.4288867115974426,0.11811522394418716
189,3,64,63,0.6935966610908508,0.08865484595298767
189,4,128,0,0.6725294589996338,0.23449775576591492
189,4,128,1,0.44450217485427856,0.14009281992912292
189,4,128,2,0.528834879398346,0.11920511722564697
189,4,128,3,0.5777220726013184,0.16487877070903778
189,4,128,4,0.49345219135284424,0.18454469740390778
189,4,128,5,0.5413691997528076,0.16402772068977356
189,4,128,6,0.39578261971473694,0.1362009048461914
189,4,128,7,0.43308138847351074,0.10341258347034454
189,4,128,8,0.6073697209358215,0.2317240983247757
189,4,128,9,0.4149395227432251,0.1291651874780655
189,4,128,10,0.5615983605384827,0.2572428286075592
189,4,128,11,0.4123542010784149,0.18529091775417328
189,4,128,12,0.4527778625488281,0.20244356989860535
189,4,128,13,0.6561769843101501,0.19456660747528076
189,4,128,14,0.44972744584083557,0.2575887441635132
189,4,128,15,0.4386545419692993,0.17994184792041779
189,4,128,16,0.6952212452888489,0.0950968787074089
189,4,128,17,0.4872937798500061,0.14959727227687836
189,4,128,18,0.6156673431396484,0.14018402993679047
189,4,128,19,0.3701196312904358,0.14810557663440704
189,4,128,20,0.7258234024047852,0.08711712062358856
189,4,128,21,0.5810024738311768,0.21112143993377686
189,4,128,22,0.36211106181144714,0.22495077550411224
189,4,128,23,0.526084840297699,0.12455808371305466
189,4,128,24,0.42681068181991577,0.17570529878139496
189,4,128,25,0.6814965009689331,0.21110886335372925
189,4,128,26,0.5072585940361023,0.1228829175233841
189,4,128,27,0.5896798968315125,0.12832272052764893
189,4,128,28,0.4849705100059509,0.13124103844165802
189,4,128,29,0.593424916267395,0.2350291609764099
189,4,128,30,0.6223803758621216,0.22970998287200928
189,4,128,31,0.6020197868347168,0.1952245831489563
189,4,128,32,0.38976630568504333,0.23707379400730133
189,4,128,33,0.5508595705032349,0.11605655401945114
189,4,128,34,0.6590402126312256,0.21553562581539154
189,4,128,35,0.4714537560939789,0.1054171621799469
189,4,128,36,0.4558914601802826,0.28561970591545105
189,4,128,37,0.490425705909729,0.22493955492973328
189,4,128,38,0.7237722873687744,0.13652750849723816
189,4,128,39,0.42933106422424316,0.23425142467021942
189,4,128,40,0.5647746324539185,0.11244770139455795
189,4,128,41,0.6534236669540405,0.21000075340270996
189,4,128,42,0.5923576354980469,0.1889212280511856
189,4,128,43,0.40142741799354553,0.14601674675941467
189,4,128,44,0.5216079950332642,0.23194576799869537
189,4,128,45,0.5566627979278564,0.2483290582895279
189,4,128,46,0.5621611475944519,0.1892138421535492
189,4,128,47,0.7243444323539734,0.1859266310930252
189,4,128,48,0.5731547474861145,0.18124981224536896
189,4,128,49,0.7537627816200256,0.09315076470375061
189,4,128,50,0.5168592929840088,0.1675734668970108
189,4,128,51,0.3208613097667694,0.14032737910747528
189,4,128,52,0.45585596561431885,0.1475275456905365
189,4,128,53,0.5362247824668884,0.2286570519208908
189,4,128,54,0.3430089056491852,0.20352405309677124
189,4,128,55,0.5688382983207703,0.08833213895559311
189,4,128,56,0.34431198239326477,0.13703395426273346
189,4,128,57,0.42146727442741394,0.14920833706855774
189,4,128,58,0.3765868544578552,0.1731395423412323
189,4,128,59,0.6913898587226868,0.12712743878364563
189,4,128,60,0.4973941147327423,0.1100236028432846
189,4,128,61,0.5782876014709473,0.16432832181453705
189,4,128,62,0.6276026368141174,0.24693280458450317
189,4,128,63,0.5098851919174194,0.29498589038848877
189,4,128,64,0.660111665725708,0.15042579174041748
189,4,128,65,0.6570348143577576,0.11488939076662064
189,4,128,66,0.46670961380004883,0.1329021453857422
189,4,128,67,0.4498710632324219,0.20013493299484253
189,4,128,68,0.3481557369232178,0.17237722873687744
189,4,128,69,0.5287743806838989,0.2095949500799179
189,4,128,70,0.5816081166267395,0.0977763831615448
189,4,128,71,0.4545826017856598,0.14769285917282104
189,4,128,72,0.5360968708992004,0.22439223527908325
189,4,128,73,0.6187683343887329,0.21470463275909424
189,4,128,74,0.40495333075523376,0.200242280960083
189,4,128,75,0.6462037563323975,0.23910820484161377
189,4,128,76,0.31654709577560425,0.2639535069465637
189,4,128,77,0.4406988024711609,0.2015344649553299
189,4,128,78,0.5229859352111816,0.1753152757883072
189,4,128,79,0.4507116973400116,0.24385978281497955
189,4,128,80,0.44249218702316284,0.13089485466480255
189,4,128,81,0.41333818435668945,0.09021846204996109
189,4,128,82,0.6427688598632812,0.1681632548570633
189,4,128,83,0.3484077751636505,0.2462601214647293
189,4,128,84,0.563412606716156,0.06267049908638
189,4,128,85,0.4212545156478882,0.12578774988651276
189,4,128,86,0.6479464173316956,0.23745712637901306
189,4,128,87,0.5150502324104309,0.16092756390571594
189,4,128,88,0.45982441306114197,0.15322786569595337
189,4,128,89,0.6363814473152161,0.21240970492362976
189,4,128,90,0.5042322874069214,0.1880619078874588
189,4,128,91,0.5375155210494995,0.141715407371521
189,4,128,92,0.6233640909194946,0.16324348747730255
189,4,128,93,0.6018290519714355,0.2337186336517334
189,4,128,94,0.49520614743232727,0.15425388514995575
189,4,128,95,0.599739134311676,0.1297421008348465
189,4,128,96,0.6488291621208191,0.2011515349149704
189,4,128,97,0.668681263923645,0.1621330976486206
189,4,128,98,0.6916245818138123,0.13290366530418396
189,4,128,99,0.8097772002220154,0.10117272287607193
189,4,128,100,0.641032338142395,0.12673631310462952
189,4,128,101,0.5229003429412842,0.17770648002624512
189,4,128,102,0.6594731211662292,0.08964326232671738
189,4,128,103,0.4177378714084625,0.1693050116300583
189,4,128,104,0.3270237147808075,0.19533959031105042
189,4,128,105,0.6747931838035583,0.129032164812088
189,4,128,106,0.5742276906967163,0.0878862589597702
189,4,128,107,0.4092260003089905,0.12534885108470917
189,4,128,108,0.7643419504165649,0.11602192372083664
189,4,128,109,0.4913935661315918,0.1716163456439972
189,4,128,110,0.4436080753803253,0.1328941285610199
189,4,128,111,0.6371410489082336,0.08596395701169968
189,4,128,112,0.5260938405990601,0.21914193034172058
189,4,128,113,0.64722740650177,0.2420671135187149
189,4,128,114,0.6131322979927063,0.11564101278781891
189,4,128,115,0.4466188848018646,0.0939447432756424
189,4,128,116,0.30111661553382874,0.09327446669340134
189,4,128,117,0.5511137247085571,0.1470855176448822
189,4,128,118,0.5459945201873779,0.2280731052160263
189,4,128,119,0.6450440287590027,0.22698576748371124
189,4,128,120,0.7262376546859741,0.0929689034819603
189,4,128,121,0.5141183733940125,0.13065508008003235
189,4,128,122,0.45266789197921753,0.14329102635383606
189,4,128,123,0.38084056973457336,0.24617138504981995
189,4,128,124,0.704153299331665,0.13070814311504364
189,4,128,125,0.5551373958587646,0.17494875192642212
189,4,128,126,0.4841364622116089,0.18496502935886383
189,4,128,127,0.42686718702316284,0.23987674713134766
189,5,128,0,0.7470325827598572,0.15598419308662415
189,5,128,1,0.4685620665550232,0.28906288743019104
189,5,128,2,0.7741358280181885,0.10475854575634003
189,5,128,3,0.8055824637413025,0.12382311373949051
189,5,128,4,0.6772517561912537,0.11858909577131271
189,5,128,5,0.6693116426467896,0.14558899402618408
189,5,128,6,0.5499545335769653,0.20193569362163544
189,5,128,7,0.7122925519943237,0.18246664106845856
189,5,128,8,0.8049912452697754,0.12111973017454147
189,5,128,9,0.5937764048576355,0.17511099576950073
189,5,128,10,0.8552559018135071,0.09228699654340744
189,5,128,11,0.6425049304962158,0.06800824403762817
189,5,128,12,0.6566087603569031,0.30818936228752136
189,5,128,13,0.7638715505599976,0.16254651546478271
189,5,128,14,0.8430794477462769,0.11398504674434662
189,5,128,15,0.715081512928009,0.14977838099002838
189,5,128,16,0.704310417175293,0.10070209950208664
189,5,128,17,0.2884972095489502,0.16795994341373444
189,5,128,18,0.6388499140739441,0.20593386888504028
189,5,128,19,0.7667280435562134,0.10075350105762482
189,5,128,20,0.8121717572212219,0.10258447378873825
189,5,128,21,0.7337274551391602,0.13538949191570282
189,5,128,22,0.4916679561138153,0.33242669701576233
189,5,128,23,0.740776777267456,0.226872518658638
189,5,128,24,0.7945564985275269,0.12373659759759903
189,5,128,25,0.8233067393302917,0.14850842952728271
189,5,128,26,0.7311950922012329,0.15693268179893494
189,5,128,27,0.2831866443157196,0.16612659394741058
189,5,128,28,0.6581836342811584,0.17727142572402954
189,5,128,29,0.5322343707084656,0.14663709700107574
189,5,128,30,0.4860890507698059,0.16667446494102478
189,5,128,31,0.589201033115387,0.2138567566871643
189,5,128,32,0.6414907574653625,0.22401611506938934
189,5,128,33,0.6300956010818481,0.1903158575296402
189,5,128,34,0.8361669182777405,0.11849182099103928
189,5,128,35,0.6252272725105286,0.213401198387146
189,5,128,36,0.3458540737628937,0.18929167091846466
189,5,128,37,0.8056820034980774,0.15706154704093933
189,5,128,38,0.7255068421363831,0.20343251526355743
189,5,128,39,0.638262927532196,0.26305896043777466
189,5,128,40,0.6466082334518433,0.13334563374519348
189,5,128,41,0.7014734745025635,0.20900054275989532
189,5,128,42,0.5802903175354004,0.26618093252182007
189,5,128,43,0.689180314540863,0.1831662356853485
189,5,128,44,0.7562952637672424,0.25115877389907837
189,5,128,45,0.5163663625717163,0.2404492050409317
189,5,128,46,0.798597514629364,0.11312466114759445
189,5,128,47,0.8252780437469482,0.10997370630502701
189,5,128,48,0.6698098182678223,0.1972086876630783
189,5,128,49,0.7473657727241516,0.09670327603816986
189,5,128,50,0.6090818047523499,0.2385411262512207
189,5,128,51,0.8319696187973022,0.10313526540994644
189,5,128,52,0.512525737285614,0.2671520709991455
189,5,128,53,0.7861248254776001,0.07311840355396271
189,5,128,54,0.522205114364624,0.28308171033859253
189,5,128,55,0.7363594770431519,0.14018815755844116
189,5,128,56,0.470905601978302,0.26057207584381104
189,5,128,57,0.8229227662086487,0.1085233986377716
189,5,128,58,0.7782314419746399,0.1524323672056198
189,5,128,59,0.7866019606590271,0.08045405894517899
189,5,128,60,0.814463198184967,0.13386286795139313
189,5,128,61,0.8312559127807617,0.18519625067710876
189,5,128,62,0.7347944974899292,0.27521294355392456
189,5,128,63,0.8248342871665955,0.10350741446018219
189,5,128,64,0.8539316058158875,0.09408659487962723
189,5,128,65,0.732107937335968,0.17465955018997192
189,5,128,66,0.7059541940689087,0.1322290599346161
189,5,128,67,0.7304682731628418,0.13369868695735931
189,5,128,68,0.5128985047340393,0.318747878074646
189,5,128,69,0.7224586606025696,0.19344864785671234
189,5,128,70,0.510998547077179,0.2454148381948471
189,5,128,71,0.7842185497283936,0.10604217648506165
189,5,128,72,0.8314233422279358,0.10259725898504257
189,5,128,73,0.7557053565979004,0.1823563128709793
189,5,128,74,0.7348182201385498,0.1468118280172348
189,5,128,75,0.7456570267677307,0.2248089611530304
189,5,128,76,0.6354923844337463,0.13289853930473328
189,5,128,77,0.6836687326431274,0.18421362340450287
189,5,128,78,0.6850989460945129,0.17832423746585846
189,5,128,79,0.6952390074729919,0.21428042650222778
189,5,128,80,0.7959680557250977,0.1044025719165802
189,5,128,81,0.565539538860321,0.17882148921489716
189,5,128,82,0.6265433430671692,0.3587576746940613
189,5,128,83,0.6396861672401428,0.1060301810503006
189,5,128,84,0.6989830732345581,0.14324058592319489
189,5,128,85,0.33742544054985046,0.22029589116573334
189,5,128,86,0.569298505783081,0.2825050354003906
189,5,128,87,0.48537182807922363,0.13675886392593384
189,5,128,88,0.3781301975250244,0.26269322633743286
189,5,128,89,0.6968410611152649,0.20175985991954803
189,5,128,90,0.7053428888320923,0.1889497935771942
189,5,128,91,0.6550770401954651,0.18645121157169342
189,5,128,92,0.34282296895980835,0.2724554240703583
189,5,128,93,0.7979514598846436,0.12641961872577667
189,5,128,94,0.6521116495132446,0.12146340310573578
189,5,128,95,0.745241105556488,0.13122965395450592
189,5,128,96,0.44338682293891907,0.08650722354650497
189,5,128,97,0.7789581418037415,0.13907164335250854
189,5,128,98,0.6899124383926392,0.2330123335123062
189,5,128,99,0.6989993453025818,0.2781984210014343
189,5,128,100,0.7051029205322266,0.1438301056623459
189,5,128,101,0.5930901169776917,0.1641744077205658
189,5,128,102,0.51082843542099,0.2384323626756668
189,5,128,103,0.6939772963523865,0.1771228164434433
189,5,128,104,0.34816670417785645,0.07910515367984772
189,5,128,105,0.7369920015335083,0.15274439752101898
189,5,128,106,0.8201689720153809,0.11809498816728592
189,5,128,107,0.7395763993263245,0.14705879986286163
189,5,128,108,0.5069795846939087,0.2568344473838806
189,5,128,109,0.7695437669754028,0.16439765691757202
189,5,128,110,0.8391008973121643,0.08498267084360123
189,5,128,111,0.7430673241615295,0.164004847407341
189,5,128,112,0.7685761451721191,0.17752771079540253
189,5,128,113,0.641316294670105,0.31436601281166077
189,5,128,114,0.6338673233985901,0.18006813526153564
189,5,128,115,0.8348212242126465,0.10588289797306061
189,5,128,116,0.4995013475418091,0.2947831451892853
189,5,128,117,0.800227165222168,0.08817435801029205
189,5,128,118,0.5640973448753357,0.20536158978939056
189,5,128,119,0.6776732206344604,0.23583228886127472
189,5,128,120,0.6565543413162231,0.20703914761543274
189,5,128,121,0.6007552742958069,0.16596435010433197
189,5,128,122,0.7338240146636963,0.26688849925994873
189,5,128,123,0.49234139919281006,0.21185170114040375
189,5,128,124,0.7949104309082031,0.147878497838974
189,5,128,125,0.6969554424285889,0.19985702633857727
189,5,128,126,0.7721042037010193,0.1224876195192337
189,5,128,127,0.26515451073646545,0.2174626737833023
190,0,32,0,0.49347272515296936,0.023197762668132782
190,0,32,1,0.6578180193901062,0.10932908207178116
190,0,32,2,0.4847353398799896,0.13264299929141998
190,0,32,3,0.4302836060523987,0.11103112995624542
190,0,32,4,0.3966206908226013,0.09599536657333374
190,0,32,5,0.5182020664215088,0.10214933007955551
190,0,32,6,0.3858430087566376,0.03989923745393753
190,0,32,7,0.4672192633152008,0.13065125048160553
190,0,32,8,0.45216354727745056,0.05561632290482521
190,0,32,9,0.4011767506599426,0.09250391274690628
190,0,32,10,0.444439560174942,0.03425528109073639
190,0,32,11,0.4886428415775299,0.08305639028549194
190,0,32,12,0.3687334656715393,0.047836799174547195
190,0,32,13,0.624930202960968,0.11185108125209808
190,0,32,14,0.47701284289360046,0.107561394572258
190,0,32,15,0.5386187434196472,0.03618767857551575
190,0,32,16,0.5183055400848389,0.0995115265250206
190,0,32,17,0.4203217625617981,0.04645498842000961
190,0,32,18,0.4966808259487152,0.12131935358047485
190,0,32,19,0.33429890871047974,0.09111735224723816
190,0,32,20,0.47400444746017456,0.09541349112987518
190,0,32,21,0.6405696868896484,0.12072627991437912
190,0,32,22,0.5848191380500793,0.039269398897886276
190,0,32,23,0.3626478612422943,0.11466562002897263
190,0,32,24,0.4489888846874237,0.06357783824205399
190,0,32,25,0.4983006715774536,0.0880056619644165
190,0,32,26,0.6053497195243835,0.08591698855161667
190,0,32,27,0.42423564195632935,0.03282409906387329
190,0,32,28,0.6053136587142944,0.10514923185110092
190,0,32,29,0.4228796362876892,0.06256230175495148
190,0,32,30,0.39046770334243774,0.08578453958034515
190,0,32,31,0.5926079750061035,0.0321214459836483
190,1,32,0,0.46701809763908386,0.11877292394638062
190,1,32,1,0.6673873662948608,0.10832148790359497
190,1,32,2,0.45679399371147156,0.02021181955933571
190,1,32,3,0.5034856200218201,0.0876544713973999
190,1,32,4,0.5555744767189026,0.04181867465376854
190,1,32,5,0.5526392459869385,0.029377581551671028
190,1,32,6,0.408590704202652,0.024916337803006172
190,1,32,7,0.3639785945415497,0.05239308625459671
190,1,32,8,0.5220475792884827,0.031190432608127594
190,1,32,9,0.560640811920166,0.10926149785518646
190,1,32,10,0.432832270860672,0.17863024771213531
190,1,32,11,0.6997695565223694,0.1210092157125473
190,1,32,12,0.3729923367500305,0.07117855548858643
190,1,32,13,0.34204283356666565,0.09172311425209045
190,1,32,14,0.565406322479248,0.08873407542705536
190,1,32,15,0.6392025351524353,0.12665732204914093
190,1,32,16,0.5948035717010498,0.036395009607076645
190,1,32,17,0.6130778193473816,0.019741982221603394
190,1,32,18,0.5545960664749146,0.055763375014066696
190,1,32,19,0.5800651907920837,0.05564194545149803
190,1,32,20,0.5446456074714661,0.06542163342237473
190,1,32,21,0.5525631308555603,0.019870031625032425
190,1,32,22,0.5352195501327515,0.0758894607424736
190,1,32,23,0.5287601351737976,0.06400862336158752
190,1,32,24,0.49839556217193604,0.0637299120426178
190,1,32,25,0.2726827561855316,0.1030736044049263
190,1,32,26,0.5069794058799744,0.05035865679383278
190,1,32,27,0.4738776981830597,0.0627647191286087
190,1,32,28,0.41272661089897156,0.06917281448841095
190,1,32,29,0.40426355600357056,0.032950326800346375
190,1,32,30,0.48845744132995605,0.12327033281326294
190,1,32,31,0.5687626004219055,0.05427047237753868
190,2,64,0,0.5307331085205078,0.11426975578069687
190,2,64,1,0.40348896384239197,0.05675451457500458
190,2,64,2,0.4027135372161865,0.1405630260705948
190,2,64,3,0.6579936146736145,0.11007276922464371
190,2,64,4,0.5229901075363159,0.08229456841945648
190,2,64,5,0.4508638381958008,0.18161870539188385
190,2,64,6,0.502540647983551,0.11379244178533554
190,2,64,7,0.4878291189670563,0.11668192595243454
190,2,64,8,0.6303008198738098,0.1560627520084381
190,2,64,9,0.41267335414886475,0.1581011712551117
190,2,64,10,0.4706581234931946,0.053977567702531815
190,2,64,11,0.41467729210853577,0.12386617809534073
190,2,64,12,0.31625044345855713,0.12892155349254608
190,2,64,13,0.4849855601787567,0.1923656314611435
190,2,64,14,0.5029340982437134,0.09392409771680832
190,2,64,15,0.42346060276031494,0.11876843124628067
190,2,64,16,0.6424325108528137,0.11924739181995392
190,2,64,17,0.3638189733028412,0.171105295419693
190,2,64,18,0.4094775915145874,0.09617473930120468
190,2,64,19,0.438963919878006,0.15222103893756866
190,2,64,20,0.4035951793193817,0.09586712718009949
190,2,64,21,0.3910670578479767,0.1331486850976944
190,2,64,22,0.3668033480644226,0.11773671209812164
190,2,64,23,0.540911853313446,0.11437053978443146
190,2,64,24,0.4698987305164337,0.1793476939201355
190,2,64,25,0.5594954490661621,0.2332177609205246
190,2,64,26,0.4681050777435303,0.11381649225950241
190,2,64,27,0.4914897084236145,0.1746300309896469
190,2,64,28,0.34092798829078674,0.11896884441375732
