subject,channel,alpha,f1,drop_pp
1,0,1.0,0.7319629970920495,0.0
1,0,0.75,0.7374110776438733,-0.5448080551823775
1,0,0.5,0.7341362092302676,-0.21732121382180836
1,0,0.25,0.7208287808630404,1.113421622900912
1,0,0.0,0.7153632808226854,1.6599716269364073
1,1,1.0,0.7319629970920495,0.0
1,1,0.75,0.7287646528451569,0.31983442468925816
1,1,0.5,0.7351190906003457,-0.3156093508296265
1,1,0.25,0.7317357249057329,0.022727218631657387
1,1,0.0,0.7232138791536363,0.8749117938413153
1,2,1.0,0.7319629970920495,0.0
1,2,0.75,0.7322820047566649,-0.031900766461545604
1,2,0.5,0.7300055308073026,0.19574662847469115
1,2,0.25,0.7200300259502187,1.1932971141830784
1,2,0.0,0.7183799541821301,1.3583042909919407
1,3,1.0,0.7319629970920495,0.0
1,3,0.75,0.7236412851704076,0.8321711921641883
1,3,0.5,0.7133564144259642,1.860658266608528
1,3,0.25,0.7045230230916821,2.743997400036735
1,3,0.0,0.6969893978231128,3.497359926893673
1,4,1.0,0.7319629970920495,0.0
1,4,0.75,0.7321601729231352,-0.019717583108569414
1,4,0.5,0.7438451144565592,-1.1882117364509726
1,4,0.25,0.743707313627531,-1.174431653548147
1,4,0.0,0.7192405855025747,1.2722411589474736
1,5,1.0,0.7319629970920495,0.0
1,5,0.75,0.6913195608485283,4.064343624352118
1,5,0.5,0.6335120311840524,9.845096590799706
1,5,0.25,0.6349901979734822,9.697279911856727
1,5,0.0,0.6311452402436286,10.081775684842087
1,6,1.0,0.7319629970920495,0.0
1,6,0.75,0.742877150934576,-1.0914153842526475
1,6,0.5,0.7437904373706004,-1.1827440278550871
1,6,0.25,0.7476371500836961,-1.567415299164665
1,6,0.0,0.7417722105222105,-0.9809213430161057
1,7,1.0,0.7319629970920495,0.0
1,7,0.75,0.7370078571079012,-0.5044860015851693
1,7,0.5,0.7300419118138823,0.1921085278167145
1,7,0.25,0.7221290077817334,0.9833989310316094
1,7,0.0,0.7126304872017832,1.9332509890266247
1,8,1.0,0.7319629970920495,0.0
1,8,0.75,0.7202325080868388,1.1730489005210676
1,8,0.5,0.7067697531774895,2.5193243914560015
1,8,0.25,0.6966238637490925,3.533913334295702
1,8,0.0,0.6651549536634032,6.680804342864633
2,0,1.0,0.8951755959474182,0.0
2,0,0.75,0.9107543841662658,-1.5578788218847506
2,0,0.5,0.9234776681112477,-2.8302072163829406
2,0,0.25,0.9307956267925246,-3.5620030845106343
2,0,0.0,0.9164712697137674,-2.129567376634911
2,1,1.0,0.8951755959474182,0.0
2,1,0.75,0.8951755959474182,0.0
2,1,0.5,0.8868430388031632,0.833255714425507
2,1,0.25,0.8522099190211307,4.29656769262875
2,1,0.0,0.8382020489757208,5.697354697169743
2,2,1.0,0.8951755959474182,0.0
2,2,0.75,0.8995108177328843,-0.43352217854660813
2,2,0.5,0.8928253531710941,0.23502427763241185
2,2,0.25,0.8796608571897822,1.5514738757636093
2,2,0.0,0.8569074728134068,3.82681231340114
2,3,1.0,0.8951755959474182,0.0
2,3,0.75,0.9042772298411343,-0.9101633893716099
2,3,0.5,0.9053642928516357,-1.018869690421742
2,3,0.25,0.9165113612726368,-2.1335765325218525
2,3,0.0,0.906908361321404,-1.173276537398571
2,4,1.0,0.8951755959474182,0.0
2,4,0.75,0.8913243768063975,0.3851219141020712
2,4,0.5,0.9004768514810897,-0.5301255533671445
2,4,0.25,0.9037248908394209,-0.8549294892002623
2,4,0.0,0.9059407161088273,-1.076512016140907
2,5,1.0,0.8951755959474182,0.0
2,5,0.75,0.8943533172058075,0.08222787416107824
2,5,0.5,0.8894539001597305,0.5721695787687775
2,5,0.25,0.8840588930520281,1.111670289539013
2,5,0.0,0.8726278772008398,2.254771874657846
2,6,1.0,0.8951755959474182,0.0
2,6,0.75,0.8917408069469526,0.34347890004656767
2,6,0.5,0.8832490422948096,1.192655365260864
2,6,0.25,0.8691422836102767,2.6033312337141568
2,6,0.0,0.8594996665035324,3.5675929443885868
2,7,1.0,0.8951755959474182,0.0
2,7,0.75,0.891042585160552,0.41330107868662314
2,7,0.5,0.8858803901109411,0.9295205836477138
2,7,0.25,0.8632613912621271,3.191420468529116
2,7,0.0,0.8518566883923029,4.331890755511536
2,8,1.0,0.8951755959474182,0.0
2,8,0.75,0.8914718922437146,0.37037037037036535
2,8,0.5,0.8817124287022439,1.346316724517438
2,8,0.25,0.8786857679126411,1.6489828034777165
2,8,0.0,0.8788056733134454,1.6369922633972855
3,0,1.0,0.8982405357064114,0.0
3,0,0.75,0.926048211387333,-2.7807675680921573
3,0,0.5,0.9317426997302218,-3.3502164023810455
3,0,0.25,0.9318144272588941,-3.3573891552482693
3,0,0.0,0.9383038516921655,-4.006331598575407
3,1,1.0,0.8982405357064114,0.0
3,1,0.75,0.8929867401332416,0.5253795573169739
3,1,0.5,0.8907375042613854,0.7503031445025954
3,1,0.25,0.8901637774212919,0.8076758285119445
3,1,0.0,0.8845833160112728,1.3657219695138556
3,2,1.0,0.8982405357064114,0.0
3,2,0.75,0.8982405357064114,0.0
3,2,0.5,0.8952772810914018,0.29632546150095695
3,2,0.25,0.8804692290833949,1.7771306623016514
3,2,0.0,0.86503753518924,3.32030005171714
3,3,1.0,0.8982405357064114,0.0
3,3,0.75,0.8936588410944409,0.4581694611970444
3,3,0.5,0.8797592294526282,1.8481306253783192
3,3,0.25,0.8642999540062639,3.3940581700147465
3,3,0.0,0.8229298265749929,7.531070913141846
3,4,1.0,0.8982405357064114,0.0
3,4,0.75,0.9061609082877677,-0.7920372581356361
3,4,0.5,0.9042711572342341,-0.6030621527822744
3,4,0.25,0.9065551905484703,-0.8314654842058955
3,4,0.0,0.9117022516519233,-1.3461715945511932
3,5,1.0,0.8982405357064114,0.0
3,5,0.75,0.9012039499625046,-0.2963414256093255
3,5,0.5,0.906381555426157,-0.8141019719745568
3,5,0.25,0.9136151997570885,-1.5374664050677112
3,5,0.0,0.9091940141080401,-1.0953478401628747
3,6,1.0,0.8982405357064114,0.0
3,6,0.75,0.9012039499625046,-0.2963414256093255
3,6,0.5,0.9091911462104313,-1.0950610504019909
3,6,0.25,0.9121586302091494,-1.3918094502738065
3,6,0.0,0.918101901057562,-1.9861365351150573
3,7,1.0,0.8982405357064114,0.0
3,7,0.75,0.8962828760830981,0.19576596233132904
3,7,0.5,0.9046312596771711,-0.6390723970759682
3,7,0.25,0.8980655121618744,0.017502354453702296
3,7,0.0,0.8860152177371583,1.222531796925308
3,8,1.0,0.8982405357064114,0.0
3,8,0.75,0.905226206541996,-0.6985670835584656
3,8,0.5,0.9112747255638561,-1.3034189857444756
3,8,0.25,0.9050572449381649,-0.6816709231753482
3,8,0.0,0.9098506529281498,-1.1610117221738436
4,0,1.0,0.8765497544486457,0.0
4,0,0.75,0.8744947561816574,0.2054998266988295
4,0,0.5,0.8641727873931426,1.2376967055503063
4,0,0.25,0.8524857935773754,2.4063960871270274
4,0,0.0,0.8310769088699308,4.547284557871489
4,1,1.0,0.8765497544486457,0.0
4,1,0.75,0.8536031756281433,2.294657882050244
4,1,0.5,0.8403607064155452,3.6189048033100524
4,1,0.25,0.8308328520073355,4.571690244131021
4,1,0.0,0.7988981699481282,7.765158450051746
4,2,1.0,0.8765497544486457,0.0
4,2,0.75,0.8669532866336578,0.9596467814987908
4,2,0.5,0.8469327049307582,2.961704951788746
4,2,0.25,0.8394443774465861,3.7105377002059625
4,2,0.0,0.8349460794757079,4.160367497293782
4,3,1.0,0.8765497544486457,0.0
4,3,0.75,0.8750694937955403,0.14802606531053586
4,3,0.5,0.8745963846309472,0.1953369817698447
4,3,0.25,0.8675283170851471,0.9021437363498586
4,3,0.0,0.8471550558939986,2.9394698554647047
4,4,1.0,0.8765497544486457,0.0
4,4,0.75,0.9172703922094165,-4.0720637760770835
4,4,0.5,0.9085272441411139,-3.1977489692468164
4,4,0.25,0.9107600371544486,-3.4210282705802952
4,4,0.0,0.9131703927166459,-3.6620638268000216
4,5,1.0,0.8765497544486457,0.0
4,5,0.75,0.8581345053951293,1.8415249053516436
4,5,0.5,0.8551952713098206,2.1354483138825042
4,5,0.25,0.8630745231198462,1.3475231328799464
4,5,0.0,0.864421034539595,1.2128719909050734
4,6,1.0,0.8765497544486457,0.0
4,6,0.75,0.872079083462916,0.447067098572973
4,6,0.5,0.8676158270952021,0.893392735344356
4,6,0.25,0.8670591214210004,0.9490633027645301
4,6,0.0,0.8605299848080087,1.6019769640637005
4,7,1.0,0.8765497544486457,0.0
4,7,0.75,0.87445713409605,0.209262035259572
4,7,0.5,0.8763743780671589,0.017537638148679147
4,7,0.25,0.8819130770432048,-0.5363322594559072
4,7,0.0,0.8807675120279461,-0.42177575793004296
4,8,1.0,0.8765497544486457,0.0
4,8,0.75,0.8706136004051963,0.5936154043449382
4,8,0.5,0.8582202552197196,1.8329499228926127
4,8,0.25,0.8690139812905278,0.7535773158117931
4,8,0.0,0.8682071963404792,0.8342558108166531
5,0,1.0,0.6810922432447499,0.0
5,0,0.75,0.6853420884533046,-0.4249845208554648
5,0,0.5,0.682253858111243,-0.11616148664930215
5,0,0.25,0.6682480418210166,1.2844201423733326
5,0,0.0,0.6632869839283437,1.7805259316406197
5,1,1.0,0.6810922432447499,0.0
5,1,0.75,0.6858595842325608,-0.4767340987810842
5,1,0.5,0.6996483666752109,-1.855612343046098
5,1,0.25,0.7127377036098801,-3.1645460365130162
5,1,0.0,0.7139867950098688,-3.2894551765118907
5,2,1.0,0.6810922432447499,0.0
5,2,0.75,0.6896861079631669,-0.8593864718416944
5,2,0.5,0.6919842537597278,-1.0892010514977901
5,2,0.25,0.6809775915613622,0.011465168338775644
5,2,0.0,0.680363939134744,0.07283041100059062
5,3,1.0,0.6810922432447499,0.0
5,3,0.75,0.7080835205555394,-2.699127731078943
5,3,0.5,0.7238806677755071,-4.278842453075715
5,3,0.25,0.725809379069949,-4.471713582519909
5,3,0.0,0.7178625293189927,-3.677028607424282
5,4,1.0,0.6810922432447499,0.0
5,4,0.75,0.6634421883598204,1.7650054884929545
5,4,0.5,0.6478683852028013,3.3223858041948606
5,4,0.25,0.642827669945317,3.826457329943289
5,4,0.0,0.6807779987888303,0.031424445591965444
5,5,1.0,0.6810922432447499,0.0
5,5,0.75,0.6637410803339704,1.7351162910779538
5,5,0.5,0.6548077609014562,2.6284482343293725
5,5,0.25,0.6436479069234022,3.7444336321347693
5,5,0.0,0.6400457274817576,4.104651576299235
5,6,1.0,0.6810922432447499,0.0
5,6,0.75,0.6781590649474014,0.29331782973485154
5,6,0.5,0.6779179609867765,0.31742822579734487
5,6,0.25,0.6740479871848368,0.7044256059913101
5,6,0.0,0.6780390040464872,0.3053239198262725
5,7,1.0,0.6810922432447499,0.0
5,7,0.75,0.6801117880101907,0.09804552345592521
5,7,0.5,0.6718193050185637,0.9272938226186245
5,7,0.25,0.6793908070862509,0.17014361584990478
5,7,0.0,0.6798352835764827,0.12569596682672213
5,8,1.0,0.6810922432447499,0.0
5,8,0.75,0.6708615383558321,1.0230704888917863
5,8,0.5,0.6621469652566738,1.8945277988076104
5,8,0.25,0.6565665788558079,2.4525664388941992
5,8,0.0,0.6366128749893074,4.447936825544252
6,0,1.0,0.7235962893009239,0.0
6,0,0.75,0.7439425604002406,-2.034627109931675
6,0,0.5,0.7531192012252494,-2.9522911924325546
6,0,0.25,0.7528407309567606,-2.924444165583673
6,0,0.0,0.7323529348635648,-0.8756645562640886
6,1,1.0,0.7235962893009239,0.0
6,1,0.75,0.7268905880985779,-0.32942987976539717
6,1,0.5,0.7173724594388802,0.6223829862043728
6,1,0.25,0.7233075593958418,0.028872990508210794
6,1,0.0,0.7245634920634921,-0.09672027625682311
6,2,1.0,0.7235962893009239,0.0
6,2,0.75,0.7325665085564182,-0.8970219255494349
6,2,0.5,0.7289687244308483,-0.5372435129924358
6,2,0.25,0.7299773867522266,-0.6381097451302664
6,2,0.0,0.7320910268168663,-0.849473751594243
6,3,1.0,0.7235962893009239,0.0
6,3,0.75,0.7476772586674676,-2.408096936654369
6,3,0.5,0.769898256317591,-4.630196701666711
6,3,0.25,0.7704479829719799,-4.685169367105601
6,3,0.0,0.7666843807353265,-4.3088091434402624
6,4,1.0,0.7235962893009239,0.0
6,4,0.75,0.72644757077849,-0.2851281477566081
6,4,0.5,0.7037399281678083,1.9856361133115619
6,4,0.25,0.6918890390624316,3.17072502384923
6,4,0.0,0.6719505703676945,5.164571893322945
6,5,1.0,0.7235962893009239,0.0
6,5,0.75,0.7225317074147495,0.10645818861744205
6,5,0.5,0.7106874727020505,1.290881659887344
6,5,0.25,0.7170572668438027,0.6539022457121235
6,5,0.0,0.7132281719013757,1.0368117399548238
6,6,1.0,0.7235962893009239,0.0
6,6,0.75,0.7278490323361962,-0.4252743035272344
6,6,0.5,0.7151124251949843,0.8483864105939598
6,6,0.25,0.7007448987027128,2.2851390598211063
6,6,0.0,0.6838024149656916,3.9793874335232293
6,7,1.0,0.7235962893009239,0.0
6,7,0.75,0.7167909876052183,0.680530169570559
6,7,0.5,0.709946927127075,1.3649362173848933
6,7,0.25,0.6984527013999327,2.514358790099125
6,7,0.0,0.7038771825568468,1.9719106744077064
6,8,1.0,0.7235962893009239,0.0
6,8,0.75,0.719604612810879,0.39916764900449486
6,8,0.5,0.7070611271951104,1.6535162105813517
6,8,0.25,0.6859669362145757,3.7629353086348183
6,8,0.0,0.6872643402437988,3.6331949057125112
7,0,1.0,0.7578849721706865,0.0
7,0,0.75,0.7797039861260044,-2.1819013955317934
7,0,0.5,0.7562741770788102,0.1610795091876338
7,0,0.25,0.7144895110099926,4.339546116069393
7,0,0.0,0.7164716408256188,4.141333134506775
7,1,1.0,0.7578849721706865,0.0
7,1,0.75,0.7732405590446343,-1.535558687394778
7,1,0.5,0.7708537933126928,-1.296882114200626
7,1,0.25,0.774079208771494,-1.6194236600807543
7,1,0.0,0.7945275656315076,-3.6642593460821105
7,2,1.0,0.7578849721706865,0.0
7,2,0.75,0.7587976084280892,-0.0912636257402677
7,2,0.5,0.7599299291944595,-0.2044957023772942
7,2,0.25,0.7612488114584475,-0.33638392877609613
7,2,0.0,0.7531898732973348,0.4695098873351733
7,3,1.0,0.7578849721706865,0.0
7,3,0.75,0.7758287167585011,-1.7943744587814558
7,3,0.5,0.79200281537846,-3.4117843207773446
7,3,0.25,0.793631315025171,-3.5746342854484525
7,3,0.0,0.8051343336032909,-4.724936143260439
7,4,1.0,0.7578849721706865,0.0
7,4,0.75,0.747444544107543,1.0440428063143492
7,4,0.5,0.7401751283666511,1.7709843804035397
7,4,0.25,0.7469820455777075,1.0902926592978979
7,4,0.0,0.7566864768295596,0.11984953411269261
7,5,1.0,0.7578849721706865,0.0
7,5,0.75,0.756396882314306,0.14880898563804923
7,5,0.5,0.7657111354351536,-0.7826163264467056
7,5,0.25,0.765476169508994,-0.7591197338307487
7,5,0.0,0.7832499477557573,-2.536497558507078
7,6,1.0,0.7578849721706865,0.0
7,6,0.75,0.767299253553327,-0.9414281382640444
7,6,0.5,0.7686047056435066,-1.071973347282007
7,6,0.25,0.7781151274014386,-2.023015523075211
7,6,0.0,0.7747056195401334,-1.6820647369446884
7,7,1.0,0.7578849721706865,0.0
7,7,0.75,0.7715642202915176,-1.36792481208311
7,7,0.5,0.7624563526663924,-0.45713804957059345
7,7,0.25,0.7600963366841607,-0.22113645134741455
7,7,0.0,0.7544088778027958,0.34760943678907585
7,8,1.0,0.7578849721706865,0.0
7,8,0.75,0.7639347273302783,-0.604975515959183
7,8,0.5,0.760603919475032,-0.27189473043455203
7,8,0.25,0.754761313776301,0.31236583943855534
7,8,0.0,0.7501687809118686,0.771619125881795
8,0,1.0,0.8258643496988655,0.0
8,0,0.75,0.8211350591983535,0.47292905005119623
8,0,0.5,0.8135136677800128,1.235068191885269
8,0,0.25,0.8154224656295825,1.0441884069282925
8,0,0.0,0.803185719675533,2.267863002333248
8,1,1.0,0.8258643496988655,0.0
8,1,0.75,0.8247525051602764,0.11118445385890352
8,1,0.5,0.8230243700242101,0.2839979674655324
8,1,0.25,0.8240573852649948,0.1806964433870628
8,1,0.0,0.8207210361547878,0.514331354407771
8,2,1.0,0.8258643496988655,0.0
8,2,0.75,0.8250384608034247,0.08258888954407739
8,2,0.5,0.8228838426308511,0.29805070680143375
8,2,0.25,0.8190816283248046,0.6782721374060885
8,2,0.0,0.8122317435333012,1.3632606165564276
8,3,1.0,0.8258643496988655,0.0
8,3,0.75,0.8282146241021766,-0.23502744033111478
8,3,0.5,0.8180621386716704,0.7802211027195027
8,3,0.25,0.8092596165011268,1.6604733197738697
8,3,0.0,0.7977797206282435,2.8084629070621925
8,4,1.0,0.8258643496988655,0.0
8,4,0.75,0.8159737141003971,0.9890635598468367
8,4,0.5,0.7895697821514756,3.629456754738991
8,4,0.25,0.7807406638378793,4.512368586098614
8,4,0.0,0.7835507726702595,4.231357702860594
8,5,1.0,0.8258643496988655,0.0
8,5,0.75,0.8134326277644154,1.243172193445008
8,5,0.5,0.8043554726955611,2.1508877003304394
8,5,0.25,0.7851478311903486,4.071651850851687
8,5,0.0,0.7804498040086092,4.5414545690256265
8,6,1.0,0.8258643496988655,0.0
8,6,0.75,0.8326092087152779,-0.6744859016412419
8,6,0.5,0.8344957062365038,-0.8631356537638357
8,6,0.25,0.8307497626005518,-0.48854129016863146
8,6,0.0,0.8235090135385785,0.2355336160286936
8,7,1.0,0.8258643496988655,0.0
8,7,0.75,0.8161583065110054,0.9706043187860058
8,7,0.5,0.8178440221507166,0.8020327548148853
8,7,0.25,0.8232790931755687,0.2585256523296775
8,7,0.0,0.7977266931864545,2.813765651241096
8,8,1.0,0.8258643496988655,0.0
8,8,0.75,0.8227925260149975,0.3071823683867936
8,8,0.5,0.8183369003061886,0.752744939267691
8,8,0.25,0.8155876010030274,1.0276748695838056
8,8,0.0,0.8119848637392497,1.3879485959615745
9,0,1.0,0.7942016910051122,0.0
9,0,0.75,0.7999314811137613,-0.5729790108649158
9,0,0.5,0.8095522614741045,-1.5350570468992353
9,0,0.25,0.8136781749043556,-1.947648389924339
9,0,0.0,0.8120701308476064,-1.78684398424942
9,1,1.0,0.7942016910051122,0.0
9,1,0.75,0.7941873227354457,0.001436826966649818
9,1,0.5,0.7991836645090069,-0.4981973503894732
9,1,0.25,0.7804203290636009,1.378136194151125
9,1,0.0,0.7731032268360418,2.1098464169070352
9,2,1.0,0.7942016910051122,0.0
9,2,0.75,0.7923246254105949,0.18770655945172798
9,2,0.5,0.7928810144237295,0.13206765813826848
9,2,0.25,0.7989819464242016,-0.4780255419089441
9,2,0.0,0.7768750939818596,1.7326597023252566
9,3,1.0,0.7942016910051122,0.0
9,3,0.75,0.7900141451953444,0.41875458097677676
9,3,0.5,0.7858276186434595,0.8374072361652662
9,3,0.25,0.7772324913823615,1.6969199622750675
9,3,0.0,0.7750824529680941,1.9119238037018094
9,4,1.0,0.7942016910051122,0.0
9,4,0.75,0.7954725383473528,-0.12708473422405886
9,4,0.5,0.7918112890323261,0.23904019727860604
9,4,0.25,0.7885029898484217,0.5698701156690467
9,4,0.0,0.7930559690496946,0.11457219554176223
9,5,1.0,0.7942016910051122,0.0
9,5,0.75,0.8021674326463004,-0.796574164118824
9,5,0.5,0.8092576382323358,-1.5055947227223587
9,5,0.25,0.8033339493024316,-0.9132258297319451
9,5,0.0,0.8090638825310212,-1.4862191525909063
9,6,1.0,0.7942016910051122,0.0
9,6,0.75,0.7978179399500919,-0.3616248944979694
9,6,0.5,0.7906318194162025,0.35698715889096455
9,6,0.25,0.7896015771285698,0.46001138765423555
9,6,0.0,0.8066855195480415,-1.2483828542929287
9,7,1.0,0.7942016910051122,0.0
9,7,0.75,0.7863603395407894,0.7841351464322743
9,7,0.5,0.7739667096689606,2.0234981336151536
9,7,0.25,0.7679374720846389,2.626421892047326
9,7,0.0,0.7598339155353191,3.4367775469793083
9,8,1.0,0.7942016910051122,0.0
9,8,0.75,0.8034664163054734,-0.9264725300361265
9,8,0.5,0.8200526410050638,-2.5850949999951633
9,8,0.25,0.8276179026597299,-3.3416211654617722
9,8,0.0,0.8107467630168255,-1.654507201171329
10,0,1.0,0.7873915241297564,0.0
10,0,0.75,0.7997223844607367,-1.2330860330980298
10,0,0.5,0.7949555763385551,-0.7564052208798633
10,0,0.25,0.789573188229864,-0.2181664100107561
10,0,0.0,0.7906262857089119,-0.3234761579155476
10,1,1.0,0.7873915241297564,0.0
10,1,0.75,0.7943578475470654,-0.6966323417308962
10,1,0.5,0.7945491381661766,-0.7157614036420124
10,1,0.25,0.8006564360330366,-1.3264911903280163
10,1,0.0,0.7922058756292304,-0.48143514994739567
10,2,1.0,0.7873915241297564,0.0
10,2,0.75,0.7826692007658236,0.47223233639328566
10,2,0.5,0.776533080902028,1.0858443227728443
10,2,0.25,0.7567509650842985,3.0640559045457927
10,2,0.0,0.7627182952231482,2.467322890660828
10,3,1.0,0.7873915241297564,0.0
10,3,0.75,0.7974186307519641,-1.0027106622207627
10,3,0.5,0.799065240172248,-1.1673716042491566
10,3,0.25,0.7929587532980362,-0.5567229168279786
10,3,0.0,0.7764416240079529,1.0949900121803524
10,4,1.0,0.7873915241297564,0.0
10,4,0.75,0.7860139303250668,0.1377593804689603
10,4,0.5,0.789419618049503,-0.20280939197465653
10,4,0.25,0.7863629464508766,0.10285776788798717
10,4,0.0,0.7919457106454691,-0.45541865157127104
10,5,1.0,0.7873915241297564,0.0
10,5,0.75,0.7684311871895417,1.8960336940214706
10,5,0.5,0.7657854012068462,2.16061229229102
10,5,0.25,0.764224983067798,2.316654106195848
10,5,0.0,0.7749719024000997,1.2419621729656716
10,6,1.0,0.7873915241297564,0.0
10,6,0.75,0.7887345315309732,-0.13430074012167337
10,6,0.5,0.7830204812791167,0.4371042850639717
10,6,0.25,0.7905517677566802,-0.31602436269237977
10,6,0.0,0.8022751028407433,-1.488357871098689
10,7,1.0,0.7873915241297564,0.0
10,7,0.75,0.7933738240807884,-0.5982299951031944
10,7,0.5,0.7818203442854843,0.5571179844272134
10,7,0.25,0.7919131146905212,-0.4521590560764732
10,7,0.0,0.7910643263429818,-0.36728022132254123
10,8,1.0,0.7873915241297564,0.0
10,8,0.75,0.7927921874191378,-0.540066328938138
10,8,0.5,0.7931032526178114,-0.5711728488055012
10,8,0.25,0.7842409247826906,0.3150599347065852
10,8,0.0,0.7816443222857986,0.5747201843957828
11,0,1.0,0.9505238828967644,0.0
11,0,0.75,0.9426761369315458,0.7847745965218533
11,0,0.5,0.947253895212554,0.3269987684210385
11,0,0.25,0.9367203079565001,1.3803574940264296
11,0,0.0,0.9484903117917732,0.20335711049911387
11,1,1.0,0.9505238828967644,0.0
11,1,0.75,0.9516114375944391,-0.10875546976747419
11,1,0.5,0.9503338308365874,0.019005206017697063
11,1,0.25,0.9452708088389496,0.5253074057814722
11,1,0.0,0.9325949964457244,1.792888645103996
11,2,1.0,0.9505238828967644,0.0
11,2,0.75,0.94728006165157,0.32438212451944004
11,2,0.5,0.9402816434031518,1.0242239493612582
11,2,0.25,0.9311879713896078,1.9335911507156522
11,2,0.0,0.9203796902367769,3.0144192659987468
11,3,1.0,0.9505238828967644,0.0
11,3,0.75,0.9423798908990977,0.8143991997666689
11,3,0.5,0.9271102301205005,2.341365277626384
11,3,0.25,0.9140679721271406,3.6455910769623734
11,3,0.0,0.8956180978746655,5.490578502209886
11,4,1.0,0.9505238828967644,0.0
11,4,0.75,0.9437152906274554,0.6808592269308966
11,4,0.5,0.9385491067830141,1.1974776113750307
11,4,0.25,0.9490661056119867,0.14577772847776949
11,4,0.0,0.9522727888840496,-0.17489059872852764
11,5,1.0,0.9505238828967644,0.0
11,5,0.75,0.9397733987386495,1.075048415811486
11,5,0.5,0.9377492453947942,1.2774637501970165
11,5,0.25,0.9395464920636489,1.0977390833115441
11,5,0.0,0.9489249623756473,0.15989205211170976
11,6,1.0,0.9505238828967644,0.0
11,6,0.75,0.9494985844320445,0.10252984647198815
11,6,0.5,0.9411304696766667,0.9393413220097679
11,6,0.25,0.9413659543071309,0.915792858963349
11,6,0.0,0.9474940451696332,0.30298377271311683
11,7,1.0,0.9505238828967644,0.0
11,7,0.75,0.9591987558079204,-0.8674872911155984
11,7,0.5,0.9657439327782399,-1.5220049881475517
11,7,0.25,0.9615043809495151,-1.0980498052750698
11,7,0.0,0.9626137983658756,-1.20899154691112
11,8,1.0,0.9505238828967644,0.0
11,8,0.75,0.9513048062894849,-0.07809233927205117
11,8,0.5,0.9517015584373487,-0.11776755405843442
11,8,0.25,0.945087939082783,0.5435943813981381
11,8,0.0,0.9458379399089345,0.4685942987829872
12,0,1.0,0.9076417350111741,0.0
12,0,0.75,0.9018096215713074,0.5832113439866671
12,0,0.5,0.9150901127668143,-0.7448377755640223
12,0,0.25,0.8966735550600462,1.0968179951127865
12,0,0.0,0.8927987524201807,1.484298259099337
12,1,1.0,0.9076417350111741,0.0
12,1,0.75,0.9003458118075516,0.729592320362249
12,1,0.5,0.900054581359063,0.7587153652111045
12,1,0.25,0.8863626217880879,2.1279113223086177
12,1,0.0,0.8676768891646576,3.9964845846516495
12,2,1.0,0.9076417350111741,0.0
12,2,0.75,0.9025776243934306,0.5064110617743478
12,2,0.5,0.9097521103276727,-0.21103753164986028
12,2,0.25,0.8910784060750483,1.6563328936125776
12,2,0.0,0.8673834148210648,4.025832019010922
12,3,1.0,0.9076417350111741,0.0
12,3,0.75,0.902010097065745,0.5631637945429091
12,3,0.5,0.8797637106153221,2.7878024395851964
12,3,0.25,0.8664198725550348,4.122186245613923
12,3,0.0,0.846431644855156,6.121009015601809
12,4,1.0,0.9076417350111741,0.0
12,4,0.75,0.9108861220344512,-0.32443870232771177
12,4,0.5,0.9088301925130959,-0.1188457501921869
12,4,0.25,0.8941699034538828,1.3471831557291258
12,4,0.0,0.9115232000726954,-0.38814650615213164
12,5,1.0,0.9076417350111741,0.0
12,5,0.75,0.9039671904289301,0.36745445822439216
12,5,0.5,0.9132763670018884,-0.5634631990714345
12,5,0.25,0.9113715412484508,-0.37298062372767005
12,5,0.0,0.9185541465445772,-1.0912411533403166
12,6,1.0,0.9076417350111741,0.0
12,6,0.75,0.901442694441134,0.619904057004006
12,6,0.5,0.9122820827395387,-0.46403477283646355
12,6,0.25,0.9225280511789562,-1.4886316167782132
12,6,0.0,0.9249000470330453,-1.7258312021871225
12,7,1.0,0.9076417350111741,0.0
12,7,0.75,0.9196181293400437,-1.1976394328869655
12,7,0.5,0.917638628669376,-0.9996893658201889
12,7,0.25,0.9045803863935581,0.30613486176159777
12,7,0.0,0.9133228216687321,-0.5681086657558065
12,8,1.0,0.9076417350111741,0.0
12,8,0.75,0.9110014877368233,-0.33597527256492565
12,8,0.5,0.9064355205853922,0.12062144257818375
12,8,0.25,0.903176832459403,0.44649025517711216
12,8,0.0,0.9002741838188035,0.7367551192370536
13,0,1.0,0.9118919022406149,0.0
13,0,0.75,0.9147630882514617,-0.28711860108467935
13,0,0.5,0.9210463756065999,-0.9154473365984961
13,0,0.25,0.9164050391363199,-0.45131368957049833
13,0,0.0,0.9102584280681626,0.16334741724522983
13,1,1.0,0.9118919022406149,0.0
13,1,0.75,0.9117933693229291,0.009853291768580075
13,1,0.5,0.9051070348554671,0.678486738514783
13,1,0.25,0.9022482015610215,0.9643700679593414
13,1,0.0,0.8965967304558227,1.5295171784792227
13,2,1.0,0.9118919022406149,0.0
13,2,0.75,0.9102112536303069,0.16806486103080331
13,2,0.5,0.9025390614586255,0.9352840781989391
13,2,0.25,0.8981229633847937,1.37689388558212
13,2,0.0,0.8907567622939652,2.113513994664973
13,3,1.0,0.9118919022406149,0.0
13,3,0.75,0.9213935731391378,-0.950167089852294
13,3,0.5,0.9206290860978933,-0.8737183857278397
13,3,0.25,0.9184595466410179,-0.6567644400403028
13,3,0.0,0.9002758787038541,1.1616023536760833
13,4,1.0,0.9118919022406149,0.0
13,4,0.75,0.9012116625525813,1.0680239688033555
13,4,0.5,0.8991164931288539,1.2775409111761005
13,4,0.25,0.886693669256721,2.51982329838939
13,4,0.0,0.8946743323784798,1.7217569862135074
13,5,1.0,0.9118919022406149,0.0
13,5,0.75,0.897878635305111,1.4013266935503865
13,5,0.5,0.8898248545311912,2.2067047709423693
13,5,0.25,0.8892296321752418,2.2662270065373136
13,5,0.0,0.9006520006783056,1.1239901562309251
13,6,1.0,0.9118919022406149,0.0
13,6,0.75,0.9119637512409904,-0.0071849000375490135
13,6,0.5,0.9101953745429301,0.1696527697684802
13,6,0.25,0.9053895777270804,0.6502324513534496
13,6,0.0,0.8973450329293737,1.4546869311241162
13,7,1.0,0.9118919022406149,0.0
13,7,0.75,0.9081137356828437,0.377816655777119
13,7,0.5,0.8941765733869745,1.7715328853640355
13,7,0.25,0.8866864626161108,2.5205439624504056
13,7,0.0,0.8968700378236926,1.5021864416922326
13,8,1.0,0.9118919022406149,0.0
13,8,0.75,0.9099828993304836,0.19090029101312966
13,8,0.5,0.9027044698929788,0.9187432347636082
13,8,0.25,0.9056583249973,0.6233577243314858
13,8,0.0,0.9022207217545187,0.9671180486096165
14,0,1.0,0.8295406597890668,0.0
14,0,0.75,0.833954421327564,-0.4413761538497263
14,0,0.5,0.8321059406573066,-0.25652808682398165
14,0,0.25,0.8239424465708951,0.5598213218171666
14,0,0.0,0.8228645642350021,0.6676095554064676
14,1,1.0,0.8295406597890668,0.0
14,1,0.75,0.8274419554733095,0.2098704315757316
14,1,0.5,0.8212790974251449,0.8261562363921837
14,1,0.25,0.8183716231406968,1.116903664836999
14,1,0.0,0.8187384054450026,1.0802254344064122
14,2,1.0,0.8295406597890668,0.0
14,2,0.75,0.8309136419029054,-0.13729821138386278
14,2,0.5,0.8315588667491822,-0.2018206960115454
14,2,0.25,0.8291952090319528,0.03454507571140075
14,2,0.0,0.832914881069784,-0.33742212807171823
14,3,1.0,0.8295406597890668,0.0
14,3,0.75,0.82466980465668,0.487085513238672
14,3,0.5,0.8004284591194968,2.9112200669569988
14,3,0.25,0.78222077041279,4.731988937627674
14,3,0.0,0.7563688181947874,7.317184159427937
14,4,1.0,0.8295406597890668,0.0
14,4,0.75,0.8277396525348515,0.1801007254215281
14,4,0.5,0.8276893809605391,0.1851278828527647
14,4,0.25,0.8274852779069156,0.20553818821511527
14,4,0.0,0.8232515393554631,0.6289120433603634
14,5,1.0,0.8295406597890668,0.0
14,5,0.75,0.8248712383479017,0.46694214411651114
14,5,0.5,0.8162962215972647,1.32444381918021
14,5,0.25,0.8268534908684774,0.26871689205894
14,5,0.0,0.8222343710393056,0.7306288749761136
14,6,1.0,0.8295406597890668,0.0
14,6,0.75,0.8342813936877818,-0.47407338987149883
14,6,0.5,0.8291502088382405,0.03904509508262377
14,6,0.25,0.8291354248536145,0.04052349354523033
14,6,0.0,0.8277500251424463,0.1790634646620437
14,7,1.0,0.8295406597890668,0.0
14,7,0.75,0.8269533238584394,0.25873359306273214
14,7,0.5,0.8269125109437009,0.2628148845365885
14,7,0.25,0.8097465995684329,1.9794060220633902
14,7,0.0,0.7899519657769299,3.9588694012136827
14,8,1.0,0.8295406597890668,0.0
14,8,0.75,0.8377123331920134,-0.8171673402946666
14,8,0.5,0.8415060212543327,-1.1965361465265945
14,8,0.25,0.8393799155565972,-0.9839255767530419
14,8,0.0,0.8154144097891167,1.4126249999950047
15,0,1.0,0.8828321085630721,0.0
15,0,0.75,0.8866066584154075,-0.3774549852335385
15,0,0.5,0.887324100730305,-0.4491992167232839
15,0,0.25,0.8840913917155068,-0.12592831524346204
15,0,0.0,0.8779679280504308,0.48641805126413695
15,1,1.0,0.8828321085630721,0.0
15,1,0.75,0.8826604636862401,0.017164487683207774
15,1,0.5,0.8891089819147442,-0.6276873351672041
15,1,0.25,0.8835217651287688,-0.06896565656966391
15,1,0.0,0.8829790009310502,-0.01468923679780465
15,2,1.0,0.8828321085630721,0.0
15,2,0.75,0.8889885081777378,-0.6156399614665631
15,2,0.5,0.8882187453988376,-0.5386636835765457
15,2,0.25,0.8812621676781661,0.15699408849060292
15,2,0.0,0.8518310533120657,3.1001055251006493
15,3,1.0,0.8828321085630721,0.0
15,3,0.75,0.8823052222395527,0.052688632351949316
15,3,0.5,0.8720042062167642,1.0827902346307927
15,3,0.25,0.8795880749527505,0.32440336103216616
15,3,0.0,0.8658263031540024,1.7005805409069708
15,4,1.0,0.8828321085630721,0.0
15,4,0.75,0.8845320526679158,-0.16999441048436426
15,4,0.5,0.8815631708263287,0.1268937736743414
15,4,0.25,0.8771122308076394,0.5719877755432701
15,4,0.0,0.8892235514107545,-0.6391442847682338
15,5,1.0,0.8828321085630721,0.0
15,5,0.75,0.8892234326467419,-0.6391324083669714
15,5,0.5,0.8952460317936948,-1.2413923230622625
15,5,0.25,0.893783270206225,-1.0951161643152796
15,5,0.0,0.8912478313097828,-0.8415722746710652
15,6,1.0,0.8828321085630721,0.0
15,6,0.75,0.8799172953851601,0.291481317791209
15,6,0.5,0.8750918836971686,0.7740224865903533
15,6,0.25,0.8743530739832885,0.8479034579783606
15,6,0.0,0.8535613229634076,2.927078559966456
15,7,1.0,0.8828321085630721,0.0
15,7,0.75,0.874839219491819,0.7992889071253173
15,7,0.5,0.8652536396275546,1.757846893551751
15,7,0.25,0.8808344912026885,0.1997617360383619
15,7,0.0,0.8840713656113728,-0.12392570483006349
15,8,1.0,0.8828321085630721,0.0
15,8,0.75,0.8905815065110199,-0.7749397947947712
15,8,0.5,0.8957297441918054,-1.289763562873325
15,8,0.25,0.8884325746234288,-0.560046606035669
15,8,0.0,0.8753697190698584,0.7462389493213761
16,0,1.0,0.8934213484514195,0.0
16,0,0.75,0.9013823876151498,-0.7961039163730255
16,0,0.5,0.899504439976773,-0.6083091525353468
16,0,0.25,0.8956108995171495,-0.21895510657299333
16,0,0.0,0.8901704054475116,0.32509430039079357
16,1,1.0,0.8934213484514195,0.0
16,1,0.75,0.9035812240091077,-1.0159875557688158
16,1,0.5,0.9048815852080205,-1.1460236756601017
16,1,0.25,0.895312169573578,-0.1890821122158437
16,1,0.0,0.8992168282974339,-0.5795479846014362
16,2,1.0,0.8934213484514195,0.0
16,2,0.75,0.9022393941306889,-0.881804567926936
16,2,0.5,0.9009656964051435,-0.754434795372394
16,2,0.25,0.8917529496902865,0.16683987611330053
16,2,0.0,0.8872844535229856,0.6136894928433945
16,3,1.0,0.8934213484514195,0.0
16,3,0.75,0.8974117090138334,-0.3990360562413864
16,3,0.5,0.8980052287406,-0.4583880289180442
16,3,0.25,0.9083074699327895,-1.488612148137003
16,3,0.0,0.9053461460439699,-1.1924797592550385
16,4,1.0,0.8934213484514195,0.0
16,4,0.75,0.8917517921349495,0.16695563164700333
16,4,0.5,0.8795859474417995,1.3835401009619996
16,4,0.25,0.8800683950715391,1.3352953379880406
16,4,0.0,0.8933300325242031,0.009131592721645099
16,5,1.0,0.8934213484514195,0.0
16,5,0.75,0.8726875640051963,2.0733784446223202
16,5,0.5,0.8536150603271113,3.98062881243082
16,5,0.25,0.8604159558066643,3.3005392644755216
16,5,0.0,0.8815072063976029,1.1914142053816579
16,6,1.0,0.8934213484514195,0.0
16,6,0.75,0.9022306583789487,-0.8809309927529152
16,6,0.5,0.896896156063455,-0.34748076120354465
16,6,0.25,0.9004331919868588,-0.7011843535439266
16,6,0.0,0.8967411321084974,-0.3319783657077857
16,7,1.0,0.8934213484514195,0.0
16,7,0.75,0.8882156892272292,0.5205659224190362
16,7,0.5,0.8757584009560555,1.7662947495364012
16,7,0.25,0.856066936529368,3.7354411922051467
16,7,0.0,0.8454702999458072,4.795104850561227
16,8,1.0,0.8934213484514195,0.0
16,8,0.75,0.9009570387515734,-0.7535690300153886
16,8,0.5,0.885663605060402,0.7757743391017535
16,8,0.25,0.8800916419427115,1.3329706508708017
16,8,0.0,0.8812055668483829,1.2215781603036602
17,0,1.0,0.8214163865299742,0.0
17,0,0.75,0.8264512371857358,-0.5034850655761591
17,0,0.5,0.8203079667529176,0.11084197770565574
17,0,0.25,0.823879190919693,-0.2462804389718798
17,0,0.0,0.8229862733810931,-0.1569886851118918
17,1,1.0,0.8214163865299742,0.0
17,1,0.75,0.8368206078785406,-1.540422134856645
17,1,0.5,0.8499900131579795,-2.8573626628005333
17,1,0.25,0.8573601856963096,-3.594379916633539
17,1,0.0,0.8364631510327317,-1.5046764502757548
17,2,1.0,0.8214163865299742,0.0
17,2,0.75,0.8247862497816095,-0.3369863251635352
17,2,0.5,0.8297312555804685,-0.8314869050494278
17,2,0.25,0.821337491909826,0.007889462014820658
17,2,0.0,0.8273390422078842,-0.592265567791006
17,3,1.0,0.8214163865299742,0.0
17,3,0.75,0.8235206267180837,-0.21042401881095074
17,3,0.5,0.827170563902198,-0.5754177372223834
17,3,0.25,0.8250730049022783,-0.36566183723041323
17,3,0.0,0.8158395744383006,0.55768120916736
17,4,1.0,0.8214163865299742,0.0
17,4,0.75,0.8308099503583418,-0.9393563828367646
17,4,0.5,0.8165813390573621,0.48350474726120973
17,4,0.25,0.8232476951926124,-0.18313086626382535
17,4,0.0,0.8219502932779149,-0.05339067479407378
17,5,1.0,0.8214163865299742,0.0
17,5,0.75,0.8218124535394316,-0.03960670094573793
17,5,0.5,0.8167552486090595,0.4661137920914715
17,5,0.25,0.8131654306758583,0.8250955854115838
17,5,0.0,0.8129258306437239,0.8490555886250251
17,6,1.0,0.8214163865299742,0.0
17,6,0.75,0.8293432360808402,-0.7926849550865978
17,6,0.5,0.8361716902992712,-1.4755303769297012
17,6,0.25,0.8273535390993936,-0.5937152569419402
17,6,0.0,0.816723148704376,0.4693237825598162
17,7,1.0,0.8214163865299742,0.0
17,7,0.75,0.8391604916518693,-1.774410512189517
17,7,0.5,0.8355080830978561,-1.4091696567881895
17,7,0.25,0.8183992760550611,0.3017110474913043
17,7,0.0,0.7933516237482086,2.8064762781765618
17,8,1.0,0.8214163865299742,0.0
17,8,0.75,0.824626939260766,-0.3210552730791849
17,8,0.5,0.8200820841455198,0.13343023844544222
17,8,0.25,0.8072745984916821,1.4141788038292025
17,8,0.0,0.770634495841777,5.078189068819716
18,0,1.0,0.9185083834986866,0.0
18,0,0.75,0.9095581874850313,0.895019601365532
18,0,0.5,0.9006491411460738,1.7859242352612825
18,0,0.25,0.8959626218613147,2.2545761637371875
18,0,0.0,0.8924632678072703,2.604511569141632
18,1,1.0,0.9185083834986866,0.0
18,1,0.75,0.9174382275548408,0.10701559438457409
18,1,0.5,0.9167301109589039,0.17782725397826882
18,1,0.25,0.9109725711783323,0.7535812320354274
18,1,0.0,0.926528321148793,-0.8019937650106446
18,2,1.0,0.9185083834986866,0.0
18,2,0.75,0.9158358653174835,0.2672518181203065
18,2,0.5,0.9162874820864606,0.2220901412225973
18,2,0.25,0.9166455154961908,0.1862868002495799
18,2,0.0,0.9131770211116877,0.5331362386998828
18,3,1.0,0.9185083834986866,0.0
18,3,0.75,0.9138067549414267,0.47016285572598626
18,3,0.5,0.9044701293633185,1.4038254135368078
18,3,0.25,0.8736605209113779,4.484786258730866
18,3,0.0,0.8246430850071422,9.386529849154435
18,4,1.0,0.9185083834986866,0.0
18,4,0.75,0.9156169408552454,0.2891442643441211
18,4,0.5,0.9197541863868772,-0.12458028881906502
18,4,0.25,0.9151062373688249,0.3402146129861672
18,4,0.0,0.9069960479975564,1.1512335501130178
18,5,1.0,0.9185083834986866,0.0
18,5,0.75,0.9032735960589388,1.5234787439747821
18,5,0.5,0.8965725674121874,2.1935816086499194
18,5,0.25,0.9001094823712561,1.8398901127430478
18,5,0.0,0.9068350593814313,1.1673324117255302
18,6,1.0,0.9185083834986866,0.0
18,6,0.75,0.9224476436805203,-0.393926018183377
18,6,0.5,0.9222108016147288,-0.37024181160422165
18,6,0.25,0.92253673088157,-0.40283473828833793
18,6,0.0,0.925006731454648,-0.6498347955961381
18,7,1.0,0.9185083834986866,0.0
18,7,0.75,0.8856665711993381,3.284181229934846
18,7,0.5,0.8761813649210879,4.232701857759869
18,7,0.25,0.8636970034475505,5.481138005113606
18,7,0.0,0.855158238016008,6.335014548267859
18,8,1.0,0.9185083834986866,0.0
18,8,0.75,0.9151912901912902,0.33170933073963793
18,8,0.5,0.9066747246843944,1.1833658814292214
18,8,0.25,0.9041897637948506,1.4318619703835966
18,8,0.0,0.8901331799450023,2.837520355368428
19,0,1.0,0.8589622453198558,0.0
19,0,0.75,0.8656141585442956,-0.6651913224439809
19,0,0.5,0.8585581397862156,0.040410553364012
19,0,0.25,0.8599429817983361,-0.0980736478480293
19,0,0.0,0.865931288887416,-0.6969043567560229
19,1,1.0,0.8589622453198558,0.0
19,1,0.75,0.8622003583062634,-0.32381129864076375
19,1,0.5,0.8617413219244412,-0.27790766045854287
19,1,0.25,0.8582048859175752,0.07573594022806107
19,1,0.0,0.8462496091867876,1.2712636133068167
19,2,1.0,0.8589622453198558,0.0
19,2,0.75,0.8564436871251055,0.251855819475022
19,2,0.5,0.8547889178226841,0.4173327497171697
19,2,0.25,0.8511253614328795,0.7836883886976231
19,2,0.0,0.8523810728744938,0.6581172445361938
19,3,1.0,0.8589622453198558,0.0
19,3,0.75,0.8676248502499314,-0.8662604930075646
19,3,0.5,0.8551778768219573,0.3784368497898427
19,3,0.25,0.8422664183135409,1.669582700631489
19,3,0.0,0.8272342247318918,3.172802058796398
19,4,1.0,0.8589622453198558,0.0
19,4,0.75,0.8640993272768739,-0.5137081957018119
19,4,0.5,0.857613909082166,0.13483362376898178
19,4,0.25,0.8499809254730349,0.8981319846820823
19,4,0.0,0.8587289507949458,0.023329452490994385
19,5,1.0,0.8589622453198558,0.0
19,5,0.75,0.8576494595526785,0.13127857671773047
19,5,0.5,0.8472787928398925,1.1683452479963274
19,5,0.25,0.8434205767769887,1.5541668542867093
19,5,0.0,0.8396002139948475,1.9362031325008244
19,6,1.0,0.8589622453198558,0.0
19,6,0.75,0.864546986004628,-0.5584740684772216
19,6,0.5,0.8751856831413252,-1.62234378214694
19,6,0.25,0.8833532731743603,-2.4391027854504532
19,6,0.0,0.8855753909743047,-2.6613145654448944
19,7,1.0,0.8589622453198558,0.0
19,7,0.75,0.8585910420864814,0.0371203233374362
19,7,0.5,0.8575067568396086,0.14554884802471246
19,7,0.25,0.8616345396959071,-0.26722943760513207
19,7,0.0,0.8549485292646888,0.40137160551669826
19,8,1.0,0.8589622453198558,0.0
19,8,0.75,0.8606916849781504,-0.17294396582946403
19,8,0.5,0.8600456330549755,-0.10833877351197341
19,8,0.25,0.8607068182004594,-0.17445728806035898
19,8,0.0,0.8548190251400404,0.4143220179815388
20,0,1.0,0.8444574086619949,0.0
20,0,0.75,0.8231272618004768,2.133014686151813
20,0,0.5,0.8234743062822047,2.0983102379790175
20,0,0.25,0.8482853816656131,-0.3827973003618146
20,0,0.0,0.8477733826094148,-0.33159739474198924
20,1,1.0,0.8444574086619949,0.0
20,1,0.75,0.8429966060476914,0.14608026143034802
20,1,0.5,0.8274013726746372,1.705603598735772
20,1,0.25,0.8215679829708703,2.288942569112462
20,1,0.0,0.8150048451622628,2.945256349973213
20,2,1.0,0.8444574086619949,0.0
20,2,0.75,0.8436248188644877,0.08325897975072216
20,2,0.5,0.8344710299587828,0.9986378703212173
20,2,0.25,0.8185652731103491,2.5892135551645823
20,2,0.0,0.8098035570240422,3.465385163795276
20,3,1.0,0.8444574086619949,0.0
20,3,0.75,0.8393354624768419,0.5121946185153048
20,3,0.5,0.8196131210682623,2.4844287593732584
20,3,0.25,0.8222376987594282,2.221970990256672
20,3,0.0,0.8183350492602839,2.6122359401711037
20,4,1.0,0.8444574086619949,0.0
20,4,0.75,0.8514852813011247,-0.702787263912974
20,4,0.5,0.8568053404844587,-1.2347931822463742
20,4,0.25,0.8408528267446909,0.36045819173040616
20,4,0.0,0.8374030925280137,0.705431613398122
20,5,1.0,0.8444574086619949,0.0
20,5,0.75,0.8466875071116743,-0.2230098449679363
20,5,0.5,0.8377101394656317,0.6747269196363259
20,5,0.25,0.8348247557267713,0.963265293522364
20,5,0.0,0.8327617596016372,1.1695649060357693
20,6,1.0,0.8444574086619949,0.0
20,6,0.75,0.8539417904032822,-0.9484381741287295
20,6,0.5,0.8404139133132541,0.4043495348740822
20,6,0.25,0.8399910422277799,0.4466366434215052
20,6,0.0,0.8223822113499725,2.2075197312022454
20,7,1.0,0.8444574086619949,0.0
20,7,0.75,0.842480291811179,0.19771168508159187
20,7,0.5,0.8491696315048264,-0.47122228428314594
20,7,0.25,0.8392333666099873,0.522404205200766
20,7,0.0,0.8279719474408411,1.6485461221153797
20,8,1.0,0.8444574086619949,0.0
20,8,0.75,0.8471812401346783,-0.27238314726834023
20,8,0.5,0.8332470718526064,1.1210336809388544
20,8,0.25,0.8134674451154988,3.098996354649608
20,8,0.0,0.78091701217355,6.3540396488444895
21,0,1.0,0.8671519171967865,0.0
21,0,0.75,0.8698607683628342,-0.27088511660476877
21,0,0.5,0.8534546884532128,1.3697228743573708
21,0,0.25,0.8471000075612696,2.005190963551695
21,0,0.0,0.8245196361063601,4.263228109042638
21,1,1.0,0.8671519171967865,0.0
21,1,0.75,0.8795601026796671,-1.2408185482880585
21,1,0.5,0.8763330173605138,-0.9181100163727307
21,1,0.25,0.8750820912192311,-0.7930174022444558
21,1,0.0,0.8720043238476809,-0.485240665089437
21,2,1.0,0.8671519171967865,0.0
21,2,0.75,0.8665468516631467,0.060506553363981475
21,2,0.5,0.8654683698296837,0.16835473671028556
21,2,0.25,0.8595731112522059,0.7578805944580602
21,2,0.0,0.8639897304053208,0.31621867914657376
21,3,1.0,0.8671519171967865,0.0
21,3,0.75,0.8600919084286122,0.7060008768174364
21,3,0.5,0.8499477969445772,1.7204120252209298
21,3,0.25,0.8405799048626841,2.6572012334102446
21,3,0.0,0.8097766392825976,5.737527791418895
21,4,1.0,0.8671519171967865,0.0
21,4,0.75,0.8606513861405167,0.6500531056269798
21,4,0.5,0.8619962135903626,0.5155703606423923
21,4,0.25,0.852533587220988,1.4618329975798483
21,4,0.0,0.8432081374669667,2.394377972981987
21,5,1.0,0.8671519171967865,0.0
21,5,0.75,0.8665441023534526,0.06078148433339425
21,5,0.5,0.8587314650864928,0.8420452110293741
21,5,0.25,0.8660709765177107,0.10809406790758258
21,5,0.0,0.8765110716154506,-0.9359154418664084
21,6,1.0,0.8671519171967865,0.0
21,6,0.75,0.8646074454846235,0.2544471712162988
21,6,0.5,0.8640246692108576,0.3127247985928894
21,6,0.25,0.8577122676131517,0.9439649583634857
21,6,0.0,0.8662458239793276,0.09060932174589365
21,7,1.0,0.8671519171967865,0.0
21,7,0.75,0.8606693235631984,0.6482593633588163
21,7,0.5,0.8589032912242631,0.8248625972523405
21,7,0.25,0.8654011139734836,0.17508032233028992
21,7,0.0,0.8729185538539501,-0.5766636657163593
21,8,1.0,0.8671519171967865,0.0
21,8,0.75,0.8595415243847415,0.7610392812045008
21,8,0.5,0.8616980050840639,0.5453912112722614
21,8,0.25,0.8542406964413176,1.291122075546891
21,8,0.0,0.8470374098664952,2.01145073302913
22,0,1.0,0.8324392090599364,0.0
22,0,0.75,0.8464841347869715,-1.4044925727035085
22,0,0.5,0.8388362749389231,-0.6397065878986696
22,0,0.25,0.8345691158156912,-0.21299067557547513
22,0,0.0,0.8468305904508142,-1.439138139087781
22,1,1.0,0.8324392090599364,0.0
22,1,0.75,0.8435055721752027,-1.106636311526632
22,1,0.5,0.8487849923009874,-1.634578324105096
22,1,0.25,0.8534326797477009,-2.099347068776447
22,1,0.0,0.8589751908372337,-2.6535981777297324
22,2,1.0,0.8324392090599364,0.0
22,2,0.75,0.8383794355969534,-0.5940226537016979
22,2,0.5,0.835938619652846,-0.3499410592909591
22,2,0.25,0.8236997738146585,0.8739435245277871
22,2,0.0,0.8180185351190887,1.4420673940847673
22,3,1.0,0.8324392090599364,0.0
22,3,0.75,0.8212934189193213,1.114579014061512
22,3,0.5,0.8110984208243224,2.1340788235614028
22,3,0.25,0.7964394713479948,3.599973771194165
22,3,0.0,0.7878900567673424,4.454915229259404
22,4,1.0,0.8324392090599364,0.0
22,4,0.75,0.8343269880764743,-0.1887779016537916
22,4,0.5,0.8114571302469578,2.0982078812978644
22,4,0.25,0.7988305179315334,3.3608691128403034
22,4,0.0,0.8056249825634852,2.6814226496451155
22,5,1.0,0.8324392090599364,0.0
22,5,0.75,0.8230480046269519,0.9391204432984468
22,5,0.5,0.8129546161385786,1.9484592921357846
22,5,0.25,0.8129314105660854,1.950779849385098
22,5,0.0,0.801861781326835,3.0577427733101348
22,6,1.0,0.8324392090599364,0.0
22,6,0.75,0.8211765969683823,1.1262612091554103
22,6,0.5,0.8205828779599271,1.1856331100009276
22,6,0.25,0.8286993350852047,0.37398739747317444
22,6,0.0,0.8266953848937917,0.5743824166144718
22,7,1.0,0.8324392090599364,0.0
22,7,0.75,0.8153921545379513,1.7047054521985072
22,7,0.5,0.8021806944121522,3.0258514647784174
22,7,0.25,0.7707691902609188,6.167001879901757
22,7,0.0,0.7559897444841347,7.64494645758017
22,8,1.0,0.8324392090599364,0.0
22,8,0.75,0.8414303552896907,-0.8991146229754277
22,8,0.5,0.8357956286025874,-0.3356419542650979
22,8,0.25,0.8389826835666415,-0.6543474506705116
22,8,0.0,0.826004515149804,0.6434693910132405
23,0,1.0,0.8009716106920375,0.0
23,0,0.75,0.7862510748860736,1.4720535805963886
23,0,0.5,0.7701724826822496,3.07991280097879
23,0,0.25,0.7591529840553396,4.181862663669788
23,0,0.0,0.7184272573009025,8.254435339113497
23,1,1.0,0.8009716106920375,0.0
23,1,0.75,0.8010775032036376,-0.010589251160009194
23,1,0.5,0.7987321139119627,0.22394967800747345
23,1,0.25,0.7872651212927144,1.3706489399323063
23,1,0.0,0.7805292827720947,2.0442327919942826
23,2,1.0,0.8009716106920375,0.0
23,2,0.75,0.8001012258584557,0.08703848335818165
23,2,0.5,0.8003979363531435,0.057367433889399244
23,2,0.25,0.7967355506115197,0.42360600805178006
23,2,0.0,0.7918162249005036,0.9155385791533854
23,3,1.0,0.8009716106920375,0.0
23,3,0.75,0.8114793954374164,-1.0507784745378945
23,3,0.5,0.8130212666582854,-1.2049655966247963
23,3,0.25,0.8026126239515033,-0.16410132594658622
23,3,0.0,0.7785531669891046,2.241844370293289
23,4,1.0,0.8009716106920375,0.0
23,4,0.75,0.8030970565318566,-0.21254458398191067
23,4,0.5,0.7908790112366487,1.0092599455388762
23,4,0.25,0.7817502189126123,1.9221391779425168
23,4,0.0,0.7789726635676787,2.199894712435879
23,5,1.0,0.8009716106920375,0.0
23,5,0.75,0.7977340548376834,0.3237555854354035
23,5,0.5,0.808446605774134,-0.7474995082096481
23,5,0.25,0.802064842766756,-0.10932320747185642
23,5,0.0,0.7914727444482338,0.9498866243803694
23,6,1.0,0.8009716106920375,0.0
23,6,0.75,0.803540113781493,-0.2568503089455554
23,6,0.5,0.8022969865491931,-0.13253758571556418
23,6,0.25,0.7966758242821405,0.4295786409897029
23,6,0.0,0.8004575429300681,0.05140677619693834
23,7,1.0,0.8009716106920375,0.0
23,7,0.75,0.8017443402092019,-0.07727295171644499
23,7,0.5,0.8038921157752946,-0.2920505083257141
23,7,0.25,0.7858186653393873,1.5152945352650216
23,7,0.0,0.7831756921442184,1.7795918547819034
23,8,1.0,0.8009716106920375,0.0
23,8,0.75,0.7907763493865093,1.019526130552817
23,8,0.5,0.7897216627142863,1.124994797775114
23,8,0.25,0.7897384412085865,1.1233169483450989
23,8,0.0,0.7851555272100917,1.5816083481945742
24,0,1.0,0.7508842693005924,0.0
24,0,0.75,0.7426834139458294,0.8200855354763004
24,0,0.5,0.7392826677465232,1.1601601554069196
24,0,0.25,0.735060215583374,1.58240537172184
24,0,0.0,0.7433910760454074,0.7493193255184938
24,1,1.0,0.7508842693005924,0.0
24,1,0.75,0.7586882582933626,-0.7803988992770239
24,1,0.5,0.7663988009166481,-1.551453161605576
24,1,0.25,0.7676652494817304,-1.678098018113805
24,1,0.0,0.7759741816846444,-2.5089912384052004
24,2,1.0,0.7508842693005924,0.0
24,2,0.75,0.7722147342007023,-2.1330464900109924
24,2,0.5,0.7669459849829967,-1.6061715682404332
24,2,0.25,0.7753622821322028,-2.447801283161044
24,2,0.0,0.7635642790989596,-1.2680009798367253
24,3,1.0,0.7508842693005924,0.0
24,3,0.75,0.770875203255582,-1.9990933954989631
24,3,0.5,0.7890111324988844,-3.812686319829206
24,3,0.25,0.8105779172974669,-5.969364799687449
24,3,0.0,0.7917954288426041,-4.091115954201174
24,4,1.0,0.7508842693005924,0.0
24,4,0.75,0.7761108274678433,-2.5226558167250945
24,4,0.5,0.7502289639923,0.06553053082923865
24,4,0.25,0.7333562171797466,1.7528052120845738
24,4,0.0,0.7110888936803902,3.979537562020219
24,5,1.0,0.7508842693005924,0.0
24,5,0.75,0.7416150287794984,0.9269240521094013
24,5,0.5,0.7238091027746201,2.7075166525972305
24,5,0.25,0.7039640900177013,4.692017928289105
24,5,0.0,0.693388887063391,5.7495382237201405
24,6,1.0,0.7508842693005924,0.0
24,6,0.75,0.7580437318031348,-0.7159462502542402
24,6,0.5,0.7500895127853242,0.0794756515268169
24,6,0.25,0.7570847446663993,-0.6200475365806923
24,6,0.0,0.7541865266888923,-0.3302257388299923
24,7,1.0,0.7508842693005924,0.0
24,7,0.75,0.7621885094496581,-1.1304240149065725
24,7,0.5,0.7762163890630387,-2.5332119762446315
24,7,0.25,0.7666686930767149,-1.5784423776122547
24,7,0.0,0.7311202380277328,1.9764031272859528
24,8,1.0,0.7508842693005924,0.0
24,8,0.75,0.7535522478540698,-0.2667978553477446
24,8,0.5,0.7500953115148825,0.07889577857098651
24,8,0.25,0.7459826185351115,0.49016507654808805
24,8,0.0,0.7478662286943499,0.3018040606242445
25,0,1.0,0.9165231324703336,0.0
25,0,0.75,0.9200328266514775,-0.35096941811438853
25,0,0.5,0.9222121074520071,-0.5688974981673534
25,0,0.25,0.9326785137568819,-1.6155381286548365
25,0,0.0,0.9149389216023845,0.15842108679490208
25,1,1.0,0.9165231324703336,0.0
25,1,0.75,0.9307490196566977,-1.4225887186364083
25,1,0.5,0.9267084712677344,-1.01853387974008
25,1,0.25,0.9276989443562018,-1.1175811885868248
25,1,0.0,0.9190871516261861,-0.25640191558525816
25,2,1.0,0.9165231324703336,0.0
25,2,0.75,0.9241555353130355,-0.7632402842701946
25,2,0.5,0.9248314171107055,-0.8308284640371921
25,2,0.25,0.9198581692071182,-0.3335036736784591
25,2,0.0,0.9125137794378669,0.4009353032466634
25,3,1.0,0.9165231324703336,0.0
25,3,0.75,0.914867286343779,0.1655846126554561
25,3,0.5,0.9167327445359712,-0.020961206563763213
25,3,0.25,0.904682730464794,1.1840402005539596
25,3,0.0,0.8866002769304588,2.9922855539874726
25,4,1.0,0.9165231324703336,0.0
25,4,0.75,0.9108716244155411,0.565150805479242
25,4,0.5,0.9031146997207692,1.340843274956438
25,4,0.25,0.8934043314295416,2.3118801040792003
25,4,0.0,0.8999123428388317,1.6610789631501865
25,5,1.0,0.9165231324703336,0.0
25,5,0.75,0.9258387164586726,-0.9315583988338982
25,5,0.5,0.9178784103629732,-0.13552778926396725
25,5,0.25,0.9116196769140719,0.49034555562617044
25,5,0.0,0.9090419890883279,0.7481143382005673
25,6,1.0,0.9165231324703336,0.0
25,6,0.75,0.9233190096716666,-0.6795877201333012
25,6,0.5,0.923856472075265,-0.7333339604931433
25,6,0.25,0.9115516068443381,0.49715256259954543
25,6,0.0,0.9179587773337774,-0.143564486344383
25,7,1.0,0.9165231324703336,0.0
25,7,0.75,0.9164701983041237,0.005293416620988367
25,7,0.5,0.9103776244480828,0.6145508022250779
25,7,0.25,0.8806268754032953,3.589625706703825
25,7,0.0,0.8789891626619788,3.7533969808354772
25,8,1.0,0.9165231324703336,0.0
25,8,0.75,0.9275903876178913,-1.1067255147557686
25,8,0.5,0.9287704714982925,-1.2247339027958937
25,8,0.25,0.9257431940240131,-0.9220061553679493
25,8,0.0,0.9239095713542957,-0.7386438883962176
26,0,1.0,0.7504838121594973,0.0
26,0,0.75,0.7474200294920585,0.3063782667438786
26,0,0.5,0.7503691188883393,0.0114693271157984
26,0,0.25,0.7430879788228227,0.7395833336674595
26,0,0.0,0.7486513141843202,0.18324979751771497
26,1,1.0,0.7504838121594973,0.0
26,1,0.75,0.75739608028737,-0.6912268127872712
26,1,0.5,0.7735430311720985,-2.3059219012601218
26,1,0.25,0.7718229256681248,-2.1339113508627494
26,1,0.0,0.7745457815039576,-2.4061969344460254
26,2,1.0,0.7504838121594973,0.0
26,2,0.75,0.7525552722052199,-0.20714600457225618
26,2,0.5,0.7450667679513834,0.5417044208113952
26,2,0.25,0.7378761280872949,1.2607684072202474
26,2,0.0,0.718413394345295,3.207041781420228
26,3,1.0,0.7504838121594973,0.0
26,3,0.75,0.7466864358982513,0.3797376261245988
26,3,0.5,0.7408966080929479,0.9587204066549448
26,3,0.25,0.741564265197115,0.8919546962382285
26,3,0.0,0.7308937601320122,1.9590052027485094
26,4,1.0,0.7504838121594973,0.0
26,4,0.75,0.7483567988929107,0.2127013266586597
26,4,0.5,0.7369599791844714,1.3523832975025907
26,4,0.25,0.7316630372862858,1.8820774873211543
26,4,0.0,0.7254316303588247,2.505218180067259
26,5,1.0,0.7504838121594973,0.0
26,5,0.75,0.7452400951117786,0.5243717047718754
26,5,0.5,0.7251130871041629,2.537072505533444
26,5,0.25,0.7232556023911388,2.722820976835849
26,5,0.0,0.7229902328418837,2.749357931761365
26,6,1.0,0.7504838121594973,0.0
26,6,0.75,0.7528856440808241,-0.24018319213268136
26,6,0.5,0.7430627295251744,0.7421082634322951
26,6,0.25,0.7338457246411073,1.6638087518390021
26,6,0.0,0.7262140836860427,2.4269728473454655
26,7,1.0,0.7504838121594973,0.0
26,7,0.75,0.7678980980068849,-1.7414285847387578
26,7,0.5,0.7693495455581458,-1.8865733398648499
26,7,0.25,0.7337137084227989,1.6770103736698405
26,7,0.0,0.7116131860395188,3.887062611997849
26,8,1.0,0.7504838121594973,0.0
26,8,0.75,0.7582360602948459,-0.7752248135348583
26,8,0.5,0.7477912440429478,0.26925681165494986
26,8,0.25,0.7365895559817504,1.3894256177746978
26,8,0.0,0.7350023139944223,1.5481498165075047
27,0,1.0,0.9031358632442016,0.0
27,0,0.75,0.9140459410809948,-1.0910077836793208
27,0,0.5,0.9173066293893594,-1.4170766145157776
27,0,0.25,0.9170928707546009,-1.39570075103993
27,0,0.0,0.9076328314674597,-0.4496968223258069
27,1,1.0,0.9031358632442016,0.0
27,1,0.75,0.9125616615023394,-0.942579825813783
27,1,0.5,0.8983020245393316,0.4833838704869975
27,1,0.25,0.9010566154686215,0.20792477755801064
27,1,0.0,0.908638179869393,-0.5502316625191406
27,2,1.0,0.9031358632442016,0.0
27,2,0.75,0.8974663105791671,0.5669552665034439
27,2,0.5,0.8861566452623224,1.697921798187918
27,2,0.25,0.8766850694633297,2.6450793780871895
27,2,0.0,0.8657188859451992,3.7416977299002396
27,3,1.0,0.9031358632442016,0.0
27,3,0.75,0.9132564348746686,-1.012057163046698
27,3,0.5,0.9101451243162634,-0.700926107206179
27,3,0.25,0.9005981355929169,0.25377276512846825
27,3,0.0,0.8936778603829938,0.9458002861207793
27,4,1.0,0.9031358632442016,0.0
27,4,0.75,0.9048744055778073,-0.17385423336057082
27,4,0.5,0.9034499659176616,-0.031410267345999277
27,4,0.25,0.9030259289869977,0.010993425720384753
27,4,0.0,0.9071303076365758,-0.39944443923741746
27,5,1.0,0.9031358632442016,0.0
27,5,0.75,0.9075355819716944,-0.4399718727492785
27,5,0.5,0.9022747705138652,0.08610927303364102
27,5,0.25,0.904816764432149,-0.16809011879473923
27,5,0.0,0.9063702313525885,-0.32343681083869535
27,6,1.0,0.9031358632442016,0.0
27,6,0.75,0.9073422996473456,-0.4206436403143998
27,6,0.5,0.9070715106410756,-0.393564739687402
27,6,0.25,0.908398752481039,-0.5262889236837376
27,6,0.0,0.9080726834826125,-0.49368202384109106
27,7,1.0,0.9031358632442016,0.0
27,7,0.75,0.9022662640247385,0.08695992194630575
27,7,0.5,0.8968341126791831,0.6301750565018471
27,7,0.25,0.8837008538648684,1.943500937933318
27,7,0.0,0.8754711592752301,2.766470396897147
27,8,1.0,0.9031358632442016,0.0
27,8,0.75,0.8994156271807958,0.37202360634057685
27,8,0.5,0.9070858176269462,-0.39499543827445915
27,8,0.25,0.9145361352580172,-1.140027201381566
27,8,0.0,0.9144101284824937,-1.1274265238292114
28,0,1.0,0.8432869438392068,0.0
28,0,0.75,0.869730437563407,-2.6443493724200184
28,0,0.5,0.8748665534440261,-3.1579609604819314
28,0,0.25,0.8772154885424271,-3.3928544703220376
28,0,0.0,0.8660260484655908,-2.2739104626384066
28,1,1.0,0.8432869438392068,0.0
28,1,0.75,0.842997234816828,0.028970902237879237
28,1,0.5,0.8476050807826538,-0.43181369434470707
28,1,0.25,0.8477400662769065,-0.4453122437699686
28,1,0.0,0.8504784427176768,-0.7191498878470037
28,2,1.0,0.8432869438392068,0.0
28,2,0.75,0.8389417820573061,0.4345161781900697
28,2,0.5,0.8394014221509363,0.3885521688270499
28,2,0.25,0.8289335108566829,1.4353432982523895
28,2,0.0,0.8057980687857151,3.7488875053491633
28,3,1.0,0.8432869438392068,0.0
28,3,0.75,0.8366067195612271,0.6680224277979652
28,3,0.5,0.8373319758559613,0.5954967983245463
28,3,0.25,0.8238948062239599,1.939213761524683
28,3,0.0,0.7965197878253434,4.676715601386339
28,4,1.0,0.8432869438392068,0.0
28,4,0.75,0.825444562390851,1.7842381448355815
28,4,0.5,0.8040395673358512,3.9247376503355524
28,4,0.25,0.8027608292733321,4.052611456587463
28,4,0.0,0.8022010864344489,4.10858574047579
28,5,1.0,0.8432869438392068,0.0
28,5,0.75,0.709456413941033,13.38305298981738
28,5,0.5,0.6799036657157558,16.3383278123451
28,5,0.25,0.6653015557738033,17.798538806540343
28,5,0.0,0.6725053803290547,17.078156351015206
28,6,1.0,0.8432869438392068,0.0
28,6,0.75,0.8457242374483754,-0.2437293609168667
28,6,0.5,0.8407719575952584,0.2514986243948414
28,6,0.25,0.840905412002011,0.2381531837195805
28,6,0.0,0.8355050961759889,0.7781847663217878
28,7,1.0,0.8432869438392068,0.0
28,7,0.75,0.8470608365293621,-0.3773892690155378
28,7,0.5,0.8359946603331979,0.7292283506008856
28,7,0.25,0.8247446446767389,1.8542299162467857
28,7,0.0,0.8223676528464884,2.0919290992718387
28,8,1.0,0.8432869438392068,0.0
28,8,0.75,0.8505154193184499,-0.7228475479243102
28,8,0.5,0.8496605761170711,-0.6373632277864361
28,8,0.25,0.8487765713208449,-0.5489627481638171
28,8,0.0,0.8362831173176002,0.7003826521606582
29,0,1.0,0.8470990818996954,0.0
29,0,0.75,0.8496164670937324,-0.2517385194036992
29,0,0.5,0.83141611316316,1.5682968736535408
29,0,0.25,0.8251487147735308,2.1950367126164605
29,0,0.0,0.8334207213503051,1.3678360549390312
29,1,1.0,0.8470990818996954,0.0
29,1,0.75,0.8392553177505482,0.7843764149147225
29,1,0.5,0.8383033336904756,0.87957482092198
29,1,0.25,0.8373707243204953,0.9728357579200098
29,1,0.0,0.8350411243716089,1.2057957528086471
29,2,1.0,0.8470990818996954,0.0
29,2,0.75,0.8434092959955029,0.3689785904192555
29,2,0.5,0.8331423542887721,1.3956727610923259
29,2,0.25,0.8245570025743341,2.254207932536134
29,2,0.0,0.8163494609318229,3.074962096787248
29,3,1.0,0.8470990818996954,0.0
29,3,0.75,0.8439649574685908,0.31341244311046124
29,3,0.5,0.8414969205675349,0.5602161332160516
29,3,0.25,0.8387956120814537,0.8303469818241704
29,3,0.0,0.8146629503979957,3.243613150169966
29,4,1.0,0.8470990818996954,0.0
29,4,0.75,0.8356828144899315,1.141626740976387
29,4,0.5,0.8224910425312255,2.460803936846989
29,4,0.25,0.8010706202398481,4.602846165984731
29,4,0.0,0.8139692837283199,3.3129798171375513
29,5,1.0,0.8470990818996954,0.0
29,5,0.75,0.8426289112550425,0.44701706446529377
29,5,0.5,0.8326315978421007,1.4467484057594682
29,5,0.25,0.825651073075401,2.144800882429443
29,5,0.0,0.8287854393003466,1.8313642599348756
29,6,1.0,0.8470990818996954,0.0
29,6,0.75,0.8487457137232249,-0.16466318235295319
29,6,0.5,0.8546908349563991,-0.7591753056703676
29,6,0.25,0.8577686945227794,-1.0669612623083968
29,6,0.0,0.8551700002811048,-0.8070918381409387
29,7,1.0,0.8470990818996954,0.0
29,7,0.75,0.8450369078332917,0.20621740664037436
29,7,0.5,0.8440484984813423,0.305058341835307
29,7,0.25,0.8359395488399172,1.1159533059778237
29,7,0.0,0.8307057544759073,1.6393327423788073
29,8,1.0,0.8470990818996954,0.0
29,8,0.75,0.8529789899531222,-0.5879908053426752
29,8,0.5,0.8443098434755516,0.2789238424143803
29,8,0.25,0.8415977949207976,0.5501286978897846
29,8,0.0,0.83281291990346,1.4286161996235447
30,0,1.0,0.8730042310016333,0.0
30,0,0.75,0.8762534652098359,-0.3249234208202667
30,0,0.5,0.8705305367837721,0.24736942178611443
30,0,0.25,0.8678508360399719,0.515339496166134
30,0,0.0,0.8751007814274967,-0.20965504258634304
30,1,1.0,0.8730042310016333,0.0
30,1,0.75,0.8727059470301096,0.02982839715236496
30,1,0.5,0.8658840661631468,0.7120164838486431
30,1,0.25,0.8598091641818706,1.319506681976268
30,1,0.0,0.8482778624661247,2.472636853550858
30,2,1.0,0.8730042310016333,0.0
30,2,0.75,0.8760121808247308,-0.3007949823097489
30,2,0.5,0.8614569975309623,1.1547233470670992
30,2,0.25,0.8689847250940629,0.40195059075703865
30,2,0.0,0.8849700254124974,-1.1965794410864095
30,3,1.0,0.8730042310016333,0.0
30,3,0.75,0.8605378447488777,1.2466386252755535
30,3,0.5,0.859568715607295,1.3435515394338293
30,3,0.25,0.8500756129808013,2.2928618020832015
30,3,0.0,0.8263488322769973,4.665539872463597
30,4,1.0,0.8730042310016333,0.0
30,4,0.75,0.8760643530726044,-0.3060122070971172
30,4,0.5,0.8699303576300945,0.3073873371538749
30,4,0.25,0.8625832347816103,1.0420996220023016
30,4,0.0,0.8651472992952273,0.7856931706406001
30,5,1.0,0.8730042310016333,0.0
30,5,0.75,0.8723768784294879,0.0627352572145412
30,5,0.5,0.8690641267231682,0.39401042784650286
30,5,0.25,0.8639216560419647,0.9082574959668577
30,5,0.0,0.8555589162223118,1.744531477932143
30,6,1.0,0.8730042310016333,0.0
30,6,0.75,0.8721267834483191,0.08774475533142034
30,6,0.5,0.8788683987305486,-0.5864167728915293
30,6,0.25,0.8699923537936176,0.30118772080156564
30,6,0.0,0.8716149626284108,0.13892683732225075
30,7,1.0,0.8730042310016333,0.0
30,7,0.75,0.887227241352589,-1.4223010350955745
30,7,0.5,0.8559231660733894,1.7081064928243905
30,7,0.25,0.8380470592939108,3.49571717077225
30,7,0.0,0.8330780968001986,3.992613420143465
30,8,1.0,0.8730042310016333,0.0
30,8,0.75,0.8649620852351736,0.8042145766459674
30,8,0.5,0.8723956836010038,0.060854740062943335
30,8,0.25,0.8574988322834037,1.5505398718229535
30,8,0.0,0.856593457204949,1.641077379668432
31,0,1.0,0.8073284597325985,0.0
31,0,0.75,0.7995263150930964,0.7802144639502129
31,0,0.5,0.7951226796698299,1.2205780062768623
31,0,0.25,0.7908440089322443,1.6484450800354211
31,0,0.0,0.7735365350071233,3.379192472547521
31,1,1.0,0.8073284597325985,0.0
31,1,0.75,0.7943329999109123,1.299545982168615
31,1,0.5,0.795550962434588,1.1777497298010475
31,1,0.25,0.7859628620924999,2.13655976400986
31,1,0.0,0.7714932312286344,3.5835228503964034
31,2,1.0,0.8073284597325985,0.0
31,2,0.75,0.8084763812315957,-0.11479214989972286
31,2,0.5,0.80371713082179,0.3611328910808509
31,2,0.25,0.7784322250476239,2.8896234684974598
31,2,0.0,0.7715488466878321,3.57796130447664
31,3,1.0,0.8073284597325985,0.0
31,3,0.75,0.8131344339753827,-0.5805974242784173
31,3,0.5,0.8074395494676365,-0.01110897350380391
31,3,0.25,0.7915858721385501,1.574258759404834
31,3,0.0,0.7796712864790758,2.765717325352268
31,4,1.0,0.8073284597325985,0.0
31,4,0.75,0.805189510305333,0.21389494272654463
31,4,0.5,0.8105352123107346,-0.3206752578136074
31,4,0.25,0.789900273029959,1.7428186702639459
31,4,0.0,0.7895782145873378,1.775024514526069
31,5,1.0,0.8073284597325985,0.0
31,5,0.75,0.8166793408882463,-0.9350881155647861
31,5,0.5,0.8046268035516093,0.2701656180989165
31,5,0.25,0.8035956885210411,0.3732771211557351
31,5,0.0,0.8071563482532156,0.017211147938289706
31,6,1.0,0.8073284597325985,0.0
31,6,0.75,0.8050613559878519,0.22671037447465903
31,6,0.5,0.8112932973372923,-0.3964837604693794
31,6,0.25,0.8057645794621124,0.156388027048604
31,6,0.0,0.7906451225368546,1.6683337195743886
31,7,1.0,0.8073284597325985,0.0
31,7,0.75,0.798536892457518,0.8791567275080459
31,7,0.5,0.8044603970525228,0.2868062680075667
31,7,0.25,0.7852967309853667,2.2031728747231805
31,7,0.0,0.7597476589690452,4.758080076355331
31,8,1.0,0.8073284597325985,0.0
31,8,0.75,0.7966325686318734,1.0695891100725108
31,8,0.5,0.7832032137612657,2.412524597133281
31,8,0.25,0.7663352732125656,4.0993186520032925
31,8,0.0,0.758210499054671,4.911796067792751
32,0,1.0,0.8296318632526389,0.0
32,0,0.75,0.8270573521190696,0.2574511133569324
32,0,0.5,0.8182313468730392,1.1400516379599712
32,0,0.25,0.8209199588458237,0.8711904406815241
32,0,0.0,0.8128419203274546,1.678994292518432
32,1,1.0,0.8296318632526389,0.0
32,1,0.75,0.8324314335849238,-0.279957033228484
32,1,0.5,0.8273124462810862,0.23194169715526902
32,1,0.25,0.8164674364384552,1.3164426814183727
32,1,0.0,0.7999997452009351,2.963211805170385
32,2,1.0,0.8296318632526389,0.0
32,2,0.75,0.8291711267097255,0.046073654291345356
32,2,0.5,0.8190980573083153,1.0533805944323626
32,2,0.25,0.8141404902452977,1.549137300734127
32,2,0.0,0.8049272367064307,2.4704626546208197
32,3,1.0,0.8296318632526389,0.0
32,3,0.75,0.8202396279273998,0.939223532523914
32,3,0.5,0.8126641181921395,1.6967745060499473
32,3,0.25,0.8054889545572166,2.414290869542235
32,3,0.0,0.8014697192631249,2.8162143989514
32,4,1.0,0.8296318632526389,0.0
32,4,0.75,0.8129643987093232,1.666746454331569
32,4,0.5,0.8000485367822621,2.958332647037687
32,4,0.25,0.800679334763241,2.895252848939789
32,4,0.0,0.8262309567431128,0.34009065095261803
32,5,1.0,0.8296318632526389,0.0
32,5,0.75,0.8320390690796561,-0.24072058270171448
32,5,0.5,0.8264984478132285,0.3133415439410481
32,5,0.25,0.8115012455194405,1.8130617733198462
32,5,0.0,0.8325507640631612,-0.29189008105222625
32,6,1.0,0.8296318632526389,0.0
32,6,0.75,0.8320390690796561,-0.24072058270171448
32,6,0.5,0.8300793429449586,-0.04474796923196189
32,6,0.25,0.826653797087674,0.29780661649649875
32,6,0.0,0.8326672408878005,-0.3035377635161596
32,7,1.0,0.8296318632526389,0.0
32,7,0.75,0.8351151189770667,-0.548325572442776
32,7,0.5,0.8206586784058005,0.89731848468384
32,7,0.25,0.8093047985265532,2.0327064726085697
32,7,0.0,0.7931798795566923,3.64519836959466
32,8,1.0,0.8296318632526389,0.0
32,8,0.75,0.8258296774036753,0.3802185848963635
32,8,0.5,0.830522515439805,-0.08906521871661077
32,8,0.25,0.8373709693246947,-0.7739106072055746
32,8,0.0,0.8385947316745745,-0.896286842193561
33,0,1.0,0.891607095796777,0.0
33,0,0.75,0.8877315351934804,0.3875560603296635
33,0,0.5,0.8852102426801222,0.6396853116654833
33,0,0.25,0.8787993484276128,1.2807747369164235
33,0,0.0,0.8697022291428129,2.1904866653964072
33,1,1.0,0.891607095796777,0.0
33,1,0.75,0.8859875051233366,0.5619590673440422
33,1,0.5,0.8825944066930993,0.9012689103677696
33,1,0.25,0.8765847642359641,1.5022331560812896
33,1,0.0,0.8793513848424177,1.225571095435929
33,2,1.0,0.891607095796777,0.0
33,2,0.75,0.8919585179220425,-0.03514221252655103
33,2,0.5,0.8846643892070987,0.6942706589678327
33,2,0.25,0.8819774075807684,0.9629688216008625
33,2,0.0,0.8698495593228575,2.1757536473919536
33,3,1.0,0.891607095796777,0.0
33,3,0.75,0.8884471030113723,0.3159992785404686
33,3,0.5,0.8765580586543233,1.5049037142453647
33,3,0.25,0.8669922384858286,2.461485731094837
33,3,0.0,0.8557541467361558,3.5852949060621198
33,4,1.0,0.891607095796777,0.0
33,4,0.75,0.8821421394385909,0.9464956358186116
33,4,0.5,0.8710176161390567,2.058947965772029
33,4,0.25,0.8771474798834106,1.445961591336642
33,4,0.0,0.902275198202123,-1.0668102405345992
33,5,1.0,0.891607095796777,0.0
33,5,0.75,0.885791740723399,0.5815355073378048
33,5,0.5,0.8812703880581196,1.0336707738657358
33,5,0.25,0.8894047999981913,0.22022957985856628
33,5,0.0,0.8926433747372047,-0.10362789404276818
33,6,1.0,0.891607095796777,0.0
33,6,0.75,0.8973996429074551,-0.5792547110678115
33,6,0.5,0.9017703490790118,-1.0163253282234774
33,6,0.25,0.906152341111643,-1.4545245314866007
33,6,0.0,0.9003874654780797,-0.8780369681302691
33,7,1.0,0.891607095796777,0.0
33,7,0.75,0.8988225156566865,-0.7215419859909478
33,7,0.5,0.8830377957931954,0.8569300003581581
33,7,0.25,0.8851172095189079,0.6489886277869061
33,7,0.0,0.872110718315707,1.9496377481070026
33,8,1.0,0.891607095796777,0.0
33,8,0.75,0.8877315351934804,0.3875560603296635
33,8,0.5,0.8763006593048983,1.5306436491878683
33,8,0.25,0.8628428228686806,2.8764272928096357
33,8,0.0,0.8545894890269532,3.7017606769823796
34,0,1.0,0.901507316564423,0.0
34,0,0.75,0.896982879747442,0.45244368169810034
34,0,0.5,0.8945755041054647,0.6931812458958242
34,0,0.25,0.8824523195990532,1.905499696536972
34,0,0.0,0.8709189022561729,3.05884143082501
34,1,1.0,0.901507316564423,0.0
34,1,0.75,0.8990148089946842,0.24925075697387333
34,1,0.5,0.8983790029913612,0.31283135730617584
34,1,0.25,0.8985366533289794,0.29706632354435936
34,1,0.0,0.8879847727078378,1.3522543856585134
34,2,1.0,0.901507316564423,0.0
34,2,0.75,0.9109093918536708,-0.9402075289247858
34,2,0.5,0.9028215574534519,-0.13142408890289836
34,2,0.25,0.9149880911400695,-1.348077457564656
34,2,0.0,0.919651347704539,-1.814403114011609
34,3,1.0,0.901507316564423,0.0
34,3,0.75,0.8969674956218997,0.4539820942523254
34,3,0.5,0.8932093960412775,0.8297920523145486
34,3,0.25,0.8775129531812764,2.3994363383146533
34,3,0.0,0.8679807028165325,3.3526613747890455
34,4,1.0,0.901507316564423,0.0
34,4,0.75,0.9040797845457952,-0.25724679813722284
34,4,0.5,0.9063556898675162,-0.48483733030932896
34,4,0.25,0.8919825144749778,0.9524802089445172
34,4,0.0,0.8980563705533087,0.34509460111142864
34,5,1.0,0.901507316564423,0.0
34,5,0.75,0.8998376819838948,0.16696345805281565
34,5,0.5,0.8883232336472929,1.3184082917130024
34,5,0.25,0.8920061715035962,0.9501145060826777
34,5,0.0,0.893638380150865,0.7868936413557903
34,6,1.0,0.901507316564423,0.0
34,6,0.75,0.9052860026908545,-0.37786861264315075
34,6,0.5,0.8996232474102245,0.18840691541984755
34,6,0.25,0.8924163509910249,0.9090965573398058
34,6,0.0,0.8893701138083905,1.2137202756032472
34,7,1.0,0.901507316564423,0.0
34,7,0.75,0.9007943230595281,0.07129935048948433
34,7,0.5,0.8855847532128738,1.592256335154918
34,7,0.25,0.8900894592071064,1.1417857357316596
34,7,0.0,0.8907635957550943,1.0743720809328616
34,8,1.0,0.901507316564423,0.0
34,8,0.75,0.889866404104727,1.1640912459696007
34,8,0.5,0.8849635842806975,1.654373228372541
34,8,0.25,0.8831673670236758,1.8339949540747136
34,8,0.0,0.8750405650145268,2.6466751549896195
35,0,1.0,0.722625987883199,0.0
35,0,0.75,0.7134545265714308,0.9171461311768159
35,0,0.5,0.7173598307271348,0.5266157156064155
35,0,0.25,0.7040861195494758,1.853986833372323
35,0,0.0,0.7036622281788334,1.896375970436559
35,1,1.0,0.722625987883199,0.0
35,1,0.75,0.7170410939977458,0.5584893885453135
35,1,0.5,0.7236319168923088,-0.1005929009109785
35,1,0.25,0.7054327387238704,1.7193249159328627
35,1,0.0,0.6911172021152923,3.150878576790672
35,2,1.0,0.722625987883199,0.0
35,2,0.75,0.7217486149471026,0.08773729360963545
35,2,0.5,0.7182362520018295,0.4389735881369483
35,2,0.25,0.716035211780795,0.6590776102403995
35,2,0.0,0.7097086679159764,1.2917319967222562
35,3,1.0,0.722625987883199,0.0
35,3,0.75,0.7169656784802161,0.5660309402982899
35,3,0.5,0.7201214152690303,0.25045726141686986
35,3,0.25,0.7243655486659565,-0.17395607827574988
35,3,0.0,0.7255402090380433,-0.29142211548442987
35,4,1.0,0.722625987883199,0.0
35,4,0.75,0.7282409224462651,-0.5614934563066165
35,4,0.5,0.7361383550302452,-1.3512367147046178
35,4,0.25,0.7319471489623215,-0.9321161079122509
35,4,0.0,0.7311732684835887,-0.8547280600389673
35,5,1.0,0.722625987883199,0.0
35,5,0.75,0.7213882910759113,0.12376968072876915
35,5,0.5,0.7203996487015252,0.22263391816738087
35,5,0.25,0.7130046051219884,0.9621382761210606
35,5,0.0,0.7144712343446521,0.8154753538546888
35,6,1.0,0.722625987883199,0.0
35,6,0.75,0.7223999789569997,0.02260089261992837
35,6,0.5,0.7185494579261209,0.4076529957078079
35,6,0.25,0.7224650598090836,0.016092807411538512
35,6,0.0,0.7341259879579592,-1.1500000074760264
35,7,1.0,0.722625987883199,0.0
35,7,0.75,0.7351304620478839,-1.250447416468492
35,7,0.5,0.7251551792575448,-0.25291913743458183
35,7,0.25,0.7208412417009711,0.17847461822279032
35,7,0.0,0.7407282633175886,-1.810227543438958
35,8,1.0,0.722625987883199,0.0
35,8,0.75,0.7225685882627281,0.005739962047091041
35,8,0.5,0.7194825296979737,0.3143458185225323
35,8,0.25,0.7149664325371079,0.7659555346091085
35,8,0.0,0.7184008736895395,0.42251141936594516
36,0,1.0,0.8132039965033269,0.0
36,0,0.75,0.8172227279294767,-0.4018731426149835
36,0,0.5,0.8130173734259168,0.01866230774100197
36,0,0.25,0.8175680349601159,-0.436403845678901
36,0,0.0,0.8051817624776995,0.8022234025627406
36,1,1.0,0.8132039965033269,0.0
36,1,0.75,0.8182240729316014,-0.5020076428274511
36,1,0.5,0.8143392241453414,-0.1135227642014569
36,1,0.25,0.8124823541223916,0.07216423809353056
36,1,0.0,0.7985233665380724,1.4680629965254433
36,2,1.0,0.8132039965033269,0.0
36,2,0.75,0.8154159916816269,-0.22119951783000635
36,2,0.5,0.8001373710088454,1.3066625494481454
36,2,0.25,0.7913752131143436,2.182878338898331
36,2,0.0,0.7833160381819793,2.9887958321347607
36,3,1.0,0.8132039965033269,0.0
36,3,0.75,0.824646371192473,-1.1442374689146106
36,3,0.5,0.8248264758601446,-1.1622479356817705
36,3,0.25,0.816732680249821,-0.35286837464941767
36,3,0.0,0.7845555033963052,2.8648493107021666
36,4,1.0,0.8132039965033269,0.0
36,4,0.75,0.8283639164325356,-1.5159919929208732
36,4,0.5,0.8171089799461208,-0.39049834427938857
36,4,0.25,0.8148697911205511,-0.166579461722427
36,4,0.0,0.8328086705379689,-1.9604674034642056
36,5,1.0,0.8132039965033269,0.0
36,5,0.75,0.8199452209424285,-0.6741224439101634
36,5,0.5,0.829130364789594,-1.5926368286267145
36,5,0.25,0.8381519367097541,-2.494794020642721
36,5,0.0,0.8255918795822813,-1.2387883078954443
36,6,1.0,0.8132039965033269,0.0
36,6,0.75,0.8156339659409038,-0.24299694375768954
36,6,0.5,0.8063761795828907,0.6827816920436214
36,6,0.25,0.8001546892937452,1.304930720958164
36,6,0.0,0.7998214191548135,1.3382577348513336
36,7,1.0,0.8132039965033269,0.0
36,7,0.75,0.8105861954562065,0.2617801047120394
36,7,0.5,0.8064965088955108,0.6707487607816032
36,7,0.25,0.7933964859958355,1.980751050749141
36,7,0.0,0.7728316012370444,4.037239526628245
36,8,1.0,0.8132039965033269,0.0
36,8,0.75,0.8043630135577922,0.8840982945534703
36,8,0.5,0.795067786026917,1.8136210476409897
36,8,0.25,0.7667285423384886,4.647545416483823
36,8,0.0,0.7549899868765969,5.821400962672996
37,0,1.0,0.8750393081761006,0.0
37,0,0.75,0.8661591697366328,0.8880138439467888
37,0,0.5,0.8499959352297335,2.504337294636716
37,0,0.25,0.8310148271201943,4.40244810559064
37,0,0.0,0.8398682426752158,3.517106550088489
37,1,1.0,0.8750393081761006,0.0
37,1,0.75,0.874122401969351,0.0916906206749668
37,1,0.5,0.8686798877246504,0.6359420451450215
37,1,0.25,0.8463973134351651,2.864199474093554
37,1,0.0,0.8442698538196942,3.0769454356406434
37,2,1.0,0.8750393081761006,0.0
37,2,0.75,0.8716227165169348,0.34165916591658574
37,2,0.5,0.8593333046976714,1.570600347842921
37,2,0.25,0.8601462082441516,1.4893099931949094
37,2,0.0,0.8483115027741706,2.6727805401930094
37,3,1.0,0.8750393081761006,0.0
37,3,0.75,0.8726124165267763,0.2426891649324303
37,3,0.5,0.8662876156645196,0.8751692511581033
37,3,0.25,0.8695754005719587,0.5463907604141949
37,3,0.0,0.8815281536928006,-0.6488845516699926
37,4,1.0,0.8750393081761006,0.0
37,4,0.75,0.8889369190040912,-1.389761082799057
37,4,0.5,0.8964149294968691,-2.1375621320768423
37,4,0.25,0.8953666057756731,-2.0327297599572414
37,4,0.0,0.9016821823625165,-2.6642874186415866
37,5,1.0,0.8750393081761006,0.0
37,5,0.75,0.8712071689848955,0.3832139191205175
37,5,0.5,0.8681181073700165,0.692120080608416
37,5,0.25,0.8645975649195468,1.0441743256553893
37,5,0.0,0.8606444461411258,1.4394862034974865
37,6,1.0,0.8750393081761006,0.0
37,6,0.75,0.8684175883118065,0.6621719864294162
37,6,0.5,0.8676063365913509,0.7432971584749759
37,6,0.25,0.8716326510060748,0.3406657170025862
37,6,0.0,0.8649481211636612,1.0091187012439495
37,7,1.0,0.8750393081761006,0.0
37,7,0.75,0.8543154916402635,2.0723816535837103
37,7,0.5,0.8280877213925024,4.695158678359823
37,7,0.25,0.8229630072171119,5.207630095898875
37,7,0.0,0.8251649389324782,4.9874369243622425
37,8,1.0,0.8750393081761006,0.0
37,8,0.75,0.8758720488579015,-0.08327406818008365
37,8,0.5,0.8627680472126928,1.2271260963407804
37,8,0.25,0.8513673753188817,2.3671932857218914
37,8,0.0,0.8463782634943695,2.866104468173114
38,0,1.0,0.9094015887344947,0.0
38,0,0.75,0.9083703157716216,0.10312729628730866
38,0,0.5,0.8989290903378148,1.0472498396679963
38,0,0.25,0.9032775019098548,0.612408682463994
38,0,0.0,0.8930349816000643,1.6366607134430389
38,1,1.0,0.9094015887344947,0.0
38,1,0.75,0.9049079107424831,0.4493677992011613
38,1,0.5,0.9073284346488572,0.2073154085637574
38,1,0.25,0.8946740034219957,1.472758531249907
38,1,0.0,0.881548008597844,2.7853580136650735
38,2,1.0,0.9094015887344947,0.0
38,2,0.75,0.9174321140977115,-0.80305253632168
38,2,0.5,0.9096750156060558,-0.02734268715610666
38,2,0.25,0.901736171265125,0.7665417469369773
38,2,0.0,0.9043918009636823,0.5009787770812402
38,3,1.0,0.9094015887344947,0.0
38,3,0.75,0.9188996631869863,-0.9498074452491623
38,3,0.5,0.9161303230217142,-0.6728734287219429
38,3,0.25,0.9125599894344667,-0.3158400699971975
38,3,0.0,0.8941725821546503,1.5229006579844384
38,4,1.0,0.9094015887344947,0.0
38,4,0.75,0.8925696225744532,1.6831966160041567
38,4,0.5,0.875879064284564,3.3522524449930757
38,4,0.25,0.8611501267099897,4.825146202450503
38,4,0.0,0.8563979886093054,5.300360012518935
38,5,1.0,0.9094015887344947,0.0
38,5,0.75,0.8979000934251116,1.1501495309383158
38,5,0.5,0.8864724574597032,2.292913127479157
38,5,0.25,0.8744166248526801,3.49849638818146
38,5,0.0,0.8686286651050326,4.077292362946217
38,6,1.0,0.9094015887344947,0.0
38,6,0.75,0.910082760291914,-0.06811715574193133
38,6,0.5,0.9079982314527801,0.140335728171459
38,6,0.25,0.9046537182876367,0.47478704468579824
38,6,0.0,0.9010447568917122,0.8356831842782575
38,7,1.0,0.9094015887344947,0.0
38,7,0.75,0.9088876069993652,0.05139817351295095
38,7,0.5,0.9146029058039082,-0.5201317069413514
38,7,0.25,0.9109818221682047,-0.15802334337099433
38,7,0.0,0.901320145630591,0.8081443103903685
38,8,1.0,0.9094015887344947,0.0
38,8,0.75,0.9162754507305517,-0.6873861996056996
38,8,0.5,0.9230173950218297,-1.3615806287334942
38,8,0.25,0.9142370463255749,-0.4835457591080172
38,8,0.0,0.9062551840060143,0.31464047284803787
39,0,1.0,0.8387035114307604,0.0
39,0,0.75,0.8357881478139605,0.2915363616799893
39,0,0.5,0.8154879397210345,2.321557170972588
39,0,0.25,0.7998489593318554,3.885455209890498
39,0,0.0,0.7996524795935979,3.905103183716252
39,1,1.0,0.8387035114307604,0.0
39,1,0.75,0.8411108720168223,-0.24073605860619463
39,1,0.5,0.835301991904759,0.34015195260014286
39,1,0.25,0.8419260648249008,-0.32225533941404594
39,1,0.0,0.8260686789308104,1.263483249995001
39,2,1.0,0.8387035114307604,0.0
39,2,0.75,0.8492780038405322,-1.0574492409771818
39,2,0.5,0.8516798494962607,-1.297633806550036
39,2,0.25,0.8469328539837239,-0.8229342552963481
39,2,0.0,0.8488617185632374,-1.015820713247706
39,3,1.0,0.8387035114307604,0.0
39,3,0.75,0.8287523355223152,0.9951175908445187
39,3,0.5,0.8026223174351282,3.6081193995632144
39,3,0.25,0.7882642179498744,5.043929348088594
39,3,0.0,0.7783396125279626,6.03638989027978
39,4,1.0,0.8387035114307604,0.0
39,4,0.75,0.8256456521209694,1.3057859309790976
39,4,0.5,0.8052595466446245,3.344396478613587
39,4,0.25,0.7888840990404875,4.981941239027288
39,4,0.0,0.7829181752742307,5.57853361565297
39,5,1.0,0.8387035114307604,0.0
39,5,0.75,0.833290328587935,0.5413182842825437
39,5,0.5,0.8261725200171084,1.2530991413651993
39,5,0.25,0.8314591740651063,0.7244337365654108
39,5,0.0,0.8171764000654014,2.152711136535901
39,6,1.0,0.8387035114307604,0.0
39,6,0.75,0.8424732503898493,-0.3769738959088942
39,6,0.5,0.841977889961955,-0.32743785311946105
39,6,0.25,0.8328901000680646,0.5813411362695753
39,6,0.0,0.8385496504571335,0.015386097362690698
39,7,1.0,0.8387035114307604,0.0
39,7,0.75,0.8360497943730418,0.2653717057718552
39,7,0.5,0.8210736832218104,1.7629828208949982
39,7,0.25,0.8248569882498454,1.384652318091495
39,7,0.0,0.8342085663188819,0.44949451118785344
39,8,1.0,0.8387035114307604,0.0
39,8,0.75,0.8372500502935285,0.14534611372318818
39,8,0.5,0.834680157825991,0.4023353604769353
39,8,0.25,0.8504945453127377,-1.179103388197733
39,8,0.0,0.8494009687391237,-1.0697457308363356
40,0,1.0,0.8321572918591218,0.0
40,0,0.75,0.8307031873070142,0.14541045521075935
40,0,0.5,0.8399678340944787,-0.7810542235356932
40,0,0.25,0.8371182712461337,-0.4960979387011899
40,0,0.0,0.8436771575374457,-1.151986567832386
40,1,1.0,0.8321572918591218,0.0
40,1,0.75,0.8318285021956145,0.032878966350724514
40,1,0.5,0.8363078749279004,-0.41505830687785794
40,1,0.25,0.8476213490197784,-1.5464057160656575
40,1,0.0,0.83279564699443,-0.06383551353081884
40,2,1.0,0.8321572918591218,0.0
40,2,0.75,0.8486913904373627,-1.6534098578240952
40,2,0.5,0.8589063019185995,-2.674901005947772
40,2,0.25,0.8591523420718811,-2.6995050212759275
40,2,0.0,0.8780723704332647,-4.59150785741429
40,3,1.0,0.8321572918591218,0.0
40,3,0.75,0.8487141285383466,-1.6556836679224807
40,3,0.5,0.8615754706440981,-2.9418178784976323
40,3,0.25,0.862990886550404,-3.083359469128222
40,3,0.0,0.8396106306244739,-0.7453338765352147
40,4,1.0,0.8321572918591218,0.0
40,4,0.75,0.8399458167291765,-0.7788524870054658
40,4,0.5,0.8449170913724837,-1.2759799513361925
40,4,0.25,0.8255458296103633,0.6611462248758526
40,4,0.0,0.8439461718366748,-1.1788879977552957
40,5,1.0,0.8321572918591218,0.0
40,5,0.75,0.8435237005776952,-1.1366408718573418
40,5,0.5,0.8492435024752476,-1.7086210616125808
40,5,0.25,0.8451282284808039,-1.2970936621682139
40,5,0.0,0.8459981667834718,-1.3840874924350044
40,6,1.0,0.8321572918591218,0.0
40,6,0.75,0.8355565123447106,-0.33992204855888275
40,6,0.5,0.8292953916018504,0.2861900257271399
40,6,0.25,0.8359144763449703,-0.3757184485848497
40,6,0.0,0.8269556791514843,0.5201612707637526
40,7,1.0,0.8321572918591218,0.0
40,7,0.75,0.8312681592763403,0.08891325827814489
40,7,0.5,0.8357197466166455,-0.3562454757523703
40,7,0.25,0.8220855022456195,1.0071789613502302
40,7,0.0,0.8205627623436793,1.1594529515442487
40,8,1.0,0.8321572918591218,0.0
40,8,0.75,0.8480501887364633,-1.5892896877341522
40,8,0.5,0.8555300569889274,-2.3372765129805573
40,8,0.25,0.8587729114092817,-2.6615619550159897
40,8,0.0,0.8585372918783268,-2.638000001920504
