subject,channel,f1_full,f1_occluded,drop_pp
1,0,0.7319629970920495,0.7153632808226854,1.6599716269364073
1,1,0.7319629970920495,0.7232138791536363,0.8749117938413153
1,2,0.7319629970920495,0.7183799541821301,1.3583042909919407
1,3,0.7319629970920495,0.6969893978231128,3.497359926893673
1,4,0.7319629970920495,0.7192405855025747,1.2722411589474736
1,5,0.7319629970920495,0.6311452402436286,10.081775684842087
1,6,0.7319629970920495,0.7417722105222105,-0.9809213430161057
1,7,0.7319629970920495,0.7126304872017832,1.9332509890266247
1,8,0.7319629970920495,0.6651549536634032,6.680804342864633
2,0,0.8951755959474182,0.9164712697137674,-2.129567376634911
2,1,0.8951755959474182,0.8382020489757208,5.697354697169743
2,2,0.8951755959474182,0.8569074728134068,3.82681231340114
2,3,0.8951755959474182,0.906908361321404,-1.173276537398571
2,4,0.8951755959474182,0.9059407161088273,-1.076512016140907
2,5,0.8951755959474182,0.8726278772008398,2.254771874657846
2,6,0.8951755959474182,0.8594996665035324,3.5675929443885868
2,7,0.8951755959474182,0.8518566883923029,4.331890755511536
2,8,0.8951755959474182,0.8788056733134454,1.6369922633972855
3,0,0.8982405357064114,0.9383038516921655,-4.006331598575407
3,1,0.8982405357064114,0.8845833160112728,1.3657219695138556
3,2,0.8982405357064114,0.86503753518924,3.32030005171714
3,3,0.8982405357064114,0.8229298265749929,7.531070913141846
3,4,0.8982405357064114,0.9117022516519233,-1.3461715945511932
3,5,0.8982405357064114,0.9091940141080401,-1.0953478401628747
3,6,0.8982405357064114,0.918101901057562,-1.9861365351150573
3,7,0.8982405357064114,0.8860152177371583,1.222531796925308
3,8,0.8982405357064114,0.9098506529281498,-1.1610117221738436
4,0,0.8765497544486457,0.8310769088699308,4.547284557871489
4,1,0.8765497544486457,0.7988981699481282,7.765158450051746
4,2,0.8765497544486457,0.8349460794757079,4.160367497293782
4,3,0.8765497544486457,0.8471550558939986,2.9394698554647047
4,4,0.8765497544486457,0.9131703927166459,-3.6620638268000216
4,5,0.8765497544486457,0.864421034539595,1.2128719909050734
4,6,0.8765497544486457,0.8605299848080087,1.6019769640637005
4,7,0.8765497544486457,0.8807675120279461,-0.42177575793004296
4,8,0.8765497544486457,0.8682071963404792,0.8342558108166531
5,0,0.6810922432447499,0.6632869839283437,1.7805259316406197
5,1,0.6810922432447499,0.7139867950098688,-3.2894551765118907
5,2,0.6810922432447499,0.680363939134744,0.07283041100059062
5,3,0.6810922432447499,0.7178625293189927,-3.677028607424282
5,4,0.6810922432447499,0.6807779987888303,0.031424445591965444
5,5,0.6810922432447499,0.6400457274817576,4.104651576299235
5,6,0.6810922432447499,0.6780390040464872,0.3053239198262725
5,7,0.6810922432447499,0.6798352835764827,0.12569596682672213
5,8,0.6810922432447499,0.6366128749893074,4.447936825544252
6,0,0.7235962893009239,0.7323529348635648,-0.8756645562640886
6,1,0.7235962893009239,0.7245634920634921,-0.09672027625682311
6,2,0.7235962893009239,0.7320910268168663,-0.849473751594243
6,3,0.7235962893009239,0.7666843807353265,-4.3088091434402624
6,4,0.7235962893009239,0.6719505703676945,5.164571893322945
6,5,0.7235962893009239,0.7132281719013757,1.0368117399548238
6,6,0.7235962893009239,0.6838024149656916,3.9793874335232293
6,7,0.7235962893009239,0.7038771825568468,1.9719106744077064
6,8,0.7235962893009239,0.6872643402437988,3.6331949057125112
7,0,0.7578849721706865,0.7164716408256188,4.141333134506775
7,1,0.7578849721706865,0.7945275656315076,-3.6642593460821105
7,2,0.7578849721706865,0.7531898732973348,0.4695098873351733
7,3,0.7578849721706865,0.8051343336032909,-4.724936143260439
7,4,0.7578849721706865,0.7566864768295596,0.11984953411269261
7,5,0.7578849721706865,0.7832499477557573,-2.536497558507078
7,6,0.7578849721706865,0.7747056195401334,-1.6820647369446884
7,7,0.7578849721706865,0.7544088778027958,0.34760943678907585
7,8,0.7578849721706865,0.7501687809118686,0.771619125881795
8,0,0.8258643496988655,0.803185719675533,2.267863002333248
8,1,0.8258643496988655,0.8207210361547878,0.514331354407771
8,2,0.8258643496988655,0.8122317435333012,1.3632606165564276
8,3,0.8258643496988655,0.7977797206282435,2.8084629070621925
8,4,0.8258643496988655,0.7835507726702595,4.231357702860594
8,5,0.8258643496988655,0.7804498040086092,4.5414545690256265
8,6,0.8258643496988655,0.8235090135385785,0.2355336160286936
8,7,0.8258643496988655,0.7977266931864545,2.813765651241096
8,8,0.8258643496988655,0.8119848637392497,1.3879485959615745
9,0,0.7942016910051122,0.8120701308476064,-1.78684398424942
9,1,0.7942016910051122,0.7731032268360418,2.1098464169070352
9,2,0.7942016910051122,0.7768750939818596,1.7326597023252566
9,3,0.7942016910051122,0.7750824529680941,1.9119238037018094
9,4,0.7942016910051122,0.7930559690496946,0.11457219554176223
9,5,0.7942016910051122,0.8090638825310212,-1.4862191525909063
9,6,0.7942016910051122,0.8066855195480415,-1.2483828542929287
9,7,0.7942016910051122,0.7598339155353191,3.4367775469793083
9,8,0.7942016910051122,0.8107467630168255,-1.654507201171329
10,0,0.7873915241297564,0.7906262857089119,-0.3234761579155476
10,1,0.7873915241297564,0.7922058756292304,-0.48143514994739567
10,2,0.7873915241297564,0.7627182952231482,2.467322890660828
10,3,0.7873915241297564,0.7764416240079529,1.0949900121803524
10,4,0.7873915241297564,0.7919457106454691,-0.45541865157127104
10,5,0.7873915241297564,0.7749719024000997,1.2419621729656716
10,6,0.7873915241297564,0.8022751028407433,-1.488357871098689
10,7,0.7873915241297564,0.7910643263429818,-0.36728022132254123
10,8,0.7873915241297564,0.7816443222857986,0.5747201843957828
11,0,0.9505238828967644,0.9484903117917732,0.20335711049911387
11,1,0.9505238828967644,0.9325949964457244,1.792888645103996
11,2,0.9505238828967644,0.9203796902367769,3.0144192659987468
11,3,0.9505238828967644,0.8956180978746655,5.490578502209886
11,4,0.9505238828967644,0.9522727888840496,-0.17489059872852764
11,5,0.9505238828967644,0.9489249623756473,0.15989205211170976
11,6,0.9505238828967644,0.9474940451696332,0.30298377271311683
11,7,0.9505238828967644,0.9626137983658756,-1.20899154691112
11,8,0.9505238828967644,0.9458379399089345,0.4685942987829872
12,0,0.9076417350111741,0.8927987524201807,1.484298259099337
12,1,0.9076417350111741,0.8676768891646576,3.9964845846516495
12,2,0.9076417350111741,0.8673834148210648,4.025832019010922
12,3,0.9076417350111741,0.846431644855156,6.121009015601809
12,4,0.9076417350111741,0.9115232000726954,-0.38814650615213164
12,5,0.9076417350111741,0.9185541465445772,-1.0912411533403166
12,6,0.9076417350111741,0.9249000470330453,-1.7258312021871225
12,7,0.9076417350111741,0.9133228216687321,-0.5681086657558065
12,8,0.9076417350111741,0.9002741838188035,0.7367551192370536
13,0,0.9118919022406149,0.9102584280681626,0.16334741724522983
13,1,0.9118919022406149,0.8965967304558227,1.5295171784792227
13,2,0.9118919022406149,0.8907567622939652,2.113513994664973
13,3,0.9118919022406149,0.9002758787038541,1.1616023536760833
13,4,0.9118919022406149,0.8946743323784798,1.7217569862135074
13,5,0.9118919022406149,0.9006520006783056,1.1239901562309251
13,6,0.9118919022406149,0.8973450329293737,1.4546869311241162
13,7,0.9118919022406149,0.8968700378236926,1.5021864416922326
13,8,0.9118919022406149,0.9022207217545187,0.9671180486096165
14,0,0.8295406597890668,0.8228645642350021,0.6676095554064676
14,1,0.8295406597890668,0.8187384054450026,1.0802254344064122
14,2,0.8295406597890668,0.832914881069784,-0.33742212807171823
14,3,0.8295406597890668,0.7563688181947874,7.317184159427937
14,4,0.8295406597890668,0.8232515393554631,0.6289120433603634
14,5,0.8295406597890668,0.8222343710393056,0.7306288749761136
14,6,0.8295406597890668,0.8277500251424463,0.1790634646620437
14,7,0.8295406597890668,0.7899519657769299,3.9588694012136827
14,8,0.8295406597890668,0.8154144097891167,1.4126249999950047
15,0,0.8828321085630721,0.8779679280504308,0.48641805126413695
15,1,0.8828321085630721,0.8829790009310502,-0.01468923679780465
15,2,0.8828321085630721,0.8518310533120657,3.1001055251006493
15,3,0.8828321085630721,0.8658263031540024,1.7005805409069708
15,4,0.8828321085630721,0.8892235514107545,-0.6391442847682338
15,5,0.8828321085630721,0.8912478313097828,-0.8415722746710652
15,6,0.8828321085630721,0.8535613229634076,2.927078559966456
15,7,0.8828321085630721,0.8840713656113728,-0.12392570483006349
15,8,0.8828321085630721,0.8753697190698584,0.7462389493213761
16,0,0.8934213484514195,0.8901704054475116,0.32509430039079357
16,1,0.8934213484514195,0.8992168282974339,-0.5795479846014362
16,2,0.8934213484514195,0.8872844535229856,0.6136894928433945
16,3,0.8934213484514195,0.9053461460439699,-1.1924797592550385
16,4,0.8934213484514195,0.8933300325242031,0.009131592721645099
16,5,0.8934213484514195,0.8815072063976029,1.1914142053816579
16,6,0.8934213484514195,0.8967411321084974,-0.3319783657077857
16,7,0.8934213484514195,0.8454702999458072,4.795104850561227
16,8,0.8934213484514195,0.8812055668483829,1.2215781603036602
17,0,0.8214163865299742,0.8229862733810931,-0.1569886851118918
17,1,0.8214163865299742,0.8364631510327317,-1.5046764502757548
17,2,0.8214163865299742,0.8273390422078842,-0.592265567791006
17,3,0.8214163865299742,0.8158395744383006,0.55768120916736
17,4,0.8214163865299742,0.8219502932779149,-0.05339067479407378
17,5,0.8214163865299742,0.8129258306437239,0.8490555886250251
17,6,0.8214163865299742,0.816723148704376,0.4693237825598162
17,7,0.8214163865299742,0.7933516237482086,2.8064762781765618
17,8,0.8214163865299742,0.770634495841777,5.078189068819716
18,0,0.9185083834986866,0.8924632678072703,2.604511569141632
18,1,0.9185083834986866,0.926528321148793,-0.8019937650106446
18,2,0.9185083834986866,0.9131770211116877,0.5331362386998828
18,3,0.9185083834986866,0.8246430850071422,9.386529849154435
18,4,0.9185083834986866,0.9069960479975564,1.1512335501130178
18,5,0.9185083834986866,0.9068350593814313,1.1673324117255302
18,6,0.9185083834986866,0.925006731454648,-0.6498347955961381
18,7,0.9185083834986866,0.855158238016008,6.335014548267859
18,8,0.9185083834986866,0.8901331799450023,2.837520355368428
19,0,0.8589622453198558,0.865931288887416,-0.6969043567560229
19,1,0.8589622453198558,0.8462496091867876,1.2712636133068167
19,2,0.8589622453198558,0.8523810728744938,0.6581172445361938
19,3,0.8589622453198558,0.8272342247318918,3.172802058796398
19,4,0.8589622453198558,0.8587289507949458,0.023329452490994385
19,5,0.8589622453198558,0.8396002139948475,1.9362031325008244
19,6,0.8589622453198558,0.8855753909743047,-2.6613145654448944
19,7,0.8589622453198558,0.8549485292646888,0.40137160551669826
19,8,0.8589622453198558,0.8548190251400404,0.4143220179815388
20,0,0.8444574086619949,0.8477733826094148,-0.33159739474198924
20,1,0.8444574086619949,0.8150048451622628,2.945256349973213
20,2,0.8444574086619949,0.8098035570240422,3.465385163795276
20,3,0.8444574086619949,0.8183350492602839,2.6122359401711037
20,4,0.8444574086619949,0.8374030925280137,0.705431613398122
20,5,0.8444574086619949,0.8327617596016372,1.1695649060357693
20,6,0.8444574086619949,0.8223822113499725,2.2075197312022454
20,7,0.8444574086619949,0.8279719474408411,1.6485461221153797
20,8,0.8444574086619949,0.78091701217355,6.3540396488444895
21,0,0.8671519171967865,0.8245196361063601,4.263228109042638
21,1,0.8671519171967865,0.8720043238476809,-0.485240665089437
21,2,0.8671519171967865,0.8639897304053208,0.31621867914657376
21,3,0.8671519171967865,0.8097766392825976,5.737527791418895
21,4,0.8671519171967865,0.8432081374669667,2.394377972981987
21,5,0.8671519171967865,0.8765110716154506,-0.9359154418664084
21,6,0.8671519171967865,0.8662458239793276,0.09060932174589365
21,7,0.8671519171967865,0.8729185538539501,-0.5766636657163593
21,8,0.8671519171967865,0.8470374098664952,2.01145073302913
22,0,0.8324392090599364,0.8468305904508142,-1.439138139087781
22,1,0.8324392090599364,0.8589751908372337,-2.6535981777297324
22,2,0.8324392090599364,0.8180185351190887,1.4420673940847673
22,3,0.8324392090599364,0.7878900567673424,4.454915229259404
22,4,0.8324392090599364,0.8056249825634852,2.6814226496451155
22,5,0.8324392090599364,0.801861781326835,3.0577427733101348
22,6,0.8324392090599364,0.8266953848937917,0.5743824166144718
22,7,0.8324392090599364,0.7559897444841347,7.64494645758017
22,8,0.8324392090599364,0.826004515149804,0.6434693910132405
23,0,0.8009716106920375,0.7184272573009025,8.254435339113497
23,1,0.8009716106920375,0.7805292827720947,2.0442327919942826
23,2,0.8009716106920375,0.7918162249005036,0.9155385791533854
23,3,0.8009716106920375,0.7785531669891046,2.241844370293289
23,4,0.8009716106920375,0.7789726635676787,2.199894712435879
23,5,0.8009716106920375,0.7914727444482338,0.9498866243803694
23,6,0.8009716106920375,0.8004575429300681,0.05140677619693834
23,7,0.8009716106920375,0.7831756921442184,1.7795918547819034
23,8,0.8009716106920375,0.7851555272100917,1.5816083481945742
24,0,0.7508842693005924,0.7433910760454074,0.7493193255184938
24,1,0.7508842693005924,0.7759741816846444,-2.5089912384052004
24,2,0.7508842693005924,0.7635642790989596,-1.2680009798367253
24,3,0.7508842693005924,0.7917954288426041,-4.091115954201174
24,4,0.7508842693005924,0.7110888936803902,3.979537562020219
24,5,0.7508842693005924,0.693388887063391,5.7495382237201405
24,6,0.7508842693005924,0.7541865266888923,-0.3302257388299923
24,7,0.7508842693005924,0.7311202380277328,1.9764031272859528
24,8,0.7508842693005924,0.7478662286943499,0.3018040606242445
25,0,0.9165231324703336,0.9149389216023845,0.15842108679490208
25,1,0.9165231324703336,0.9190871516261861,-0.25640191558525816
25,2,0.9165231324703336,0.9125137794378669,0.4009353032466634
25,3,0.9165231324703336,0.8866002769304588,2.9922855539874726
25,4,0.9165231324703336,0.8999123428388317,1.6610789631501865
25,5,0.9165231324703336,0.9090419890883279,0.7481143382005673
25,6,0.9165231324703336,0.9179587773337774,-0.143564486344383
25,7,0.9165231324703336,0.8789891626619788,3.7533969808354772
25,8,0.9165231324703336,0.9239095713542957,-0.7386438883962176
26,0,0.7504838121594973,0.7486513141843202,0.18324979751771497
26,1,0.7504838121594973,0.7745457815039576,-2.4061969344460254
26,2,0.7504838121594973,0.718413394345295,3.207041781420228
26,3,0.7504838121594973,0.7308937601320122,1.9590052027485094
26,4,0.7504838121594973,0.7254316303588247,2.505218180067259
26,5,0.7504838121594973,0.7229902328418837,2.749357931761365
26,6,0.7504838121594973,0.7262140836860427,2.4269728473454655
26,7,0.7504838121594973,0.7116131860395188,3.887062611997849
26,8,0.7504838121594973,0.7350023139944223,1.5481498165075047
27,0,0.9031358632442016,0.9076328314674597,-0.4496968223258069
27,1,0.9031358632442016,0.908638179869393,-0.5502316625191406
27,2,0.9031358632442016,0.8657188859451992,3.7416977299002396
27,3,0.9031358632442016,0.8936778603829938,0.9458002861207793
27,4,0.9031358632442016,0.9071303076365758,-0.39944443923741746
27,5,0.9031358632442016,0.9063702313525885,-0.32343681083869535
27,6,0.9031358632442016,0.9080726834826125,-0.49368202384109106
27,7,0.9031358632442016,0.8754711592752301,2.766470396897147
27,8,0.9031358632442016,0.9144101284824937,-1.1274265238292114
28,0,0.8432869438392068,0.8660260484655908,-2.2739104626384066
28,1,0.8432869438392068,0.8504784427176768,-0.7191498878470037
28,2,0.8432869438392068,0.8057980687857151,3.7488875053491633
28,3,0.8432869438392068,0.7965197878253434,4.676715601386339
28,4,0.8432869438392068,0.8022010864344489,4.10858574047579
28,5,0.8432869438392068,0.6725053803290547,17.078156351015206
28,6,0.8432869438392068,0.8355050961759889,0.7781847663217878
28,7,0.8432869438392068,0.8223676528464884,2.0919290992718387
28,8,0.8432869438392068,0.8362831173176002,0.7003826521606582
29,0,0.8470990818996954,0.8334207213503051,1.3678360549390312
29,1,0.8470990818996954,0.8350411243716089,1.2057957528086471
29,2,0.8470990818996954,0.8163494609318229,3.074962096787248
29,3,0.8470990818996954,0.8146629503979957,3.243613150169966
29,4,0.8470990818996954,0.8139692837283199,3.3129798171375513
29,5,0.8470990818996954,0.8287854393003466,1.8313642599348756
29,6,0.8470990818996954,0.8551700002811048,-0.8070918381409387
29,7,0.8470990818996954,0.8307057544759073,1.6393327423788073
29,8,0.8470990818996954,0.83281291990346,1.4286161996235447
30,0,0.8730042310016333,0.8751007814274967,-0.20965504258634304
30,1,0.8730042310016333,0.8482778624661247,2.472636853550858
30,2,0.8730042310016333,0.8849700254124974,-1.1965794410864095
30,3,0.8730042310016333,0.8263488322769973,4.665539872463597
30,4,0.8730042310016333,0.8651472992952273,0.7856931706406001
30,5,0.8730042310016333,0.8555589162223118,1.744531477932143
30,6,0.8730042310016333,0.8716149626284108,0.13892683732225075
30,7,0.8730042310016333,0.8330780968001986,3.992613420143465
30,8,0.8730042310016333,0.856593457204949,1.641077379668432
31,0,0.8073284597325985,0.7735365350071233,3.379192472547521
31,1,0.8073284597325985,0.7714932312286344,3.5835228503964034
31,2,0.8073284597325985,0.7715488466878321,3.57796130447664
31,3,0.8073284597325985,0.7796712864790758,2.765717325352268
31,4,0.8073284597325985,0.7895782145873378,1.775024514526069
31,5,0.8073284597325985,0.8071563482532156,0.017211147938289706
31,6,0.8073284597325985,0.7906451225368546,1.6683337195743886
31,7,0.8073284597325985,0.7597476589690452,4.758080076355331
31,8,0.8073284597325985,0.758210499054671,4.911796067792751
32,0,0.8296318632526389,0.8128419203274546,1.678994292518432
32,1,0.8296318632526389,0.7999997452009351,2.963211805170385
32,2,0.8296318632526389,0.8049272367064307,2.4704626546208197
32,3,0.8296318632526389,0.8014697192631249,2.8162143989514
32,4,0.8296318632526389,0.8262309567431128,0.34009065095261803
32,5,0.8296318632526389,0.8325507640631612,-0.29189008105222625
32,6,0.8296318632526389,0.8326672408878005,-0.3035377635161596
32,7,0.8296318632526389,0.7931798795566923,3.64519836959466
32,8,0.8296318632526389,0.8385947316745745,-0.896286842193561
33,0,0.891607095796777,0.8697022291428129,2.1904866653964072
33,1,0.891607095796777,0.8793513848424177,1.225571095435929
33,2,0.891607095796777,0.8698495593228575,2.1757536473919536
33,3,0.891607095796777,0.8557541467361558,3.5852949060621198
33,4,0.891607095796777,0.902275198202123,-1.0668102405345992
33,5,0.891607095796777,0.8926433747372047,-0.10362789404276818
33,6,0.891607095796777,0.9003874654780797,-0.8780369681302691
33,7,0.891607095796777,0.872110718315707,1.9496377481070026
33,8,0.891607095796777,0.8545894890269532,3.7017606769823796
34,0,0.901507316564423,0.8709189022561729,3.05884143082501
34,1,0.901507316564423,0.8879847727078378,1.3522543856585134
34,2,0.901507316564423,0.919651347704539,-1.814403114011609
34,3,0.901507316564423,0.8679807028165325,3.3526613747890455
34,4,0.901507316564423,0.8980563705533087,0.34509460111142864
34,5,0.901507316564423,0.893638380150865,0.7868936413557903
34,6,0.901507316564423,0.8893701138083905,1.2137202756032472
34,7,0.901507316564423,0.8907635957550943,1.0743720809328616
34,8,0.901507316564423,0.8750405650145268,2.6466751549896195
35,0,0.722625987883199,0.7036622281788334,1.896375970436559
35,1,0.722625987883199,0.6911172021152923,3.150878576790672
35,2,0.722625987883199,0.7097086679159764,1.2917319967222562
35,3,0.722625987883199,0.7255402090380433,-0.29142211548442987
35,4,0.722625987883199,0.7311732684835887,-0.8547280600389673
35,5,0.722625987883199,0.7144712343446521,0.8154753538546888
35,6,0.722625987883199,0.7341259879579592,-1.1500000074760264
35,7,0.722625987883199,0.7407282633175886,-1.810227543438958
35,8,0.722625987883199,0.7184008736895395,0.42251141936594516
36,0,0.8132039965033269,0.8051817624776995,0.8022234025627406
36,1,0.8132039965033269,0.7985233665380724,1.4680629965254433
36,2,0.8132039965033269,0.7833160381819793,2.9887958321347607
36,3,0.8132039965033269,0.7845555033963052,2.8648493107021666
36,4,0.8132039965033269,0.8328086705379689,-1.9604674034642056
36,5,0.8132039965033269,0.8255918795822813,-1.2387883078954443
36,6,0.8132039965033269,0.7998214191548135,1.3382577348513336
36,7,0.8132039965033269,0.7728316012370444,4.037239526628245
36,8,0.8132039965033269,0.7549899868765969,5.821400962672996
37,0,0.8750393081761006,0.8398682426752158,3.517106550088489
37,1,0.8750393081761006,0.8442698538196942,3.0769454356406434
37,2,0.8750393081761006,0.8483115027741706,2.6727805401930094
37,3,0.8750393081761006,0.8815281536928006,-0.6488845516699926
37,4,0.8750393081761006,0.9016821823625165,-2.6642874186415866
37,5,0.8750393081761006,0.8606444461411258,1.4394862034974865
37,6,0.8750393081761006,0.8649481211636612,1.0091187012439495
37,7,0.8750393081761006,0.8251649389324782,4.9874369243622425
37,8,0.8750393081761006,0.8463782634943695,2.866104468173114
38,0,0.9094015887344947,0.8930349816000643,1.6366607134430389
38,1,0.9094015887344947,0.881548008597844,2.7853580136650735
38,2,0.9094015887344947,0.9043918009636823,0.5009787770812402
38,3,0.9094015887344947,0.8941725821546503,1.5229006579844384
38,4,0.9094015887344947,0.8563979886093054,5.300360012518935
38,5,0.9094015887344947,0.8686286651050326,4.077292362946217
38,6,0.9094015887344947,0.9010447568917122,0.8356831842782575
38,7,0.9094015887344947,0.901320145630591,0.8081443103903685
38,8,0.9094015887344947,0.9062551840060143,0.31464047284803787
39,0,0.8387035114307604,0.7996524795935979,3.905103183716252
39,1,0.8387035114307604,0.8260686789308104,1.263483249995001
39,2,0.8387035114307604,0.8488617185632374,-1.015820713247706
39,3,0.8387035114307604,0.7783396125279626,6.03638989027978
39,4,0.8387035114307604,0.7829181752742307,5.57853361565297
39,5,0.8387035114307604,0.8171764000654014,2.152711136535901
39,6,0.8387035114307604,0.8385496504571335,0.015386097362690698
39,7,0.8387035114307604,0.8342085663188819,0.44949451118785344
39,8,0.8387035114307604,0.8494009687391237,-1.0697457308363356
40,0,0.8321572918591218,0.8436771575374457,-1.151986567832386
40,1,0.8321572918591218,0.83279564699443,-0.06383551353081884
40,2,0.8321572918591218,0.8780723704332647,-4.59150785741429
40,3,0.8321572918591218,0.8396106306244739,-0.7453338765352147
40,4,0.8321572918591218,0.8439461718366748,-1.1788879977552957
40,5,0.8321572918591218,0.8459981667834718,-1.3840874924350044
40,6,0.8321572918591218,0.8269556791514843,0.5201612707637526
40,7,0.8321572918591218,0.8205627623436793,1.1594529515442487
40,8,0.8321572918591218,0.8585372918783268,-2.638000001920504
