subject,channel,f1_full,f1_occluded,drop_pp
1,0,0.5613961681053576,0.4821877885793039,7.920837952605375
1,1,0.5613961681053576,0.546003214007752,1.539295409760566
1,2,0.5613961681053576,0.47026330372773606,9.113286437762158
1,3,0.5613961681053576,0.39086008574806197,17.053608235729566
1,4,0.5613961681053576,0.46074616481340175,10.06500032919559
1,5,0.5613961681053576,0.42719429723898683,13.420187086637082
1,6,0.5613961681053576,0.6253236872785878,-6.3927519173230145
1,7,0.5613961681053576,0.4675688670275612,9.382730107779647
1,8,0.5613961681053576,0.5027269027269027,5.866926537845496
2,0,0.8045492954152249,0.7458460927201563,5.870320269506857
2,1,0.8045492954152249,0.7351328000422443,6.941649537298056
2,2,0.8045492954152249,0.7123045033501665,9.224479206505842
2,3,0.8045492954152249,0.7572829916143964,4.726630380082852
2,4,0.8045492954152249,0.7093189039523544,9.523039146287049
2,5,0.8045492954152249,0.5170287845903307,28.752051082489416
2,6,0.8045492954152249,0.7864544682868941,1.809482712833077
2,7,0.8045492954152249,0.4896679674775737,31.48813279376512
2,8,0.8045492954152249,0.7342599568147594,7.028933860046549
3,0,0.852679366089141,0.6127823416892308,23.989702439991014
3,1,0.852679366089141,0.7477646025472113,10.491476354192963
3,2,0.852679366089141,0.66488674166407,18.779262442507093
3,3,0.852679366089141,0.581045779257423,27.1633586831718
3,4,0.852679366089141,0.6973870015414145,15.529236454772644
3,5,0.852679366089141,0.6793724866626906,17.33068794264504
3,6,0.852679366089141,0.8454155503194005,0.7263815769740445
3,7,0.852679366089141,0.7269352279286074,12.574413816053355
3,8,0.852679366089141,0.7262999093264989,12.637945676264206
4,0,0.7029013185580644,0.5500180515817796,15.288326697628474
4,1,0.7029013185580644,0.5651285152103057,13.777280334775865
4,2,0.7029013185580644,0.558568240205839,14.433307835222543
4,3,0.7029013185580644,0.5958632681684175,10.703805038964687
4,4,0.7029013185580644,0.6618561856992691,4.10451328587953
4,5,0.7029013185580644,0.5339979925888335,16.890332596923084
4,6,0.7029013185580644,0.627482790753565,7.5418527804499425
4,7,0.7029013185580644,0.5525135532885765,15.038776526948784
4,8,0.7029013185580644,0.6888661186479456,1.4035199910118812
5,0,0.5849718281714954,0.5152065276273022,6.9765300544193165
5,1,0.5849718281714954,0.5442966813060308,4.067514686546458
5,2,0.5849718281714954,0.5163872748734003,6.85845532980951
5,3,0.5849718281714954,0.6021414767687827,-1.7169648597287313
5,4,0.5849718281714954,0.5302813752405303,5.469045293096508
5,5,0.5849718281714954,0.4874010174469898,9.757081072450557
5,6,0.5849718281714954,0.5912950584966661,-0.6323230325170681
5,7,0.5849718281714954,0.5396470479554,4.532478021609543
5,8,0.5849718281714954,0.4485335131659581,13.643831500553732
6,0,0.6471212878884397,0.6556461467136251,-0.8524858825185389
6,1,0.6471212878884397,0.6158176472834562,3.1303640604983474
6,2,0.6471212878884397,0.5438058312561477,10.331545663229203
6,3,0.6471212878884397,0.5796799159330384,6.744137195540134
6,4,0.6471212878884397,0.5505473031097504,9.657398477868927
6,5,0.6471212878884397,0.38901702578936276,25.810426209907693
6,6,0.6471212878884397,0.5436348867052636,10.34864011831761
6,7,0.6471212878884397,0.47014979324648676,17.697149464195295
6,8,0.6471212878884397,0.5724373894410127,7.4683898447426955
7,0,0.7443113989412937,0.5664858927003442,17.782550624094952
7,1,0.7443113989412937,0.6278001095707161,11.651128937057765
7,2,0.7443113989412937,0.6443767402587505,9.993465868254326
7,3,0.7443113989412937,0.5957634424065914,14.854795653470232
7,4,0.7443113989412937,0.6301366203692889,11.417477857200486
7,5,0.7443113989412937,0.5250798146143651,21.92315843269286
7,6,0.7443113989412937,0.6595706478742707,8.474075106702305
7,7,0.7443113989412937,0.5336124332324381,21.06989657088556
7,8,0.7443113989412937,0.61066632598721,13.364507295408368
8,0,0.7840630380457969,0.6275973499466122,15.64656880991847
8,1,0.7840630380457969,0.6774151483221246,10.664788972367234
8,2,0.7840630380457969,0.8200414654089767,-3.59784273631798
8,3,0.7840630380457969,0.7168823926001301,6.718064544566682
8,4,0.7840630380457969,0.6955257227686207,8.853731527717624
8,5,0.7840630380457969,0.6912591729209134,9.280386512488349
8,6,0.7840630380457969,0.781436513338753,0.26265247070439424
8,7,0.7840630380457969,0.7382036543931532,4.585938365264375
8,8,0.7840630380457969,0.6685887018034532,11.54743362423437
9,0,0.7589716315233807,0.6793045269036596,7.966710461972104
9,1,0.7589716315233807,0.6672563797496034,9.171525177377726
9,2,0.7589716315233807,0.7046006238135434,5.437100770983728
9,3,0.7589716315233807,0.7579302820835079,0.1041349439872774
9,4,0.7589716315233807,0.765877556209364,-0.6905924685983389
9,5,0.7589716315233807,0.6131305677108763,14.58410638125044
9,6,0.7589716315233807,0.7317230560612162,2.7248575462164415
9,7,0.7589716315233807,0.6783743783124008,8.059725321097988
9,8,0.7589716315233807,0.6123606960110607,14.661093551231996
10,0,0.7521985289370958,0.5172484028228034,23.495012611429246
10,1,0.7521985289370958,0.6409440478700441,11.125448106705171
10,2,0.7521985289370958,0.6754529681212948,7.674556081580097
10,3,0.7521985289370958,0.5608592346442165,19.13392942928793
10,4,0.7521985289370958,0.6668123682441927,8.538616069290317
10,5,0.7521985289370958,0.6508692396598071,10.132928927728868
10,6,0.7521985289370958,0.7670030872908217,-1.480455835372585
10,7,0.7521985289370958,0.6028740733600226,14.932445557707318
10,8,0.7521985289370958,0.6127227332869298,13.9475795650166
11,0,0.824310479920578,0.8067256685595209,1.7584811361057162
11,1,0.824310479920578,0.7119758831120107,11.23345968085674
11,2,0.824310479920578,0.7343529985690527,8.995748135152537
11,3,0.824310479920578,0.7413165202847888,8.299395963578926
11,4,0.824310479920578,0.6924495872189591,13.186089270161894
11,5,0.824310479920578,0.6073694983839555,21.694098153662257
11,6,0.824310479920578,0.8271228492599069,-0.2812369339328824
11,7,0.824310479920578,0.6806780940226489,14.363238589792914
11,8,0.824310479920578,0.7146373511196754,10.967312880090264
12,0,0.7800008617398428,0.770226183031061,0.9774678708781792
12,1,0.7800008617398428,0.7705873957201246,0.9413466019718264
12,2,0.7800008617398428,0.7203309620714045,5.966989966843839
12,3,0.7800008617398428,0.6424388724275426,13.756198931230024
12,4,0.7800008617398428,0.5874604532916269,19.254040844821596
12,5,0.7800008617398428,0.5683152347923714,21.168562694747138
12,6,0.7800008617398428,0.7408593078316823,3.9141553908160542
12,7,0.7800008617398428,0.7293111880309545,5.068967370888833
12,8,0.7800008617398428,0.6367346257983963,14.32662359414465
13,0,0.8241793898859355,0.7450819373865828,7.909745249935273
13,1,0.8241793898859355,0.7450325159919076,7.914687389402797
13,2,0.8241793898859355,0.7666387615678822,5.754062831805329
13,3,0.8241793898859355,0.7994712333005414,2.470815658539416
13,4,0.8241793898859355,0.7272687358617671,9.691065402416843
13,5,0.8241793898859355,0.39364519280141264,43.05341970845229
13,6,0.8241793898859355,0.7777424581694272,4.643693171650831
13,7,0.8241793898859355,0.7724682690757376,5.171112081019791
13,8,0.8241793898859355,0.7786015164449475,4.5577873440988075
14,0,0.7943886072380006,0.7204845619479765,7.3904045290024145
14,1,0.7943886072380006,0.7362720063503694,5.8116600887631265
14,2,0.7943886072380006,0.656553224534084,13.78353827039166
14,3,0.7943886072380006,0.6611685235663496,13.322008367165106
14,4,0.7943886072380006,0.6713300922387965,12.305851499920417
14,5,0.7943886072380006,0.5933598639050481,20.10287433329525
14,6,0.7943886072380006,0.7862671649208655,0.8121442317135186
14,7,0.7943886072380006,0.7281280663285975,6.626054090940315
14,8,0.7943886072380006,0.7094333829115866,8.495522432641401
15,0,0.8707339943189,0.798313981752345,7.242001256655495
15,1,0.8707339943189,0.73306091005913,13.767308425977
15,2,0.8707339943189,0.7824115992184594,8.83223951004406
15,3,0.8707339943189,0.8424957358827063,2.8238258436193653
15,4,0.8707339943189,0.8113812961927319,5.935269812616806
15,5,0.8707339943189,0.6736157721518561,19.711822216704388
15,6,0.8707339943189,0.8630149786514368,0.7719015667463136
15,7,0.8707339943189,0.7963333859802914,7.440060833860862
15,8,0.8707339943189,0.8220503181029497,4.868367621595027
16,0,0.8145589529275022,0.5718104125766832,24.274854035081905
16,1,0.8145589529275022,0.6897127378123271,12.484621511517513
16,2,0.8145589529275022,0.7409863167431703,7.357263618433196
16,3,0.8145589529275022,0.6135212688364301,20.103768409107214
16,4,0.8145589529275022,0.6881034602635386,12.645549266396362
16,5,0.8145589529275022,0.5900128794694063,22.454607345809595
16,6,0.8145589529275022,0.8179257490436312,-0.33667961161290005
16,7,0.8145589529275022,0.5820842947100247,23.24746582174776
16,8,0.8145589529275022,0.7015792055809417,11.297974734656059
17,0,0.8210409503880152,0.558687427181773,26.235352320624216
17,1,0.8210409503880152,0.6823575038453771,13.868344654263808
17,2,0.8210409503880152,0.7381795454391978,8.286140494881733
17,3,0.8210409503880152,0.7897079099038354,3.133304048417973
17,4,0.8210409503880152,0.7728749356643801,4.816601472363502
17,5,0.8210409503880152,0.6242864542864544,19.675449610156083
17,6,0.8210409503880152,0.7842244946602634,3.681645572775172
17,7,0.8210409503880152,0.7096375694668864,11.140338092112877
17,8,0.8210409503880152,0.7067580872474382,11.4282863140577
18,0,0.7430491668450528,0.6845414565075656,5.850771033748725
18,1,0.7430491668450528,0.6805456298446444,6.250353700040845
18,2,0.7430491668450528,0.710360084624749,3.2689082220303867
18,3,0.7430491668450528,0.6039186540576618,13.913051278739108
18,4,0.7430491668450528,0.7471462835105829,-0.4097116665530032
18,5,0.7430491668450528,0.5638310680313869,17.921809881366592
18,6,0.7430491668450528,0.7916205182617777,-4.857135141672487
18,7,0.7430491668450528,0.6603625193495828,8.268664749547005
18,8,0.7430491668450528,0.6592158958284825,8.383327101657034
19,0,0.8433683998330398,0.6712076647341859,17.216073509885387
19,1,0.8433683998330398,0.7220264080646961,12.13419917683437
19,2,0.8433683998330398,0.7911446429855592,5.22237568474806
19,3,0.8433683998330398,0.7206204464895248,12.274795334351495
19,4,0.8433683998330398,0.7049178123952219,13.845058743781792
19,5,0.8433683998330398,0.5480394970376005,29.532890279543935
19,6,0.8433683998330398,0.8184086547455804,2.495974508745935
19,7,0.8433683998330398,0.7308600375590759,11.250836227396388
19,8,0.8433683998330398,0.7279220377093638,11.544636212367598
20,0,0.7868618498981853,0.7288627230757899,5.799912682239539
20,1,0.7868618498981853,0.6763660402029231,11.049580969526218
20,2,0.7868618498981853,0.6777359528352154,10.912589706296993
20,3,0.7868618498981853,0.7219768387915964,6.488501110658895
20,4,0.7868618498981853,0.7129330953008742,7.3928754597311075
20,5,0.7868618498981853,0.7077845904770245,7.907725942116084
20,6,0.7868618498981853,0.7709751447520055,1.5886705146179847
20,7,0.7868618498981853,0.6513199513052643,13.554189859292098
20,8,0.7868618498981853,0.7021376126639285,8.472423723425681
21,0,0.7987882321670916,0.5307741185557623,26.80141136113293
21,1,0.7987882321670916,0.6950768057876608,10.371142637943077
21,2,0.7987882321670916,0.7488880232126549,4.99002089544367
21,3,0.7987882321670916,0.7227983679042677,7.598986426282394
21,4,0.7987882321670916,0.7527472092939644,4.604102287312717
21,5,0.7987882321670916,0.6811963009918482,11.759193117524337
21,6,0.7987882321670916,0.7923943423417166,0.6393889825375032
21,7,0.7987882321670916,0.7248430546726001,7.394517749449148
21,8,0.7987882321670916,0.6871292824752714,11.165894969182022
22,0,0.69581059286804,0.5861765480181363,10.963404484990368
22,1,0.69581059286804,0.6722536893832826,2.3556903484757474
22,2,0.69581059286804,0.6498623827348424,4.594821013319761
22,3,0.69581059286804,0.6346685675714314,6.1142025296608615
22,4,0.69581059286804,0.5983045472287276,9.750604563931242
22,5,0.69581059286804,0.5661307176142361,12.967987525380398
22,6,0.69581059286804,0.6823730901333467,1.3437502734693352
22,7,0.69581059286804,0.5462694134354751,14.954117943256495
22,8,0.69581059286804,0.5762793392489198,11.95312536191202
23,0,0.7644593930196117,0.591142803384735,17.331658963487673
23,1,0.7644593930196117,0.6589129066937395,10.554648632587227
23,2,0.7644593930196117,0.7133403471652043,5.11190458544074
23,3,0.7644593930196117,0.6010241732253774,16.343521979423436
23,4,0.7644593930196117,0.7091565105100137,5.530288250959803
23,5,0.7644593930196117,0.5255328112552042,23.89265817644075
23,6,0.7644593930196117,0.6614167323865883,10.304266063302347
23,7,0.7644593930196117,0.5626421991879571,20.181719383165465
23,8,0.7644593930196117,0.5978546992538042,16.660469376580757
24,0,0.6824324401319211,0.576453403824238,10.597903630768302
24,1,0.6824324401319211,0.6261152851194527,5.631715501246837
24,2,0.6824324401319211,0.618628677065524,6.380376306639701
24,3,0.6824324401319211,0.770978587257832,-8.854614712591092
24,4,0.6824324401319211,0.47535867679835897,20.70737633335621
24,5,0.6824324401319211,0.37854873621002655,30.38837039218945
24,6,0.6824324401319211,0.6233118425865398,5.912059754538124
24,7,0.6824324401319211,0.5354597064094538,14.697273372246721
24,8,0.6824324401319211,0.6488072121467476,3.3625227985173423
25,0,0.7632432777845756,0.7116689818453967,5.157429593917884
25,1,0.7632432777845756,0.6798774456494991,8.336583213507643
25,2,0.7632432777845756,0.6008792218660625,16.23640559185131
25,3,0.7632432777845756,0.5027569372301784,26.048634055439713
25,4,0.7632432777845756,0.5406330948784926,22.26101829060829
25,5,0.7632432777845756,0.5367706512222843,22.647262656229127
25,6,0.7632432777845756,0.7512024533819376,1.2040824402637984
25,7,0.7632432777845756,0.6314074972765092,13.183578050806632
25,8,0.7632432777845756,0.7391714368672936,2.4071840917281984
26,0,0.7240199586983339,0.632285356732667,9.173460196566696
26,1,0.7240199586983339,0.7058912508061749,1.8128707892159035
26,2,0.7240199586983339,0.6882957582803828,3.57242004179511
26,3,0.7240199586983339,0.7191481920778282,0.4871766620505702
26,4,0.7240199586983339,0.6256205737201399,9.8399384978194
26,5,0.7240199586983339,0.4414774402131252,28.254251848520873
26,6,0.7240199586983339,0.6860037215990948,3.801623709923907
26,7,0.7240199586983339,0.6855236992470013,3.8496259451332615
26,8,0.7240199586983339,0.65409402865989,6.992593003844394
27,0,0.8627039885660575,0.7978337101106157,6.48702784554418
27,1,0.8627039885660575,0.8340100196910641,2.8693968874993314
27,2,0.8627039885660575,0.7803634013992069,8.234058716685055
27,3,0.8627039885660575,0.8398422907561433,2.2861697809914205
27,4,0.8627039885660575,0.7690589016253317,9.36450869407257
27,5,0.8627039885660575,0.5461999684883374,31.650402007772005
27,6,0.8627039885660575,0.8362599085317707,2.6444080034286777
27,7,0.8627039885660575,0.6894956221357135,17.320836643034397
27,8,0.8627039885660575,0.7788543956079081,8.38495929581493
28,0,0.8406616726100727,0.7924970410270583,4.816463158301443
28,1,0.8406616726100727,0.7910044902559628,4.965718235410998
28,2,0.8406616726100727,0.7930672846157211,4.759438799435167
28,3,0.8406616726100727,0.7385868014619812,10.207487114809155
28,4,0.8406616726100727,0.7386381929659337,10.202347964413905
28,5,0.8406616726100727,0.622258239126581,21.84034334834918
28,6,0.8406616726100727,0.8344668118226557,0.6194860787417045
28,7,0.8406616726100727,0.7246321399795208,11.602953263055193
28,8,0.8406616726100727,0.7730952391543494,6.756643345572333
29,0,0.7815276033711394,0.6583573376325844,12.317026573855493
29,1,0.7815276033711394,0.7594012795076003,2.2126323863539077
29,2,0.7815276033711394,0.5976009477046443,18.3926655666495
29,3,0.7815276033711394,0.7502476227295942,3.1279980641545135
29,4,0.7815276033711394,0.6850238769057041,9.650372646543525
29,5,0.7815276033711394,0.6298153031870594,15.171230018408
29,6,0.7815276033711394,0.7837626258450914,-0.22350224739520197
29,7,0.7815276033711394,0.7276922941442028,5.383530922693658
29,8,0.7815276033711394,0.6951600673857086,8.636753598543079
30,0,0.7791073828527821,0.7432938807407521,3.581350211203005
30,1,0.7791073828527821,0.6805891711787261,9.851821167405605
30,2,0.7791073828527821,0.72759061468972,5.1516768163062165
30,3,0.7791073828527821,0.7552137650787608,2.3893617774021325
30,4,0.7791073828527821,0.706854372852551,7.22530100002311
30,5,0.7791073828527821,0.5842963110134177,19.48110718393644
30,6,0.7791073828527821,0.8204157229751691,-4.130834012238694
30,7,0.7791073828527821,0.7279861559323899,5.112122692039223
30,8,0.7791073828527821,0.7791171567009059,-0.0009773848123728612
31,0,0.7080918140680103,0.5190674456913009,18.902436837670933
31,1,0.7080918140680103,0.6561458393540174,5.1945974713992875
31,2,0.7080918140680103,0.6515983956909943,5.649341837701593
31,3,0.7080918140680103,0.7138075136770413,-0.5715699609031066
31,4,0.7080918140680103,0.6447161796352275,6.337563443278271
31,5,0.7080918140680103,0.5121079180244572,19.598389604355305
31,6,0.7080918140680103,0.6794326891715591,2.865912489645117
31,7,0.7080918140680103,0.6095206934004689,9.857112066754137
31,8,0.7080918140680103,0.5955509262474282,11.254088782058203
32,0,0.7316906868149105,0.7010929005788757,3.0597786236034707
32,1,0.7316906868149105,0.6259902379699117,10.570044884499874
32,2,0.7316906868149105,0.6886403485393833,4.305033827552718
32,3,0.7316906868149105,0.6898683627199693,4.182232409494113
32,4,0.7316906868149105,0.6265642803397368,10.512640647517369
32,5,0.7316906868149105,0.430295330013571,30.139535680133946
32,6,0.7316906868149105,0.6588025310480011,7.288815576690933
32,7,0.7316906868149105,0.5777266414501343,15.396404536477615
32,8,0.7316906868149105,0.6050051849370555,12.668550187785499
33,0,0.8959845340661531,0.7867467231668157,10.923781089933737
33,1,0.8959845340661531,0.735319013682562,16.066552038359106
33,2,0.8959845340661531,0.8361168087830986,5.986772528305451
33,3,0.8959845340661531,0.8300704313651701,6.591410270098297
33,4,0.8959845340661531,0.8963526388684373,-0.03681048022842193
33,5,0.8959845340661531,0.8012411173380757,9.47434167280774
33,6,0.8959845340661531,0.8663128556409335,2.967167842521956
33,7,0.8959845340661531,0.7531559639466708,14.282857011948224
33,8,0.8959845340661531,0.7674640832732549,12.85204507928982
34,0,0.8455825459575614,0.7527369404678392,9.28456054897222
34,1,0.8455825459575614,0.8241368096303228,2.1445736327238674
34,2,0.8455825459575614,0.6931491483699416,15.243339758761987
34,3,0.8455825459575614,0.6983757939339843,14.720675202357715
34,4,0.8455825459575614,0.7729681429588253,7.261440299873612
34,5,0.8455825459575614,0.4847538176569772,36.08287283005842
34,6,0.8455825459575614,0.8271792907818528,1.8403255175708622
34,7,0.8455825459575614,0.804523392112976,4.105915384458547
34,8,0.8455825459575614,0.7800205309032071,6.556201505435433
35,0,0.6641035566477583,0.615087651773233,4.901590487452534
35,1,0.6641035566477583,0.669911985503107,-0.5808428855348713
35,2,0.6641035566477583,0.6675681397787712,-0.3464583131012833
35,3,0.6641035566477583,0.6301570562706129,3.3946500377145417
35,4,0.6641035566477583,0.6510138787735077,1.3089677874250638
35,5,0.6641035566477583,0.5585013017279592,10.560225491979914
35,6,0.6641035566477583,0.656576417704791,0.7527138942967304
35,7,0.6641035566477583,0.6654159550915707,-0.13123984438123681
35,8,0.6641035566477583,0.6091102446876782,5.499331196008017
36,0,0.6491850288145884,0.5948222746293107,5.436275418527769
36,1,0.6491850288145884,0.5505936451677069,9.859138364688146
36,2,0.6491850288145884,0.6149729887034436,3.421204011114476
36,3,0.6491850288145884,0.5895027123162319,5.968231649835653
36,4,0.6491850288145884,0.6411819695637804,0.800305925080802
36,5,0.6491850288145884,0.3892284241167211,25.99566046978673
36,6,0.6491850288145884,0.6188005509172972,3.038447789729115
36,7,0.6491850288145884,0.5251966767228871,12.398835209170134
36,8,0.6491850288145884,0.5455276911320945,10.365733768249385
37,0,0.8471087172240641,0.7530784362118694,9.40302810121947
37,1,0.8471087172240641,0.8027187377529681,4.438997947109602
37,2,0.8471087172240641,0.736498052621761,11.061066460230307
37,3,0.8471087172240641,0.8156421982979655,3.146651892609864
37,4,0.8471087172240641,0.783938586928047,6.317013029601714
37,5,0.8471087172240641,0.8337294811925949,1.3379236031469177
37,6,0.8471087172240641,0.7792213656344091,6.788735158965498
37,7,0.8471087172240641,0.7893985551074022,5.771016211666192
37,8,0.8471087172240641,0.7848410451417352,6.226767208232886
38,0,0.8082409217155404,0.7247487128070809,8.349220890845954
38,1,0.8082409217155404,0.6981977054260533,11.00432162894871
38,2,0.8082409217155404,0.7770955690118537,3.114535270368668
38,3,0.8082409217155404,0.6470265090220177,16.121441269352268
38,4,0.8082409217155404,0.49502201835980963,31.321890335573077
38,5,0.8082409217155404,0.4246862514376585,38.355467027788194
38,6,0.8082409217155404,0.7872132846967475,2.1027637018792955
38,7,0.8082409217155404,0.7250888179119888,8.315210380355165
38,8,0.8082409217155404,0.7769511051436235,3.1289816571916873
39,0,0.7399675770039862,0.5549984736178654,18.496910338612082
39,1,0.7399675770039862,0.6785535525553077,6.1414024448678495
39,2,0.7399675770039862,0.7048767676271366,3.5090809376849608
39,3,0.7399675770039862,0.5836455460148211,15.63220309891651
39,4,0.7399675770039862,0.6705192485047552,6.944832849923099
39,5,0.7399675770039862,0.3901225165251567,34.984506047882945
39,6,0.7399675770039862,0.7637710786680239,-2.3803501664037663
39,7,0.7399675770039862,0.6968777041736712,4.308987283031495
39,8,0.7399675770039862,0.7230589274305687,1.6908649573417533
40,0,0.7005010250971357,0.6099470062730584,9.055401882407732
40,1,0.7005010250971357,0.6496446189380877,5.085640615904808
40,2,0.7005010250971357,0.6382203483221986,6.228067677493709
40,3,0.7005010250971357,0.5927077880801886,10.77932370169471
40,4,0.7005010250971357,0.6668980492463917,3.360297585074401
40,5,0.7005010250971357,0.5463087754253877,15.419224967174806
40,6,0.7005010250971357,0.6450154415023839,5.548558359475186
40,7,0.7005010250971357,0.5498021274437774,15.06988976533583
40,8,0.7005010250971357,0.5760152189257332,12.448580617140259
