subject,channel,alpha,f1,drop_pp
156,0,1.0,0.5744682247754934,0.0
156,0,0.75,0.595242146798672,-2.0773922023178626
156,0,0.5,0.5959967763821018,-2.152855160660838
156,0,0.25,0.5812436210758816,-0.6775396300388148
156,0,0.0,0.5634070717201748,1.1061153055318629
156,1,1.0,0.5744682247754934,0.0
156,1,0.75,0.5632741589779369,1.1194065797556552
156,1,0.5,0.5647191244530945,0.9749100322398951
156,1,0.25,0.5690486954855953,0.5419529289898084
156,1,0.0,0.5573214119696986,1.7146812805794776
156,2,1.0,0.5744682247754934,0.0
156,2,0.75,0.5929218105737127,-1.8453585798219319
156,2,0.5,0.5907219229097855,-1.6253698134292116
156,2,0.25,0.5683446078126505,0.6123616962842915
156,2,0.0,0.5451374744579083,2.933075031758514
156,3,1.0,0.5744682247754934,0.0
156,3,0.75,0.5638266279235259,1.0641596851967527
156,3,0.5,0.5543990997548559,2.0069125020637513
156,3,0.25,0.5411244683484896,3.3343756427003823
156,3,0.0,0.5278249923065268,4.664323246896663
156,4,1.0,0.5744682247754934,0.0
156,4,0.75,0.5666536731285023,0.7814551646991075
156,4,0.5,0.5608165556853415,1.3651669090151919
156,4,0.25,0.5548768387468751,1.9591386028618318
156,4,0.0,0.5405517113865933,3.3916513388900116
156,5,1.0,0.5744682247754934,0.0
156,5,0.75,0.5687316513261266,0.5736573449366844
156,5,0.5,0.5484012200941076,2.6067004681385786
156,5,0.25,0.49810034328721703,7.636788148827639
156,5,0.0,0.41261341403928925,16.185481073620416
156,6,1.0,0.5744682247754934,0.0
156,6,0.75,0.5605763619774236,1.3891862798069865
156,6,0.5,0.5456572009144319,2.881102386106149
156,6,0.25,0.5277982113371797,4.667001343831368
156,6,0.0,0.521796436976975,5.267178779851845
185,0,1.0,0.5054290779024236,0.0
185,0,0.75,0.5080687841824222,-0.2639706279998544
185,0,0.5,0.5040362656160402,0.1392812286383438
185,0,0.25,0.48572439100317927,1.9704686899244372
185,0,0.0,0.4645932704757026,4.083580742672105
185,1,1.0,0.5054290779024236,0.0
185,1,0.75,0.508740049273909,-0.3310971371485394
185,1,0.5,0.502232547926258,0.31965299761655963
185,1,0.25,0.4630772056642961,4.235187223812753
185,1,0.0,0.3743298866536098,13.109919124881387
185,2,1.0,0.5054290779024236,0.0
185,2,0.75,0.5240572514402144,-1.8628173537790782
185,2,0.5,0.5327312763825282,-2.730219848010451
185,2,0.25,0.5223247314400298,-1.6895653537606137
185,2,0.0,0.4775374205686099,2.7891657333813713
185,3,1.0,0.5054290779024236,0.0
185,3,0.75,0.49692287944387725,0.8506198458546388
185,3,0.5,0.48959548550767507,1.5833592394748575
185,3,0.25,0.48078127833916684,2.46477995632568
185,3,0.0,0.4671950766116494,3.8234001290774255
185,4,1.0,0.5054290779024236,0.0
185,4,0.75,0.49314524170989216,1.2283836192531483
185,4,0.5,0.47660757823468436,2.882149966773928
185,4,0.25,0.4581839112382815,4.724516666414214
185,4,0.0,0.44113279558791346,6.429628231451018
185,5,1.0,0.5054290779024236,0.0
185,5,0.75,0.526635631926048,-2.120655402362437
185,5,0.5,0.5239534622639515,-1.8524384361527813
185,5,0.25,0.4957752808798482,0.9653797022575461
185,5,0.0,0.4413242561966456,6.410482170577803
185,6,1.0,0.5054290779024236,0.0
185,6,0.75,0.5063931400316771,-0.09640621292534846
185,6,0.5,0.5069296553910749,-0.1500577488651289
185,6,0.25,0.49935730202172507,0.6071775880698571
185,6,0.0,0.49292836408694085,1.250071381548279
186,0,1.0,0.6741538538587831,0.0
186,0,0.75,0.6788358693517043,-0.4682015492921132
186,0,0.5,0.6555820233964703,1.857183046231281
186,0,0.25,0.6144007066310766,5.975314722770653
186,0,0.0,0.5726531814385019,10.150067242028127
186,1,1.0,0.6741538538587831,0.0
186,1,0.75,0.6919020711364253,-1.7748217277642198
186,1,0.5,0.6863024194788843,-1.2148565620101137
186,1,0.25,0.6522116102842048,2.19422435745783
186,1,0.0,0.6130846311464415,6.106922271234161
186,2,1.0,0.6741538538587831,0.0
186,2,0.75,0.6549718365252827,1.9182017333500445
186,2,0.5,0.6282477307633938,4.590612309538933
186,2,0.25,0.5840139302151981,9.013992364358502
186,2,0.0,0.5453901909605561,12.876366289822705
186,3,1.0,0.6741538538587831,0.0
186,3,0.75,0.676557289785214,-0.24034359264308858
186,3,0.5,0.668839285935459,0.5314567923324076
186,3,0.25,0.6583713437742444,1.5782510084538681
186,3,0.0,0.6522111163471978,2.1942737511585375
186,4,1.0,0.6741538538587831,0.0
186,4,0.75,0.677371473903581,-0.3217620044797864
186,4,0.5,0.6800043980792452,-0.5850544220462051
186,4,0.25,0.6684065221371767,0.5747331721606463
186,4,0.0,0.6444715407574387,2.9682313101344393
186,5,1.0,0.6741538538587831,0.0
186,5,0.75,0.6749517597475434,-0.07979058887602752
186,5,0.5,0.641926380826358,3.2227473032425125
186,5,0.25,0.5834359767852121,9.071787707357103
186,5,0.0,0.5268436351830643,14.731021867571881
186,6,1.0,0.6741538538587831,0.0
186,6,0.75,0.6601026671554858,1.4051186703297303
186,6,0.5,0.6472416077299283,2.691224612885479
186,6,0.25,0.6375595090573278,3.659434480145529
186,6,0.0,0.627417015807409,4.673683805137408
188,0,1.0,0.5815395865633989,0.0
188,0,0.75,0.5768863541080629,0.4653232455335998
188,0,0.5,0.5707597341273948,1.07798524360041
188,0,0.25,0.5531607185525866,2.837886801081224
188,0,0.0,0.5336037407366199,4.7935845826779016
188,1,1.0,0.5815395865633989,0.0
188,1,0.75,0.5695663984712507,1.1973188092148201
188,1,0.5,0.5536984222536288,2.784116430977013
188,1,0.25,0.5201660409832138,6.1373545580185045
188,1,0.0,0.4667603428518059,11.477924371159299
188,2,1.0,0.5815395865633989,0.0
188,2,0.75,0.5698120065197858,1.1727580043613073
188,2,0.5,0.5453973532959137,3.6142233267485224
188,2,0.25,0.509289458184228,7.225012837917088
188,2,0.0,0.47910109568701226,10.243849087638662
188,3,1.0,0.5815395865633989,0.0
188,3,0.75,0.5696780929954779,1.1861493567920989
188,3,0.5,0.5603627782727121,2.11768082906868
188,3,0.25,0.5486323228214969,3.2907263741902004
188,3,0.0,0.5258901680198468,5.56494185435521
188,4,1.0,0.5815395865633989,0.0
188,4,0.75,0.5786139492377238,0.2925637325675079
188,4,0.5,0.5661921097150607,1.5347476848338149
188,4,0.25,0.5566581755691229,2.4881410994275988
188,4,0.0,0.5429836107887147,3.855597577468417
188,5,1.0,0.5815395865633989,0.0
188,5,0.75,0.5883851979209795,-0.6845611357580661
188,5,0.5,0.5883843766232468,-0.6844790059847949
188,5,0.25,0.5534848805637077,2.8054705999691176
188,5,0.0,0.4837580177505436,9.778156881285527
188,6,1.0,0.5815395865633989,0.0
188,6,0.75,0.5784652750290755,0.30743115343233596
188,6,0.5,0.5700184679304949,1.1521118632903948
188,6,0.25,0.5727882965913582,0.8751289972040666
188,6,0.0,0.5709488585750642,1.0590727988334714
189,0,1.0,0.54707702908198,0.0
189,0,0.75,0.5623965990359976,-1.531956995401762
189,0,0.5,0.5598402937378968,-1.2763264655916817
189,0,0.25,0.5477525581504058,-0.06755290684258286
189,0,0.0,0.5321360333025427,1.4940995779437305
189,1,1.0,0.54707702908198,0.0
189,1,0.75,0.5533700169618689,-0.6292987879888967
189,1,0.5,0.5407542887879082,0.632274029407176
189,1,0.25,0.4848203007735498,6.225672830843015
189,1,0.0,0.43929073644817684,10.778629263380314
189,2,1.0,0.54707702908198,0.0
189,2,0.75,0.5443637292530533,0.2713299828926652
189,2,0.5,0.5421573680112088,0.4919661070771131
189,2,0.25,0.5208572602944228,2.6219768787557163
189,2,0.0,0.48413896669574114,6.293806238623883
189,3,1.0,0.54707702908198,0.0
189,3,0.75,0.5395502770591568,0.7526752022823158
189,3,0.5,0.5239787872840216,2.3098241797958385
189,3,0.25,0.512511610859103,3.4565418222876954
189,3,0.0,0.49658788829330425,5.048914078867572
189,4,1.0,0.54707702908198,0.0
189,4,0.75,0.5457223679410984,0.13546611408815634
189,4,0.5,0.5322640453735585,1.4812983708421434
189,4,0.25,0.5145116641780972,3.256536490388273
189,4,0.0,0.49261815634675243,5.445887273522754
189,5,1.0,0.54707702908198,0.0
189,5,0.75,0.5361267887080532,1.0950240373926778
189,5,0.5,0.4963605245248911,5.0716504557088875
189,5,0.25,0.39489409412168897,15.218293496029101
189,5,0.0,0.2947686219209237,25.23084071610563
189,6,1.0,0.54707702908198,0.0
189,6,0.75,0.567431062929036,-2.035403384705603
189,6,0.5,0.5809486761715894,-3.3871647089609436
189,6,0.25,0.5913389133087039,-4.426188422672395
189,6,0.0,0.585364511079929,-3.828748199794907
190,0,1.0,0.5848607771170702,0.0
190,0,0.75,0.6268528944698449,-4.1992117352774745
190,0,0.5,0.6280464454078922,-4.318566829082204
190,0,0.25,0.61345545787433,-2.8594680757259794
190,0,0.0,0.5853882556738629,-0.05274785567926932
190,1,1.0,0.5848607771170702,0.0
190,1,0.75,0.5749671031809442,0.9893673936125946
190,1,0.5,0.542681473054539,4.217930406253123
190,1,0.25,0.4926101956593155,9.225058145775467
190,1,0.0,0.434281558785334,15.057921833173621
190,2,1.0,0.5848607771170702,0.0
190,2,0.75,0.5746995861394275,1.0161190977642676
190,2,0.5,0.5535030229978546,3.1357754119215597
190,2,0.25,0.49387758296340933,9.098319415366085
190,2,0.0,0.44976042375261954,13.510035336445064
190,3,1.0,0.5848607771170702,0.0
190,3,0.75,0.6105173968557974,-2.5656619738727238
190,3,0.5,0.6195446504754599,-3.468387335838974
190,3,0.25,0.6255129636552257,-4.06521865381555
190,3,0.0,0.6116523217068826,-2.6791544589812366
190,4,1.0,0.5848607771170702,0.0
190,4,0.75,0.5736628768245119,1.1197900292558294
190,4,0.5,0.5654168671371621,1.944390997990808
190,4,0.25,0.5481813448708655,3.6679432246204735
190,4,0.0,0.5217632733615465,6.30975037555237
190,5,1.0,0.5848607771170702,0.0
190,5,0.75,0.5797209120221922,0.513986509487796
190,5,0.5,0.5704226214201795,1.4438155696890664
190,5,0.25,0.5380724732643055,4.678830385276466
190,5,0.0,0.4851087552263592,9.975202189071098
190,6,1.0,0.5848607771170702,0.0
190,6,0.75,0.5810148273236564,0.38459497934137943
190,6,0.5,0.5686892726416043,1.6171504475465892
190,6,0.25,0.5440342252882393,4.082655182883088
190,6,0.0,0.5311100431652407,5.37507339518295
191,0,1.0,0.6071185966783388,0.0
191,0,0.75,0.5972929587240366,0.9825637954302135
191,0,0.5,0.5748023675193479,3.2316229158990906
191,0,0.25,0.533941009898735,7.317758677960374
191,0,0.0,0.5167443434598483,9.037425321849046
191,1,1.0,0.6071185966783388,0.0
191,1,0.75,0.608465858389964,-0.13472617116252472
191,1,0.5,0.5956308957066093,1.1487700971729464
191,1,0.25,0.5665151716339829,4.060342504435588
191,1,0.0,0.5094933590980415,9.76252375802973
191,2,1.0,0.6071185966783388,0.0
191,2,0.75,0.6029072257742776,0.4211370904061207
191,2,0.5,0.5855966352583815,2.1521961419957325
191,2,0.25,0.5616562737391761,4.546232293916264
191,2,0.0,0.5320753466823062,7.504324999603263
191,3,1.0,0.6071185966783388,0.0
191,3,0.75,0.6482574486887807,-4.113885201044187
191,3,0.5,0.6628095384857435,-5.569094180740475
191,3,0.25,0.6748670989466008,-6.774850226826201
191,3,0.0,0.6835350665774258,-7.641646989908701
191,4,1.0,0.6071185966783388,0.0
191,4,0.75,0.595702272046363,1.1416324631975838
191,4,0.5,0.5815930994794941,2.552549719884467
191,4,0.25,0.5656301889209736,4.1488407757365175
191,4,0.0,0.5439398461440026,6.317875053433619
191,5,1.0,0.6071185966783388,0.0
191,5,0.75,0.6152872204774023,-0.8168623799063468
191,5,0.5,0.5996234591091003,0.7495137569238475
191,5,0.25,0.5385379919413784,6.858060473696037
191,5,0.0,0.4732103437854706,13.390825289286818
191,6,1.0,0.6071185966783388,0.0
191,6,0.75,0.5996924933859442,0.742610329239457
191,6,0.5,0.5991732872553933,0.7945309422945468
191,6,0.25,0.595313867963249,1.1804728715089752
191,6,0.0,0.5833456810157198,2.3772915662618965
192,0,1.0,0.4460247037702142,0.0
192,0,0.75,0.4481683217267554,-0.21436179565412217
192,0,0.5,0.45262291247154973,-0.659820870133554
192,0,0.25,0.44865139544663,-0.26266916764158266
192,0,0.0,0.4234580511649223,2.2566652605291893
192,1,1.0,0.4460247037702142,0.0
192,1,0.75,0.4351430599752828,1.0881643794931395
192,1,0.5,0.416687798291124,2.933690547909018
192,1,0.25,0.37383932320607643,7.2185380564137755
192,1,0.0,0.33581837955395066,11.020632421626352
192,2,1.0,0.4460247037702142,0.0
192,2,0.75,0.4433307178709121,0.2693985899302087
192,2,0.5,0.43145353906797124,1.4571164702242956
192,2,0.25,0.421721833490477,2.430287027973721
192,2,0.0,0.4078903656098778,3.81343381603364
192,3,1.0,0.4460247037702142,0.0
192,3,0.75,0.45050141134039323,-0.44767075701790393
192,3,0.5,0.4547115684432963,-0.8686864673082106
192,3,0.25,0.45670553796280855,-1.0680834192594357
192,3,0.0,0.45508430794393184,-0.905960417371765
192,4,1.0,0.4460247037702142,0.0
192,4,0.75,0.434581845069926,1.1442858700288217
192,4,0.5,0.41787681294052315,2.8147890829691047
192,4,0.25,0.39687695179463267,4.914775197558152
192,4,0.0,0.3817772525961356,6.424745117407859
192,5,1.0,0.4460247037702142,0.0
192,5,0.75,0.44598435218296756,0.0040351587246634235
192,5,0.5,0.4453629034364849,0.06618003337293121
192,5,0.25,0.43876506176784685,0.7259642002367339
192,5,0.0,0.41282322114137554,3.3201482628838654
192,6,1.0,0.4460247037702142,0.0
192,6,0.75,0.4435007746534222,0.2523929116792001
192,6,0.5,0.43864168087304045,0.7383022897173741
192,6,0.25,0.4338199966039465,1.2204707166267703
192,6,0.0,0.43007041047338856,1.5954293296825628
193,0,1.0,0.5426834809882941,0.0
193,0,0.75,0.546329329295738,-0.3645848307443855
193,0,0.5,0.5460288683970795,-0.33453874087854274
193,0,0.25,0.5278814507987095,1.4802030189584592
193,0,0.0,0.48553670080263717,5.714678018565694
193,1,1.0,0.5426834809882941,0.0
193,1,0.75,0.5372484246094308,0.5435056378863323
193,1,0.5,0.5238808496521209,1.8802631336173214
193,1,0.25,0.4903793579649327,5.23041230233614
193,1,0.0,0.45276778012362784,8.991570086466627
193,2,1.0,0.5426834809882941,0.0
193,2,0.75,0.5308262756368454,1.185720535144874
193,2,0.5,0.5047990583733191,3.7884422614975044
193,2,0.25,0.47874977938944563,6.393370159884848
193,2,0.0,0.4657962701603312,7.68872108279629
193,3,1.0,0.5426834809882941,0.0
193,3,0.75,0.5526115401174722,-0.9928059129178046
193,3,0.5,0.5537469493743328,-1.1063468386038666
193,3,0.25,0.5476572043699287,-0.4973723381634598
193,3,0.0,0.5407491371037787,0.19343438845154104
193,4,1.0,0.5426834809882941,0.0
193,4,0.75,0.5648468062980063,-2.216332530971221
193,4,0.5,0.5829988321709219,-4.0315351182627746
193,4,0.25,0.5829457089819043,-4.026222799361023
193,4,0.0,0.5519956635225562,-0.9312182534262137
193,5,1.0,0.5426834809882941,0.0
193,5,0.75,0.5293634004719441,1.332008051635003
193,5,0.5,0.5017076621339138,4.097581885438029
193,5,0.25,0.471328376589783,7.135510439851112
193,5,0.0,0.445268502419634,9.74149785686601
193,6,1.0,0.5426834809882941,0.0
193,6,0.75,0.55141977928091,-0.8736298292615907
193,6,0.5,0.5562575202871478,-1.3574039298853702
193,6,0.25,0.5506026958777911,-0.7919214889496984
193,6,0.0,0.5493241404301321,-0.6640659441838004
194,0,1.0,0.6903880511755605,0.0
194,0,0.75,0.6997901511096063,-0.9402099934045838
194,0,0.5,0.7013134789913327,-1.0925427815772215
194,0,0.25,0.6767050264218987,1.3683024753661788
194,0,0.0,0.6425229813982959,4.786506977726457
194,1,1.0,0.6903880511755605,0.0
194,1,0.75,0.6946389558678069,-0.42509046922464266
194,1,0.5,0.6876739363410798,0.27141148344806965
194,1,0.25,0.6611312347419755,2.925681643358491
194,1,0.0,0.6108280865322144,7.955996464334603
194,2,1.0,0.6903880511755605,0.0
194,2,0.75,0.6970477744043246,-0.665972322876418
194,2,0.5,0.6838776344050415,0.6510416770519001
194,2,0.25,0.6452984303591104,4.508962081645008
194,2,0.0,0.6013530871966267,8.903496397893374
194,3,1.0,0.6903880511755605,0.0
194,3,0.75,0.687629455284683,0.27585958908774577
194,3,0.5,0.6812285469582348,0.9159504217325698
194,3,0.25,0.6662134943413822,2.417455683417824
194,3,0.0,0.6549374011187232,3.545065005683723
194,4,1.0,0.6903880511755605,0.0
194,4,0.75,0.6839978651039005,0.6390186071659976
194,4,0.5,0.668745150554255,2.164290062130547
194,4,0.25,0.6488412079807697,4.154684319479074
194,4,0.0,0.6168878738438986,7.350017733166181
194,5,1.0,0.6903880511755605,0.0
194,5,0.75,0.6888058618331738,0.15821893423866307
194,5,0.5,0.664061256879499,2.632679429606144
194,5,0.25,0.6168367357655438,7.355131541001669
194,5,0.0,0.5460761673468506,14.431188382870985
194,6,1.0,0.6903880511755605,0.0
194,6,0.75,0.7026519420048326,-1.226389082927215
194,6,0.5,0.7126233675755098,-2.2235316399949356
194,6,0.25,0.7223346324904061,-3.1946581314845623
194,6,0.0,0.7200935525618093,-2.9705501386248834
