subject,channel,alpha,f1,drop_pp
1,0,1.0,0.6909336573209994,0.0
1,0,0.75,0.70412379406261,-1.3190136741610625
1,0,0.5,0.7046961200492096,-1.3762462728210134
1,0,0.25,0.6971238180983547,-0.6190160777355236
1,0,0.0,0.691511673591237,-0.05780162702375691
1,1,1.0,0.6909336573209994,0.0
1,1,0.75,0.6835623350741136,0.7371322246885859
1,1,0.5,0.6857888053201142,0.5144852000885214
1,1,0.25,0.6829688631495254,0.7964794171473999
1,1,0.0,0.68059454546829,1.0339111852709415
1,2,1.0,0.6909336573209994,0.0
1,2,0.75,0.6935119802334584,-0.25783229124589635
1,2,0.5,0.7003166740380363,-0.9383016717036896
1,2,0.25,0.7146537212719711,-2.3720063950971704
1,2,0.0,0.7107084286759846,-1.9774771354985177
1,3,1.0,0.6909336573209994,0.0
1,3,0.75,0.6917585346449325,-0.08248773239331042
1,3,0.5,0.6866113915843093,0.4322265736690145
1,3,0.25,0.6932804234587169,-0.23467661377174487
1,3,0.0,0.6741080156402737,1.6825641680725756
1,4,1.0,0.6909336573209994,0.0
1,4,0.75,0.7197305822273596,-2.879692490636021
1,4,0.5,0.7436109582967911,-5.267730097579171
1,4,0.25,0.7358196555746364,-4.488599825363693
1,4,0.0,0.7152556737391533,-2.4322016418153902
1,5,1.0,0.6909336573209994,0.0
1,5,0.75,0.6704035607086051,2.0530096612394355
1,5,0.5,0.6447578208898412,4.617583643115819
1,5,0.25,0.6243679966364273,6.656566068457215
1,5,0.0,0.6095770019434658,8.135665537753367
1,6,1.0,0.6909336573209994,0.0
1,6,0.75,0.7073017901193082,-1.6368132798308732
1,6,0.5,0.7175756732683174,-2.6642015947317965
1,6,0.25,0.7303982301932714,-3.946457287227201
1,6,0.0,0.7311271581426387,-4.01935008216393
1,7,1.0,0.6909336573209994,0.0
1,7,0.75,0.6954607014522503,-0.45270441312508236
1,7,0.5,0.6989310326452385,-0.7997375324239053
1,7,0.25,0.7000453253900976,-0.9111668069098133
1,7,0.0,0.6896758945008639,0.12577628201355662
1,8,1.0,0.6909336573209994,0.0
1,8,0.75,0.6894748872434466,0.14587700775527956
1,8,0.5,0.6906069521630163,0.03267051579831648
1,8,0.25,0.6927094876867864,-0.177583036578699
1,8,0.0,0.6802207015187056,1.071295580229381
2,0,1.0,0.8145444470136104,0.0
2,0,0.75,0.8444852268421642,-2.994077982855381
2,0,0.5,0.8435918406354586,-2.904739362184816
2,0,0.25,0.8491005931157294,-3.455614610211899
2,0,0.0,0.829201463930125,-1.4657016916514554
2,1,1.0,0.8145444470136104,0.0
2,1,0.75,0.8083637240628144,0.6180722950795969
2,1,0.5,0.7928251159136903,2.171933109992008
2,1,0.25,0.7886507711174777,2.5893675896132673
2,1,0.0,0.7732933062313238,4.125114078228664
2,2,1.0,0.8145444470136104,0.0
2,2,0.75,0.8103443344609412,0.4200112552669166
2,2,0.5,0.8113084325140454,0.323601449956501
2,2,0.25,0.7998189044242975,1.4725542589312912
2,2,0.0,0.76953129696502,4.501315004859041
2,3,1.0,0.8145444470136104,0.0
2,3,0.75,0.8305357427669144,-1.5991295753304047
2,3,0.5,0.8305858855379434,-1.604143852433304
2,3,0.25,0.8016877038442594,1.2856743169351037
2,3,0.0,0.7785338084571203,3.6010638556490115
2,4,1.0,0.8145444470136104,0.0
2,4,0.75,0.8439319245027921,-2.938747748918169
2,4,0.5,0.8562445664671172,-4.170011945350682
2,4,0.25,0.8548792049728694,-4.0334757959259
2,4,0.0,0.8406224358774854,-2.6077988863875023
2,5,1.0,0.8145444470136104,0.0
2,5,0.75,0.8382909675312166,-2.3746520517606173
2,5,0.5,0.8405920976705372,-2.6047650656926824
2,5,0.25,0.8363948612370238,-2.1850414223413384
2,5,0.0,0.8096208471473959,0.492359986621449
2,6,1.0,0.8145444470136104,0.0
2,6,0.75,0.8089817889622067,0.5562658051403657
2,6,0.5,0.7858523336701853,2.869211334342514
2,6,0.25,0.7716342187022808,4.291022831132962
2,6,0.0,0.7576488547623069,5.689559225130347
2,7,1.0,0.8145444470136104,0.0
2,7,0.75,0.8038857984293193,1.0658648584291108
2,7,0.5,0.7806118956586505,3.3932551354959872
2,7,0.25,0.7551413860397564,5.940306097385395
2,7,0.0,0.7072495029031076,10.729494411050277
2,8,1.0,0.8145444470136104,0.0
2,8,0.75,0.8317505998872413,-1.720615287363092
2,8,0.5,0.8336100275965217,-1.9065580582911301
2,8,0.25,0.8370828407172425,-2.2538393703632087
2,8,0.0,0.8404485562433994,-2.590410922978903
3,0,1.0,0.9053481925799522,0.0
3,0,0.75,0.9125046445039305,-0.7156451923978291
3,0,0.5,0.9150807389362794,-0.9732546356327143
3,0,0.25,0.9148376676287886,-0.9489475048836349
3,0,0.0,0.9148695498170738,-0.9521357237121553
3,1,1.0,0.9053481925799522,0.0
3,1,0.75,0.9036765225094855,0.16716700704667575
3,1,0.5,0.8899624423731972,1.5385750206755033
3,1,0.25,0.8834380967501166,2.1910095829835607
3,1,0.0,0.8710315373563939,3.431665522355831
3,2,1.0,0.9053481925799522,0.0
3,2,0.75,0.9047713317083855,0.057686087156672006
3,2,0.5,0.8985231620602918,0.6825030519660436
3,2,0.25,0.8957871786388965,0.9561013941055796
3,2,0.0,0.8874392767714391,1.790891580851317
3,3,1.0,0.9053481925799522,0.0
3,3,0.75,0.9004156419101181,0.49325506698341126
3,3,0.5,0.8830419798382508,2.2306212741701414
3,3,0.25,0.856080237607522,4.9267954972430195
3,3,0.0,0.8238411648772634,8.15070277026888
3,4,1.0,0.9053481925799522,0.0
3,4,0.75,0.9060839128764584,-0.07357202965061482
3,4,0.5,0.9061986666782361,-0.0850474098283871
3,4,0.25,0.8999954405874563,0.5352751992495963
3,4,0.0,0.8999954405874563,0.5352751992495963
3,5,1.0,0.9053481925799522,0.0
3,5,0.75,0.9167545806304768,-1.1406388050524519
3,5,0.5,0.9233996856536104,-1.8051493073658165
3,5,0.25,0.91094100649129,-0.5592813911337702
3,5,0.0,0.9170365047427422,-1.1688312162789982
3,6,1.0,0.9053481925799522,0.0
3,6,0.75,0.9071790060124075,-0.18308134324552805
3,6,0.5,0.9053481925799522,0.0
3,6,0.25,0.9082906982535504,-0.2942505673598106
3,6,0.0,0.9184758302897745,-1.3127637709822282
3,7,1.0,0.9053481925799522,0.0
3,7,0.75,0.907329660746927,-0.19814681669747536
3,7,0.5,0.8993845935312468,0.596359904870547
3,7,0.25,0.8879550438596492,1.7393148720303064
3,7,0.0,0.8872654218178899,1.8082770762062328
3,8,1.0,0.9053481925799522,0.0
3,8,0.75,0.9075938605154387,-0.22456679354864173
3,8,0.5,0.9095752952294035,-0.4227102649451253
3,8,0.25,0.905658208123385,-0.031001554343279558
3,8,0.0,0.8937863737356481,1.1561818844304184
4,0,1.0,0.9056397661141194,0.0
4,0,0.75,0.9098200285249829,-0.41802624108634445
4,0,0.5,0.9130748488750896,-0.7435082760970158
4,0,0.25,0.9147424237017103,-0.9102657587590879
4,0,0.0,0.8970142658230059,0.862550029111353
4,1,1.0,0.9056397661141194,0.0
4,1,0.75,0.8958168457380402,0.9822920376079236
4,1,0.5,0.8765289476998854,2.911081841423402
4,1,0.25,0.8713433499129442,3.4296416201175295
4,1,0.0,0.8532032856320422,5.243648048207728
4,2,1.0,0.9056397661141194,0.0
4,2,0.75,0.9081811455155308,-0.25413794014113034
4,2,0.5,0.8935182232021915,1.2121542911927907
4,2,0.25,0.8727700552021664,3.286971091195301
4,2,0.0,0.8472566166228137,5.838314949130574
4,3,1.0,0.9056397661141194,0.0
4,3,0.75,0.9079641134776334,-0.23243473635139456
4,3,0.5,0.9127482481590825,-0.710848204496306
4,3,0.25,0.915899263810098,-1.0259497695978559
4,3,0.0,0.8932927614600839,1.2347004654035598
4,4,1.0,0.9056397661141194,0.0
4,4,0.75,0.8958476102648333,0.9792155849286166
4,4,0.5,0.8871650194312231,1.8474746682896392
4,4,0.25,0.8825166128979656,2.312315321615388
4,4,0.0,0.875955035070592,2.9684731043527424
4,5,1.0,0.9056397661141194,0.0
4,5,0.75,0.8976556014474301,0.7984164666689386
4,5,0.5,0.8958212471640974,0.9818518950022059
4,5,0.25,0.8776020545489953,2.8037711565124135
4,5,0.0,0.8865293794056395,1.9110386708479976
4,6,1.0,0.9056397661141194,0.0
4,6,0.75,0.9048922691583042,0.07474969558152189
4,6,0.5,0.907553333283656,-0.19135671695365009
4,6,0.25,0.9104373015425153,-0.4797535428395894
4,6,0.0,0.9131034525424169,-0.7463686428297422
4,7,1.0,0.9056397661141194,0.0
4,7,0.75,0.912762981357405,-0.7123215243285519
4,7,0.5,0.906985698569857,-0.1345932455737553
4,7,0.25,0.9035344462976795,0.210531981643991
4,7,0.0,0.8948157315731573,1.0824034540962146
4,8,1.0,0.9056397661141194,0.0
4,8,0.75,0.9093539180916572,-0.3714151977537772
4,8,0.5,0.9072214753675643,-0.15817092534448074
4,8,0.25,0.8970180739179235,0.8621692196195907
4,8,0.0,0.8837976410719499,2.1842125042169536
5,0,1.0,0.6760466126893133,0.0
5,0,0.75,0.6776508813643449,-0.1604268675031606
5,0,0.5,0.6777323096751279,-0.16856969858145554
5,0,0.25,0.6770265718058587,-0.09799591165453592
5,0,0.0,0.6533183860901293,2.2728226599184054
5,1,1.0,0.6760466126893133,0.0
5,1,0.75,0.6851110364830063,-0.9064423793692988
5,1,0.5,0.6912920421054491,-1.5245429416135825
5,1,0.25,0.6959929551850972,-1.9946342495783864
5,1,0.0,0.6867147559332238,-1.0668143243910522
5,2,1.0,0.6760466126893133,0.0
5,2,0.75,0.6957285266545156,-1.9681913965202247
5,2,0.5,0.7045991181333029,-2.8552505443989573
5,2,0.25,0.696247162023781,-2.020054933446769
5,2,0.0,0.6940601841097213,-1.8013571420407937
5,3,1.0,0.6760466126893133,0.0
5,3,0.75,0.7007342194931084,-2.4687606803795115
5,3,0.5,0.7123373721403644,-3.629075945105109
5,3,0.25,0.7096586615849304,-3.3612048895617086
5,3,0.0,0.7054892663256591,-2.9442653636345795
5,4,1.0,0.6760466126893133,0.0
5,4,0.75,0.6613204701329007,1.472614255641258
5,4,0.5,0.6478123550133884,2.823425767592491
5,4,0.25,0.6484806885243705,2.7565924164942857
5,4,0.0,0.6589371796777717,1.7109433011541664
5,5,1.0,0.6760466126893133,0.0
5,5,0.75,0.6492186581451092,2.682795454420417
5,5,0.5,0.6335764119078857,4.247020078142761
5,5,0.25,0.6272819499236524,4.876466276566093
5,5,0.0,0.6317291447202109,4.431746796910241
5,6,1.0,0.6760466126893133,0.0
5,6,0.75,0.6747758651604806,0.12707475288327164
5,6,0.5,0.6771248476146634,-0.10782349253500856
5,6,0.25,0.6767703303238582,-0.07237176345449292
5,6,0.0,0.686463012731712,-1.0416400042398632
5,7,1.0,0.6760466126893133,0.0
5,7,0.75,0.669605331750123,0.6441280939190275
5,7,0.5,0.6757169881275381,0.03296245617752103
5,7,0.25,0.6802678070619138,-0.42211943726004897
5,7,0.0,0.6775064323068027,-0.14598196174894218
5,8,1.0,0.6760466126893133,0.0
5,8,0.75,0.6694234085423317,0.6623204146981587
5,8,0.5,0.6743974329699501,0.16491797193631808
5,8,0.25,0.6660015971870535,1.004501550225978
5,8,0.0,0.6413118834273119,3.4734729262001385
6,0,1.0,0.8272348309988798,0.0
6,0,0.75,0.8364298221149672,-0.9194991116087348
6,0,0.5,0.8453697492912229,-1.8134918292343039
6,0,0.25,0.8330554396570267,-0.582060865814682
6,0,0.0,0.8180545916828803,0.9180239315999539
6,1,1.0,0.8272348309988798,0.0
6,1,0.75,0.8243946617723211,0.284016922655872
6,1,0.5,0.8186449000530102,0.8589930945869684
6,1,0.25,0.816635013468505,1.0599817530374867
6,1,0.0,0.8021183503872231,2.511648061165672
6,2,1.0,0.8272348309988798,0.0
6,2,0.75,0.8279833314108851,-0.07485004120052485
6,2,0.5,0.8243687268735378,0.28661041253420505
6,2,0.25,0.8164200352113102,1.0814795787569609
6,2,0.0,0.7986632918951837,2.857153910369614
6,3,1.0,0.8272348309988798,0.0
6,3,0.75,0.8297363942099096,-0.2501563211029789
6,3,0.5,0.8288001453949425,-0.1565314396062667
6,3,0.25,0.8355287962746828,-0.829396527580295
6,3,0.0,0.8471801233672804,-1.9945292368400591
6,4,1.0,0.8272348309988798,0.0
6,4,0.75,0.8063822605950841,2.0852570403795734
6,4,0.5,0.8017395191700218,2.5495311828858003
6,4,0.25,0.7938039852279752,3.3430845770904605
6,4,0.0,0.8082484126149414,1.8986418383938442
6,5,1.0,0.8272348309988798,0.0
6,5,0.75,0.8111135176017701,1.612131339710976
6,5,0.5,0.8028794688312955,2.4355362167584382
6,5,0.25,0.7978004059265882,2.943442507229166
6,5,0.0,0.8011723845262632,2.6062446472616685
6,6,1.0,0.8272348309988798,0.0
6,6,0.75,0.8225232568450704,0.4711574153809406
6,6,0.5,0.807714031731537,1.9520799267342848
6,6,0.25,0.8021281208815576,2.510671011732224
6,6,0.0,0.803765988924829,2.3468842074050866
6,7,1.0,0.8272348309988798,0.0
6,7,0.75,0.8056544915965116,2.1580339402368254
6,7,0.5,0.7794024124630067,4.783241853587317
6,7,0.25,0.7576769190267438,6.9557911972136015
6,7,0.0,0.7502341004624757,7.700073053640411
6,8,1.0,0.8272348309988798,0.0
6,8,0.75,0.8120956132466299,1.5139217752249912
6,8,0.5,0.7948738676298651,3.236096336901473
6,8,0.25,0.7772076440498148,5.0027186949065054
6,8,0.0,0.7484949467362518,7.873988426262802
7,0,1.0,0.7956171983292379,0.0
7,0,0.75,0.8026132619708038,-0.6996063641565908
7,0,0.5,0.813005168377374,-1.738797004813608
7,0,0.25,0.7960187248873588,-0.040152655812086824
7,0,0.0,0.7802647041769686,1.5352494152269358
7,1,1.0,0.7956171983292379,0.0
7,1,0.75,0.7849539865469087,1.0663211782329207
7,1,0.5,0.7713794863016666,2.42377120275713
7,1,0.25,0.7595349194127714,3.6082278916466537
7,1,0.0,0.771520301889485,2.409689643975299
7,2,1.0,0.7956171983292379,0.0
7,2,0.75,0.7859698187434526,0.9647379585785321
7,2,0.5,0.7828192826299144,1.2797915699323537
7,2,0.25,0.7675553750480384,2.806182328119955
7,2,0.0,0.7637663553192886,3.1850843009949337
7,3,1.0,0.7956171983292379,0.0
7,3,0.75,0.8044969095429956,-0.8879711213757635
7,3,0.5,0.8103170300048559,-1.4699831675617947
7,3,0.25,0.8090875091325427,-1.3470310803304741
7,3,0.0,0.8175042900709084,-2.1887091741670472
7,4,1.0,0.7956171983292379,0.0
7,4,0.75,0.7958147052275379,-0.01975068983000039
7,4,0.5,0.7723832861992792,2.3233912129958734
7,4,0.25,0.758785093694379,3.6832104634858975
7,4,0.0,0.7799002290607447,1.5716969268493197
7,5,1.0,0.7956171983292379,0.0
7,5,0.75,0.7934199978539012,0.21972004753367802
7,5,0.5,0.7901534774412533,0.5463720887984636
7,5,0.25,0.8149675012346782,-1.9350302905440264
7,5,0.0,0.8162825792372806,-2.0665380908042708
7,6,1.0,0.7956171983292379,0.0
7,6,0.75,0.7806394771558801,1.4977721173357827
7,6,0.5,0.7683260885139571,2.7291109815280823
7,6,0.25,0.7590080548115766,3.6609143517661313
7,6,0.0,0.755992755297863,3.962444303137491
7,7,1.0,0.7956171983292379,0.0
7,7,0.75,0.7916845178619779,0.393268046726003
7,7,0.5,0.7825808444910898,1.3036353838148163
7,7,0.25,0.7605263160380654,3.509088229117252
7,7,0.0,0.7784974345783091,1.711976375092883
7,8,1.0,0.7956171983292379,0.0
7,8,0.75,0.7829445954251437,1.2672602904094221
7,8,0.5,0.7776704506508106,1.79467476784273
7,8,0.25,0.7665502108836507,2.9066987445587222
7,8,0.0,0.7492756079477079,4.634159038153007
8,0,1.0,0.8762626849837637,0.0
8,0,0.75,0.867873230185658,0.8389454798105711
8,0,0.5,0.8683662758795896,0.7896409104174107
8,0,0.25,0.8797538171771615,-0.34911321933978057
8,0,0.0,0.8830303368415289,-0.6767651857765178
8,1,1.0,0.8762626849837637,0.0
8,1,0.75,0.8750257734705077,0.12369115132560005
8,1,0.5,0.8810260241879944,-0.47633392042306655
8,1,0.25,0.8737789935992728,0.24836913844908937
8,1,0.0,0.8735372340425531,0.2725450941210572
8,2,1.0,0.8762626849837637,0.0
8,2,0.75,0.877754205470861,-0.1491520487097331
8,2,0.5,0.8822959925846798,-0.6033307600916138
8,2,0.25,0.8721909398037433,0.4071745180020403
8,2,0.0,0.8698979274427202,0.6364757541043486
8,3,1.0,0.8762626849837637,0.0
8,3,0.75,0.8640900054304379,1.2172679553325794
8,3,0.5,0.8540833410041728,2.217934397959087
8,3,0.25,0.85437152121378,2.189116376998368
8,3,0.0,0.8379024978276253,3.8360187156138426
8,4,1.0,0.8762626849837637,0.0
8,4,0.75,0.8794764634512909,-0.32137784675272396
8,4,0.5,0.869240209041598,0.7022475942165651
8,4,0.25,0.8583731554230348,1.7889529560728867
8,4,0.0,0.8475392071642887,2.872347781947504
8,5,1.0,0.8762626849837637,0.0
8,5,0.75,0.8424055717035375,3.3857113280226225
8,5,0.5,0.835622720022742,4.063996496102174
8,5,0.25,0.8486223538434368,2.7640331140326935
8,5,0.0,0.8679085352704372,0.8354149713326486
8,6,1.0,0.8762626849837637,0.0
8,6,0.75,0.8803076189045165,-0.404493392075278
8,6,0.5,0.8818606380605338,-0.5597953076770135
8,6,0.25,0.8747340531554927,0.15286318282710099
8,6,0.0,0.8609823645251218,1.5280320458641916
8,7,1.0,0.8762626849837637,0.0
8,7,0.75,0.8703548165790869,0.590786840467683
8,7,0.5,0.861371427954374,1.4891257029389648
8,7,0.25,0.8479690968861563,2.8293588097607403
8,7,0.0,0.8155769385053921,6.0685746478371545
8,8,1.0,0.8762626849837637,0.0
8,8,0.75,0.8723893713441537,0.38733136396099654
8,8,0.5,0.8759675356259279,0.02951493578358111
8,8,0.25,0.8656503337407861,1.0612351242977547
8,8,0.0,0.8458289127647673,3.0433772218996347
9,0,1.0,0.8089478363306252,0.0
9,0,0.75,0.8127506591748865,-0.38028228442613665
9,0,0.5,0.8188888026323566,-0.9940966301731469
9,0,0.25,0.8186296649155191,-0.968182858489397
9,0,0.0,0.8177476737821565,-0.8799837451531345
9,1,1.0,0.8089478363306252,0.0
9,1,0.75,0.7990669853495003,0.98808509811249
9,1,0.5,0.7943440617353661,1.4603774595259078
9,1,0.25,0.794516872694744,1.4430963635881144
9,1,0.0,0.773621326533948,3.5326509796677175
9,2,1.0,0.8089478363306252,0.0
9,2,0.75,0.8114233732129045,-0.24755368822793056
9,2,0.5,0.8005396140491838,0.8408222281441335
9,2,0.25,0.7946635725401525,1.428426379047265
9,2,0.0,0.7907219156095295,1.8225920721095634
9,3,1.0,0.8089478363306252,0.0
9,3,0.75,0.8120634966337422,-0.31156603031170516
9,3,0.5,0.8153513212208864,-0.6403484890261213
9,3,0.25,0.8111623772156336,-0.2214540885008387
9,3,0.0,0.7915241774006391,1.7423658929986097
9,4,1.0,0.8089478363306252,0.0
9,4,0.75,0.7904113652739306,1.8536471056694537
9,4,0.5,0.7843589497531196,2.4588886577505575
9,4,0.25,0.7777307845754884,3.121705175513678
9,4,0.0,0.800738984586657,0.8208851743968126
9,5,1.0,0.8089478363306252,0.0
9,5,0.75,0.8024384133178077,0.6509423012817428
9,5,0.5,0.8014836999507617,0.7464136379863429
9,5,0.25,0.8048026311207925,0.41452052098326364
9,5,0.0,0.8007524348727681,0.8195401457857021
9,6,1.0,0.8089478363306252,0.0
9,6,0.75,0.8235805321533639,-1.463269582273874
9,6,0.5,0.8198340052799242,-1.0886168949299058
9,6,0.25,0.8265291331018249,-1.7581296771199684
9,6,0.0,0.8364890864408664,-2.754125011024122
9,7,1.0,0.8089478363306252,0.0
9,7,0.75,0.8074615898904364,0.14862464401887987
9,7,0.5,0.8099965850624438,-0.1048748731818594
9,7,0.25,0.8023695718523618,0.6578264478263374
9,7,0.0,0.7897719070467929,1.9175929283832271
9,8,1.0,0.8089478363306252,0.0
9,8,0.75,0.8137061925996727,-0.47583562690475256
9,8,0.5,0.833551611466181,-2.4603775135555783
9,8,0.25,0.8345473692368095,-2.559953290618433
9,8,0.0,0.823856616783607,-1.490878045298183
10,0,1.0,0.7793923220302229,0.0
10,0,0.75,0.7801860593851722,-0.07937373549492532
10,0,0.5,0.7901109318494861,-1.0718609819263203
10,0,0.25,0.7824270384330722,-0.3034716402849247
10,0,0.0,0.7568062495738485,2.258607245637445
10,1,1.0,0.7793923220302229,0.0
10,1,0.75,0.770668327087077,0.8723994943145907
10,1,0.5,0.7551314946006655,2.4260827429557374
10,1,0.25,0.7600441223412313,1.9348199688991596
10,1,0.0,0.7594551935918517,1.9937128438371254
10,2,1.0,0.7793923220302229,0.0
10,2,0.75,0.7775048657720137,0.18874562582091858
10,2,0.5,0.7641607016040851,1.5231620426137793
10,2,0.25,0.7662450230928491,1.3147298937373764
10,2,0.0,0.7656115209544483,1.3780801075774618
10,3,1.0,0.7793923220302229,0.0
10,3,0.75,0.7888888888888889,-0.9496566858665956
10,3,0.5,0.7833492027859219,-0.39568807556989993
10,3,0.25,0.7668740753596576,1.2518246670565336
10,3,0.0,0.7600660386897216,1.932628334050135
10,4,1.0,0.7793923220302229,0.0
10,4,0.75,0.7678582108073528,1.153411122287007
10,4,0.5,0.7563914458718392,2.3000876158383754
10,4,0.25,0.742330805307879,3.7061516722343923
10,4,0.0,0.7539703217268522,2.5422000303370718
10,5,1.0,0.7793923220302229,0.0
10,5,0.75,0.7642316583330115,1.5160663697211363
10,5,0.5,0.7598986623338548,1.949365969636807
10,5,0.25,0.7642461749647161,1.5146147065506765
10,5,0.0,0.7607605807088219,1.8631741321400996
10,6,1.0,0.7793923220302229,0.0
10,6,0.75,0.7788283935231352,0.0563928507087752
10,6,0.5,0.8004388838447828,-2.1046561814559883
10,6,0.25,0.8178383402710658,-3.8446018240842927
10,6,0.0,0.8377872453576679,-5.8394923327445
10,7,1.0,0.7793923220302229,0.0
10,7,0.75,0.7648177432424276,1.4574578787795334
10,7,0.5,0.7648615099306055,1.4530812099617374
10,7,0.25,0.7630238536092403,1.6368468420982607
10,7,0.0,0.7562559847986116,2.313633723161135
10,8,1.0,0.7793923220302229,0.0
10,8,0.75,0.7918998732317296,-1.2507551201506706
10,8,0.5,0.8064897421453747,-2.7097420115151816
10,8,0.25,0.8076703205265457,-2.8277998496322843
10,8,0.0,0.7926030167317875,-1.3210694701564552
11,0,1.0,0.9442912246582267,0.0
11,0,0.75,0.9434552004734617,0.08360241847650274
11,0,0.5,0.9387531031310818,0.5538121527144835
11,0,0.25,0.9404319745129214,0.3859250145305304
11,0,0.0,0.943104060033066,0.11871646251606638
11,1,1.0,0.9442912246582267,0.0
11,1,0.75,0.9442912246582267,0.0
11,1,0.5,0.9294278111349721,1.4863413523254598
11,1,0.25,0.9226529105154267,2.163831414279993
11,1,0.0,0.912145439466386,3.2145785191840637
11,2,1.0,0.9442912246582267,0.0
11,2,0.75,0.9384030818885725,0.5888142769654214
11,2,0.5,0.9271774175341876,1.7113807124039093
11,2,0.25,0.9148071299721643,2.948409468606239
11,2,0.0,0.9089405695299986,3.5350655128228103
11,3,1.0,0.9442912246582267,0.0
11,3,0.75,0.9520407617048792,-0.7749537046652488
11,3,0.5,0.9430835718131849,0.12076528450417623
11,3,0.25,0.935057475181829,0.9233749476397657
11,3,0.0,0.9300429446802116,1.4248279978015033
11,4,1.0,0.9442912246582267,0.0
11,4,0.75,0.9367355738743022,0.7555650783924506
11,4,0.5,0.9262044295297628,1.8086795128463895
11,4,0.25,0.9270730610434549,1.7218163614771798
11,4,0.0,0.9334414572672112,1.0849767391015508
11,5,1.0,0.9442912246582267,0.0
11,5,0.75,0.9395657873949187,0.47254372633079855
11,5,0.5,0.9404132007073317,0.3878023950894982
11,5,0.25,0.944114829780488,0.017639487773868368
11,5,0.0,0.9451169305171179,-0.08257058588911903
11,6,1.0,0.9442912246582267,0.0
11,6,0.75,0.9501971480031745,-0.5905923344947772
11,6,0.5,0.9481525620643183,-0.3861337406091625
11,6,0.25,0.9491940064766151,-0.49027818183884353
11,6,0.0,0.94331080504861,0.09804196096167006
11,7,1.0,0.9442912246582267,0.0
11,7,0.75,0.9473241161205364,-0.30328914623096725
11,7,0.5,0.9492746090911821,-0.4983384432955429
11,7,0.25,0.9481157480980819,-0.38245234398551764
11,7,0.0,0.9432197415209753,0.10714831372513611
11,8,1.0,0.9442912246582267,0.0
11,8,0.75,0.9510392742233136,-0.67480495650869
11,8,0.5,0.9481768341967561,-0.38856095385294553
11,8,0.25,0.94921913846731,-0.49279138090833063
11,8,0.0,0.9433926099194611,0.0898614738765624
12,0,1.0,0.9035714862255957,0.0
12,0,0.75,0.9003695938627369,0.3201892362858838
12,0,0.5,0.8983497846281177,0.5221701597478035
12,0,0.25,0.897572880443751,0.5998605781844635
12,0,0.0,0.8806239271394172,2.2947559086178515
12,1,1.0,0.9035714862255957,0.0
12,1,0.75,0.9117017650079835,-0.8130278782387812
12,1,0.5,0.9039779788737695,-0.040649264817382846
12,1,0.25,0.8893957537704271,1.4175732455168566
12,1,0.0,0.8740014981584594,2.956998806713629
12,2,1.0,0.9035714862255957,0.0
12,2,0.75,0.9059781467523252,-0.24066605267295538
12,2,0.5,0.8948661861682068,0.8705300057388898
12,2,0.25,0.8770765893027663,2.649489692282936
12,2,0.0,0.8647574726268761,3.881401359871961
12,3,1.0,0.9035714862255957,0.0
12,3,0.75,0.8993798623172673,0.419162390832839
12,3,0.5,0.8783582440736423,2.521324215195342
12,3,0.25,0.8623388055606365,4.123268066495922
12,3,0.0,0.8388968406600041,6.467464556559155
12,4,1.0,0.9035714862255957,0.0
12,4,0.75,0.8958562311617759,0.7715255063819759
12,4,0.5,0.8924681497806789,1.110333644491679
12,4,0.25,0.8982156829868098,0.5355803238785928
12,4,0.0,0.9018962611382475,0.16752250873481866
12,5,1.0,0.9035714862255957,0.0
12,5,0.75,0.9029798952859475,0.05915909396482233
12,5,0.5,0.8929192664754753,1.0652219750120429
12,5,0.25,0.8803056756641131,2.326581056148258
12,5,0.0,0.8864297191806682,1.7141767044927536
12,6,1.0,0.9035714862255957,0.0
12,6,0.75,0.9083418404008593,-0.47703541752636136
12,6,0.5,0.9035714862255957,0.0
12,6,0.25,0.9035714862255957,0.0
12,6,0.0,0.8979352666887997,0.5636219536795939
12,7,1.0,0.9035714862255957,0.0
12,7,0.75,0.9052761577143352,-0.17046714887395398
12,7,0.5,0.9147072572420826,-1.1135771016486884
12,7,0.25,0.919362439615313,-1.5790953389717366
12,7,0.0,0.9236403054194201,-2.0068819193824416
12,8,1.0,0.9035714862255957,0.0
12,8,0.75,0.9078100423472474,-0.4238556121651693
12,8,0.5,0.8943271921522367,0.9244294073359027
12,8,0.25,0.8842480514923927,1.932343473320297
12,8,0.0,0.8895435264676559,1.40279597579398
13,0,1.0,0.9044942766171111,0.0
13,0,0.75,0.902023066343588,0.247121027352315
13,0,0.5,0.9063380902199569,-0.18438136028458008
13,0,0.25,0.9064081165686897,-0.19138399515785665
13,0,0.0,0.9017048381090613,0.2789438508049802
13,1,1.0,0.9044942766171111,0.0
13,1,0.75,0.9022152050061332,0.22790716109779563
13,1,0.5,0.8976465164035294,0.6847760213581688
13,1,0.25,0.8961012881179122,0.8392988499198895
13,1,0.0,0.8924543780874198,1.203989852969134
13,2,1.0,0.9044942766171111,0.0
13,2,0.75,0.8952251354716811,0.9269141145429982
13,2,0.5,0.878760794864901,2.573348175221013
13,2,0.25,0.8675944390452013,3.6899837571909844
13,2,0.0,0.8574742895273982,4.7019987089712885
13,3,1.0,0.9044942766171111,0.0
13,3,0.75,0.9025574255096439,0.1936851107467219
13,3,0.5,0.8963126633840423,0.8181613233068874
13,3,0.25,0.8949497837239606,0.9544492893150514
13,3,0.0,0.8720760203848439,3.241825623226724
13,4,1.0,0.9044942766171111,0.0
13,4,0.75,0.9017049476981401,0.278932891897099
13,4,0.5,0.8874021003406387,1.7092176276472415
13,4,0.25,0.8923072221844282,1.2187054432682976
13,4,0.0,0.8913129390765488,1.3181337540562277
13,5,1.0,0.9044942766171111,0.0
13,5,0.75,0.9015917152405793,0.2902561376531776
13,5,0.5,0.8925907893229466,1.1903487294164572
13,5,0.25,0.8872193820987516,1.7274894518359507
13,5,0.0,0.8744118111132768,3.008246550383431
13,6,1.0,0.9044942766171111,0.0
13,6,0.75,0.8964182499817336,0.8076026635377542
13,6,0.5,0.8961937939860273,0.830048263108385
13,6,0.25,0.8883790307912947,1.611524582581647
13,6,0.0,0.8832086963225658,2.1285580294545303
13,7,1.0,0.9044942766171111,0.0
13,7,0.75,0.8977247223133588,0.6769554303752368
13,7,0.5,0.8903911758204119,1.4103100796699186
13,7,0.25,0.8817844714395324,2.27098051775787
13,7,0.0,0.8695543371254952,3.493993949161589
13,8,1.0,0.9044942766171111,0.0
13,8,0.75,0.8879515870507662,1.654268956634497
13,8,0.5,0.8902880323744546,1.4206244242656485
13,8,0.25,0.8875528616335082,1.694141498360291
13,8,0.0,0.8739478268842839,3.0546449732827274
14,0,1.0,0.8542429601125451,0.0
14,0,0.75,0.8562546339635997,-0.20116738510546073
14,0,0.5,0.8504145589804052,0.38284011321398914
14,0,0.25,0.851517829532441,0.27251305801040404
14,0,0.0,0.851272995197046,0.2969964915499057
14,1,1.0,0.8542429601125451,0.0
14,1,0.75,0.8431795378959708,1.1063422216574303
14,1,0.5,0.8429573144428858,1.1285645669659283
14,1,0.25,0.8343231442191837,1.9919815893361337
14,1,0.0,0.8243934542639874,2.9849505848557722
14,2,1.0,0.8542429601125451,0.0
14,2,0.75,0.8469482838182734,0.7294676294271718
14,2,0.5,0.8552344884848846,-0.09915283723395119
14,2,0.25,0.8630893266617699,-0.8846366549224771
14,2,0.0,0.8685267330285626,-1.4283772916017567
14,3,1.0,0.8542429601125451,0.0
14,3,0.75,0.8516932905707435,0.254966954180158
14,3,0.5,0.8426021049735477,1.1640855138997375
14,3,0.25,0.8288220544968824,2.542090561566268
14,3,0.0,0.7961890558579414,5.8053904254603665
14,4,1.0,0.8542429601125451,0.0
14,4,0.75,0.8590066983874132,-0.476373827486809
14,4,0.5,0.8595686424871631,-0.5325682374618057
14,4,0.25,0.8635287269678107,-0.9285766855265609
14,4,0.0,0.8705078670231117,-1.626490691056659
14,5,1.0,0.8542429601125451,0.0
14,5,0.75,0.8451201540624868,0.912280605005833
14,5,0.5,0.8536146054460341,0.06283546665110107
14,5,0.25,0.8432530180140627,1.0989942098482364
14,5,0.0,0.8405698793758142,1.3673080736730903
14,6,1.0,0.8542429601125451,0.0
14,6,0.75,0.8515798537499109,0.26631063626342266
14,6,0.5,0.8552252549988653,-0.09822948863201786
14,6,0.25,0.853215511031277,0.10274490812680614
14,6,0.0,0.8444023424866962,0.9840617625848869
14,7,1.0,0.8542429601125451,0.0
14,7,0.75,0.8364203484064439,1.7822611706101221
14,7,0.5,0.8293595803908282,2.4883379721716836
14,7,0.25,0.8130135788624673,4.12293812500778
14,7,0.0,0.7956930247112279,5.854993540131714
14,8,1.0,0.8542429601125451,0.0
14,8,0.75,0.8556984388065478,-0.14554786940027542
14,8,0.5,0.8415290684615305,1.2713891651014553
14,8,0.25,0.837972417381396,1.627054273114903
14,8,0.0,0.798357666735606,5.588529337693904
15,0,1.0,0.922462129963242,0.0
15,0,0.75,0.9147770503362319,0.7685079627010039
15,0,0.5,0.9135772264126479,0.8884903550594014
15,0,0.25,0.8966570882698199,2.5805041693422015
15,0,0.0,0.8767218731410442,4.574025682219773
15,1,1.0,0.922462129963242,0.0
15,1,0.75,0.927809135619273,-0.5347005656031079
15,1,0.5,0.9252786743245766,-0.28165443613346053
15,1,0.25,0.9176189263148106,0.48432036484313823
15,1,0.0,0.9223878678424379,0.007426212080408057
15,2,1.0,0.922462129963242,0.0
15,2,0.75,0.9238455166441114,-0.13833866808694584
15,2,0.5,0.9111634409992484,1.1298688963993553
15,2,0.25,0.8957247557884085,2.673737417483346
15,2,0.0,0.8785744122210287,4.388771774221323
15,3,1.0,0.922462129963242,0.0
15,3,0.75,0.9252069252069252,-0.2744795243683207
15,3,0.5,0.9150273069836906,0.7434822979551337
15,3,0.25,0.9195939694956949,0.28681604675470096
15,3,0.0,0.9215931990328433,0.0868930930398637
15,4,1.0,0.922462129963242,0.0
15,4,0.75,0.9167760431983683,0.5686086764873699
15,4,0.5,0.8968194889056271,2.5642641057614823
15,4,0.25,0.8900648530589961,3.2397276904245875
15,4,0.0,0.9158583980834893,0.6603731879752606
15,5,1.0,0.922462129963242,0.0
15,5,0.75,0.9185135210138817,0.39486089493602217
15,5,0.5,0.9178202606909017,0.46418692723402266
15,5,0.25,0.9269298737169647,-0.44677437537227194
15,5,0.0,0.9223565941527607,0.010553581048122762
15,6,1.0,0.922462129963242,0.0
15,6,0.75,0.9166272581668091,0.5834871796432828
15,6,0.5,0.9109577455866956,1.1504384376546328
15,6,0.25,0.9017553348822163,2.0706795081025686
15,6,0.0,0.9047027110424696,1.7759418920772374
15,7,1.0,0.922462129963242,0.0
15,7,0.75,0.9022045478322813,2.0257582130960627
15,7,0.5,0.8884818076701458,3.398032229309611
15,7,0.25,0.8920266590793446,3.043547088389731
15,7,0.0,0.9191004872279351,0.33616427353068135
15,8,1.0,0.922462129963242,0.0
15,8,0.75,0.9341020547742599,-1.1639924811017943
15,8,0.5,0.9353707230240323,-1.2908593060790396
15,8,0.25,0.9210241930016517,0.1437936961590225
15,8,0.0,0.9052797041267755,1.7182425836466453
16,0,1.0,0.8694124237145147,0.0
16,0,0.75,0.8730261846714233,-0.3613760956908685
16,0,0.5,0.8752974612932651,-0.5885037578750474
16,0,0.25,0.8661510206912437,0.3261403023270937
16,0,0.0,0.8521579790875203,1.7254444626994325
16,1,1.0,0.8694124237145147,0.0
16,1,0.75,0.8800241205905153,-1.061169687600061
16,1,0.5,0.8772218118034227,-0.7809388088908076
16,1,0.25,0.8677979407979408,0.1614482916573845
16,1,0.0,0.8696051978913937,-0.01927741768790181
16,2,1.0,0.8694124237145147,0.0
16,2,0.75,0.8795213894564969,-1.0108965741982279
16,2,0.5,0.8607377560937933,0.8674667620721332
16,2,0.25,0.8521322766156532,1.7280147098861498
16,2,0.0,0.8268424171180474,4.257000659646726
16,3,1.0,0.8694124237145147,0.0
16,3,0.75,0.8739823766441801,-0.4569952929665444
16,3,0.5,0.875116433913758,-0.5704010199243381
16,3,0.25,0.8718332927072193,-0.24208689927046612
16,3,0.0,0.868846573638884,0.05658500756307028
16,4,1.0,0.8694124237145147,0.0
16,4,0.75,0.8691057552928418,0.03066684216728177
16,4,0.5,0.8717045742093358,-0.22921504948211213
16,4,0.25,0.8551227373112299,1.4289686403284763
16,4,0.0,0.8655394054647786,0.3873018249736071
16,5,1.0,0.8694124237145147,0.0
16,5,0.75,0.8343526475724318,3.505977614208289
16,5,0.5,0.8272640377453679,4.214838596914672
16,5,0.25,0.8351910663680733,3.4221357346441383
16,5,0.0,0.8452269602483595,2.4185463466155133
16,6,1.0,0.8694124237145147,0.0
16,6,0.75,0.8748355642179948,-0.5423140503480139
16,6,0.5,0.8799593377241213,-1.0546914009606612
16,6,0.25,0.8855043575658541,-1.6091933851339446
16,6,0.0,0.8851561358683522,-1.574371215383752
16,7,1.0,0.8694124237145147,0.0
16,7,0.75,0.8757339010511598,-0.632147733664512
16,7,0.5,0.8634623006102995,0.5950123104215166
16,7,0.25,0.8422812579571453,2.71311657573694
16,7,0.0,0.8192013216585631,5.021110205595159
16,8,1.0,0.8694124237145147,0.0
16,8,0.75,0.8846231129834938,-1.5210689268979172
16,8,0.5,0.8797356054372023,-1.0323181722687647
16,8,0.25,0.8803227558328515,-1.0910332118336807
16,8,0.0,0.8546034348465974,1.480898886791726
17,0,1.0,0.8541987826949612,0.0
17,0,0.75,0.854731107354367,-0.053232465940578066
17,0,0.5,0.8672565414404958,-1.305775874553461
17,0,0.25,0.8462122335357043,0.7986549159256895
17,0,0.0,0.8374346479350466,1.6764134759914562
17,1,1.0,0.8541987826949612,0.0
17,1,0.75,0.8509614719492368,0.323731074572442
17,1,0.5,0.8651461859278755,-1.0947403232914321
17,1,0.25,0.8685454958550349,-1.4346713160073743
17,1,0.0,0.8610112421714335,-0.6812459476472355
17,2,1.0,0.8541987826949612,0.0
17,2,0.75,0.8611750528278838,-0.6976270132922568
17,2,0.5,0.8574548707842966,-0.3256088089335418
17,2,0.25,0.86194749712593,-0.7748714430968806
17,2,0.0,0.8633693303502372,-0.9170547655276029
17,3,1.0,0.8541987826949612,0.0
17,3,0.75,0.8531782682774403,0.10205144175209346
17,3,0.5,0.8560962512716163,-0.18974685766550703
17,3,0.25,0.8521675855770977,0.20311971178634813
17,3,0.0,0.852079269419952,0.2119513275009144
17,4,1.0,0.8541987826949612,0.0
17,4,0.75,0.8526231913315876,0.15755913633735963
17,4,0.5,0.8438359719804969,1.0362810714464321
17,4,0.25,0.8527918047485143,0.14069779464468413
17,4,0.0,0.8509920489178046,0.3206733777156634
17,5,1.0,0.8541987826949612,0.0
17,5,0.75,0.8524506171091223,0.1748165585838901
17,5,0.5,0.8632358487292048,-0.903706603424359
17,5,0.25,0.8615228154998713,-0.7324032804910119
17,5,0.0,0.8474258452411836,0.6772937453777605
17,6,1.0,0.8541987826949612,0.0
17,6,0.75,0.8579579582997603,-0.3759175604799103
17,6,0.5,0.8567600628615868,-0.25612801666256013
17,6,0.25,0.869535914832546,-1.5337132137584808
17,6,0.0,0.8639240837850405,-0.9725301090079297
17,7,1.0,0.8541987826949612,0.0
17,7,0.75,0.8512482596080948,0.29505230868663856
17,7,0.5,0.8492705285617377,0.49282541332235086
17,7,0.25,0.8392963517695613,1.490243092539989
17,7,0.0,0.8208704600008145,3.332832269414665
17,8,1.0,0.8541987826949612,0.0
17,8,0.75,0.8641479647191675,-0.994918202420636
17,8,0.5,0.8551136950804401,-0.09149123854789165
17,8,0.25,0.8465617882303088,0.763699446465238
17,8,0.0,0.831821117364792,2.237766533016916
18,0,1.0,0.9140710167432783,0.0
18,0,0.75,0.9149067295983626,-0.08357128550843251
18,0,0.5,0.9031750163546901,1.0896000388588178
18,0,0.25,0.8945177619749083,1.9553254768369999
18,0,0.0,0.885168010085587,2.89030066576913
18,1,1.0,0.9140710167432783,0.0
18,1,0.75,0.9171928843423375,-0.31218675990591915
18,1,0.5,0.9132555306975852,0.08154860456930368
18,1,0.25,0.9076497414522835,0.6421275290994788
18,1,0.0,0.9062960162552937,0.7775000487984629
18,2,1.0,0.9140710167432783,0.0
18,2,0.75,0.9140710167432783,0.0
18,2,0.5,0.9154150545526175,-0.1344037809339227
18,2,0.25,0.9150320349880983,-0.09610182448199778
18,2,0.0,0.9129588691245963,0.11121476186819468
18,3,1.0,0.9140710167432783,0.0
18,3,0.75,0.91024755050299,0.3823466240288287
18,3,0.5,0.8893557189262036,2.471529781707471
18,3,0.25,0.8693588044538438,4.471221228943445
18,3,0.0,0.7992593505814308,11.481166616184746
18,4,1.0,0.9140710167432783,0.0
18,4,0.75,0.9214819207977291,-0.7410904054450773
18,4,0.5,0.9166354440780315,-0.2564427334753261
18,4,0.25,0.9175713495985641,-0.3500332855285837
18,4,0.0,0.910769364359225,0.3301652384053333
18,5,1.0,0.9140710167432783,0.0
18,5,0.75,0.9156104846316634,-0.15394678883851043
18,5,0.5,0.906590889807346,0.7480126935932252
18,5,0.25,0.907154888316746,0.6916128426532331
18,5,0.0,0.9094275642889088,0.4643452454369479
18,6,1.0,0.9140710167432783,0.0
18,6,0.75,0.9119896138316153,0.20814029116630328
18,6,0.5,0.9133426194239277,0.07283973193505933
18,6,0.25,0.9126134328296666,0.14575839136117263
18,6,0.0,0.9197991720030702,-0.5728155259791867
18,7,1.0,0.9140710167432783,0.0
18,7,0.75,0.9056863336860524,0.8384683057225839
18,7,0.5,0.8965254866424175,1.7545530100860796
18,7,0.25,0.8863079338693001,2.7763082873978218
18,7,0.0,0.8800855219595612,3.398549478371704
18,8,1.0,0.9140710167432783,0.0
18,8,0.75,0.9098383610703792,0.42326556728990994
18,8,0.5,0.9006823432989451,1.3388673444333143
18,8,0.25,0.8947198207112778,1.9351196032000528
18,8,0.0,0.8972274846286648,1.6843532114613535
19,0,1.0,0.8605862164868808,0.0
19,0,0.75,0.8617096741809834,-0.11234576941026031
19,0,0.5,0.8574794428776729,0.3106773609207969
19,0,0.25,0.8576713528130139,0.2914863673866952
19,0,0.0,0.8644094405315705,-0.38232240446897103
19,1,1.0,0.8605862164868808,0.0
19,1,0.75,0.8648068006326691,-0.42205841457882975
19,1,0.5,0.8602508493484353,0.033536713844550814
19,1,0.25,0.86336288380622,-0.2776667319339121
19,1,0.0,0.8572842577235467,0.33019587633341674
19,2,1.0,0.8605862164868808,0.0
19,2,0.75,0.8687318636157088,-0.8145647128827926
19,2,0.5,0.867213576950298,-0.6627360463417165
19,2,0.25,0.860479423281078,0.010679320580286866
19,2,0.0,0.8564607096155682,0.4125506871312634
19,3,1.0,0.8605862164868808,0.0
19,3,0.75,0.8541631057359963,0.6423110750884531
19,3,0.5,0.8448351435809054,1.5751072905975438
19,3,0.25,0.8337556704514766,2.6830546035404246
19,3,0.0,0.8289670042964484,3.16192121904324
19,4,1.0,0.8605862164868808,0.0
19,4,0.75,0.8539277219030568,0.665849458382406
19,4,0.5,0.8526583938471075,0.7927822639773319
19,4,0.25,0.8376889968871101,2.2897219599770757
19,4,0.0,0.8576797312251099,0.29064852617709525
19,5,1.0,0.8605862164868808,0.0
19,5,0.75,0.8611129389585066,-0.052672247162577346
19,5,0.5,0.8574117820571685,0.3174434429712325
19,5,0.25,0.8538589958730907,0.6727220613790164
19,5,0.0,0.8519953878500173,0.8590828636863557
19,6,1.0,0.8605862164868808,0.0
19,6,0.75,0.871212993139914,-1.0626776653033132
19,6,0.5,0.8745009958474987,-1.3914779360617913
19,6,0.25,0.8740946797503535,-1.3508463263472659
19,6,0.0,0.8882209388597474,-2.763472237286657
19,7,1.0,0.8605862164868808,0.0
19,7,0.75,0.8633652060114011,-0.277898952452027
19,7,0.5,0.8523601320436699,0.8226084443210935
19,7,0.25,0.8624403717371243,-0.1854155250243461
19,7,0.0,0.8468400986423817,1.3746117844499084
19,8,1.0,0.8605862164868808,0.0
19,8,0.75,0.863753646785575,-0.31674302986941516
19,8,0.5,0.8702875511094689,-0.9701334622588043
19,8,0.25,0.8617024871958323,-0.11162707089514834
19,8,0.0,0.8585608465398433,0.2025369947037503
20,0,1.0,0.8444342234314508,0.0
20,0,0.75,0.8412018393097804,0.3232384121670373
20,0,0.5,0.8447883086069665,-0.035408517551571705
20,0,0.25,0.8404187232855997,0.40155001458510586
20,0,0.0,0.8550092548257846,-1.05750313943338
20,1,1.0,0.8444342234314508,0.0
20,1,0.75,0.8254910768265633,1.8943146604887495
20,1,0.5,0.8166019795562937,2.7832243875157148
20,1,0.25,0.8022828426054233,4.2151380826027545
20,1,0.0,0.7930515398543095,5.138268357714127
20,2,1.0,0.8444342234314508,0.0
20,2,0.75,0.8220088948718907,2.2425328559560143
20,2,0.5,0.8090480304098449,3.538619302160595
20,2,0.25,0.8130272358291266,3.140698760232419
20,2,0.0,0.7967568225143169,4.7677400917133905
20,3,1.0,0.8444342234314508,0.0
20,3,0.75,0.8424521900009336,0.19820334305171716
20,3,0.5,0.8296593416405635,1.4774881790887262
20,3,0.25,0.8071769062855649,3.725731714588587
20,3,0.0,0.811455348852198,3.297887457925275
20,4,1.0,0.8444342234314508,0.0
20,4,0.75,0.8576168929110106,-1.3182669479559816
20,4,0.5,0.8555294146402886,-1.109519120883784
20,4,0.25,0.8545843692099314,-1.0150145778480613
20,4,0.0,0.8508869563963742,-0.6452732964923436
20,5,1.0,0.8444342234314508,0.0
20,5,0.75,0.8538673937155518,-0.9433170284100956
20,5,0.5,0.8611840727350136,-1.6749849303562825
20,5,0.25,0.8549744348639785,-1.0540211432527702
20,5,0.0,0.8522018369389047,-0.7767613507453919
20,6,1.0,0.8444342234314508,0.0
20,6,0.75,0.8404095111005425,0.40247123309082866
20,6,0.5,0.8369408992261103,0.7493324205340546
20,6,0.25,0.8517675810837628,-0.7333357652312023
20,6,0.0,0.8475822611977881,-0.31480377663373194
20,7,1.0,0.8444342234314508,0.0
20,7,0.75,0.8417076424473119,0.27265809841389155
20,7,0.5,0.8463220335196887,-0.18878100882379067
20,7,0.25,0.850097647397754,-0.5663423966303149
20,7,0.0,0.8506456769047714,-0.6211453473320638
20,8,1.0,0.8444342234314508,0.0
20,8,0.75,0.840813131381309,0.36210920501418276
20,8,0.5,0.8430924222945738,0.13418011368769855
20,8,0.25,0.8332546737119545,1.1179549719496307
20,8,0.0,0.8064452621535259,3.798896127792495
21,0,1.0,0.8122260104649175,0.0
21,0,0.75,0.8229748082326596,-1.0748797767742069
21,0,0.5,0.8234006277736222,-1.1174617308704726
21,0,0.25,0.8037965923696667,0.8429418095250774
21,0,0.0,0.8012793781336273,1.094663233129023
21,1,1.0,0.8122260104649175,0.0
21,1,0.75,0.8222934203480811,-1.006740988316357
21,1,0.5,0.8208447348402705,-0.8618724375353048
21,1,0.25,0.8217229138451236,-0.9496903380206145
21,1,0.0,0.8181471912247185,-0.592118075980097
21,2,1.0,0.8122260104649175,0.0
21,2,0.75,0.8242656756920652,-1.2039665227147722
21,2,0.5,0.8199629472481831,-0.7736936783265591
21,2,0.25,0.8199629472481831,-0.7736936783265591
21,2,0.0,0.8160862360731198,-0.3860225608202317
21,3,1.0,0.8122260104649175,0.0
21,3,0.75,0.8122260104649175,0.0
21,3,0.5,0.8146912384275533,-0.24652279626358187
21,3,0.25,0.8016300484980736,1.059596196684387
21,3,0.0,0.8052376182236185,0.6988392241298991
21,4,1.0,0.8122260104649175,0.0
21,4,0.75,0.8273044162552756,-1.507840579035813
21,4,0.5,0.8292119649027063,-1.698595443778883
21,4,0.25,0.826220973599872,-1.399496313495452
21,4,0.0,0.8179111875906142,-0.5685177125696717
21,5,1.0,0.8122260104649175,0.0
21,5,0.75,0.8161425377568249,-0.391652729190739
21,5,0.5,0.8267696328995775,-1.4543622434660008
21,5,0.25,0.8285429128221748,-1.6316902357257357
21,5,0.0,0.8299871131287653,-1.7761102663847783
21,6,1.0,0.8122260104649175,0.0
21,6,0.75,0.8160269146654536,-0.3800904200536137
21,6,0.5,0.8159378784194672,-0.3711867954549697
21,6,0.25,0.8159378784194672,-0.3711867954549697
21,6,0.0,0.8159378784194672,-0.3711867954549697
21,7,1.0,0.8122260104649175,0.0
21,7,0.75,0.8119366604073379,0.028935005757957377
21,7,0.5,0.8074113443765317,0.4814666088385766
21,7,0.25,0.806754775492752,0.5471234972165506
21,7,0.0,0.7961413688453961,1.608464161952139
21,8,1.0,0.8122260104649175,0.0
21,8,0.75,0.8209609579650194,-0.8734947500101953
21,8,0.5,0.8215861616513219,-0.9360151186404431
21,8,0.25,0.8239825926611647,-1.17565821962472
21,8,0.0,0.7940870625654624,1.8138947899455138
22,0,1.0,0.815371393642176,0.0
22,0,0.75,0.8252221637662362,-0.9850770124060215
22,0,0.5,0.8394639943500428,-2.4092600707866785
22,0,0.25,0.8283256853234214,-1.29542916812454
22,0,0.0,0.8342756435801927,-1.8904249938016648
22,1,1.0,0.815371393642176,0.0
22,1,0.75,0.8246628731872132,-0.9291479545037173
22,1,0.5,0.8401070368270305,-2.473564318485444
22,1,0.25,0.8446764951800119,-2.930510153783583
22,1,0.0,0.8430097008734792,-2.7638307231303116
22,2,1.0,0.815371393642176,0.0
22,2,0.75,0.8156234268231606,-0.025203318098454552
22,2,0.5,0.8136317547762733,0.17396388659027817
22,2,0.25,0.8084443238097557,0.6927069832420307
22,2,0.0,0.8102855837338356,0.50858099083404
22,3,1.0,0.815371393642176,0.0
22,3,0.75,0.8136399473148557,0.17314463273203629
22,3,0.5,0.8118990002396268,0.3472393402549234
22,3,0.25,0.8079488202269852,0.7422573415190814
22,3,0.0,0.7939647415540664,2.1406652088109657
22,4,1.0,0.815371393642176,0.0
22,4,0.75,0.8115453622593745,0.3826031382801576
22,4,0.5,0.8150955055331945,0.02758881089814924
22,4,0.25,0.8153698520795609,0.00015415626151149553
22,4,0.0,0.8080715519025676,0.7299841739608404
22,5,1.0,0.815371393642176,0.0
22,5,0.75,0.8132850844259933,0.20863092161826913
22,5,0.5,0.8078909080784916,0.7480485563684414
22,5,0.25,0.8008002183788778,1.4571175263298208
22,5,0.0,0.808296890749749,0.7074502892427059
22,6,1.0,0.815371393642176,0.0
22,6,0.75,0.8002795659339015,1.5091827708274552
22,6,0.5,0.7972926352130432,1.8078758429132868
22,6,0.25,0.7997483838166001,1.5623009825575962
22,6,0.0,0.8019819211659122,1.3389472476263875
22,7,1.0,0.815371393642176,0.0
22,7,0.75,0.7919043686390754,2.3467025003100606
22,7,0.5,0.7821889090222394,3.318248461993667
22,7,0.25,0.7773775091034957,3.7993884538680356
22,7,0.0,0.7650624399441854,5.03089536979906
22,8,1.0,0.815371393642176,0.0
22,8,0.75,0.8159362254287067,-0.05648317865306618
22,8,0.5,0.8132118388221833,0.21595548199927483
22,8,0.25,0.8099884337108255,0.5382959931350517
22,8,0.0,0.7922629993902313,2.3108394251944775
23,0,1.0,0.8511120497916272,0.0
23,0,0.75,0.841486750907137,0.9625298884490263
23,0,0.5,0.8338891851930785,1.7222864598548715
23,0,0.25,0.8315795830124941,1.9532466779133117
23,0,0.0,0.7949773699998155,5.613467979181175
23,1,1.0,0.8511120497916272,0.0
23,1,0.75,0.8541066677410392,-0.2994617949411915
23,1,0.5,0.8476874031300075,0.342464666161979
23,1,0.25,0.8467416058731125,0.43704439185147104
23,1,0.0,0.8470365122327475,0.4075537558879794
23,2,1.0,0.8511120497916272,0.0
23,2,0.75,0.8564698823303813,-0.5357832538754104
23,2,0.5,0.8572772336359292,-0.616518384430198
23,2,0.25,0.8587229676918328,-0.7610917900205516
23,2,0.0,0.8530125341746764,-0.1900484383049128
23,3,1.0,0.8511120497916272,0.0
23,3,0.75,0.8553455284619431,-0.4233478670315871
23,3,0.5,0.847521252137875,0.35907976537522535
23,3,0.25,0.8345340854635506,1.6577964328076678
23,3,0.0,0.8055050776693664,4.560697212226083
23,4,1.0,0.8511120497916272,0.0
23,4,0.75,0.8478444445185376,0.3267605273089669
23,4,0.5,0.8460886157398929,0.5023434051734332
23,4,0.25,0.8462143211693792,0.4897728622248021
23,4,0.0,0.8391245568422062,1.198749294942103
23,5,1.0,0.8511120497916272,0.0
23,5,0.75,0.8447660382912383,0.6346011500388937
23,5,0.5,0.836731993239114,1.4380056552513287
23,5,0.25,0.8458139510173148,0.5298098774312421
23,5,0.0,0.8494606973995272,0.1651352392100014
23,6,1.0,0.8511120497916272,0.0
23,6,0.75,0.8430071545359608,0.8104895255666489
23,6,0.5,0.8457690248553851,0.5343024936242169
23,6,0.25,0.8346934177548115,1.6418632036815706
23,6,0.0,0.8187888532408538,3.2323196550773425
23,7,1.0,0.8511120497916272,0.0
23,7,0.75,0.8550140542328042,-0.3902004441176943
23,7,0.5,0.8389547785018014,1.21572712898258
23,7,0.25,0.8454023686147522,0.5709681176875092
23,7,0.0,0.8251053903966687,2.60066593949585
23,8,1.0,0.8511120497916272,0.0
23,8,0.75,0.847287464146836,0.38245856447912674
23,8,0.5,0.8447217800690974,0.6390269722529873
23,8,0.25,0.8385212123323535,1.2590837459273696
23,8,0.0,0.8354315442323202,1.5680505559307
24,0,1.0,0.7625541763013767,0.0
24,0,0.75,0.7469857620254,1.556841427597666
24,0,0.5,0.7295363842556929,3.301779204568378
24,0,0.25,0.722072915891303,4.048126041007372
24,0,0.0,0.7286734455788781,3.388073072249853
24,1,1.0,0.7625541763013767,0.0
24,1,0.75,0.7542796574664702,0.8274518834906486
24,1,0.5,0.7611507272170536,0.1403449084323105
24,1,0.25,0.7696226797262229,-0.7068503424846218
24,1,0.0,0.7737870490796948,-1.1232872778318082
24,2,1.0,0.7625541763013767,0.0
24,2,0.75,0.7564728934786623,0.6081282822714362
24,2,0.5,0.7442087255808891,1.8345450720487544
24,2,0.25,0.7373539735259942,2.5200202775382485
24,2,0.0,0.7248467285218565,3.7707447779520176
24,3,1.0,0.7625541763013767,0.0
24,3,0.75,0.7950060172391926,-3.2451840937815946
24,3,0.5,0.8016965366774048,-3.914236037602814
24,3,0.25,0.804586646656571,-4.20324703551943
24,3,0.0,0.7997243860230377,-3.7170209721661074
24,4,1.0,0.7625541763013767,0.0
24,4,0.75,0.758492192782868,0.4061983518508727
24,4,0.5,0.7417432022694459,2.0810974031930773
24,4,0.25,0.7177707997294951,4.478337657188158
24,4,0.0,0.7073747806896776,5.5179395611699045
24,5,1.0,0.7625541763013767,0.0
24,5,0.75,0.7495206598965417,1.3033516404834966
24,5,0.5,0.7286692814561606,3.3884894845216063
24,5,0.25,0.7229543335690233,3.9599842732353396
24,5,0.0,0.7314275634552194,3.1126612846157253
24,6,1.0,0.7625541763013767,0.0
24,6,0.75,0.7562247122608144,0.6329464040562227
24,6,0.5,0.7485768099388842,1.3977366362492472
24,6,0.25,0.7394611552430778,2.3093021058298913
24,6,0.0,0.7304640627870271,3.209011351434954
24,7,1.0,0.7625541763013767,0.0
24,7,0.75,0.7549545408111145,0.7599635490262213
24,7,0.5,0.7449600728961858,1.7594103405190853
24,7,0.25,0.7420070330238028,2.05471432775739
24,7,0.0,0.691337012713644,7.121716358773266
24,8,1.0,0.7625541763013767,0.0
24,8,0.75,0.7629123592406968,-0.035818293932010636
24,8,0.5,0.7495031743616067,1.3051001939769935
24,8,0.25,0.7298223308808998,3.2731845420476913
24,8,0.0,0.7246153561021231,3.7938820199253542
25,0,1.0,0.8980465523559958,0.0
25,0,0.75,0.8990315745792979,-0.09850222233021011
25,0,0.5,0.9042559901698485,-0.6209437813852636
25,0,0.25,0.9070554194132684,-0.9008867057272552
25,0,0.0,0.8974367832988561,0.06097690571397196
25,1,1.0,0.8980465523559958,0.0
25,1,0.75,0.9062916940735583,-0.824514171756241
25,1,0.5,0.913693220924424,-1.5646668568428113
25,1,0.25,0.9106660844066371,-1.2619532050641258
25,1,0.0,0.9042884253278665,-0.6241872971870621
25,2,1.0,0.8980465523559958,0.0
25,2,0.75,0.8981371661594971,-0.009061380350128267
25,2,0.5,0.9011389307100195,-0.30923783540236505
25,2,0.25,0.8990596425344692,-0.1013090178473397
25,2,0.0,0.8958775309252104,0.2169021430785456
25,3,1.0,0.8980465523559958,0.0
25,3,0.75,0.8893747979574058,0.8671754398590026
25,3,0.5,0.8947011822024592,0.3345370153536642
25,3,0.25,0.892606847905108,0.5439704450887817
25,3,0.0,0.8746305204703425,2.3416031885653332
25,4,1.0,0.8980465523559958,0.0
25,4,0.75,0.8910437342713691,0.7002818084626772
25,4,0.5,0.8923048080091054,0.5741744346890454
25,4,0.25,0.8812913204002313,1.675523195576456
25,4,0.0,0.8765572481932002,2.1489304162795597
25,5,1.0,0.8980465523559958,0.0
25,5,0.75,0.8859940620230777,1.2052490332918109
25,5,0.5,0.8890197926085601,0.902675974743572
25,5,0.25,0.8957249194600749,0.2321632895920911
25,5,0.0,0.8998498290577499,-0.1803276701754064
25,6,1.0,0.8980465523559958,0.0
25,6,0.75,0.9054130058627273,-0.7366453506731485
25,6,0.5,0.9250605055415957,-2.701395318559985
25,6,0.25,0.9290325987981315,-3.098604644213565
25,6,0.0,0.9260349040586552,-2.798835170265934
25,7,1.0,0.8980465523559958,0.0
25,7,0.75,0.9043512579174078,-0.6304705561411938
25,7,0.5,0.8959141426535544,0.213240970244144
25,7,0.25,0.8805475365488488,1.7499015807147078
25,7,0.0,0.8469993754587969,5.104717689719895
25,8,1.0,0.8980465523559958,0.0
25,8,0.75,0.9014819991003862,-0.3435446744390336
25,8,0.5,0.9035568924539512,-0.5510340097955368
25,8,0.25,0.9043731727739774,-0.6326620417981599
25,8,0.0,0.8935100464593259,0.45365058966699845
26,0,1.0,0.7768227302624119,0.0
26,0,0.75,0.7827497638892897,-0.5927033626877853
26,0,0.5,0.7854141008645206,-0.8591370602108683
26,0,0.25,0.7895376413774999,-1.2714911115088046
26,0,0.0,0.789432686436043,-1.2609956173631143
26,1,1.0,0.7768227302624119,0.0
26,1,0.75,0.7867611885863203,-0.9938458323908383
26,1,0.5,0.7851300010202275,-0.8307270757815566
26,1,0.25,0.7857593521169006,-0.8936621854488735
26,1,0.0,0.7823189366046108,-0.5496206342198939
26,2,1.0,0.7768227302624119,0.0
26,2,0.75,0.7705646971716986,0.6258033090713266
26,2,0.5,0.758764109198157,1.8058621064254932
26,2,0.25,0.7489329772389987,2.7889753023413233
26,2,0.0,0.7377161732152738,3.9106557047138057
26,3,1.0,0.7768227302624119,0.0
26,3,0.75,0.7756902039112573,0.11325263511545725
26,3,0.5,0.7823188645113788,-0.5496134248966889
26,3,0.25,0.7733433114169688,0.34794188454431163
26,3,0.0,0.7597595737307462,1.706315653166568
26,4,1.0,0.7768227302624119,0.0
26,4,0.75,0.7671770672038297,0.9645663058582166
26,4,0.5,0.763994002211643,1.2828728050768845
26,4,0.25,0.7535806708851205,2.32420593772914
26,4,0.0,0.7485367930291167,2.82859372332952
26,5,1.0,0.7768227302624119,0.0
26,5,0.75,0.7577830677155379,1.9039662546873948
26,5,0.5,0.7488509643281711,2.7971765934240778
26,5,0.25,0.754635935044526,2.2186795217885913
26,5,0.0,0.7468535391985841,2.9969191063827783
26,6,1.0,0.7768227302624119,0.0
26,6,0.75,0.7814898607027239,-0.4667130440311973
26,6,0.5,0.7863866965646721,-0.9563966302260196
26,6,0.25,0.7761183692775678,0.07043609848440546
26,6,0.0,0.7741126146863595,0.27101155760523854
26,7,1.0,0.7768227302624119,0.0
26,7,0.75,0.7883114157322837,-1.1488685469871807
26,7,0.5,0.7982167379020649,-2.1394007639653045
26,7,0.25,0.7861501543318152,-0.9327424069403345
26,7,0.0,0.7584424534967561,1.838027676565579
26,8,1.0,0.7768227302624119,0.0
26,8,0.75,0.7772399922169078,-0.04172619544958733
26,8,0.5,0.7805082555436251,-0.3685525281213242
26,8,0.25,0.7646665316846344,1.21561985777775
26,8,0.0,0.7470134622835831,2.980926797882877
27,0,1.0,0.8493612867495879,0.0
27,0,0.75,0.8457887311988425,0.35725555507454265
27,0,0.5,0.8485659650861159,0.07953216634719595
27,0,0.25,0.8530933028482048,-0.37320160986169526
27,0,0.0,0.839646130694564,0.9715156055023932
27,1,1.0,0.8493612867495879,0.0
27,1,0.75,0.8454660709973436,0.38952157522442743
27,1,0.5,0.8341046773739081,1.5256609375679742
27,1,0.25,0.829486350122852,1.9874936626735895
27,1,0.0,0.8274797209933271,2.188156575626077
27,2,1.0,0.8493612867495879,0.0
27,2,0.75,0.8425604370863207,0.6800849663267217
27,2,0.5,0.8440964544198999,0.5264832329687996
27,2,0.25,0.8374556802673716,1.190560648221628
27,2,0.0,0.8342799837988333,1.5081302950754605
27,3,1.0,0.8493612867495879,0.0
27,3,0.75,0.850990099009901,-0.1628812260313084
27,3,0.5,0.8646747967479675,-1.531350999837966
27,3,0.25,0.8496173334092473,-0.025604665965939244
27,3,0.0,0.8349471562769919,1.4414130472595987
27,4,1.0,0.8493612867495879,0.0
27,4,0.75,0.8381160506160507,1.1245236133537229
27,4,0.5,0.8371431171358865,1.2218169613701368
27,4,0.25,0.8203347968407988,2.902648990878909
27,4,0.0,0.8093099955672901,4.005129118229778
27,5,1.0,0.8493612867495879,0.0
27,5,0.75,0.8432371819199815,0.6124104829606347
27,5,0.5,0.8433810414008434,0.5980245348744528
27,5,0.25,0.8424462788440936,0.6915007905494264
27,5,0.0,0.8426939340839994,0.6667352665588488
27,6,1.0,0.8493612867495879,0.0
27,6,0.75,0.8538321717804558,-0.44708850308678993
27,6,0.5,0.8538065141958898,-0.4445227446301936
27,6,0.25,0.8547295776377943,-0.5368290888206451
27,6,0.0,0.8479799089109332,0.13813778386546627
27,7,1.0,0.8493612867495879,0.0
27,7,0.75,0.8462646973602976,0.30965893892902496
27,7,0.5,0.8387006439217877,1.0660642827800215
27,7,0.25,0.8395486423069249,0.9812644442662943
27,7,0.0,0.8308786085790408,1.848267817054705
27,8,1.0,0.8493612867495879,0.0
27,8,0.75,0.8493798393868295,-0.0018552637241597836
27,8,0.5,0.8525320702322761,-0.31707834826881776
27,8,0.25,0.844280582066629,0.5080704682958848
27,8,0.0,0.8407675796513,0.8593707098287884
28,0,1.0,0.8046366585326029,0.0
28,0,0.75,0.8083336264004901,-0.3696967867887202
28,0,0.5,0.8028050277317046,0.18316308008983206
28,0,0.25,0.798710310007283,0.5926348525319924
28,0,0.0,0.8152281553217811,-1.0591496789178145
28,1,1.0,0.8046366585326029,0.0
28,1,0.75,0.8135320474428174,-0.8895388910214463
28,1,0.5,0.8002083333333334,0.44283251992695005
28,1,0.25,0.7963494961972876,0.8287162335315346
28,1,0.0,0.7901915674591522,1.444509107345071
28,2,1.0,0.8046366585326029,0.0
28,2,0.75,0.8016797872644038,0.29568712681991016
28,2,0.5,0.7981072405404144,0.6529417992188535
28,2,0.25,0.7943369002297713,1.0299758302831585
28,2,0.0,0.7828736674829953,2.176299104960766
28,3,1.0,0.8046366585326029,0.0
28,3,0.75,0.8149273374153756,-1.0290678882772686
28,3,0.5,0.8187298172446436,-1.4093158712040643
28,3,0.25,0.7961730496921113,0.8463608840491577
28,3,0.0,0.7620109791826367,4.2625679349966195
28,4,1.0,0.8046366585326029,0.0
28,4,0.75,0.8195628975919568,-1.4926239059353863
28,4,0.5,0.8121896134149647,-0.755295488236174
28,4,0.25,0.8015595985934969,0.30770599391060083
28,4,0.0,0.8183287550792797,-1.3692096546676802
28,5,1.0,0.8046366585326029,0.0
28,5,0.75,0.7001747661092472,10.446189242335569
28,5,0.5,0.6885729668493219,11.6063691683281
28,5,0.25,0.6725695429935105,13.206711553909244
28,5,0.0,0.6856728491824662,11.896380935013672
28,6,1.0,0.8046366585326029,0.0
28,6,0.75,0.8009245796525798,0.37120788800231175
28,6,0.5,0.7991485227537563,0.5488135778846659
28,6,0.25,0.7983407018654833,0.6295956667119573
28,6,0.0,0.798299543818836,0.6337114713766856
28,7,1.0,0.8046366585326029,0.0
28,7,0.75,0.8017023562424905,0.29343022901123783
28,7,0.5,0.7872394130806404,1.7397245451962529
28,7,0.25,0.7758645059626561,2.8772152569946807
28,7,0.0,0.7629002702379996,4.1736388294603355
28,8,1.0,0.8046366585326029,0.0
28,8,0.75,0.8141536005029445,-0.9516941970341586
28,8,0.5,0.8266083459131244,-2.1971687380521465
28,8,0.25,0.8166272897396344,-1.1990631207031477
28,8,0.0,0.8178179790242002,-1.318132049159726
29,0,1.0,0.7916665045294459,0.0
29,0,0.75,0.8050840329732311,-1.3417528443785187
29,0,0.5,0.8032093901831974,-1.15428856537515
29,0,0.25,0.8005553562639449,-0.8888851734499048
29,0,0.0,0.7928435923526989,-0.11770878232529869
29,1,1.0,0.7916665045294459,0.0
29,1,0.75,0.8024834406417062,-1.0816936112260311
29,1,0.5,0.8016467300482273,-0.9980225518781416
29,1,0.25,0.7962905309488058,-0.46240264193598835
29,1,0.0,0.8023328534603238,-1.0666348930877922
29,2,1.0,0.7916665045294459,0.0
29,2,0.75,0.7971451412964333,-0.5478636766987455
29,2,0.5,0.7996473307886673,-0.7980826259221474
29,2,0.25,0.801592596649677,-0.99260921202311
29,2,0.0,0.7951867551909246,-0.3520250661478763
29,3,1.0,0.7916665045294459,0.0
29,3,0.75,0.7858233625021329,0.5843142027312953
29,3,0.5,0.7899778588960218,0.16886456334240796
29,3,0.25,0.7974525422776035,-0.5786037748157669
29,3,0.0,0.7884607945219302,0.3205710007515683
29,4,1.0,0.7916665045294459,0.0
29,4,0.75,0.7655683007190721,2.6098203810373755
29,4,0.5,0.7316738332552792,5.999267127416664
29,4,0.25,0.7162745026993923,7.539200183005357
29,4,0.0,0.7343015515035174,5.736495302592848
29,5,1.0,0.7916665045294459,0.0
29,5,0.75,0.7808136750971886,1.0852829432257294
29,5,0.5,0.7617779098289603,2.988859470048555
29,5,0.25,0.7494957216699859,4.2170782859459965
29,5,0.0,0.7376763491745898,5.399015535485607
29,6,1.0,0.7916665045294459,0.0
29,6,0.75,0.8063465160075329,-1.4680011478087063
29,6,0.5,0.8009376762583744,-0.9271171728928551
29,6,0.25,0.7986359659280982,-0.6969461398652288
29,6,0.0,0.801246432329817,-0.9579927800371091
29,7,1.0,0.7916665045294459,0.0
29,7,0.75,0.7991952898029561,-0.7528785273510197
29,7,0.5,0.7929191263537282,-0.12526218242823184
29,7,0.25,0.791786479488645,-0.01199749591991317
29,7,0.0,0.7713559860604127,2.03105184690332
29,8,1.0,0.7916665045294459,0.0
29,8,0.75,0.8016855458832519,-1.0019041353806046
29,8,0.5,0.7978073209396166,-0.6140816410170724
29,8,0.25,0.7953943763568391,-0.3727871827393203
29,8,0.0,0.7839481739466441,0.7718330582801802
30,0,1.0,0.8852667995814747,0.0
30,0,0.75,0.8929674047173308,-0.7700605135856131
30,0,0.5,0.8851922656762072,0.007453390526745984
30,0,0.25,0.8783657438724052,0.6901055709069515
30,0,0.0,0.8745921375818531,1.0674661999621637
30,1,1.0,0.8852667995814747,0.0
30,1,0.75,0.8866413035138105,-0.13745039323358466
30,1,0.5,0.8668655329259036,1.840126665557107
30,1,0.25,0.8593778802330027,2.588891934847204
30,1,0.0,0.8414558558029904,4.381094377848427
30,2,1.0,0.8852667995814747,0.0
30,2,0.75,0.9016871244639556,-1.6420324882480908
30,2,0.5,0.8953071102703906,-1.0040310688915866
30,2,0.25,0.8961819141645302,-1.0915114583055496
30,2,0.0,0.9051691659677794,-1.9902366386304715
30,3,1.0,0.8852667995814747,0.0
30,3,0.75,0.8780237547168772,0.7243044864597481
30,3,0.5,0.8733467011778155,1.1920098403659152
30,3,0.25,0.8678846783267501,1.7382121254724603
30,3,0.0,0.8580034327652768,2.72633668161979
30,4,1.0,0.8852667995814747,0.0
30,4,0.75,0.8662200768594379,1.904672272203678
30,4,0.5,0.861225302894075,2.4041496687399744
30,4,0.25,0.8729079818382014,1.2358817743273298
30,4,0.0,0.8719708849754185,1.329591460605617
30,5,1.0,0.8852667995814747,0.0
30,5,0.75,0.8763147846588393,0.8952014922635421
30,5,0.5,0.8684617817214502,1.680501786002453
30,5,0.25,0.8678196580442954,1.74471415371793
30,5,0.0,0.8581725589913549,2.709424059011978
30,6,1.0,0.8852667995814747,0.0
30,6,0.75,0.8894703809078071,-0.4203581326332362
30,6,0.5,0.8931136636431585,-0.7846864061683778
30,6,0.25,0.8871257342029929,-0.18589346215182045
30,6,0.0,0.884711971407004,0.055482817447072286
30,7,1.0,0.8852667995814747,0.0
30,7,0.75,0.8827589353875698,0.25078641939049184
30,7,0.5,0.843847050247541,4.141974933393366
30,7,0.25,0.8448061295314284,4.046067005004628
30,7,0.0,0.8658447508160348,1.9422048765439848
30,8,1.0,0.8852667995814747,0.0
30,8,0.75,0.8736595907069366,1.1607208874538144
30,8,0.5,0.8816361400981269,0.3630659483347842
30,8,0.25,0.8758534183286584,0.9413381252816322
30,8,0.0,0.8603655154925404,2.490128408893433
31,0,1.0,0.8271134723766171,0.0
31,0,0.75,0.8250111804733321,0.21022919032850362
31,0,0.5,0.8072582993166132,1.985517306000395
31,0,0.25,0.8039765762926249,2.3136896083992275
31,0,0.0,0.7939039495470198,3.3209522829597327
31,1,1.0,0.8271134723766171,0.0
31,1,0.75,0.8284474403015099,-0.13339679248927094
31,1,0.5,0.8220504421880118,0.5063030188605322
31,1,0.25,0.8255578564883581,0.1555615888259032
31,1,0.0,0.8369114315916641,-0.9797959215047003
31,2,1.0,0.8271134723766171,0.0
31,2,0.75,0.8161077294412525,1.1005742935364604
31,2,0.5,0.8218470889327134,0.5266383443903733
31,2,0.25,0.8247085238867246,0.24049484898925888
31,2,0.0,0.8239376371420144,0.3175835234602742
31,3,1.0,0.8271134723766171,0.0
31,3,0.75,0.8319533751422296,-0.4839902765612414
31,3,0.5,0.8280238399063864,-0.09103675297692515
31,3,0.25,0.8159019476618885,1.1211524714728638
31,3,0.0,0.7987338715083636,2.837960086825353
31,4,1.0,0.8271134723766171,0.0
31,4,0.75,0.8189457275756876,0.8167744800929522
31,4,0.5,0.8196516763334822,0.7461796043134905
31,4,0.25,0.8149277635957681,1.2185708780849014
31,4,0.0,0.8044285740426476,2.2684898333969583
31,5,1.0,0.8271134723766171,0.0
31,5,0.75,0.823817441640742,0.3296030735875144
31,5,0.5,0.8280143870473706,-0.09009146707534832
31,5,0.25,0.8189346596593534,0.8178812717263728
31,5,0.0,0.8190697598836488,0.8043712492968313
31,6,1.0,0.8271134723766171,0.0
31,6,0.75,0.8245404036767706,0.2573068699846526
31,6,0.5,0.8167029839507678,1.0410488425849351
31,6,0.25,0.813568242218683,1.3545230157934185
31,6,0.0,0.8073664254093653,1.9747046967251825
31,7,1.0,0.8271134723766171,0.0
31,7,0.75,0.8331888724681142,-0.6075400091497096
31,7,0.5,0.8296494736364273,-0.2536001259810128
31,7,0.25,0.8232473291123191,0.38661432642980165
31,7,0.0,0.8129477854537276,1.4165686922889553
31,8,1.0,0.8271134723766171,0.0
31,8,0.75,0.826240150749963,0.08733216266541
31,8,0.5,0.8155878629271811,1.1525609449436036
31,8,0.25,0.805701993262822,2.141147911379515
31,8,0.0,0.7888167635644784,3.8296708812138758
32,0,1.0,0.839989609261887,0.0
32,0,0.75,0.8417639038290777,-0.1774294567190693
32,0,0.5,0.8429216828150279,-0.2932073553140846
32,0,0.25,0.8329718067801484,0.7017802481738666
32,0,0.0,0.8322969969545783,0.7692612307308777
32,1,1.0,0.839989609261887,0.0
32,1,0.75,0.8436903633000459,-0.3700754038158838
32,1,0.5,0.8401580319322255,-0.016842267033845282
32,1,0.25,0.8393275135411007,0.06620957207863487
32,1,0.0,0.8434530253121347,-0.3463416050247692
32,2,1.0,0.839989609261887,0.0
32,2,0.75,0.8445869188717794,-0.45973096098923527
32,2,0.5,0.844338269886701,-0.43486606248139825
32,2,0.25,0.8407606633362938,-0.07710540744068073
32,2,0.0,0.8293361034824144,1.065350577947266
32,3,1.0,0.839989609261887,0.0
32,3,0.75,0.8449572364630151,-0.49676272011280886
32,3,0.5,0.8292909553136656,1.0698653948221448
32,3,0.25,0.8283018820135429,1.1687727248344104
32,3,0.0,0.8175318528307285,2.245775643115855
32,4,1.0,0.839989609261887,0.0
32,4,0.75,0.8443496967884467,-0.4360087526559697
32,4,0.5,0.8336623728160725,0.6327236445814566
32,4,0.25,0.8295871758173976,1.0402433444489434
32,4,0.0,0.8416454568499211,-0.1655847588034054
32,5,1.0,0.839989609261887,0.0
32,5,0.75,0.8524322804055158,-1.2442671143628736
32,5,0.5,0.850926014144808,-1.0936404882920914
32,5,0.25,0.8462531337407755,-0.6263524478888449
32,5,0.0,0.8362003114673514,0.3789297794535629
32,6,1.0,0.839989609261887,0.0
32,6,0.75,0.8443924139452057,-0.4402804683318662
32,6,0.5,0.8467786589486392,-0.6789049686752202
32,6,0.25,0.8407130284665114,-0.07234192046243759
32,6,0.0,0.8425999775984483,-0.2610368336561253
32,7,1.0,0.839989609261887,0.0
32,7,0.75,0.8400913507147764,-0.010174145288932568
32,7,0.5,0.8244656230328915,1.5523986228995534
32,7,0.25,0.8141918389627663,2.579777029912078
32,7,0.0,0.8157322963860889,2.425731287579813
32,8,1.0,0.839989609261887,0.0
32,8,0.75,0.8401633803676797,-0.017377110579264166
32,8,0.5,0.8531360326885669,-1.314642342667982
32,8,0.25,0.8650064289771466,-2.5016819715259597
32,8,0.0,0.8620057027757698,-2.2016093513882784
33,0,1.0,0.89289131969057,0.0
33,0,0.75,0.9083082870500795,-1.5416967359509481
33,0,0.5,0.9036021702055032,-1.0710850514933146
33,0,0.25,0.9046584296648914,-1.17671099743214
33,0,0.0,0.8922784783274558,0.0612841363114236
33,1,1.0,0.89289131969057,0.0
33,1,0.75,0.8898841874322158,0.30071322583542504
33,1,0.5,0.8896633159527919,0.32280037377780957
33,1,0.25,0.8920472908367667,0.08440288538033025
33,1,0.0,0.8899554057154896,0.29359139750804175
33,2,1.0,0.89289131969057,0.0
33,2,0.75,0.8863441795903793,0.6547140100190751
33,2,0.5,0.8832337595045493,0.9657560186020708
33,2,0.25,0.8738257788180983,1.9065540872471698
33,2,0.0,0.8686819417338874,2.4209377956682654
33,3,1.0,0.89289131969057,0.0
33,3,0.75,0.8889181123358058,0.3973207354764252
33,3,0.5,0.8845246524982834,0.8366667192286625
33,3,0.25,0.8702266782488877,2.2664641441682343
33,3,0.0,0.8610054627641937,3.1885856926376355
33,4,1.0,0.89289131969057,0.0
33,4,0.75,0.8987534486554695,-0.586212896489946
33,4,0.5,0.906854474638179,-1.3963154947609024
33,4,0.25,0.9117882752644187,-1.889695557384874
33,4,0.0,0.908745982704224,-1.5854663013654013
33,5,1.0,0.89289131969057,0.0
33,5,0.75,0.8918936553972416,0.09976642933283708
33,5,0.5,0.8945354412683599,-0.16441215777899254
33,5,0.25,0.893993199044334,-0.11018793537640459
33,5,0.0,0.8843308799064221,0.8560439784147889
33,6,1.0,0.89289131969057,0.0
33,6,0.75,0.8912014991932338,0.16898204973362363
33,6,0.5,0.8903904482375055,0.2500871453064546
33,6,0.25,0.8900839383817111,0.2807381308858936
33,6,0.0,0.8868938830531077,0.5997436637462328
33,7,1.0,0.89289131969057,0.0
33,7,0.75,0.890320030962602,0.25712887279679686
33,7,0.5,0.882481451074896,1.0409868615674056
33,7,0.25,0.874515607065007,1.8375712625563034
33,7,0.0,0.8666609112259647,2.6230408464605337
33,8,1.0,0.89289131969057,0.0
33,8,0.75,0.8978732587552434,-0.49819390646733686
33,8,0.5,0.8995880160974501,-0.6696696406880087
33,8,0.25,0.886174412240763,0.6716907449807019
33,8,0.0,0.8701156281473118,2.2775691543258203
34,0,1.0,0.888955089966668,0.0
34,0,0.75,0.8905213031879872,-0.15662132213191127
34,0,0.5,0.8913872388975574,-0.24321489308893884
34,0,0.25,0.8862377605863142,0.271732938035385
34,0,0.0,0.8775984350701194,1.135665489654869
34,1,1.0,0.888955089966668,0.0
34,1,0.75,0.8869743605837728,0.19807293828952854
34,1,0.5,0.8927512677036837,-0.37961777370156824
34,1,0.25,0.8891431817483728,-0.018809178170475782
34,1,0.0,0.8911201794535288,-0.21650894868607828
34,2,1.0,0.888955089966668,0.0
34,2,0.75,0.8850016081394505,0.3953481827217553
34,2,0.5,0.8880305971135786,0.09244928530894869
34,2,0.25,0.8898669096323836,-0.09118196657155186
34,2,0.0,0.895801793193832,-0.6846703227163964
34,3,1.0,0.888955089966668,0.0
34,3,0.75,0.8813542547387098,0.7600835227958291
34,3,0.5,0.8833096617843964,0.564542818227165
34,3,0.25,0.8708664477402327,1.8088642226435359
34,3,0.0,0.8534170342690611,3.553805569760693
34,4,1.0,0.888955089966668,0.0
34,4,0.75,0.8911824253477008,-0.22273353810327023
34,4,0.5,0.8794075470299387,0.9547542936729325
34,4,0.25,0.8647840496435424,2.417104032312567
34,4,0.0,0.8702739685539815,1.8681121412686519
34,5,1.0,0.888955089966668,0.0
34,5,0.75,0.8789938132586611,0.996127670800695
34,5,0.5,0.871590134238942,1.7364955727726006
34,5,0.25,0.8671931832107805,2.1761906755887517
34,5,0.0,0.8636604148955156,2.529467507115246
34,6,1.0,0.888955089966668,0.0
34,6,0.75,0.8913438686641354,-0.2388778697467342
34,6,0.5,0.8920297397203769,-0.3074649753708858
34,6,0.25,0.8924071950044903,-0.34521050378222284
34,6,0.0,0.8912693857727342,-0.23142958060661245
34,7,1.0,0.888955089966668,0.0
34,7,0.75,0.8739399876068185,1.5015102359849597
34,7,0.5,0.8657312716690196,2.3223818297648413
34,7,0.25,0.8476907313997477,4.1264358566920345
34,7,0.0,0.8539211605824459,3.5033929384222118
34,8,1.0,0.888955089966668,0.0
34,8,0.75,0.8815379199146907,0.7417170051977395
34,8,0.5,0.8866426630173122,0.23124269493558502
34,8,0.25,0.8840594525317784,0.48956374348896325
34,8,0.0,0.8766543559862348,1.2300733980433298
35,0,1.0,0.722692051331809,0.0
35,0,0.75,0.7123352572966829,1.0356794035126127
35,0,0.5,0.7050522662199763,1.7639785111832729
35,0,0.25,0.6906821133688136,3.200993796299545
35,0,0.0,0.6831071362818434,3.958491504996564
35,1,1.0,0.722692051331809,0.0
35,1,0.75,0.7299613895156646,-0.7269338183855556
35,1,0.5,0.734024499926793,-1.1332448594983946
35,1,0.25,0.7229237950831818,-0.02317437513728038
35,1,0.0,0.7095225158091926,1.316953552261646
35,2,1.0,0.722692051331809,0.0
35,2,0.75,0.7231130008548693,-0.042094952306026556
35,2,0.5,0.7225265370502245,0.01655142815845112
35,2,0.25,0.7159393204953952,0.6752730836413812
35,2,0.0,0.7166846062289988,0.600744510281026
35,3,1.0,0.722692051331809,0.0
35,3,0.75,0.7242292939009615,-0.15372425691524416
35,3,0.5,0.7110368893713875,1.165516196042149
35,3,0.25,0.7086707404325411,1.4021310899267947
35,3,0.0,0.6976924076502709,2.4999643681538175
35,4,1.0,0.722692051331809,0.0
35,4,0.75,0.7223780346960477,0.03140166357613605
35,4,0.5,0.7205021889045483,0.21898624272607137
35,4,0.25,0.7227937694623877,-0.01017181305786874
35,4,0.0,0.7281696644843543,-0.5477613152545246
35,5,1.0,0.722692051331809,0.0
35,5,0.75,0.7195018578461244,0.31901934856846115
35,5,0.5,0.7120136091933954,1.0678442138413624
35,5,0.25,0.7077297543740745,1.4962296957734544
35,5,0.0,0.7187129289716386,0.3979122360170395
35,6,1.0,0.722692051331809,0.0
35,6,0.75,0.7297486329954309,-0.7056581663621886
35,6,0.5,0.730160556528765,-0.7468505196955966
35,6,0.25,0.7261925288375801,-0.35004775057710935
35,6,0.0,0.7264432337315373,-0.375118239972827
35,7,1.0,0.722692051331809,0.0
35,7,0.75,0.7261738119186749,-0.34817605868658896
35,7,0.5,0.7274844699024374,-0.47924185706283984
35,7,0.25,0.7160747872403176,0.6617264091491437
35,7,0.0,0.7122083442361999,1.0483707095609085
35,8,1.0,0.722692051331809,0.0
35,8,0.75,0.7351075984720151,-1.2415547140206096
35,8,0.5,0.7329525492800374,-1.0260497948228364
35,8,0.25,0.7299880535438505,-0.7296002212041519
35,8,0.0,0.7217482431521399,0.09438081796691034
36,0,1.0,0.7968001741175039,0.0
36,0,0.75,0.7897962917321527,0.7003882385351212
36,0,0.5,0.7875915731735823,0.9208600943921619
36,0,0.25,0.781656072377493,1.5144101740010907
36,0,0.0,0.7529077014986131,4.389247261889084
36,1,1.0,0.7968001741175039,0.0
36,1,0.75,0.7846927817809426,1.210739233656133
36,1,0.5,0.7812456484998148,1.5554525617689108
36,1,0.25,0.7677155182598782,2.9084655857625763
36,1,0.0,0.7428922313507651,5.390794276673883
36,2,1.0,0.7968001741175039,0.0
36,2,0.75,0.7766145052889981,2.018566882850581
36,2,0.5,0.7525745423693908,4.4225631748113114
36,2,0.25,0.7494916906044073,4.730848351309658
36,2,0.0,0.7315868009542001,6.521337316330378
36,3,1.0,0.7968001741175039,0.0
36,3,0.75,0.7706975125151379,2.6102661602366073
36,3,0.5,0.7550678224360445,4.173235168145939
36,3,0.25,0.7301526421212752,6.664753199622875
36,3,0.0,0.7250732513410958,7.172692277640813
36,4,1.0,0.7968001741175039,0.0
36,4,0.75,0.795970068870648,0.08301052468558945
36,4,0.5,0.7814099613772032,1.5390212740300724
36,4,0.25,0.7639353781160039,3.286479600150005
36,4,0.0,0.7724892666921699,2.431090742533404
36,5,1.0,0.7968001741175039,0.0
36,5,0.75,0.7953460627056796,0.1454111411824277
36,5,0.5,0.7979709354228653,-0.1170761305361423
36,5,0.25,0.7981151907209718,-0.1315016603467889
36,5,0.0,0.7936344381458567,0.31657359716472655
36,6,1.0,0.7968001741175039,0.0
36,6,0.75,0.7832002939202367,1.3599880197267211
36,6,0.5,0.7775044402255799,1.9295733891924072
36,6,0.25,0.7684986934986934,2.830148061881055
36,6,0.0,0.7633598989052084,3.3440275212295534
36,7,1.0,0.7968001741175039,0.0
36,7,0.75,0.7802929544319528,1.6507219685551133
36,7,0.5,0.7385955305828478,5.820464353465615
36,7,0.25,0.7188534757492089,7.794669836829504
36,7,0.0,0.6997494353072042,9.705073881029968
36,8,1.0,0.7968001741175039,0.0
36,8,0.75,0.7784046040893776,1.8395570028126307
36,8,0.5,0.7577659147643934,3.9034259353110556
36,8,0.25,0.7365746944941027,6.022547962340119
36,8,0.0,0.730270947309838,6.6529226807665935
37,0,1.0,0.8546644326043518,0.0
37,0,0.75,0.8522930471977075,0.23713854066442774
37,0,0.5,0.8409834651413453,1.368096746300651
37,0,0.25,0.8355984959457874,1.9065936658564375
37,0,0.0,0.8278432808766814,2.682115172767041
37,1,1.0,0.8546644326043518,0.0
37,1,0.75,0.8378444093927193,1.682002321163245
37,1,0.5,0.8265944996641195,2.80699329402323
37,1,0.25,0.8249799218577589,2.968451074659284
37,1,0.0,0.8230760140685078,3.158841853584393
37,2,1.0,0.8546644326043518,0.0
37,2,0.75,0.8460575945929749,0.860683801137685
37,2,0.5,0.8524697178247331,0.2194714779618634
37,2,0.25,0.8518062141606902,0.285821844366152
37,2,0.0,0.8347620163559559,1.9902416248395838
37,3,1.0,0.8546644326043518,0.0
37,3,0.75,0.8526003145151837,0.20641180891680655
37,3,0.5,0.849334166202914,0.5330266401437744
37,3,0.25,0.85219257896763,0.24718536367217547
37,3,0.0,0.8495693678055104,0.5095064798841364
37,4,1.0,0.8546644326043518,0.0
37,4,0.75,0.8437181237843012,1.0946308820050543
37,4,0.5,0.8482662116773203,0.6398220927031462
37,4,0.25,0.8382209298332257,1.644350277112605
37,4,0.0,0.8567088616144548,-0.20444290101030438
37,5,1.0,0.8546644326043518,0.0
37,5,0.75,0.8450692333671057,0.9595199237246055
37,5,0.5,0.8432832014167058,1.1381231187646002
37,5,0.25,0.8477055285854895,0.6958904018862233
37,5,0.0,0.8595317312688742,-0.48672986645224015
37,6,1.0,0.8546644326043518,0.0
37,6,0.75,0.8580150337256742,-0.33506011213224607
37,6,0.5,0.8563605863716688,-0.16961537673170213
37,6,0.25,0.8524412177203919,0.22232148839598231
37,6,0.0,0.844255232940385,1.0409199663966806
37,7,1.0,0.8546644326043518,0.0
37,7,0.75,0.8307299835617283,2.393444904262343
37,7,0.5,0.8224181752143869,3.2246257389964894
37,7,0.25,0.8091832179096635,4.548121469468825
37,7,0.0,0.8075704716197243,4.709396098462748
37,8,1.0,0.8546644326043518,0.0
37,8,0.75,0.845959089175347,0.8705343429004753
37,8,0.5,0.8457241318764606,0.8940300727891204
37,8,0.25,0.8440457910071659,1.061864159718584
37,8,0.0,0.8362531106531231,1.8411321951228632
38,0,1.0,0.8942870412568371,0.0
38,0,0.75,0.8819541323513185,1.2332908905518636
38,0,0.5,0.868176628704878,2.6110412551959117
38,0,0.25,0.8474615596236009,4.682548163323618
38,0,0.0,0.8517038137093196,4.258322754751753
38,1,1.0,0.8942870412568371,0.0
38,1,0.75,0.8891881760228013,0.5098865234035799
38,1,0.5,0.8754432833532716,1.8843757903565517
38,1,0.25,0.8578742005515461,3.641284070529105
38,1,0.0,0.8476321352321565,4.665490602468059
38,2,1.0,0.8942870412568371,0.0
38,2,0.75,0.9145871565285157,-2.030011527167863
38,2,0.5,0.8947217606036638,-0.04347193468267063
38,2,0.25,0.8741441799750891,2.0142861281748026
38,2,0.0,0.8485627570625939,4.572428419424323
38,3,1.0,0.8942870412568371,0.0
38,3,0.75,0.9108638190836584,-1.657677782682132
38,3,0.5,0.9176868175391495,-2.339977628231238
38,3,0.25,0.9134021193606152,-1.9115078103778105
38,3,0.0,0.8851523903293383,0.9134650927498766
38,4,1.0,0.8942870412568371,0.0
38,4,0.75,0.8846542952254806,0.9632746031356554
38,4,0.5,0.8764107164416739,1.7876324815163214
38,4,0.25,0.8601491049812604,3.413793627557671
38,4,0.0,0.8812598913896451,1.3027149867192
38,5,1.0,0.8942870412568371,0.0
38,5,0.75,0.8858501217111178,0.8436919545719346
38,5,0.5,0.8864452848757579,0.7841756381079201
38,5,0.25,0.8769620665028297,1.7324974754007405
38,5,0.0,0.871985233480311,2.230180777652613
38,6,1.0,0.8942870412568371,0.0
38,6,0.75,0.9011594771963587,-0.6872435939521582
38,6,0.5,0.9018349964498459,-0.7547955193008771
38,6,0.25,0.891735519890433,0.25515213664041303
38,6,0.0,0.8890662949425645,0.5220746314272606
38,7,1.0,0.8942870412568371,0.0
38,7,0.75,0.9024458550147356,-0.8158813757898509
38,7,0.5,0.8928225092547883,0.14645320020487684
38,7,0.25,0.8898176813572266,0.44693598996105033
38,7,0.0,0.8593803706590618,3.4906670597775302
38,8,1.0,0.8942870412568371,0.0
38,8,0.75,0.9017656226521781,-0.7478581395340966
38,8,0.5,0.8958950543720335,-0.16080131151964272
38,8,0.25,0.8942207959765481,0.0066245280288979025
38,8,0.0,0.8937573558835298,0.052968537330733145
39,0,1.0,0.8504969478483444,0.0
39,0,0.75,0.8222696863323842,2.8227261515960222
39,0,0.5,0.8039561646486539,4.654078319969046
39,0,0.25,0.801583251987403,4.891369586094141
39,0,0.0,0.7964444599132413,5.405248793510308
39,1,1.0,0.8504969478483444,0.0
39,1,0.75,0.8433022905927319,0.7194657255612524
39,1,0.5,0.8275948450750431,2.290210277330129
39,1,0.25,0.8342834894109081,1.6213458437436268
39,1,0.0,0.8342357608915232,1.6261186956821216
39,2,1.0,0.8504969478483444,0.0
39,2,0.75,0.846778053018775,0.37188948295694413
39,2,0.5,0.8576601399877263,-0.716319213938188
39,2,0.25,0.8635469112511691,-1.3049963402824716
39,2,0.0,0.8634902536996639,-1.2993305851319525
39,3,1.0,0.8504969478483444,0.0
39,3,0.75,0.8389257913530102,1.1571156495334245
39,3,0.5,0.8357783420433198,1.4718605805024598
39,3,0.25,0.8309191194640315,1.9577828384312879
39,3,0.0,0.795156803361291,5.534014448705338
39,4,1.0,0.8504969478483444,0.0
39,4,0.75,0.8477074111905573,0.27895366577871394
39,4,0.5,0.8199813433029528,3.0515604545391595
39,4,0.25,0.7912458919932931,5.925105585505131
39,4,0.0,0.7864267830535381,6.407016479480632
39,5,1.0,0.8504969478483444,0.0
39,5,0.75,0.8371486571630925,1.3348290685251896
39,5,0.5,0.8262192980840456,2.4277649764298803
39,5,0.25,0.8265916460124199,2.390530183592454
39,5,0.0,0.8257511606275358,2.4745787220808557
39,6,1.0,0.8504969478483444,0.0
39,6,0.75,0.8451141514370961,0.5382796411248281
39,6,0.5,0.8410474862946236,0.9449461553720839
39,6,0.25,0.8293465242884701,2.1150423559874287
39,6,0.0,0.8360760964927632,1.4420851355581243
39,7,1.0,0.8504969478483444,0.0
39,7,0.75,0.8363883011251125,1.4108646723231866
39,7,0.5,0.8501050345219331,0.03919133264113084
39,7,0.25,0.8376921357932958,1.2804812055048576
39,7,0.0,0.8361675131398132,1.4329434708531208
39,8,1.0,0.8504969478483444,0.0
39,8,0.75,0.8488775821437974,0.16193657045470156
39,8,0.5,0.864602490760163,-1.4105542911818647
39,8,0.25,0.8573195358031422,-0.6822587954797843
39,8,0.0,0.856189859468548,-0.5692911620203578
40,0,1.0,0.8859527993008025,0.0
40,0,0.75,0.8659104354459546,2.004236385484792
40,0,0.5,0.8726785805820726,1.3274218718729913
40,0,0.25,0.8509071026107093,3.5045696690093164
40,0,0.0,0.836615142623732,4.933765667707046
40,1,1.0,0.8859527993008025,0.0
40,1,0.75,0.8699671710600674,1.5985628240735128
40,1,0.5,0.8649857605421244,2.0967038758678114
40,1,0.25,0.8639109457078478,2.204185359295474
40,1,0.0,0.8403892949874012,4.556350431340128
40,2,1.0,0.8859527993008025,0.0
40,2,0.75,0.8929687737250743,-0.701597442427182
40,2,0.5,0.8771165121521587,0.8836287148643818
40,2,0.25,0.8763341213248904,0.9618677975912093
40,2,0.0,0.8723397417903268,1.3613057510475701
40,3,1.0,0.8859527993008025,0.0
40,3,0.75,0.8889175659616874,-0.29647666608848544
40,3,0.5,0.8840787630300133,0.18740362707891922
40,3,0.25,0.8687215303089666,1.7231268991835913
40,3,0.0,0.8622056795392851,2.3747119761517443
40,4,1.0,0.8859527993008025,0.0
40,4,0.75,0.8805914837291228,0.5361315571679737
40,4,0.5,0.8626196314149306,2.333316788587192
40,4,0.25,0.8405845378489758,4.536826145182671
40,4,0.0,0.8588492427790939,2.7103556521708594
40,5,1.0,0.8859527993008025,0.0
40,5,0.75,0.8846200297394489,0.13327695613536417
40,5,0.5,0.8831537269580617,0.2799072342740794
40,5,0.25,0.881975200733779,0.39775985670235103
40,5,0.0,0.8770757125767844,0.8877086724018102
40,6,1.0,0.8859527993008025,0.0
40,6,0.75,0.884469530004991,0.14832692958115512
40,6,0.5,0.8816124802447155,0.43403190560870053
40,6,0.25,0.8853178894636996,0.06349098371029038
40,6,0.0,0.8687831995688732,1.716959973192933
40,7,1.0,0.8859527993008025,0.0
40,7,0.75,0.8718471646422046,1.4105634658597932
40,7,0.5,0.8729103483833984,1.304245091740408
40,7,0.25,0.8722675440918704,1.3685255208932157
40,7,0.0,0.8445869453930936,4.136585390770886
40,8,1.0,0.8859527993008025,0.0
40,8,0.75,0.8859527993008025,0.0
40,8,0.5,0.8890758648396921,-0.31230655388896356
40,8,0.25,0.8963065030579196,-1.0353703757117083
40,8,0.0,0.8895925842625272,-0.3639784961724679
