subject,channel,alpha,f1,drop_pp
156,0,1.0,0.7202325254695896,0.0
156,0,0.75,0.738369290486332,-1.813676501674244
156,0,0.5,0.7274710723105646,-0.7238546840975024
156,0,0.25,0.6996804129391421,2.055211253044753
156,0,0.0,0.6805211967608435,3.971132870874605
156,1,1.0,0.7202325254695896,0.0
156,1,0.75,0.7125772271617141,0.765529830787548
156,1,0.5,0.7072541370527643,1.2978388416825304
156,1,0.25,0.6964453676363096,2.3787157833280004
156,1,0.0,0.6782527547460815,4.197977072350811
156,2,1.0,0.7202325254695896,0.0
156,2,0.75,0.7174981349342591,0.2734390535330533
156,2,0.5,0.6988789272233564,2.1353598246233174
156,2,0.25,0.6868888777856024,3.334364768398723
156,2,0.0,0.6816955343849547,3.853699108463493
156,3,1.0,0.7202325254695896,0.0
156,3,0.75,0.7237757494880196,-0.3543224018429991
156,3,0.5,0.726174794125046,-0.594226865545644
156,3,0.25,0.7179245718392081,0.23079536303814985
156,3,0.0,0.7045964130443476,1.5636112425241988
156,4,1.0,0.7202325254695896,0.0
156,4,0.75,0.7088633543734129,1.1369171096176744
156,4,0.5,0.6981385519055274,2.2093973564062175
156,4,0.25,0.6828551890921946,3.7377336377395043
156,4,0.0,0.6450153084042684,7.521721706532125
156,5,1.0,0.7202325254695896,0.0
156,5,0.75,0.7003232262903718,1.9909299179217799
156,5,0.5,0.6780994166695357,4.213310880005395
156,5,0.25,0.648769666023134,7.146285944645559
156,5,0.0,0.5795362772615557,14.069624820803394
156,6,1.0,0.7202325254695896,0.0
156,6,0.75,0.7177726484454927,0.24598770240968904
156,6,0.5,0.7189480051214577,0.1284520348131868
156,6,0.25,0.7183860918560983,0.18464336134913495
156,6,0.0,0.7195291117867253,0.07034136828643067
185,0,1.0,0.7003137416881596,0.0
185,0,0.75,0.6932240234139238,0.7089718274235879
185,0,0.5,0.6818633557059237,1.8450385982235917
185,0,0.25,0.6640136938813463,3.6300047806813285
185,0,0.0,0.6468725917547535,5.344114993340609
185,1,1.0,0.7003137416881596,0.0
185,1,0.75,0.7056708271095784,-0.5357085421418772
185,1,0.5,0.7071053938394276,-0.679165215126798
185,1,0.25,0.6939806347470034,0.6333106941156186
185,1,0.0,0.6693585354203291,3.095520626783055
185,2,1.0,0.7003137416881596,0.0
185,2,0.75,0.7009517535683749,-0.06380118802152834
185,2,0.5,0.6701253945941953,3.018834709396434
185,2,0.25,0.6476057008855343,5.270804080262536
185,2,0.0,0.6233158503367833,7.699789135137635
185,3,1.0,0.7003137416881596,0.0
185,3,0.75,0.7106520927581402,-1.03383510699806
185,3,0.5,0.7125357382280803,-1.222199653992062
185,3,0.25,0.7039244196688222,-0.3610677980662613
185,3,0.0,0.6960018445443961,0.43118971437635656
185,4,1.0,0.7003137416881596,0.0
185,4,0.75,0.7014271534593856,-0.1113411771225925
185,4,0.5,0.6929099846663718,0.740375702178786
185,4,0.25,0.6795654524196271,2.074828926853256
185,4,0.0,0.6524026640715233,4.791107761663637
185,5,1.0,0.7003137416881596,0.0
185,5,0.75,0.6885325408162671,1.1781200871892494
185,5,0.5,0.6658710492873725,3.4442692400787123
185,5,0.25,0.6199699496037726,8.034379208438702
185,5,0.0,0.5710994513819532,12.921429030620645
185,6,1.0,0.7003137416881596,0.0
185,6,0.75,0.7027114069490592,-0.2397665260899573
185,6,0.5,0.7013222634781708,-0.10085217900112076
185,6,0.25,0.6961270522709369,0.41866894172227775
185,6,0.0,0.6898463180647679,1.0467423623391703
186,0,1.0,0.7587682947716993,0.0
186,0,0.75,0.7590225802806809,-0.025428550898165536
186,0,0.5,0.7279705732347993,3.079772153689997
186,0,0.25,0.6871242382095399,7.1644056562159335
186,0,0.0,0.6652936186132635,9.347467615843573
186,1,1.0,0.7587682947716993,0.0
186,1,0.75,0.7580273345506259,0.07409602210733945
186,1,0.5,0.7425378799080701,1.6230414863629194
186,1,0.25,0.7235309649186239,3.523732985307537
186,1,0.0,0.6837725361204012,7.499575865129804
186,2,1.0,0.7587682947716993,0.0
186,2,0.75,0.7615780773622942,-0.2809782590594945
186,2,0.5,0.7489083720192102,0.9859922752489036
186,2,0.25,0.7260113290334151,3.2756965738284127
186,2,0.0,0.7199534035643371,3.8814891207362145
186,3,1.0,0.7587682947716993,0.0
186,3,0.75,0.7629955253325118,-0.4227230560812534
186,3,0.5,0.7634029421418635,-0.463464737016428
186,3,0.25,0.7593474188199236,-0.05791240482243554
186,3,0.0,0.7456961957089573,1.3072099062741982
186,4,1.0,0.7587682947716993,0.0
186,4,0.75,0.7546355435331868,0.4132751238512422
186,4,0.5,0.7423520481660849,1.641624660561436
186,4,0.25,0.7153026897990231,4.346560497267616
186,4,0.0,0.6840976125044955,7.467068226720375
186,5,1.0,0.7587682947716993,0.0
186,5,0.75,0.7584223173606767,0.034597741102260215
186,5,0.5,0.7471092041526,1.165909061909931
186,5,0.25,0.7115395210673795,4.722877370431977
186,5,0.0,0.6770327458000358,8.173554897166346
186,6,1.0,0.7587682947716993,0.0
186,6,0.75,0.7586354172955827,0.01328774761165663
186,6,0.5,0.7622121390720857,-0.3443844300386467
186,6,0.25,0.7638909163615457,-0.5122621589846443
186,6,0.0,0.7599455761875541,-0.1177281415854825
188,0,1.0,0.6210327196701688,0.0
188,0,0.75,0.6032937659760083,1.7738953694160564
188,0,0.5,0.5847590477425619,3.6273671927606888
188,0,0.25,0.5728356824792734,4.81970371908954
188,0,0.0,0.5730352446732225,4.799747499694629
188,1,1.0,0.6210327196701688,0.0
188,1,0.75,0.616249145880921,0.47835737892478747
188,1,0.5,0.6053336929544408,1.5699026715727982
188,1,0.25,0.598542955323332,2.2489764346836805
188,1,0.0,0.5891359909928975,3.1896728677271335
188,2,1.0,0.6210327196701688,0.0
188,2,0.75,0.6072065141031154,1.3826205567053385
188,2,0.5,0.5832457636540453,3.7786956016123474
188,2,0.25,0.543638211643597,7.739450802657178
188,2,0.0,0.5103211300195445,11.071158965062434
188,3,1.0,0.6210327196701688,0.0
188,3,0.75,0.6095691494898885,1.1463570180280325
188,3,0.5,0.5923305215323073,2.8702198137861568
188,3,0.25,0.5771869608769612,4.384575879320762
188,3,0.0,0.5632566618827819,5.7776057787386925
188,4,1.0,0.6210327196701688,0.0
188,4,0.75,0.6185833588749433,0.2449360795225508
188,4,0.5,0.6067012537804213,1.433146588974754
188,4,0.25,0.5929035346823591,2.8129184987809697
188,4,0.0,0.5788233268850576,4.220939278511127
188,5,1.0,0.6210327196701688,0.0
188,5,0.75,0.640204814163562,-1.9172094493393188
188,5,0.5,0.6386399833863035,-1.7607263716134636
188,5,0.25,0.6242213326365046,-0.3188612966335769
188,5,0.0,0.562219516750515,5.881320291965386
188,6,1.0,0.6210327196701688,0.0
188,6,0.75,0.6226368657395879,-0.16041460694190546
188,6,0.5,0.6229084743805464,-0.18757547103775973
188,6,0.25,0.6284345870523171,-0.7401867382148319
188,6,0.0,0.6307106765603383,-0.9677956890169481
189,0,1.0,0.7315461399191319,0.0
189,0,0.75,0.7177096055540098,1.383653436512211
189,0,0.5,0.6980367889603313,3.350935095880059
189,0,0.25,0.6728164176314504,5.872972228768147
189,0,0.0,0.640801587872933,9.074455204619891
189,1,1.0,0.7315461399191319,0.0
189,1,0.75,0.7344060488339279,-0.2859908914796039
189,1,0.5,0.735490506654709,-0.3944366735577187
189,1,0.25,0.7222134688964454,0.9332671022686423
189,1,0.0,0.6948495035854254,3.6696636333706456
189,2,1.0,0.7315461399191319,0.0
189,2,0.75,0.7473110643368888,-1.5764924417756898
189,2,0.5,0.7497117355783883,-1.8165595659256462
189,2,0.25,0.7431299343758259,-1.1583794456693997
189,2,0.0,0.7375078918789221,-0.5961751959790207
189,3,1.0,0.7315461399191319,0.0
189,3,0.75,0.7325172354227557,-0.09710955036238422
189,3,0.5,0.7251985031679871,0.6347636751144803
189,3,0.25,0.7197540370012971,1.1792102917834724
189,3,0.0,0.7101275308152619,2.1418609103869946
189,4,1.0,0.7315461399191319,0.0
189,4,0.75,0.7359800902509599,-0.44339503318280293
189,4,0.5,0.7408265912858654,-0.92804513667335
189,4,0.25,0.7324226941277704,-0.08765542086385247
189,4,0.0,0.7214745496387331,1.0071590280398723
189,5,1.0,0.7315461399191319,0.0
189,5,0.75,0.7237676004229888,0.7778539496143044
189,5,0.5,0.6962694741871717,3.52766657319602
189,5,0.25,0.6445323195148276,8.701382040430428
189,5,0.0,0.5866767380253651,14.486940189376673
189,6,1.0,0.7315461399191319,0.0
189,6,0.75,0.7466902177726146,-1.5144077853482707
189,6,0.5,0.7596627462447728,-2.8116606325640947
189,6,0.25,0.7620353466338556,-3.048920671472377
189,6,0.0,0.7579984730013283,-2.645233308219641
190,0,1.0,0.6610844945893437,0.0
190,0,0.75,0.6764874391932083,-1.54029446038646
190,0,0.5,0.6731126976741763,-1.2028203084832545
190,0,0.25,0.6373406173145199,2.3743877274823855
190,0,0.0,0.6058765585414934,5.520793604785035
190,1,1.0,0.6610844945893437,0.0
190,1,0.75,0.6557766577823169,0.5307836807026844
190,1,0.5,0.6347960780584535,2.62884165308902
190,1,0.25,0.5981243191758084,6.296017541353526
190,1,0.0,0.5647098047306525,9.637468985869123
190,2,1.0,0.6610844945893437,0.0
190,2,0.75,0.6430062614296428,1.8078233159700918
190,2,0.5,0.6192879413159698,4.179655327337395
190,2,0.25,0.5888952659332541,7.218922865608956
190,2,0.0,0.5594888638550484,10.159563073429535
190,3,1.0,0.6610844945893437,0.0
190,3,0.75,0.647775143747018,1.3309350842325762
190,3,0.5,0.6241778501161485,3.690664447319525
190,3,0.25,0.589039437187074,7.204505740226974
190,3,0.0,0.5409849263285897,12.009956826075395
190,4,1.0,0.6610844945893437,0.0
190,4,0.75,0.6679884648626622,-0.690397027331846
190,4,0.5,0.6622337978102205,-0.11493032208768073
190,4,0.25,0.6368338139399002,2.425068064944347
190,4,0.0,0.6050097347674139,5.607475982192978
190,5,1.0,0.6610844945893437,0.0
190,5,0.75,0.6609541584580968,0.01303361312469109
190,5,0.5,0.6497378942447773,1.134660034456636
190,5,0.25,0.6232057634979598,3.7878731091383955
190,5,0.0,0.5938537568309392,6.723073775840449
190,6,1.0,0.6610844945893437,0.0
190,6,0.75,0.6686380513858464,-0.7553556796502714
190,6,0.5,0.6608746022483523,0.02098923409914466
190,6,0.25,0.6559039647582852,0.5180529831058545
190,6,0.0,0.6400384426545227,2.104605193482101
191,0,1.0,0.6326017361843179,0.0
191,0,0.75,0.6227780657083912,0.9823670475926694
191,0,0.5,0.5930727913257391,3.952894485857883
191,0,0.25,0.5560911664675477,7.651056971677017
191,0,0.0,0.5381951778791776,9.440655830514032
191,1,1.0,0.6326017361843179,0.0
191,1,0.75,0.6255363838713746,0.7065352312943363
191,1,0.5,0.6166674555362807,1.5934280648037258
191,1,0.25,0.5987710398213398,3.3830696362978085
191,1,0.0,0.5656118783372248,6.69898578470931
191,2,1.0,0.6326017361843179,0.0
191,2,0.75,0.6409479351132412,-0.8346198928923299
191,2,0.5,0.6476184340530259,-1.5016697868707962
191,2,0.25,0.6574045165008294,-2.480278031651151
191,2,0.0,0.6500822834321076,-1.748054724778969
191,3,1.0,0.6326017361843179,0.0
191,3,0.75,0.6467224362186405,-1.412070003432253
191,3,0.5,0.6592109128322955,-2.6609176647977573
191,3,0.25,0.6613331512686101,-2.8731415084292222
191,3,0.0,0.658593903315996,-2.599216713167807
191,4,1.0,0.6326017361843179,0.0
191,4,0.75,0.6283075787867282,0.42941573975897596
191,4,0.5,0.6162545060791893,1.6347230105128618
191,4,0.25,0.5979468138410824,3.465492234323553
191,4,0.0,0.5715589486711229,6.104278751319503
191,5,1.0,0.6326017361843179,0.0
191,5,0.75,0.6222431540318505,1.0358582152467433
191,5,0.5,0.6038573675948834,2.874436858943452
191,5,0.25,0.5753082943576728,5.729344182664509
191,5,0.0,0.5443824836181858,8.821925256613216
191,6,1.0,0.6326017361843179,0.0
191,6,0.75,0.6373693506686106,-0.4767614484292637
191,6,0.5,0.6423231494918658,-0.9721413307547833
191,6,0.25,0.645805833209164,-1.320409702484604
191,6,0.0,0.6477304044480635,-1.5128668263745593
192,0,1.0,0.42513928039781446,0.0
192,0,0.75,0.43102868616983464,-0.5889405772020184
192,0,0.5,0.4195252268132578,0.5614053584556633
192,0,0.25,0.40601825584673706,1.9121024551077392
192,0,0.0,0.3906975736457763,3.444170675203817
192,1,1.0,0.42513928039781446,0.0
192,1,0.75,0.4281897690707871,-0.305048867297264
192,1,0.5,0.42876563736313766,-0.36263569653232075
192,1,0.25,0.4200054278608545,0.5133852536959971
192,1,0.0,0.4128577498468704,1.2281530550944053
192,2,1.0,0.42513928039781446,0.0
192,2,0.75,0.4192618583175912,0.5877422080223238
192,2,0.5,0.4060820996374895,1.9057180760324977
192,2,0.25,0.3989616063046375,2.617767409317695
192,2,0.0,0.39832551542695915,2.6813764970855303
192,3,1.0,0.42513928039781446,0.0
192,3,0.75,0.4180372147948004,0.7102065603014074
192,3,0.5,0.413083932600777,1.205534779703743
192,3,0.25,0.4118188671865143,1.3320413211300175
192,3,0.0,0.4117074047142749,1.343187568353954
192,4,1.0,0.42513928039781446,0.0
192,4,0.75,0.4175648115222905,0.7574468875523932
192,4,0.5,0.4070136297309857,1.8125650666828752
192,4,0.25,0.38339465876250023,4.174462163531423
192,4,0.0,0.36468173716735885,6.045754323045561
192,5,1.0,0.42513928039781446,0.0
192,5,0.75,0.4376781266015428,-1.253884620372836
192,5,0.5,0.4438590956354804,-1.871981523766597
192,5,0.25,0.45704756643081,-3.190828603299556
192,5,0.0,0.4618488171728661,-3.670953677505162
192,6,1.0,0.42513928039781446,0.0
192,6,0.75,0.4267367068672552,-0.15974264694407214
192,6,0.5,0.4262917648069795,-0.11524844091650444
192,6,0.25,0.4251425379800688,-0.000325758225433459
192,6,0.0,0.4218720376495434,0.326724274827106
193,0,1.0,0.6172379364169231,0.0
193,0,0.75,0.6231849552718637,-0.5947018854940533
193,0,0.5,0.6052718882102902,1.196604820663294
193,0,0.25,0.5606298037113109,5.660813270561227
193,0,0.0,0.5229109054334063,9.43270309835168
193,1,1.0,0.6172379364169231,0.0
193,1,0.75,0.6083101413576735,0.8927795059249677
193,1,0.5,0.5911058860823861,2.6132050334537027
193,1,0.25,0.5629943876877176,5.424354872920556
193,1,0.0,0.5371018918455376,8.013604457138557
193,2,1.0,0.6172379364169231,0.0
193,2,0.75,0.603046457176427,1.419147924049613
193,2,0.5,0.5884221192626613,2.8815817154261847
193,2,0.25,0.5813977629928365,3.584017342408663
193,2,0.0,0.5699457438005144,4.729219261640871
193,3,1.0,0.6172379364169231,0.0
193,3,0.75,0.6264880145783507,-0.9250078161427533
193,3,0.5,0.6224873444358174,-0.5249408018894286
193,3,0.25,0.615279875403518,0.19580610134051213
193,3,0.0,0.6143707409192212,0.286719549770198
193,4,1.0,0.6172379364169231,0.0
193,4,0.75,0.6368160238846325,-1.9578087467709393
193,4,0.5,0.6550277904281294,-3.778985401120627
193,4,0.25,0.6567664720414683,-3.952853562454517
193,4,0.0,0.6449998263962183,-2.7761889979295185
193,5,1.0,0.6172379364169231,0.0
193,5,0.75,0.6050849129630911,1.2153023453832068
193,5,0.5,0.5860273319861661,3.121060443075707
193,5,0.25,0.5592891183347322,5.794881808219099
193,5,0.0,0.5378494304865405,7.938850593038261
193,6,1.0,0.6172379364169231,0.0
193,6,0.75,0.622176782148179,-0.4938845731255803
193,6,0.5,0.6226916987815088,-0.5453762364585613
193,6,0.25,0.618436530654803,-0.11985942378798242
193,6,0.0,0.6198570089248192,-0.26190725078960586
194,0,1.0,0.751666738462905,0.0
194,0,0.75,0.7509185610128815,0.0748177450023535
194,0,0.5,0.7298993079841974,2.176743047870755
194,0,0.25,0.6887159778686326,6.29507605942724
194,0,0.0,0.6681931105946832,8.347362786822178
194,1,1.0,0.751666738462905,0.0
194,1,0.75,0.7451123063087066,0.6554432154198375
194,1,0.5,0.7347949709439674,1.6871767518937597
194,1,0.25,0.7158258395410377,3.584089892186726
194,1,0.0,0.6719466153120454,7.972012315085964
194,2,1.0,0.751666738462905,0.0
194,2,0.75,0.7592675640651949,-0.7600825602289918
194,2,0.5,0.7547037882211003,-0.3037049758195298
194,2,0.25,0.7528991652798597,-0.12324268169546793
194,2,0.0,0.7424942452983421,0.9172493164562923
194,3,1.0,0.751666738462905,0.0
194,3,0.75,0.7481858261201934,0.34809123427116395
194,3,0.5,0.7409244947998403,1.0742243663064643
194,3,0.25,0.7327460634710876,1.8920674991817377
194,3,0.0,0.720031165802655,3.1635572660249967
194,4,1.0,0.751666738462905,0.0
194,4,0.75,0.7562633324428095,-0.45965939799045286
194,4,0.5,0.7558900162121799,-0.42232777492748896
194,4,0.25,0.7483823013888342,0.32844370740707785
194,4,0.0,0.7304567119595818,2.1210026503323154
194,5,1.0,0.751666738462905,0.0
194,5,0.75,0.7409915340396086,1.0675204423296392
194,5,0.5,0.7271773904317598,2.448934803114522
194,5,0.25,0.7070921429502136,4.457459551269139
194,5,0.0,0.6853455544056669,6.6321184057238085
194,6,1.0,0.751666738462905,0.0
194,6,0.75,0.7626775139062956,-1.1010775443390575
194,6,0.5,0.7722670928206675,-2.060035435776253
194,6,0.25,0.7782198813787238,-2.6553142915818784
194,6,0.0,0.7767238231880798,-2.505708472517476
