subject,channel,f1_full,f1_occluded,drop_pp
1,0,0.6980518020148886,0.6925122011289095,0.5539600885979046
1,1,0.6980518020148886,0.673420234111625,2.4631567903263596
1,2,0.6980518020148886,0.6852348677331954,1.281693428169317
1,3,0.6980518020148886,0.6460865551866879,5.196524682820069
1,4,0.6980518020148886,0.7203721387544917,-2.2320336739603097
1,5,0.6980518020148886,0.5669560800046817,13.109572201020692
1,6,0.6980518020148886,0.7042923366899365,-0.6240534675047926
1,7,0.6980518020148886,0.6461729803149351,5.18788216999535
1,8,0.6980518020148886,0.6716190148728417,2.6432787142046887
2,0,0.8297658229756587,0.8442583697487697,-1.449254677311096
2,1,0.8297658229756587,0.8034290909346196,2.6336732041039146
2,2,0.8297658229756587,0.7996026686031912,3.0163154372467527
2,3,0.8297658229756587,0.8089678695949506,2.079795338070811
2,4,0.8297658229756587,0.8486923053802662,-1.892648240460748
2,5,0.8297658229756587,0.7851922281627344,4.457359481292434
2,6,0.8297658229756587,0.8062817654604163,2.3484057515242407
2,7,0.8297658229756587,0.7609907232456831,6.877509972997564
2,8,0.8297658229756587,0.8148733230816132,1.4892499894045508
3,0,0.8883395312147847,0.8940207947203708,-0.5681263505586065
3,1,0.8883395312147847,0.87274960559365,1.5589925621134704
3,2,0.8883395312147847,0.8845008354807784,0.3838695734006303
3,3,0.8883395312147847,0.7987291692905688,8.96103619242159
3,4,0.8883395312147847,0.897855697588612,-0.951616637382724
3,5,0.8883395312147847,0.9150905791925815,-2.6751047977796816
3,6,0.8883395312147847,0.8455237206312133,4.281581058357142
3,7,0.8883395312147847,0.7849395047103918,10.340002650439295
3,8,0.8883395312147847,0.8931793988723036,-0.48398676575188704
4,0,0.8810436717492129,0.8427022949877878,3.8341376761425128
4,1,0.8810436717492129,0.8193416598567227,6.170201189249025
4,2,0.8810436717492129,0.7885583362678524,9.24853354813605
4,3,0.8810436717492129,0.9104087080800705,-2.936503633085752
4,4,0.8810436717492129,0.8970744568560703,-1.6030785106857404
4,5,0.8810436717492129,0.8921941923374987,-1.1150520588285806
4,6,0.8810436717492129,0.8864882644502878,-0.5444592701074891
4,7,0.8810436717492129,0.8767626709256164,0.42810008235965036
4,8,0.8810436717492129,0.847117876189793,3.392579555941999
5,0,0.6467294696045607,0.6470531525628164,-0.03236829582556888
5,1,0.6467294696045607,0.656949917590081,-1.0220447985520353
5,2,0.6467294696045607,0.6435678432994185,0.3161626305142162
5,3,0.6467294696045607,0.6895068770417199,-4.277740743715919
5,4,0.6467294696045607,0.6214277089164242,2.53017606881365
5,5,0.6467294696045607,0.6320748492232531,1.4654620381307604
5,6,0.6467294696045607,0.6558685744551619,-0.913910485060121
5,7,0.6467294696045607,0.6489369543998672,-0.22074847953065246
5,8,0.6467294696045607,0.6401145324407305,0.6614937163830215
6,0,0.7980117731444586,0.7796903690515482,1.8321404092910387
6,1,0.7980117731444586,0.778313216837807,1.9698556306651627
6,2,0.7980117731444586,0.7951061941884853,0.290557895597332
6,3,0.7980117731444586,0.813471355397597,-1.545958225313837
6,4,0.7980117731444586,0.7733606133629946,2.465115978146404
6,5,0.7980117731444586,0.7816981023227352,1.6313670821723414
6,6,0.7980117731444586,0.7843770322830118,1.3634740861446781
6,7,0.7980117731444586,0.7229180079403401,7.509376520411848
6,8,0.7980117731444586,0.7709217310076212,2.709004213683741
7,0,0.7394713498990839,0.7232159668810153,1.6255383018068614
7,1,0.7394713498990839,0.6858698268800045,5.360152301907939
7,2,0.7394713498990839,0.6915734336183648,4.7897916280719155
7,3,0.7394713498990839,0.7272718949348587,1.2199454964225254
7,4,0.7394713498990839,0.7299903926523323,0.9480957246751576
7,5,0.7394713498990839,0.771942316812206,-3.2470966913122123
7,6,0.7394713498990839,0.7188193512796244,2.0651998619459544
7,7,0.7394713498990839,0.6945321031536845,4.49392467453994
7,8,0.7394713498990839,0.6650003061016011,7.447104379748282
8,0,0.8592828976289724,0.8464750572527544,1.280784037621796
8,1,0.8592828976289724,0.8609332367577085,-0.16503391287361335
8,2,0.8592828976289724,0.8515351136318878,0.7747783997084534
8,3,0.8592828976289724,0.8271050993602362,3.2177798268736124
8,4,0.8592828976289724,0.8373627828232149,2.1920114805757507
8,5,0.8592828976289724,0.8252127260250788,3.4070171603893584
8,6,0.8592828976289724,0.852946680718899,0.6336216910073356
8,7,0.8592828976289724,0.8188675239059549,4.041537372301751
8,8,0.8592828976289724,0.8484065444763464,1.0876353152625917
9,0,0.8355294044165362,0.8361397621544673,-0.06103577379310554
9,1,0.8355294044165362,0.8256611837324048,0.9868220684131401
9,2,0.8355294044165362,0.813575958256459,2.1953446160077217
9,3,0.8355294044165362,0.7887418990949995,4.678750532153675
9,4,0.8355294044165362,0.8341661546794671,0.13632497370691388
9,5,0.8355294044165362,0.8370288104330657,-0.14994060165294254
9,6,0.8355294044165362,0.8278968000152183,0.7632604401317966
9,7,0.8355294044165362,0.7809573040549707,5.457210036156557
9,8,0.8355294044165362,0.8162558199832297,1.9273584433306512
10,0,0.7655015902650069,0.7119230843543971,5.357850591060975
10,1,0.7655015902650069,0.7049280049280049,6.057358533700197
10,2,0.7655015902650069,0.7390205807632422,2.6481009501764685
10,3,0.7655015902650069,0.7228707591600584,4.263083110494847
10,4,0.7655015902650069,0.7455477817493296,1.9953808515677296
10,5,0.7655015902650069,0.7318333079889094,3.3668282276097417
10,6,0.7655015902650069,0.7581640981423216,0.7337492122685307
10,7,0.7655015902650069,0.6737948670013887,9.170672326361817
10,8,0.7655015902650069,0.7416580041580042,2.3843586107002657
11,0,0.8668710271414433,0.8874528019257464,-2.058177478430312
11,1,0.8668710271414433,0.8610600471515963,0.581097998984692
11,2,0.8668710271414433,0.8472730265585309,1.959800058291239
11,3,0.8668710271414433,0.831116767539642,3.575425960180123
11,4,0.8668710271414433,0.8529651765031306,1.3905850638312622
11,5,0.8668710271414433,0.8593379790940766,0.7533048047366653
11,6,0.8668710271414433,0.8897924309647598,-2.2921403823316533
11,7,0.8668710271414433,0.8734013076733285,-0.6530280531885202
11,8,0.8668710271414433,0.8375438633654532,2.9327163775990095
12,0,0.8907093677431568,0.884351114597902,0.6358253145254733
12,1,0.8907093677431568,0.8547418223759344,3.5967545367222353
12,2,0.8907093677431568,0.8602334089265992,3.0475958816557625
12,3,0.8907093677431568,0.8421986410574054,4.85107266857514
12,4,0.8907093677431568,0.8939463134978058,-0.32369457546490565
12,5,0.8907093677431568,0.8820767507073934,0.8632617035763346
12,6,0.8907093677431568,0.900689680025365,-0.9980312282208192
12,7,0.8907093677431568,0.8993175349318613,-0.8608167188704496
12,8,0.8907093677431568,0.8829354898832839,0.7773877859872935
13,0,0.9185430867698895,0.923108478607711,-0.4565391837821453
13,1,0.9185430867698895,0.9014598767569125,1.7083210012976968
13,2,0.9185430867698895,0.8989389526568868,1.9604134113002658
13,3,0.9185430867698895,0.9063348416289593,1.2208245140930218
13,4,0.9185430867698895,0.8962297648762144,2.2313321893675075
13,5,0.9185430867698895,0.9022451276358426,1.6297959134046858
13,6,0.9185430867698895,0.9195047269894987,-0.09616402196092055
13,7,0.9185430867698895,0.9111853523034941,0.7357734466395427
13,8,0.9185430867698895,0.8823995677659955,3.614351900389401
14,0,0.8392361368553646,0.8057388813912373,3.3497255464127296
14,1,0.8392361368553646,0.8069492159734268,3.228692088193774
14,2,0.8392361368553646,0.8439894008405269,-0.47532639851622926
14,3,0.8392361368553646,0.7942110803923212,4.502505646304334
14,4,0.8392361368553646,0.8366279734884697,0.26081633668948445
14,5,0.8392361368553646,0.8506257041929499,-1.1389567337585338
14,6,0.8392361368553646,0.8265571646037008,1.2678972251663811
14,7,0.8392361368553646,0.7896767918992843,4.955934495608028
14,8,0.8392361368553646,0.8141758470991757,2.5060289756188903
15,0,0.922754534869833,0.8734729664897376,4.928156838009546
15,1,0.922754534869833,0.8984759376315479,2.4278597238285182
15,2,0.922754534869833,0.8776308425042681,4.5123692365564905
15,3,0.922754534869833,0.8775100685975168,4.524446627231626
15,4,0.922754534869833,0.9174523281322902,0.5302206737542892
15,5,0.922754534869833,0.9320488758553275,-0.929434098549442
15,6,0.922754534869833,0.8998194844969039,2.29350503729292
15,7,0.922754534869833,0.8760943454950236,4.666018937480942
15,8,0.922754534869833,0.878170540208687,4.458399466114605
16,0,0.8597060272616315,0.8398544712715147,1.9851555990116787
16,1,0.8597060272616315,0.8740772724330963,-1.437124517146482
16,2,0.8597060272616315,0.8555646820184997,0.4141345243131811
16,3,0.8597060272616315,0.87816196776844,-1.8455940506808544
16,4,0.8597060272616315,0.8501113366946546,0.9594690566976927
16,5,0.8597060272616315,0.8226784599841676,3.7027567277463924
16,6,0.8597060272616315,0.8629507435026911,-0.32447162410595976
16,7,0.8597060272616315,0.8052468074126581,5.445921984897339
16,8,0.8597060272616315,0.8337161239066073,2.5989903355024158
17,0,0.8568545554994772,0.835094045460594,2.176051003888324
17,1,0.8568545554994772,0.8672584237328698,-1.0403868233392566
17,2,0.8568545554994772,0.8560695627578542,0.07849927416230251
17,3,0.8568545554994772,0.8267622321382305,3.0092323361246676
17,4,0.8568545554994772,0.8540364030981716,0.28181524013055625
17,5,0.8568545554994772,0.826713744406391,3.0140811093086195
17,6,0.8568545554994772,0.851833223376583,0.502133212289424
17,7,0.8568545554994772,0.8383588099558476,1.849574554362965
17,8,0.8568545554994772,0.815285150895616,4.1569404603861155
18,0,0.9149652291188002,0.9055500473440413,0.9415181774758863
18,1,0.9149652291188002,0.9182820777223345,-0.3316848603534317
18,2,0.9149652291188002,0.8993467005686488,1.5618528550151334
18,3,0.9149652291188002,0.8241397003346103,9.082552878418992
18,4,0.9149652291188002,0.9077430848782925,0.7222144240507711
18,5,0.9149652291188002,0.9066757710651088,0.8289458053691412
18,6,0.9149652291188002,0.8915514372574469,2.3413791861353284
18,7,0.9149652291188002,0.8615976520458177,5.336757707298245
18,8,0.9149652291188002,0.9033941141831678,1.1571114935632343
19,0,0.8678500697947005,0.8599294829031173,0.7920586891583148
19,1,0.8678500697947005,0.8472989361197067,2.0551133674993727
19,2,0.8678500697947005,0.8610570556542549,0.679301414044553
19,3,0.8678500697947005,0.8064564579855805,6.139361180911996
19,4,0.8678500697947005,0.8606288769749728,0.7221192819727662
19,5,0.8678500697947005,0.8359826209123031,3.1867448882397342
19,6,0.8678500697947005,0.8641930123825354,0.36570574121650434
19,7,0.8678500697947005,0.8616969353454723,0.6153134449228159
19,8,0.8678500697947005,0.8277551623861661,4.009490740853439
20,0,0.8178957455818809,0.8170596406489745,0.0836104932906423
20,1,0.8178957455818809,0.7794011581005257,3.849458748135526
20,2,0.8178957455818809,0.7931567996567997,2.473894592508119
20,3,0.8178957455818809,0.7990056223257183,1.8890123256162683
20,4,0.8178957455818809,0.822742525961422,-0.4846780379541116
20,5,0.8178957455818809,0.8297230437170882,-1.182729813520722
20,6,0.8178957455818809,0.8123202749325984,0.5575470649282543
20,7,0.8178957455818809,0.8258155849541027,-0.7919839372221738
20,8,0.8178957455818809,0.7392400654107685,7.865568017111246
21,0,0.856114077522905,0.8264192468115825,2.9694830711322506
21,1,0.856114077522905,0.8565256983170998,-0.041162079419476694
21,2,0.856114077522905,0.8384408501032312,1.767322741967381
21,3,0.856114077522905,0.8387719298245614,1.7342147698343635
21,4,0.856114077522905,0.8377800037104941,1.8334073812410923
21,5,0.856114077522905,0.8761000290668381,-1.9985951543933123
21,6,0.856114077522905,0.8818225624867831,-2.570848496387812
21,7,0.856114077522905,0.8503694754320015,0.574460209090355
21,8,0.856114077522905,0.8331110552240436,2.300302229886142
22,0,0.8284393959611749,0.8348472776851823,-0.6407881724007414
22,1,0.8284393959611749,0.8395871725473945,-1.114777658621957
22,2,0.8284393959611749,0.8205904335176235,0.7848962443551377
22,3,0.8284393959611749,0.7959810489929504,3.245834696822447
22,4,0.8284393959611749,0.8129356988359384,1.550369712523647
22,5,0.8284393959611749,0.7909616799947176,3.7477715966457326
22,6,0.8284393959611749,0.8098697884132399,1.8569607547935019
22,7,0.8284393959611749,0.7707653102482785,5.767408571289634
22,8,0.8284393959611749,0.7990917063040384,2.934768965713652
23,0,0.8203069790654596,0.7853514388497705,3.495554021568903
23,1,0.8203069790654596,0.8237436010690159,-0.3436622003556322
23,2,0.8203069790654596,0.845083740200819,-2.4776761135359426
23,3,0.8203069790654596,0.8073689205601087,1.2938058505350902
23,4,0.8203069790654596,0.7677754766068159,5.253150245864369
23,5,0.8203069790654596,0.8083151320838731,1.1991846981586507
23,6,0.8203069790654596,0.8101649110348365,1.014206803062312
23,7,0.8203069790654596,0.8502936546568132,-2.9986675591353595
23,8,0.8203069790654596,0.8000068300246764,2.0300149040783144
24,0,0.7471934627770609,0.7294270519882968,1.7766410788764064
24,1,0.7471934627770609,0.7547942782789457,-0.760081550188485
24,2,0.7471934627770609,0.7346666897023786,1.2526773074682307
24,3,0.7471934627770609,0.7855581472110548,-3.836468443399388
24,4,0.7471934627770609,0.7001247972619475,4.706866551511335
24,5,0.7471934627770609,0.6797095427647737,6.74839200122872
24,6,0.7471934627770609,0.7260085355159352,2.118492726112564
24,7,0.7471934627770609,0.7209449553557569,2.6248507421304024
24,8,0.7471934627770609,0.7268374426969081,2.0356020080152804
25,0,0.8608270766975388,0.8404359936793839,2.0391083018154843
25,1,0.8608270766975388,0.8390867415460473,2.174033515149143
25,2,0.8608270766975388,0.8534033230962779,0.7423753601260907
25,3,0.8608270766975388,0.8255069705670846,3.532010613045422
25,4,0.8608270766975388,0.8573465567141635,0.34805199833752853
25,5,0.8608270766975388,0.854774293180057,0.605278351748173
25,6,0.8608270766975388,0.8905857022130493,-2.975862551551056
25,7,0.8608270766975388,0.8151947537257828,4.563232297175601
25,8,0.8608270766975388,0.8660951732324547,-0.5268096534915889
26,0,0.7678764139830193,0.7691080728704952,-0.12316588874758949
26,1,0.7678764139830193,0.7733980098975277,-0.5521595914508404
26,2,0.7678764139830193,0.7372285604346069,3.0647853548412374
26,3,0.7678764139830193,0.7563313477486776,1.1545066234341705
26,4,0.7678764139830193,0.7622626432192751,0.5613770763744252
26,5,0.7678764139830193,0.7463944568169484,2.148195716607093
26,6,0.7678764139830193,0.7629057845082636,0.49706294747556834
26,7,0.7678764139830193,0.7584163985725084,0.9460015410510891
26,8,0.7678764139830193,0.7400861403609614,2.779027362205788
27,0,0.8553116764566612,0.8893000757618456,-3.398839930518438
27,1,0.8553116764566612,0.8762047549200777,-2.089307846341648
27,2,0.8553116764566612,0.8260819653344034,2.9229711122257807
27,3,0.8553116764566612,0.8369775896462102,1.8334086810451011
27,4,0.8553116764566612,0.8375856494666198,1.7726026990041333
27,5,0.8553116764566612,0.8491964788397773,0.6115197616883838
27,6,0.8553116764566612,0.8694437782627581,-1.413210180609692
27,7,0.8553116764566612,0.8421444429051514,1.3167233551509727
27,8,0.8553116764566612,0.8689167455455141,-1.360506908885295
28,0,0.8426840793548686,0.8666477524322993,-2.3963673077430747
28,1,0.8426840793548686,0.8568237519014282,-1.4139672546559678
28,2,0.8426840793548686,0.8300683550822237,1.2615724272644901
28,3,0.8426840793548686,0.7837103854590068,5.897369389586171
28,4,0.8426840793548686,0.8184880853354719,2.419599401939665
28,5,0.8426840793548686,0.7315401860487681,11.114389330610042
28,6,0.8426840793548686,0.833594037592874,0.9090041761994572
28,7,0.8426840793548686,0.832286527426856,1.0397551928012505
28,8,0.8426840793548686,0.8450912137847869,-0.2407134429918356
29,0,0.7289511453283908,0.7158969702136405,1.3054175114750266
29,1,0.7289511453283908,0.7279199893717758,0.10311559566149597
29,2,0.7289511453283908,0.7243765051035785,0.4574640224812243
29,3,0.7289511453283908,0.7483864693745441,-1.9435324046153335
29,4,0.7289511453283908,0.67683439134514,5.211675398325077
29,5,0.7289511453283908,0.69661563213626,3.2335513192130794
29,6,0.7289511453283908,0.7209592149405241,0.7991930387866719
29,7,0.7289511453283908,0.7034675773125285,2.548356801586227
29,8,0.7289511453283908,0.655607620772474,7.3343524555916755
30,0,0.8501702601690813,0.8498535078455292,0.031675232355210525
30,1,0.8501702601690813,0.8090349505398502,4.1135309629231065
30,2,0.8501702601690813,0.8684689379312994,-1.8298677762218163
30,3,0.8501702601690813,0.7807200635892309,6.945019657985041
30,4,0.8501702601690813,0.8272699344121457,2.290032575693557
30,5,0.8501702601690813,0.8422050627572346,0.7965197411846647
30,6,0.8501702601690813,0.856937817735228,-0.6767557566146776
30,7,0.8501702601690813,0.7944821990874622,5.568806108161906
30,8,0.8501702601690813,0.8385107789869012,1.1659481182180076
31,0,0.8035858757424369,0.7719025083529639,3.168336738947297
31,1,0.8035858757424369,0.7855249311655774,1.8060944576859472
31,2,0.8035858757424369,0.7820359265940853,2.154994914835162
31,3,0.8035858757424369,0.7890556077958918,1.4530267946545106
31,4,0.8035858757424369,0.78736908998621,1.621678575622687
31,5,0.8035858757424369,0.7788821964299139,2.470367931252304
31,6,0.8035858757424369,0.8082182853538358,-0.463240961139888
31,7,0.8035858757424369,0.7653547044021054,3.8231171340331493
31,8,0.8035858757424369,0.7605406287418418,4.304524700059509
32,0,0.8201534656751143,0.804200411859377,1.5953053815737306
32,1,0.8201534656751143,0.8029749983221536,1.7178467352960691
32,2,0.8201534656751143,0.804006182436763,1.614728323835124
32,3,0.8201534656751143,0.8115257138847496,0.8627751790364679
32,4,0.8201534656751143,0.8112687885220411,0.8884677153073173
32,5,0.8201534656751143,0.8226821548165245,-0.2528689141410245
32,6,0.8201534656751143,0.8197358909588428,0.04175747162714627
32,7,0.8201534656751143,0.7689308846410965,5.122258103401778
32,8,0.8201534656751143,0.8454063666196926,-2.5252900944578327
33,0,0.8809237175717893,0.8421861175890236,3.8737599982765714
33,1,0.8809237175717893,0.8733296540694444,0.7594063502344928
33,2,0.8809237175717893,0.8585055295111281,2.2418188060661204
33,3,0.8809237175717893,0.8582541992936157,2.266951827817365
33,4,0.8809237175717893,0.888767675469358,-0.7843957897568643
33,5,0.8809237175717893,0.8654714184618648,1.5452299109924517
33,6,0.8809237175717893,0.8439253839086495,3.699833366313987
33,7,0.8809237175717893,0.8315266461448825,4.939707142690686
33,8,0.8809237175717893,0.8682740461957822,1.2649671376007143
34,0,0.8836056993201686,0.8862992047305863,-0.2693505410417685
34,1,0.8836056993201686,0.8845730533962106,-0.09673540760419819
34,2,0.8836056993201686,0.8842349253835609,-0.06292260633922186
34,3,0.8836056993201686,0.8384011214036367,4.5204577916531985
34,4,0.8836056993201686,0.8756125789614811,0.7993120358687489
34,5,0.8836056993201686,0.8701860833570431,1.3419615963125575
34,6,0.8836056993201686,0.8859887775993748,-0.2383078279206141
34,7,0.8836056993201686,0.8719580342870782,1.1647665033090449
34,8,0.8836056993201686,0.874732753820969,0.8872945499199592
35,0,0.7107202506735217,0.6919788209261893,1.8741429747332394
35,1,0.7107202506735217,0.6959127806257288,1.4807470047792926
35,2,0.7107202506735217,0.7008053139852839,0.9914936688237841
35,3,0.7107202506735217,0.6994843003310143,1.1235950342507461
35,4,0.7107202506735217,0.7081906341426323,0.2529616530889456
35,5,0.7107202506735217,0.6999098696156192,1.0810381057902552
35,6,0.7107202506735217,0.7144781052228746,-0.3757854549352846
35,7,0.7107202506735217,0.6989489398036058,1.1771310869915896
35,8,0.7107202506735217,0.697401966420121,1.3318284253400758
36,0,0.7458005100862244,0.7499860535009572,-0.4185543414732762
36,1,0.7458005100862244,0.7051664672041584,4.063404288206596
36,2,0.7458005100862244,0.6770241847919207,6.877632529430366
36,3,0.7458005100862244,0.6886512448091201,5.714926527710428
36,4,0.7458005100862244,0.7209982533335165,2.4802256752707863
36,5,0.7458005100862244,0.7784086563797938,-3.260814629356945
36,6,0.7458005100862244,0.7328220724807806,1.2978437605443816
36,7,0.7458005100862244,0.7001745399037219,4.562597018250248
36,8,0.7458005100862244,0.6685390745213778,7.726143556484654
37,0,0.8347626329440438,0.8170444946987113,1.7718138245332526
37,1,0.8347626329440438,0.8114387155878093,2.3323917356234514
37,2,0.8347626329440438,0.7892750328885296,4.548760005551422
37,3,0.8347626329440438,0.80989520628777,2.486742665627384
37,4,0.8347626329440438,0.8106664299913121,2.409620295273174
37,5,0.8347626329440438,0.8481898948281792,-1.3427261884135344
37,6,0.8347626329440438,0.8191506615450277,1.5611971399016156
37,7,0.8347626329440438,0.7686205103350403,6.614212260900354
37,8,0.8347626329440438,0.8018575804583108,3.2905052485733055
38,0,0.7990260748461835,0.7361475729851576,6.287850186102584
38,1,0.7990260748461835,0.7857530819525023,1.3272992893681224
38,2,0.7990260748461835,0.7981922881792751,0.08337866669083649
38,3,0.7990260748461835,0.8067622854574922,-0.7736210611308691
38,4,0.7990260748461835,0.7841737377746539,1.4852337071529553
38,5,0.7990260748461835,0.7805536815079148,1.8472393338268667
38,6,0.7990260748461835,0.7621716997093194,3.685437513686407
38,7,0.7990260748461835,0.7471253987409424,5.190067610524107
38,8,0.7990260748461835,0.7967217813856594,0.2304293460524076
39,0,0.7925861974954352,0.7635141794580369,2.907201803739834
39,1,0.7925861974954352,0.7774876364415892,1.5098561053845994
39,2,0.7925861974954352,0.7933997707231524,-0.08135732277171348
39,3,0.7925861974954352,0.6984613915496268,9.412480594580842
39,4,0.7925861974954352,0.7468058051154254,4.578039238000986
39,5,0.7925861974954352,0.7936440042954127,-0.10578067999774676
39,6,0.7925861974954352,0.7844158395381498,0.817035795728549
39,7,0.7925861974954352,0.7907377856889853,0.1848411806449901
39,8,0.7925861974954352,0.8082092800702847,-1.5623082574849456
40,0,0.8155439626421862,0.8050422578823702,1.0501704759816044
40,1,0.8155439626421862,0.8067601986426226,0.8783763999563599
40,2,0.8155439626421862,0.8584897133135733,-4.294575067138706
40,3,0.8155439626421862,0.816160293034356,-0.06163303921697949
40,4,0.8155439626421862,0.8304708584126642,-1.492689577047801
40,5,0.8155439626421862,0.8202865107242987,-0.47425480821124966
40,6,0.8155439626421862,0.8132076007848047,0.23363618573815081
40,7,0.8155439626421862,0.789932488801945,2.5611473840241206
40,8,0.8155439626421862,0.7828189206203857,3.272504202180049
