subject,channel,r,f1_drop_mean,f1_drop_sd
1,0,5,0.10531567940791509,0.006550777337580838
1,1,5,0.08566462245830249,0.00904632005114147
1,2,5,0.061016758845767204,0.01193330872265653
1,3,5,0.06228240549708732,0.010625346178695736
1,4,5,8.454907864219319e-05,0.0035887418561126386
1,5,5,0.13609467654512516,0.010408404622628015
1,6,5,0.03653500848822431,0.017794956013646075
1,7,5,0.12259650963625199,0.01712507288890796
1,8,5,0.0939653109546501,0.008772876692190276
2,0,5,0.05314625430032973,0.020276210552103463
2,1,5,0.1024055431768917,0.012181109305463931
2,2,5,0.07336904444465757,0.013876825255784235
2,3,5,0.09856092636698958,0.008907940481318322
2,4,5,0.16318565559455475,0.01720189371473779
2,5,5,0.17394081151083368,0.007157245630220926
2,6,5,0.10796307529973456,0.015641409913611026
2,7,5,0.13681547682337528,0.010109948281630327
2,8,5,0.10925160340759557,0.020139864626018845
3,0,5,0.07340241690676505,0.006219165783050724
3,1,5,0.07663242288890937,0.016965093985507048
3,2,5,0.10309739777182006,0.011539811284941748
3,3,5,0.1251579954513239,0.018589505025233405
3,4,5,0.13034760358720365,0.01438775460876967
3,5,5,0.08710385831397216,0.01169654455071837
3,6,5,0.028236231177327608,0.007928878433843848
3,7,5,0.11804112914155962,0.0159801292980543
3,8,5,0.04473913543534029,0.005915167683661717
4,0,5,0.13775439355836144,0.010943087980120308
4,1,5,0.11527246235430318,0.007140156969718369
4,2,5,0.14073932294725033,0.006936845334705225
4,3,5,0.04294134751934799,0.016231071049211895
4,4,5,0.14932204233184776,0.01826925072787079
4,5,5,0.0830242414196088,0.010340070066191528
4,6,5,0.040242705992934405,0.012881457415891178
4,7,5,0.11354428623492505,0.011648643842025236
4,8,5,0.1126634439870358,0.009361593100265408
5,0,5,0.037751146222593415,0.009011091380400202
5,1,5,0.04978205433910314,0.009296252322483812
5,2,5,0.04994425742978772,0.01085624862549895
5,3,5,0.016062242367271894,0.01588233957012166
5,4,5,0.10817245831385966,0.013206723699072161
5,5,5,0.07192969538445096,0.011914136036909674
5,6,5,0.013486040649671339,0.008270006913380814
5,7,5,0.04339538721254044,0.004525256991118215
5,8,5,0.10683122686886722,0.00144016050989046
6,0,5,0.0715469467559855,0.012758439295159034
6,1,5,0.1073346030698032,0.016265686336435634
6,2,5,0.0728914292350582,0.010846436154629675
6,3,5,0.030372160012525497,0.013574427987900397
6,4,5,0.10837256471796963,0.017608821889305484
6,5,5,0.1119667487869838,0.016662288763780158
6,6,5,0.0897141266312603,0.00682250686375975
6,7,5,0.08215531723887906,0.014874874697889728
6,8,5,0.06889134063593098,0.013799760059636032
7,0,5,0.0702522283810693,0.014104771486066169
7,1,5,0.11290224369566018,0.020056756217079984
7,2,5,0.08449949687942089,0.01059260565241235
7,3,5,0.05090232325511672,0.012224892505673825
7,4,5,0.0866390937544198,0.017305651944118913
7,5,5,0.06842440061347074,0.01810890559842069
7,6,5,0.05271986357905163,0.013571732120467254
7,7,5,0.07110291793223797,0.01475099756968095
7,8,5,0.1300550555078266,0.008482128038914094
8,0,5,0.10826975209849614,0.00846061098512241
8,1,5,0.07863377910993027,0.016031682643081937
8,2,5,0.0765862608273905,0.0144818245130581
8,3,5,0.10334581509545904,0.011715911602295938
8,4,5,0.11671531149791099,0.012123358081075626
8,5,5,0.12488039041267433,0.013379687629582967
8,6,5,0.049571163550240674,0.007821250480654122
8,7,5,0.1744908731964777,0.009087434366905966
8,8,5,0.12691583143880486,0.012104465393229178
9,0,5,0.07035241902466025,0.004869701744076475
9,1,5,0.1393844992816295,0.010589169240956776
9,2,5,0.10351144848576599,0.00871631694921312
9,3,5,0.055648855222568086,0.009777359881590172
9,4,5,0.08175839457845739,0.021932709368464455
9,5,5,0.10934642755884001,0.013791525638365066
9,6,5,0.044371404013045804,0.011815834762542908
9,7,5,0.12187931981940556,0.010664683548248103
9,8,5,0.0718460268135754,0.016214637075262904
10,0,5,0.10560151744729232,0.01956572266034277
10,1,5,0.09378644050658085,0.018362415068159707
10,2,5,0.0543448404852052,0.012775461805845309
10,3,5,0.08663748483381584,0.010963095692972455
10,4,5,0.06776638617462631,0.014382894715051577
10,5,5,0.1574000502020382,0.019325865722031228
10,6,5,0.04746602465675356,0.011221305193268786
10,7,5,0.12159977842455869,0.015580916818540244
10,8,5,0.09424643864158011,0.011805205990406189
11,0,5,0.05908312439634726,0.01258664506860642
11,1,5,0.07976872034264652,0.011711947903655298
11,2,5,0.07843068285090912,0.012833694019137209
11,3,5,0.07893648889157327,0.007550957905730419
11,4,5,0.13883033465918188,0.011031946249665182
11,5,5,0.04160865737765511,0.012399876722344055
11,6,5,0.0430421876018211,0.012999406016004626
11,7,5,0.11866157759632226,0.012938797800266761
11,8,5,0.08804427200614737,0.015142834067610496
12,0,5,0.07605607188992607,0.010634347499139085
12,1,5,0.10009320334234087,0.005914796526154545
12,2,5,0.1250402549812165,0.017000615345175028
12,3,5,0.1001351331373083,0.021136732676787014
12,4,5,0.08007382484605349,0.018222671075276586
12,5,5,0.03697080795618977,0.00977848300653038
12,6,5,0.03765521719214682,0.017915865118624297
12,7,5,0.10497751886868541,0.007096656674414397
12,8,5,0.08299678387189317,0.012892294687684687
13,0,5,0.07691174367150984,0.01205466146339435
13,1,5,0.08490763098955849,0.01393372318865981
13,2,5,0.10381310907764855,0.013407075267026706
13,3,5,0.037785744907825755,0.014341964202612708
13,4,5,0.06334163580879759,0.00720835211444631
13,5,5,0.15921240993031413,0.007436514741908749
13,6,5,0.05056479662045339,0.006043962234383068
13,7,5,0.098657302430154,0.004103735070161636
13,8,5,0.08292698802692844,0.013471381702461285
14,0,5,0.08948081174381553,0.010018672805260193
14,1,5,0.09859112867345059,0.014306158161100995
14,2,5,0.06995196510873032,0.006411770877601865
14,3,5,0.08842948484583382,0.006816542530266092
14,4,5,0.13107671417429384,0.01172112254133862
14,5,5,0.060500383975629,0.012214916982584022
14,6,5,0.022692467049105325,0.0047054418585454495
14,7,5,0.1249838186082319,0.014593414422650058
14,8,5,0.08286504348792038,0.011214863710394842
15,0,5,0.1397494539066693,0.010266999996602993
15,1,5,0.1131856928776546,0.015505255102414543
15,2,5,0.08613722883666057,0.01425558577036575
15,3,5,0.06404876530079522,0.016231558902137233
15,4,5,0.16701280646015962,0.023421411182977362
15,5,5,0.08531384473262733,0.010215687541952807
15,6,5,0.06832462089939255,0.01281301376606826
15,7,5,0.09991134894842942,0.011812202207753962
15,8,5,0.11770926895487943,0.0037868116819417016
16,0,5,0.1234104164721092,0.007577325759333734
16,1,5,0.09215561654313542,0.0071963640542568996
16,2,5,0.08121862962593573,0.006180119083788909
16,3,5,0.03910970570542742,0.008945522990824298
16,4,5,0.12622533163459854,0.016225865918300768
16,5,5,0.11819237318051853,0.013956063010591484
16,6,5,0.026267123504212675,0.009569532988245083
16,7,5,0.15756180112550916,0.009024147171819846
16,8,5,0.11743272901403097,0.024179883547776643
17,0,5,0.13579927641300443,0.0146345077379736
17,1,5,0.08499322709663155,0.011532204722136062
17,2,5,0.09439065937702702,0.013654553253845682
17,3,5,0.06715355107432593,0.00810919807110877
17,4,5,0.1274614329489606,0.018502754936267126
17,5,5,0.15271883172146233,0.008535182627191457
17,6,5,0.06756593329665346,0.014221470395324209
17,7,5,0.10687048043712497,0.012638092258595331
17,8,5,0.10698588762083967,0.00412978323088074
18,0,5,0.0805587558060692,0.010564560025842237
18,1,5,0.08709489806861073,0.011347462540156159
18,2,5,0.08443928785065287,0.015641795248706264
18,3,5,0.10969848256148176,0.006764645759181666
18,4,5,0.09924236003127078,0.012716228889536735
18,5,5,0.10212068455911075,0.016248122092890976
18,6,5,0.07982280580296759,0.007358297557990284
18,7,5,0.1536704556802339,0.013366639868919679
18,8,5,0.07485971973327021,0.009608004692741767
19,0,5,0.06324658380362196,0.007591594895382578
19,1,5,0.0825427252668455,0.01067057806084322
19,2,5,0.07265771670241938,0.0069229047744316175
19,3,5,0.10199372124690209,0.012527951661780832
19,4,5,0.07803027126389823,0.013639960449483096
19,5,5,0.1185326639632402,0.009079554434151248
19,6,5,0.05499766535753585,0.014643615855012823
19,7,5,0.12865040357448887,0.007685117889240284
19,8,5,0.10167732746265075,0.010118654240651304
20,0,5,0.08759507945871628,0.010967824671916175
20,1,5,0.10304340916274204,0.006100206565066419
20,2,5,0.053198010097208995,0.009748460327853018
20,3,5,0.028777794627064555,0.015595404646678496
20,4,5,0.08057898147482112,0.013157451325989857
20,5,5,0.08224587619499277,0.01508445123742199
20,6,5,0.053177866897463934,0.011648062633582073
20,7,5,0.09018462580770108,0.013432915877021298
20,8,5,0.1397707809594586,0.013144635222146114
21,0,5,0.07779019394703734,0.013296660499539011
21,1,5,0.04940750405144127,0.01599503390829239
21,2,5,0.06562349370997862,0.0037575139131567443
21,3,5,0.04948872569977247,0.010991967996135495
21,4,5,0.08709838252196878,0.007753142722236259
21,5,5,0.18661305180070092,0.02310643739782369
21,6,5,0.02714389260103587,0.009192304527990467
21,7,5,0.08438864926282415,0.010323283629752359
21,8,5,0.06105288549520005,0.008596088284362525
22,0,5,0.044555355514304805,0.0066099405559606784
22,1,5,0.06790767699749416,0.00916866767421023
22,2,5,0.09604669134597721,0.011388203759166375
22,3,5,0.07323916707374112,0.020166541533488284
22,4,5,0.10610768636836536,0.0107074077352006
22,5,5,0.11088692579108181,0.00418724415574444
22,6,5,0.07184904712761983,0.015341529812856141
22,7,5,0.16917997845198202,0.011142531729808705
22,8,5,0.08880973096124405,0.01239472232050173
23,0,5,0.11324312401989847,0.018883086058033925
23,1,5,0.08269528973796143,0.005375392163035156
23,2,5,0.039670289090281606,0.014037812657854212
23,3,5,0.048602776146255855,0.009242362454746071
23,4,5,0.12269820942565042,0.02792191990891703
23,5,5,0.1470898019592854,0.017068672755315515
23,6,5,0.08011013802522919,0.007998959473991159
23,7,5,0.09847818368192225,0.005357241757971265
23,8,5,0.11213710315649657,0.009516654590847221
24,0,5,0.04569548793842297,0.005818453003983013
24,1,5,0.039918853366283515,0.009579224121021685
24,2,5,0.09358669499361896,0.006920572119877022
24,3,5,0.01873605928515256,0.015546687429541656
24,4,5,0.1581389864798763,0.007099694543227391
24,5,5,0.07664663236427009,0.013263367265286838
24,6,5,0.04280595277067441,0.007084350636124644
24,7,5,0.10629193327413489,0.007208988531873353
24,8,5,0.08557420942129908,0.008769123066823316
25,0,5,0.09054962992129294,0.010950909521915691
25,1,5,0.0753225911154947,0.012870951162931382
25,2,5,0.0719791143840341,0.005223071881804137
25,3,5,0.08207994150463235,0.01716263404157391
25,4,5,0.10518193537783468,0.017501781902212472
25,5,5,0.0632954715291378,0.012796629787981992
25,6,5,0.01091873467115052,0.005174836315244574
25,7,5,0.08269225932844557,0.013821191842295587
25,8,5,0.059680203364014674,0.009530164967805673
26,0,5,0.0926618013734853,0.009173461137220782
26,1,5,0.0718685282097562,0.007810073024373772
26,2,5,0.10813751409972053,0.0073802144498824355
26,3,5,0.048199632046898255,0.021501844598180987
26,4,5,0.08010581972190929,0.0034413347921395227
26,5,5,0.11878304585060098,0.014149058462868392
26,6,5,0.029822403909028704,0.008151589209192735
26,7,5,0.13511323061316752,0.01581823070024281
26,8,5,0.10436602903979235,0.011550628958280936
27,0,5,0.019559790712426972,0.0060653972285685375
27,1,5,0.050572317788635066,0.014689226782973828
27,2,5,0.04365308412430584,0.006542442243919841
27,3,5,0.07307279384689531,0.007583657897956709
27,4,5,0.11474554888751712,0.009535473001574406
27,5,5,0.14163826070624547,0.01251926019578131
27,6,5,0.031734681198004044,0.011866871717883072
27,7,5,0.10300614444548521,0.006772212344997756
27,8,5,0.0653718354368635,0.0064924704008917445
28,0,5,0.06372392296693345,0.011146393977068719
28,1,5,0.051917856716993206,0.006021496305940167
28,2,5,0.0502038362621535,0.0026670490343188363
28,3,5,0.05681299561867774,0.013780832215917147
28,4,5,0.13719466990531495,0.008845261080050983
28,5,5,0.2506952867469961,0.0211210532710464
28,6,5,0.026061795380325804,0.004447268217572118
28,7,5,0.06003246613862952,0.008129201696753382
28,8,5,0.09096347506458735,0.016224811733558286
29,0,5,0.0630390355500742,0.006937328425992565
29,1,5,0.03474352638948393,0.006028681077962351
29,2,5,0.05482438240817946,0.00849017804134203
29,3,5,0.018699750529623027,0.014839841661336999
29,4,5,0.1453081344545581,0.014023896985710757
29,5,5,0.14955050287126015,0.010211406274469403
29,6,5,0.06217387284900029,0.011690405406342518
29,7,5,0.08516453982933751,0.016715304076637284
29,8,5,0.1590282417493503,0.011623712940795323
30,0,5,0.06983692935071868,0.019403690741950093
30,1,5,0.030479525835950393,0.003900603392148137
30,2,5,0.019829916950473647,0.008321355513927167
30,3,5,0.08706566245485706,0.01423118725031868
30,4,5,0.039255849165733436,0.006176910700635799
30,5,5,0.11374861105964025,0.016976303561696705
30,6,5,0.030284303824004953,0.010345156187650216
30,7,5,0.13625662479843853,0.009349360159840106
30,8,5,0.08751759280117766,0.02038773442063853
31,0,5,0.08129922470740614,0.008664194672184697
31,1,5,0.08493423540396741,0.014134572893338866
31,2,5,0.08081235310625254,0.004392481542870111
31,3,5,0.05330554255713782,0.011490821471381798
31,4,5,0.17246627953163934,0.010147993374381964
31,5,5,0.09074388360172765,0.008936320715375999
31,6,5,0.06295675363215847,0.005921589979870035
31,7,5,0.11774861902766882,0.008606828433480642
31,8,5,0.10310048827575029,0.017060542805059975
32,0,5,0.09699926540455399,0.010551139995063179
32,1,5,0.07256125761681202,0.00876798782617506
32,2,5,0.054070664603366334,0.013646412151504425
32,3,5,0.0311114608227143,0.010702708564807886
32,4,5,0.163451406538255,0.013600120358068358
32,5,5,0.18564012636079658,0.01361251389115862
32,6,5,0.05981342025198335,0.010497992107935913
32,7,5,0.15275707933043356,0.007218560684915611
32,8,5,0.0872714094526585,0.014444059923330196
33,0,5,0.06757223761183469,0.012130311734235882
33,1,5,0.08066273837483404,0.014196247454811572
33,2,5,0.07384129747053858,0.008678623203341554
33,3,5,0.05209613816302463,0.005500686095983424
33,4,5,0.07713644800615176,0.003404238526876031
33,5,5,0.1270116230149872,0.00445886016701639
33,6,5,0.07165832038365472,0.006592271323905742
33,7,5,0.08389992157423717,0.007645127142604603
33,8,5,0.08653764725560031,0.007585866843292678
34,0,5,0.09741871165518971,0.014935085077511873
34,1,5,0.08396158470856441,0.007954174126523168
34,2,5,0.10230900082246804,0.007717144257357012
34,3,5,0.08321300574771792,0.010044388411399112
34,4,5,0.1316808806686081,0.020976135958139804
34,5,5,0.0717753387467108,0.010518006045435528
34,6,5,0.05248034826820338,0.008354939376694641
34,7,5,0.12823402242234055,0.018628258660144673
34,8,5,0.08393782241223977,0.010632118880252532
35,0,5,0.07061022221615898,0.003373175935429826
35,1,5,0.046451377356934144,0.006693081029824126
35,2,5,0.04587562638595144,0.009641511244158905
35,3,5,0.05016929631671592,0.006702905388600752
35,4,5,0.06923109246492638,0.013076691431266715
35,5,5,0.10536800883723571,0.009462525384490083
35,6,5,0.027915648371534995,0.002169144652608165
35,7,5,0.07393927770409862,0.0051530901528968305
35,8,5,0.04620907752299423,0.008800668364902436
36,0,5,0.007482903334055125,0.009766601907469403
36,1,5,0.038370587498819345,0.006712986648349556
36,2,5,0.07880563945631332,0.019958545728046617
36,3,5,0.05667505245174394,0.004923291727767265
36,4,5,0.1211855598558564,0.01373233495027357
36,5,5,0.06516922431362297,0.02098693907049393
36,6,5,0.04284064850425997,0.007518736484099858
36,7,5,0.13476347827693472,0.007491023567622951
36,8,5,0.09365082975085186,0.0074744364901665195
37,0,5,0.09485958703381574,0.008149106881558094
37,1,5,0.08401047661778438,0.01292418878201777
37,2,5,0.08616214433183263,0.005275229907344904
37,3,5,0.04275909226018855,0.016491681526269644
37,4,5,0.19989106977570867,0.008394796579654756
37,5,5,0.09977500399977482,0.017590046383968418
37,6,5,0.04777122965283818,0.009935785169160187
37,7,5,0.1296036987561962,0.01112438286323204
37,8,5,0.08864534722806197,0.015014194512100563
38,0,5,0.12349079242892362,0.011449529709910417
38,1,5,0.06757783868174949,0.008553927034541603
38,2,5,0.08017151883838196,0.014866485164469869
38,3,5,0.0696320981441249,0.014613163444912999
38,4,5,0.17585295526606992,0.004593927290409666
38,5,5,0.12734578548119987,0.014319290608850666
38,6,5,0.05878543173084827,0.01369400849568608
38,7,5,0.08622177079533169,0.013586346055904431
38,8,5,0.06482046189518435,0.010768023465599878
39,0,5,0.0725408218083378,0.007928044207927294
39,1,5,0.07555391064870295,0.004051042163418912
39,2,5,0.08135579693100439,0.021641896428428814
39,3,5,0.06824840500619749,0.005105853889691466
39,4,5,0.09399927881681872,0.014346792079619437
39,5,5,0.17418075434914806,0.01869650168162817
39,6,5,0.04067633938254935,0.014156702500366663
39,7,5,0.08202600566406229,0.0058799637199970665
39,8,5,0.02627620889093667,0.008127647170352463
40,0,5,0.05466201802543169,0.012701854215710634
40,1,5,0.04610042241044683,0.016774118388841408
40,2,5,-0.010909083126135944,0.012364064687534803
40,3,5,0.006008472918875496,0.010887720194408253
40,4,5,0.1413131455163651,0.01110540730320274
40,5,5,0.06317124116019741,0.011371630628666573
40,6,5,0.07602317523291631,0.005219513716004494
40,7,5,0.126504517896689,0.0115815324765549
40,8,5,0.07543252491135344,0.011190168406377057
