subject,block,block_width,feature_channel,gate_mean,gate_sd
1,0,32,0,0.5379270315170288,0.031824976205825806
1,0,32,1,0.4426431357860565,0.02932967059314251
1,0,32,2,0.632041335105896,0.04808040335774422
1,0,32,3,0.4821910560131073,0.049349065870046616
1,0,32,4,0.5450907945632935,0.04040147736668587
1,0,32,5,0.6343665719032288,0.030030090361833572
1,0,32,6,0.40771153569221497,0.0386386439204216
1,0,32,7,0.6355921030044556,0.02818996272981167
1,0,32,8,0.45180216431617737,0.014773390255868435
1,0,32,9,0.3723287880420685,0.02604370377957821
1,0,32,10,0.5502470135688782,0.019427407532930374
1,0,32,11,0.5221812725067139,0.037657320499420166
1,0,32,12,0.40856465697288513,0.047988079488277435
1,0,32,13,0.4724767804145813,0.053538575768470764
1,0,32,14,0.529339075088501,0.05821413919329643
1,0,32,15,0.5394183397293091,0.030954545363783836
1,0,32,16,0.5247246623039246,0.04031471908092499
1,0,32,17,0.5656677484512329,0.04439253360033035
1,0,32,18,0.5205072164535522,0.023553641512989998
1,0,32,19,0.4330335557460785,0.037096455693244934
1,0,32,20,0.5321077704429626,0.029088355600833893
1,0,32,21,0.6368398070335388,0.03680528327822685
1,0,32,22,0.5303580164909363,0.04457585886120796
1,0,32,23,0.4804966151714325,0.040570229291915894
1,0,32,24,0.6044497489929199,0.03326552361249924
1,0,32,25,0.4344232976436615,0.04459095373749733
1,0,32,26,0.6398947238922119,0.03428874909877777
1,0,32,27,0.5968309044837952,0.031140921637415886
1,0,32,28,0.5718901753425598,0.032701730728149414
1,0,32,29,0.5281896591186523,0.03241546452045441
1,0,32,30,0.5435287356376648,0.031564969569444656
1,0,32,31,0.5379431843757629,0.035122502595186234
1,1,32,0,0.48040926456451416,0.01685592159628868
1,1,32,1,0.43420082330703735,0.04516386613249779
1,1,32,2,0.4050033688545227,0.025398194789886475
1,1,32,3,0.6352129578590393,0.03369476646184921
1,1,32,4,0.5904526710510254,0.010123255662620068
1,1,32,5,0.41767418384552,0.032595064491033554
1,1,32,6,0.5344336628913879,0.027551064267754555
1,1,32,7,0.5206022262573242,0.03624391183257103
1,1,32,8,0.4002423584461212,0.021451685577630997
1,1,32,9,0.6352697610855103,0.02830747328698635
1,1,32,10,0.5735998749732971,0.023151444271206856
1,1,32,11,0.55198734998703,0.025876615196466446
1,1,32,12,0.3708985149860382,0.04734877124428749
1,1,32,13,0.41294530034065247,0.023773694410920143
1,1,32,14,0.5527703166007996,0.029584482312202454
1,1,32,15,0.5542486906051636,0.03458232060074806
1,1,32,16,0.4695717990398407,0.030317606404423714
1,1,32,17,0.5831586122512817,0.02327735163271427
1,1,32,18,0.4765157997608185,0.018988894298672676
1,1,32,19,0.3721608817577362,0.025954406708478928
1,1,32,20,0.441727876663208,0.030798785388469696
1,1,32,21,0.4558764100074768,0.038369227200746536
1,1,32,22,0.4598030745983124,0.049835190176963806
1,1,32,23,0.5486090183258057,0.027285557240247726
1,1,32,24,0.566107988357544,0.03220964968204498
1,1,32,25,0.5758467316627502,0.024983897805213928
1,1,32,26,0.5237604975700378,0.041922081261873245
1,1,32,27,0.46031931042671204,0.013964169658720493
1,1,32,28,0.6112326979637146,0.023371869698166847
1,1,32,29,0.5964447259902954,0.03048914298415184
1,1,32,30,0.46828657388687134,0.027983063831925392
1,1,32,31,0.5572178959846497,0.03210049495100975
1,2,64,0,0.45149800181388855,0.033071111887693405
1,2,64,1,0.5122013092041016,0.04424997791647911
1,2,64,2,0.46549075841903687,0.035489995032548904
1,2,64,3,0.41630566120147705,0.03968112915754318
1,2,64,4,0.4119119942188263,0.030874114483594894
1,2,64,5,0.5444189310073853,0.02396317571401596
1,2,64,6,0.6057338714599609,0.031383220106363297
1,2,64,7,0.42909687757492065,0.05802858620882034
1,2,64,8,0.5828723907470703,0.042608410120010376
1,2,64,9,0.5673901438713074,0.0423099584877491
1,2,64,10,0.6140303015708923,0.023700620979070663
1,2,64,11,0.432221382856369,0.030269481241703033
1,2,64,12,0.560407817363739,0.02090507559478283
1,2,64,13,0.5182719230651855,0.0498935729265213
1,2,64,14,0.5227793455123901,0.008690312504768372
1,2,64,15,0.4460473656654358,0.023516325280070305
1,2,64,16,0.5506551265716553,0.045715756714344025
1,2,64,17,0.5737439393997192,0.03516611456871033
1,2,64,18,0.5450579524040222,0.051334038376808167
1,2,64,19,0.465549111366272,0.050290945917367935
1,2,64,20,0.6023479700088501,0.026490619406104088
1,2,64,21,0.5593951940536499,0.052690573036670685
1,2,64,22,0.4367882311344147,0.03680611401796341
1,2,64,23,0.5320668816566467,0.026216799393296242
1,2,64,24,0.4906061589717865,0.05523896962404251
1,2,64,25,0.552239179611206,0.0314675010740757
1,2,64,26,0.47976285219192505,0.02083171159029007
1,2,64,27,0.6298949122428894,0.03004145808517933
1,2,64,28,0.5012713074684143,0.043937262147665024
1,2,64,29,0.4388953745365143,0.02168326824903488
1,2,64,30,0.4958241283893585,0.03823917731642723
1,2,64,31,0.4768027067184448,0.06946352124214172
1,2,64,32,0.546818733215332,0.03932027518749237
1,2,64,33,0.4715856909751892,0.03633760288357735
1,2,64,34,0.48466017842292786,0.041474390774965286
1,2,64,35,0.5016898512840271,0.05221755430102348
1,2,64,36,0.52436363697052,0.03777589276432991
1,2,64,37,0.4968721270561218,0.04895856976509094
1,2,64,38,0.535753071308136,0.07057623565196991
1,2,64,39,0.4476665258407593,0.040016576647758484
1,2,64,40,0.4586251974105835,0.03723621368408203
1,2,64,41,0.540340781211853,0.04969549551606178
1,2,64,42,0.5276722311973572,0.03224484249949455
1,2,64,43,0.38487839698791504,0.0395318828523159
1,2,64,44,0.40203821659088135,0.04151330143213272
1,2,64,45,0.525058925151825,0.04013371095061302
1,2,64,46,0.4112679660320282,0.02553115040063858
1,2,64,47,0.47534286975860596,0.025929929688572884
1,2,64,48,0.47716885805130005,0.014694379642605782
1,2,64,49,0.4582727551460266,0.059343114495277405
1,2,64,50,0.4962725341320038,0.03339680656790733
1,2,64,51,0.5157538652420044,0.031832315027713776
1,2,64,52,0.4229539930820465,0.023839794099330902
1,2,64,53,0.5669122338294983,0.033588409423828125
1,2,64,54,0.43330901861190796,0.0398704968392849
1,2,64,55,0.5670455098152161,0.023299530148506165
1,2,64,56,0.478496253490448,0.056278616189956665
1,2,64,57,0.5642833113670349,0.029732145369052887
1,2,64,58,0.5220962166786194,0.032668668776750565
1,2,64,59,0.4514386057853699,0.03464570641517639
1,2,64,60,0.48512789607048035,0.041392162442207336
1,2,64,61,0.5221664905548096,0.020564569160342216
1,2,64,62,0.48400652408599854,0.04267377778887749
1,2,64,63,0.41129070520401,0.03648194298148155
1,3,64,0,0.540984570980072,0.07851097732782364
1,3,64,1,0.4931322932243347,0.031590528786182404
1,3,64,2,0.4710984528064728,0.039030615240335464
1,3,64,3,0.38054198026657104,0.12494456022977829
1,3,64,4,0.45348259806632996,0.04895028471946716
1,3,64,5,0.3669321835041046,0.030186861753463745
1,3,64,6,0.451641321182251,0.035664789378643036
1,3,64,7,0.4706142246723175,0.08167868852615356
1,3,64,8,0.5765624046325684,0.024565009400248528
1,3,64,9,0.47519242763519287,0.062066368758678436
1,3,64,10,0.4698231518268585,0.01949315331876278
1,3,64,11,0.43718960881233215,0.11491534113883972
1,3,64,12,0.46338915824890137,0.05246004834771156
1,3,64,13,0.5067393183708191,0.02370796725153923
1,3,64,14,0.6638285517692566,0.10891380161046982
1,3,64,15,0.4651651680469513,0.024849405512213707
1,3,64,16,0.4098658561706543,0.029769446700811386
1,3,64,17,0.468840628862381,0.12033659219741821
1,3,64,18,0.5094900727272034,0.08180055767297745
1,3,64,19,0.525479257106781,0.09504484385251999
1,3,64,20,0.46983349323272705,0.09823353588581085
1,3,64,21,0.4518716633319855,0.06601791828870773
1,3,64,22,0.5528054237365723,0.032476820051670074
1,3,64,23,0.48821383714675903,0.09119510650634766
1,3,64,24,0.5486124753952026,0.03625190258026123
1,3,64,25,0.4663892984390259,0.050679437816143036
1,3,64,26,0.5316888689994812,0.04021736979484558
1,3,64,27,0.4427695572376251,0.07979154586791992
1,3,64,28,0.48517075181007385,0.08671676367521286
1,3,64,29,0.4818284213542938,0.09155131876468658
1,3,64,30,0.5311868190765381,0.027348404750227928
1,3,64,31,0.491105318069458,0.0982007384300232
1,3,64,32,0.6021001935005188,0.029812512919306755
1,3,64,33,0.5847076177597046,0.08653154224157333
1,3,64,34,0.39833852648735046,0.0691455528140068
1,3,64,35,0.5034279823303223,0.08298322558403015
1,3,64,36,0.41339871287345886,0.091428242623806
1,3,64,37,0.38013744354248047,0.07060782611370087
1,3,64,38,0.4304599165916443,0.09859678894281387
1,3,64,39,0.4695882499217987,0.095931276679039
1,3,64,40,0.5223314166069031,0.06382095068693161
1,3,64,41,0.49366119503974915,0.02997530624270439
1,3,64,42,0.5177751779556274,0.03995625674724579
1,3,64,43,0.5137761831283569,0.0383315235376358
1,3,64,44,0.532721221446991,0.14238056540489197
1,3,64,45,0.5929745435714722,0.041131310164928436
1,3,64,46,0.46427106857299805,0.03789615258574486
1,3,64,47,0.5651029348373413,0.08949310332536697
1,3,64,48,0.5350534319877625,0.07514315098524094
1,3,64,49,0.5757685303688049,0.03613606095314026
1,3,64,50,0.4790746569633484,0.1356177181005478
1,3,64,51,0.44075095653533936,0.02439495548605919
1,3,64,52,0.490313321352005,0.1166263073682785
1,3,64,53,0.4771605432033539,0.12269455939531326
1,3,64,54,0.5446276664733887,0.04547864943742752
1,3,64,55,0.5027066469192505,0.09729970991611481
1,3,64,56,0.6705602407455444,0.04923090711236
1,3,64,57,0.6141334176063538,0.04634985700249672
1,3,64,58,0.5813006162643433,0.08804301917552948
1,3,64,59,0.5310207009315491,0.023434629663825035
1,3,64,60,0.5464851260185242,0.02590831369161606
1,3,64,61,0.3949218690395355,0.10402700304985046
1,3,64,62,0.5114648342132568,0.05557869374752045
1,3,64,63,0.6014252305030823,0.059865351766347885
1,4,128,0,0.4402148723602295,0.05291137471795082
1,4,128,1,0.44220447540283203,0.05011068657040596
1,4,128,2,0.48726657032966614,0.1020318791270256
1,4,128,3,0.5371924042701721,0.04909243434667587
1,4,128,4,0.40886545181274414,0.08988478034734726
1,4,128,5,0.5325127243995667,0.09897607564926147
1,4,128,6,0.5969966053962708,0.05390561372041702
1,4,128,7,0.4966326355934143,0.0816660150885582
1,4,128,8,0.46935534477233887,0.09896630048751831
1,4,128,9,0.6593741178512573,0.20204459130764008
1,4,128,10,0.5048539042472839,0.0472511351108551
1,4,128,11,0.5777148008346558,0.11706674844026566
1,4,128,12,0.42487359046936035,0.14697302877902985
1,4,128,13,0.6169437170028687,0.11097613722085953
1,4,128,14,0.5090979337692261,0.04975087195634842
1,4,128,15,0.6257393956184387,0.0713186115026474
1,4,128,16,0.37569549679756165,0.18979300558567047
1,4,128,17,0.48931965231895447,0.18211469054222107
1,4,128,18,0.4782107174396515,0.06905169785022736
1,4,128,19,0.35449695587158203,0.16596835851669312
1,4,128,20,0.5977531671524048,0.10878203064203262
1,4,128,21,0.6051533222198486,0.1646793782711029
1,4,128,22,0.60162752866745,0.11272576451301575
1,4,128,23,0.41138342022895813,0.10401017218828201
1,4,128,24,0.5101491808891296,0.051312580704689026
1,4,128,25,0.6265309453010559,0.077394999563694
1,4,128,26,0.45697423815727234,0.12407918274402618
1,4,128,27,0.7113416194915771,0.15057723224163055
1,4,128,28,0.5709381103515625,0.0776866152882576
1,4,128,29,0.548717737197876,0.08164032548666
1,4,128,30,0.6531997323036194,0.16678859293460846
1,4,128,31,0.4477766454219818,0.06977859139442444
1,4,128,32,0.6112109422683716,0.16819898784160614
1,4,128,33,0.5179623961448669,0.045538678765296936
1,4,128,34,0.5968598127365112,0.08794499188661575
1,4,128,35,0.502776026725769,0.12436302751302719
1,4,128,36,0.6105827689170837,0.12666544318199158
1,4,128,37,0.5740182995796204,0.13745003938674927
1,4,128,38,0.629984438419342,0.11935748904943466
1,4,128,39,0.4119049608707428,0.11148236691951752
1,4,128,40,0.3671647310256958,0.10251719504594803
1,4,128,41,0.5888568162918091,0.0717841386795044
1,4,128,42,0.3675508499145508,0.06524047255516052
1,4,128,43,0.5001885294914246,0.18994472920894623
1,4,128,44,0.6186781525611877,0.05315769091248512
1,4,128,45,0.462907612323761,0.07722577452659607
1,4,128,46,0.38784125447273254,0.026887763291597366
1,4,128,47,0.5491716265678406,0.048069167882204056
1,4,128,48,0.3959246277809143,0.1391075998544693
1,4,128,49,0.5027041435241699,0.1159231886267662
1,4,128,50,0.6018489003181458,0.11694907397031784
1,4,128,51,0.5743589401245117,0.10288645327091217
1,4,128,52,0.4360670745372772,0.08627280592918396
1,4,128,53,0.631227433681488,0.2260722815990448
1,4,128,54,0.4805397391319275,0.1410057693719864
1,4,128,55,0.5211045145988464,0.0835023745894432
1,4,128,56,0.632688045501709,0.18522533774375916
1,4,128,57,0.5342723727226257,0.0838104858994484
1,4,128,58,0.6933000087738037,0.15007932484149933
1,4,128,59,0.4074268341064453,0.09227549284696579
1,4,128,60,0.5094528198242188,0.07636978477239609
1,4,128,61,0.3509460985660553,0.1252414733171463
1,4,128,62,0.6280760169029236,0.039438020437955856
1,4,128,63,0.6118601560592651,0.12968817353248596
1,4,128,64,0.5920144319534302,0.025862257927656174
1,4,128,65,0.6014674305915833,0.14468468725681305
1,4,128,66,0.3604118824005127,0.12323582172393799
1,4,128,67,0.6218296885490417,0.05599706992506981
1,4,128,68,0.5438662171363831,0.19773945212364197
1,4,128,69,0.49121031165122986,0.07098422199487686
1,4,128,70,0.43565526604652405,0.10709448158740997
1,4,128,71,0.7000139951705933,0.10079807043075562
1,4,128,72,0.3601358234882355,0.11828888207674026
1,4,128,73,0.4311668574810028,0.07758897542953491
1,4,128,74,0.3643096089363098,0.15672139823436737
1,4,128,75,0.5153175592422485,0.17774634063243866
1,4,128,76,0.5039719939231873,0.1729697287082672
1,4,128,77,0.6240949034690857,0.21819528937339783
1,4,128,78,0.5768560767173767,0.09254039824008942
1,4,128,79,0.5531501770019531,0.06319121271371841
1,4,128,80,0.34308096766471863,0.057114116847515106
1,4,128,81,0.5373756885528564,0.07099057734012604
1,4,128,82,0.5484042167663574,0.08099716901779175
1,4,128,83,0.5135197639465332,0.03374921530485153
1,4,128,84,0.5470932126045227,0.0750289037823677
1,4,128,85,0.6651203036308289,0.07820840924978256
1,4,128,86,0.6260047554969788,0.11918805539608002
1,4,128,87,0.43569591641426086,0.08778716623783112
1,4,128,88,0.6060824394226074,0.1288180947303772
1,4,128,89,0.4330504536628723,0.1012236475944519
1,4,128,90,0.5642204880714417,0.05479536950588226
1,4,128,91,0.49371665716171265,0.11235594749450684
1,4,128,92,0.542108952999115,0.06166655570268631
1,4,128,93,0.6140269637107849,0.2188616245985031
1,4,128,94,0.6211281418800354,0.05720078572630882
1,4,128,95,0.39313173294067383,0.05435479059815407
1,4,128,96,0.32070818543434143,0.13516348600387573
1,4,128,97,0.47633254528045654,0.054446544498205185
1,4,128,98,0.5808995962142944,0.09499619901180267
1,4,128,99,0.5872383713722229,0.09387551993131638
1,4,128,100,0.5842959880828857,0.15846726298332214
1,4,128,101,0.4063466787338257,0.11542817950248718
1,4,128,102,0.5189952254295349,0.08212942630052567
1,4,128,103,0.643328070640564,0.1747622936964035
1,4,128,104,0.44260120391845703,0.06380876153707504
1,4,128,105,0.4395354390144348,0.06132090091705322
1,4,128,106,0.43994247913360596,0.03435631841421127
1,4,128,107,0.5972283482551575,0.1425740122795105
1,4,128,108,0.45246192812919617,0.04489288106560707
1,4,128,109,0.5938374400138855,0.20379728078842163
1,4,128,110,0.5008600354194641,0.13858358561992645
1,4,128,111,0.6336094737052917,0.0956583172082901
1,4,128,112,0.6518106460571289,0.14090831577777863
1,4,128,113,0.5809977650642395,0.14239190518856049
1,4,128,114,0.3888648748397827,0.046883195638656616
1,4,128,115,0.4383583068847656,0.05208057910203934
1,4,128,116,0.592089056968689,0.05644747242331505
1,4,128,117,0.5821022987365723,0.1597910225391388
1,4,128,118,0.3881348669528961,0.05857054516673088
1,4,128,119,0.46223750710487366,0.13425077497959137
1,4,128,120,0.33695903420448303,0.17916107177734375
1,4,128,121,0.5874305367469788,0.08832341432571411
1,4,128,122,0.5472426414489746,0.054622821509838104
1,4,128,123,0.5125945806503296,0.1147235706448555
1,4,128,124,0.3786107897758484,0.10151232033967972
1,4,128,125,0.6250126957893372,0.1667938083410263
1,4,128,126,0.4363781809806824,0.08210405707359314
1,4,128,127,0.5855192542076111,0.10245491564273834
1,5,128,0,0.49651485681533813,0.0948343575000763
1,5,128,1,0.6599489450454712,0.0995575487613678
1,5,128,2,0.5746520757675171,0.07291427254676819
1,5,128,3,0.2633882761001587,0.08782374858856201
1,5,128,4,0.6430888772010803,0.11321550607681274
1,5,128,5,0.6329956650733948,0.17187809944152832
1,5,128,6,0.6829327344894409,0.08325156569480896
1,5,128,7,0.5891791582107544,0.06924526393413544
1,5,128,8,0.6071909070014954,0.15063795447349548
1,5,128,9,0.47965896129608154,0.07089117169380188
1,5,128,10,0.6303598880767822,0.16845394670963287
1,5,128,11,0.41591134667396545,0.02002168819308281
1,5,128,12,0.38951852917671204,0.1393101066350937
1,5,128,13,0.6030574440956116,0.10743634402751923
1,5,128,14,0.6908672451972961,0.10456673800945282
1,5,128,15,0.37814369797706604,0.10939426720142365
1,5,128,16,0.249014213681221,0.1494569629430771
1,5,128,17,0.5047023892402649,0.050145041197538376
1,5,128,18,0.40921977162361145,0.09062530100345612
1,5,128,19,0.5105236172676086,0.03404954448342323
1,5,128,20,0.5338699817657471,0.03876866027712822
1,5,128,21,0.5913295745849609,0.08359348773956299
1,5,128,22,0.6148251891136169,0.11137780547142029
1,5,128,23,0.39673009514808655,0.04568657651543617
1,5,128,24,0.38404518365859985,0.04915723577141762
1,5,128,25,0.6553357243537903,0.13007329404354095
1,5,128,26,0.41985517740249634,0.08799813687801361
1,5,128,27,0.6438559889793396,0.11576993763446808
1,5,128,28,0.6036486029624939,0.1566564440727234
1,5,128,29,0.617102861404419,0.09090758860111237
1,5,128,30,0.520238995552063,0.06925729662179947
1,5,128,31,0.4079321026802063,0.07095438241958618
1,5,128,32,0.48278993368148804,0.07963264733552933
1,5,128,33,0.42709577083587646,0.04480891302227974
1,5,128,34,0.5001537203788757,0.05841350927948952
1,5,128,35,0.5718234181404114,0.08118999749422073
1,5,128,36,0.5144017338752747,0.04219851642847061
1,5,128,37,0.5731806755065918,0.1462283879518509
1,5,128,38,0.3862174153327942,0.1372102051973343
1,5,128,39,0.5948693752288818,0.11443422734737396
1,5,128,40,0.6673057675361633,0.08314821869134903
1,5,128,41,0.5467516183853149,0.037054527550935745
1,5,128,42,0.5343011021614075,0.04548822343349457
1,5,128,43,0.5743142366409302,0.13373605906963348
1,5,128,44,0.46949028968811035,0.06120314821600914
1,5,128,45,0.5573581457138062,0.029485629871487617
1,5,128,46,0.4487004280090332,0.05918850377202034
1,5,128,47,0.654489278793335,0.16580252349376678
1,5,128,48,0.49083414673805237,0.062158290296792984
1,5,128,49,0.4097973704338074,0.08521205931901932
1,5,128,50,0.4722578525543213,0.07445492595434189
1,5,128,51,0.5589054226875305,0.09491975605487823
1,5,128,52,0.6849393844604492,0.05716484412550926
1,5,128,53,0.6254712343215942,0.04726593941450119
1,5,128,54,0.40520069003105164,0.05933191627264023
1,5,128,55,0.5471600294113159,0.0624905601143837
1,5,128,56,0.4587079584598541,0.07181692123413086
1,5,128,57,0.4678594172000885,0.034646060317754745
1,5,128,58,0.6032829284667969,0.053321778774261475
1,5,128,59,0.5864907503128052,0.032998304814100266
1,5,128,60,0.609022855758667,0.14845116436481476
1,5,128,61,0.5907415151596069,0.10897970199584961
1,5,128,62,0.491065114736557,0.05844604969024658
1,5,128,63,0.5256451368331909,0.09749115258455276
1,5,128,64,0.40570926666259766,0.036654066294431686
1,5,128,65,0.6911231875419617,0.12497008591890335
1,5,128,66,0.33337706327438354,0.08998533338308334
1,5,128,67,0.461548775434494,0.032304517924785614
1,5,128,68,0.5382077693939209,0.04553284868597984
1,5,128,69,0.6590191125869751,0.15283942222595215
1,5,128,70,0.6098253130912781,0.0802021250128746
1,5,128,71,0.5161232948303223,0.09362566471099854
1,5,128,72,0.35852542519569397,0.09966105967760086
1,5,128,73,0.5478835105895996,0.06803589314222336
1,5,128,74,0.5932528376579285,0.042807016521692276
1,5,128,75,0.35544154047966003,0.07678370177745819
1,5,128,76,0.6002566814422607,0.03293420374393463
1,5,128,77,0.4489156901836395,0.02836223505437374
1,5,128,78,0.5814749598503113,0.08709461987018585
1,5,128,79,0.469957560300827,0.09386628121137619
1,5,128,80,0.4333284795284271,0.07642872631549835
1,5,128,81,0.5244966745376587,0.08530985563993454
1,5,128,82,0.5438664555549622,0.10583387315273285
1,5,128,83,0.6366960406303406,0.123556949198246
1,5,128,84,0.5489624738693237,0.11502507328987122
1,5,128,85,0.4841219186782837,0.06701839715242386
1,5,128,86,0.5816370844841003,0.1344529092311859
1,5,128,87,0.5240058898925781,0.025540120899677277
1,5,128,88,0.4833483397960663,0.10001947730779648
1,5,128,89,0.3108927011489868,0.10155705362558365
1,5,128,90,0.5360177755355835,0.04459970444440842
1,5,128,91,0.713117778301239,0.11665114015340805
1,5,128,92,0.4804302155971527,0.04861998185515404
1,5,128,93,0.6871531009674072,0.10661929845809937
1,5,128,94,0.5725368857383728,0.02953655645251274
1,5,128,95,0.5195664167404175,0.1054324209690094
1,5,128,96,0.5464528203010559,0.06289591640233994
1,5,128,97,0.5342725515365601,0.04996642842888832
1,5,128,98,0.5176997780799866,0.03825024887919426
1,5,128,99,0.5357908606529236,0.10411139577627182
1,5,128,100,0.4821082055568695,0.033238913863897324
1,5,128,101,0.6253684759140015,0.06622260063886642
1,5,128,102,0.3513328731060028,0.06988634914159775
1,5,128,103,0.5920745134353638,0.11823782324790955
1,5,128,104,0.5493402481079102,0.05874405801296234
1,5,128,105,0.5275745391845703,0.05721164494752884
1,5,128,106,0.5785940289497375,0.06031951308250427
1,5,128,107,0.4258619248867035,0.060893408954143524
1,5,128,108,0.5044654607772827,0.04856882989406586
1,5,128,109,0.6016138195991516,0.14196696877479553
1,5,128,110,0.6468204259872437,0.06932566314935684
1,5,128,111,0.6924851536750793,0.19501259922981262
1,5,128,112,0.6268702745437622,0.05980750918388367
1,5,128,113,0.5790232419967651,0.05818729102611542
1,5,128,114,0.5598497986793518,0.09616518765687943
1,5,128,115,0.4548560082912445,0.05038183182477951
1,5,128,116,0.3783349096775055,0.08154358714818954
1,5,128,117,0.6147814393043518,0.07896360009908676
1,5,128,118,0.4291410446166992,0.12736664712429047
1,5,128,119,0.5764629244804382,0.030674053356051445
1,5,128,120,0.5945162773132324,0.17720778286457062
1,5,128,121,0.5726535320281982,0.11741355806589127
1,5,128,122,0.6010897755622864,0.13928186893463135
1,5,128,123,0.7008508443832397,0.10591130703687668
1,5,128,124,0.4470497965812683,0.07042238861322403
1,5,128,125,0.6098848581314087,0.05013822019100189
1,5,128,126,0.40925636887550354,0.06833390891551971
1,5,128,127,0.45529383420944214,0.09313689917325974
