subject,channel,f1_full,f1_occluded,drop_pp
1,0,0.7206048866555532,0.6775547119184525,4.3050174737100715
1,1,0.7206048866555532,0.6944208192586765,2.618406739687673
1,2,0.7206048866555532,0.6653767392456592,5.522814740989402
1,3,0.7206048866555532,0.7015367661952882,1.906812046026507
1,4,0.7206048866555532,0.7159107058401692,0.4694180815383975
1,5,0.7206048866555532,0.6361211154561964,8.44837711993568
1,6,0.7206048866555532,0.7132869330765704,0.7317953578982794
1,7,0.7206048866555532,0.5726759286893597,14.792895796619355
1,8,0.7206048866555532,0.6179435230333863,10.266136362216693
2,0,0.9182173447934611,0.908519348823118,0.9697995970343043
2,1,0.9182173447934611,0.8929799981396965,2.5237346653764536
2,2,0.9182173447934611,0.8610948178997566,5.712252689370445
2,3,0.9182173447934611,0.9002434988006394,1.7973845992821702
2,4,0.9182173447934611,0.9024866751463648,1.573066964709624
2,5,0.9182173447934611,0.8864746407105372,3.17427040829239
2,6,0.9182173447934611,0.9149103345502685,0.33070102431925763
2,7,0.9182173447934611,0.7548485779488611,16.33687668446
2,8,0.9182173447934611,0.8635221678477021,5.469517694575899
3,0,0.9084708768548375,0.9314712033837448,-2.3000326528907267
3,1,0.9084708768548375,0.8684912317689008,3.9979645085936766
3,2,0.9084708768548375,0.8239762292026225,8.449464765221503
3,3,0.9084708768548375,0.7725103260270348,13.596055082780268
3,4,0.9084708768548375,0.8800459064626927,2.8424970392144866
3,5,0.9084708768548375,0.8944803182973261,1.3990558557511412
3,6,0.9084708768548375,0.8930421456663337,1.5428731188503853
3,7,0.9084708768548375,0.7520619486679858,15.64089281868517
3,8,0.9084708768548375,0.8913860676453866,1.708480920945088
4,0,0.8153990324601416,0.845875347100743,-3.047631464060141
4,1,0.8153990324601416,0.7660552024445402,4.934383001560139
4,2,0.8153990324601416,0.7781121432437221,3.7286889216419428
4,3,0.8153990324601416,0.7935284942105014,2.1870538249640137
4,4,0.8153990324601416,0.8158589701900202,-0.045993772987862336
4,5,0.8153990324601416,0.7846488408987174,3.075019156142411
4,6,0.8153990324601416,0.8004313331830755,1.4967699277066093
4,7,0.8153990324601416,0.7742649830076087,4.113404945253285
4,8,0.8153990324601416,0.7754856703099295,3.9913362150212017
5,0,0.6639079266244928,0.6488495787650089,1.50583478594839
5,1,0.6639079266244928,0.6383159375346875,2.559198908980531
5,2,0.6639079266244928,0.6206387549621645,4.326917166232835
5,3,0.6639079266244928,0.6627628680919389,0.11450585325539775
5,4,0.6639079266244928,0.542767950513125,12.113997611136785
5,5,0.6639079266244928,0.5561429869320732,10.776493969241962
5,6,0.6639079266244928,0.6517921158282406,1.2115810796252235
5,7,0.6639079266244928,0.6249660024147419,3.8941924209750955
5,8,0.6639079266244928,0.5776432204560308,8.626470616846206
6,0,0.7556555237187509,0.7510669477581242,0.4588575960626673
6,1,0.7556555237187509,0.7341385597202607,2.1516963998490235
6,2,0.7556555237187509,0.7546711034803155,0.09844202384353684
6,3,0.7556555237187509,0.7785739305326433,-2.2918406813892456
6,4,0.7556555237187509,0.726475423954101,2.918009976464986
6,5,0.7556555237187509,0.709186022841072,4.6469500877678875
6,6,0.7556555237187509,0.7072745305968703,4.83809931218806
6,7,0.7556555237187509,0.6831039281264772,7.255159559227364
6,8,0.7556555237187509,0.6959813900361538,5.967413368259711
7,0,0.8086551349525212,0.7837250671435699,2.493006780895124
7,1,0.8086551349525212,0.7416351828055867,6.701995214693445
7,2,0.8086551349525212,0.7449544403644771,6.370069458804406
7,3,0.8086551349525212,0.7975856838205229,1.106945113199831
7,4,0.8086551349525212,0.7502039303568055,5.845120459571563
7,5,0.8086551349525212,0.775432360060532,3.3222774891989215
7,6,0.8086551349525212,0.7341098642518129,7.454527070070826
7,7,0.8086551349525212,0.6910510201509025,11.76041148016187
7,8,0.8086551349525212,0.6952156920131037,11.343944293941743
8,0,0.8629934698582168,0.8440051105280308,1.8988359330185944
8,1,0.8629934698582168,0.8606612225535641,0.2332247304652646
8,2,0.8629934698582168,0.8879172329369416,-2.492376307872479
8,3,0.8629934698582168,0.8226911995996368,4.030227025858002
8,4,0.8629934698582168,0.8191830880762214,4.381038178199537
8,5,0.8629934698582168,0.7976610376170696,6.533243224114715
8,6,0.8629934698582168,0.8419150880845712,2.1078381773645627
8,7,0.8629934698582168,0.7858783191617906,7.711515069642616
8,8,0.8629934698582168,0.7682259106732204,9.476755918499634
9,0,0.8361323561150116,0.8143258369601192,2.18065191548924
9,1,0.8361323561150116,0.7881999054806904,4.793245063432117
9,2,0.8361323561150116,0.7613101146197732,7.482224149523842
9,3,0.8361323561150116,0.8159042106592383,2.0228145455773228
9,4,0.8361323561150116,0.8090406792183442,2.709167689666736
9,5,0.8361323561150116,0.7786009425309406,5.753141358407099
9,6,0.8361323561150116,0.8175856975826837,1.8546658532327842
9,7,0.8361323561150116,0.7681120309716137,6.802032514339784
9,8,0.8361323561150116,0.8034151615631306,3.2717194551880935
10,0,0.7975087866756199,0.7423033859015319,5.520540077408798
10,1,0.7975087866756199,0.7667928729992248,3.0715913676395035
10,2,0.7975087866756199,0.763123730117755,3.4385056557864835
10,3,0.7975087866756199,0.7567772603998705,4.073152627574938
10,4,0.7975087866756199,0.7306633391308879,6.684544754473198
10,5,0.7975087866756199,0.7380738793003759,5.943490737524392
10,6,0.7975087866756199,0.7833270624388383,1.4181724236781545
10,7,0.7975087866756199,0.7442826405963466,5.322614607927322
10,8,0.7975087866756199,0.7456073499053265,5.190143677029335
11,0,0.9367383318928263,0.9060604386563177,3.06778932365086
11,1,0.9367383318928263,0.9101798833189282,2.655844857389811
11,2,0.9367383318928263,0.8811553991088742,5.55829327839521
11,3,0.9367383318928263,0.9009563276552742,3.5782004237552067
11,4,0.9367383318928263,0.9380742604843705,-0.13359285915441887
11,5,0.9367383318928263,0.9393228281625955,-0.25844962697691987
11,6,0.9367383318928263,0.9458809410752103,-0.9142609182383965
11,7,0.9367383318928263,0.9127698916397358,2.396844025309053
11,8,0.9367383318928263,0.9073332609347723,2.9405070958054003
12,0,0.9041301299142359,0.8816375994929184,2.249253042131749
12,1,0.9041301299142359,0.8556763631198826,4.845376679435331
12,2,0.9041301299142359,0.8572768765155452,4.685325339869073
12,3,0.9041301299142359,0.8536584288828778,5.047170103135812
12,4,0.9041301299142359,0.8735967529936026,3.0533376920633293
12,5,0.9041301299142359,0.877292663476874,2.6837466437361956
12,6,0.9041301299142359,0.8996247074177977,0.45054224964382605
12,7,0.9041301299142359,0.8595505574829101,4.457957243132582
12,8,0.9041301299142359,0.8446501928284873,5.947993708574861
13,0,0.9610469884831333,0.9122648003140366,4.8782188169096745
13,1,0.9610469884831333,0.9037954037954039,5.725158468772939
13,2,0.9610469884831333,0.9287769292854038,3.2270059197729517
13,3,0.9610469884831333,0.9107953419768406,5.025164650629266
13,4,0.9610469884831333,0.9389866575944854,2.2060330888647894
13,5,0.9610469884831333,0.9288872544798448,3.215973400328853
13,6,0.9610469884831333,0.9248062344961339,3.624075398699944
13,7,0.9610469884831333,0.8956704361740337,6.537655230909955
13,8,0.9610469884831333,0.9206348508809187,4.041213760221463
14,0,0.8353909856814391,0.8117764781162198,2.3614507565219323
14,1,0.8353909856814391,0.8066294530632767,2.876153261816239
14,2,0.8353909856814391,0.8012527323705178,3.413825331092135
14,3,0.8353909856814391,0.743190888223572,9.220009745786706
14,4,0.8353909856814391,0.7974325869157486,3.7958398765690515
14,5,0.8353909856814391,0.791727869625632,4.366311605580709
14,6,0.8353909856814391,0.8202473293533635,1.5143656328075572
14,7,0.8353909856814391,0.8083505454213068,2.7040440260132304
14,8,0.8353909856814391,0.7555091186031019,7.988186707833722
15,0,0.8993034974979601,0.8472959143445418,5.200758315341836
15,1,0.8993034974979601,0.8348426132223901,6.446088427557006
15,2,0.8993034974979601,0.8265369349702807,7.2766562527679435
15,3,0.8993034974979601,0.8429945482576167,5.630894924034346
15,4,0.8993034974979601,0.9018187040207186,-0.2515206522758495
15,5,0.8993034974979601,0.8347925017193769,6.451099577858321
15,6,0.8993034974979601,0.8555844860962365,4.371901140172363
15,7,0.8993034974979601,0.8594745735983599,3.9828923899600244
15,8,0.8993034974979601,0.8886304360706245,1.0673061427335595
16,0,0.8802121144840571,0.8418268995970425,3.838521488701463
16,1,0.8802121144840571,0.8721135301025719,0.8098584381485252
16,2,0.8802121144840571,0.8466653202521225,3.354679423193463
16,3,0.8802121144840571,0.8503005429906436,2.9911571493413502
16,4,0.8802121144840571,0.8231185831725967,5.709353131146044
16,5,0.8802121144840571,0.8534247922734474,2.6787322210609754
16,6,0.8802121144840571,0.8738279550976521,0.638415938640502
16,7,0.8802121144840571,0.769139743902609,11.107237058144815
16,8,0.8802121144840571,0.8170081747520772,6.320393973197991
17,0,0.8446455993611728,0.8038768521339829,4.076874722718992
17,1,0.8446455993611728,0.8704484914677659,-2.5802892106593145
17,2,0.8446455993611728,0.8506996285718988,-0.6054029210726064
17,3,0.8446455993611728,0.8130326537948577,3.161294556631511
17,4,0.8446455993611728,0.7986925234617773,4.595307589939546
17,5,0.8446455993611728,0.8285763929088102,1.6069206452362539
17,6,0.8446455993611728,0.8421828687127089,0.24627306484639178
17,7,0.8446455993611728,0.7935445363265602,5.11010630346126
17,8,0.8446455993611728,0.7823896680322358,6.225593132893703
18,0,0.8941184492957037,0.8414490360696465,5.266941322605723
18,1,0.8941184492957037,0.8624821800809278,3.1636269214775914
18,2,0.8941184492957037,0.8498423124864413,4.427613680926246
18,3,0.8941184492957037,0.7780453334107877,11.607311588491598
18,4,0.8941184492957037,0.8444576469793778,4.966080231632597
18,5,0.8941184492957037,0.8142973322164551,7.982111707924866
18,6,0.8941184492957037,0.8698531273915914,2.4265321904112347
18,7,0.8941184492957037,0.7979951793447477,9.6123269950956
18,8,0.8941184492957037,0.7911315025904029,10.298694670530084
19,0,0.8673619981278665,0.8290578957776398,3.8304102350226743
19,1,0.8673619981278665,0.8342277427711753,3.3134255356691233
19,2,0.8673619981278665,0.8351734903945475,3.218850773331905
19,3,0.8673619981278665,0.7952806209801658,7.208137714770069
19,4,0.8673619981278665,0.8065163330270277,6.084566510083878
19,5,0.8673619981278665,0.8014122758583202,6.594972226954631
19,6,0.8673619981278665,0.8452741106264161,2.208788750145041
19,7,0.8673619981278665,0.7870383486162761,8.032364951159042
19,8,0.8673619981278665,0.8132723506588558,5.408964746901068
20,0,0.7878161027343519,0.8097755780728645,-2.1959475338512613
20,1,0.7878161027343519,0.7771480589333294,1.0668043801022487
20,2,0.7878161027343519,0.7485585106382979,3.925759209605395
20,3,0.7878161027343519,0.7951622525250566,-0.7346149790704692
20,4,0.7878161027343519,0.7753632298516245,1.245287288272734
20,5,0.7878161027343519,0.7426697351615587,4.514636757279322
20,6,0.7878161027343519,0.7817598835799177,0.6056219154434217
20,7,0.7878161027343519,0.7246827110777112,6.3133391656640665
20,8,0.7878161027343519,0.6849993758538573,10.28167268804946
21,0,0.8482121236417413,0.7995975524114194,4.861457123032187
21,1,0.8482121236417413,0.8540410922983105,-0.5828968656569233
21,2,0.8482121236417413,0.7962732444770549,5.193887916468631
21,3,0.8482121236417413,0.792549893711872,5.5662229929869245
21,4,0.8482121236417413,0.8271644715340322,2.104765210770909
21,5,0.8482121236417413,0.8786872763541416,-3.047515271240031
21,6,0.8482121236417413,0.8478355737459264,0.0376549895814815
21,7,0.8482121236417413,0.8023468305141415,4.586529312759979
21,8,0.8482121236417413,0.8149117953060608,3.330032833568042
22,0,0.8098364152425447,0.7560175467668286,5.381886847571604
22,1,0.8098364152425447,0.7969427645859718,1.2893650656572886
22,2,0.8098364152425447,0.7565475528291192,5.328886241342545
22,3,0.8098364152425447,0.7545930141009031,5.524340114164161
22,4,0.8098364152425447,0.737792549685297,7.204386555724773
22,5,0.8098364152425447,0.7490246887414398,6.081172650110489
22,6,0.8098364152425447,0.7911141284373132,1.872228680523147
22,7,0.8098364152425447,0.6818970124868413,12.793940275570337
22,8,0.8098364152425447,0.7325241897179935,7.731222552455119
23,0,0.8317504064562888,0.776292016784589,5.54583896716998
23,1,0.8317504064562888,0.8123949711618315,1.935543529445738
23,2,0.8317504064562888,0.8448080444295387,-1.305763797324988
23,3,0.8317504064562888,0.8266948396440543,0.5055566812234513
23,4,0.8317504064562888,0.7982902034415238,3.3460203014765044
23,5,0.8317504064562888,0.8005444699198333,3.1205936536455536
23,6,0.8317504064562888,0.8073244311684148,2.4425975287874047
23,7,0.8317504064562888,0.7499432546080076,8.180715184828124
23,8,0.8317504064562888,0.7291861394164021,10.256426703988675
24,0,0.8220923247941836,0.7831494269725392,3.8942897821644396
24,1,0.8220923247941836,0.8263303952801674,-0.42380704859837914
24,2,0.8220923247941836,0.8079605938000669,1.4131730994116687
24,3,0.8220923247941836,0.8362930436918536,-1.420071889767005
24,4,0.8220923247941836,0.7732888992047925,4.880342558939111
24,5,0.8220923247941836,0.7610966604609072,6.099566433327642
24,6,0.8220923247941836,0.8000494842910921,2.2042840503091465
24,7,0.8220923247941836,0.6880092714940098,13.408305330017377
24,8,0.8220923247941836,0.7841000651960008,3.7992259598182754
25,0,0.9139222234637733,0.8724905883710731,4.14316350927002
25,1,0.9139222234637733,0.879674478771519,3.4247744692254223
25,2,0.9139222234637733,0.8772223068231757,3.6699916640597574
25,3,0.9139222234637733,0.8787711615336185,3.5151061930154825
25,4,0.9139222234637733,0.8543076172054532,5.961460625832005
25,5,0.9139222234637733,0.8385256730751616,7.53965503886117
25,6,0.9139222234637733,0.8866577973077232,2.726442615605007
25,7,0.9139222234637733,0.8440356108456303,6.9886612618143
25,8,0.9139222234637733,0.8662682411479419,4.76539823158314
26,0,0.8143758129810619,0.7624537696708067,5.192204331025518
26,1,0.8143758129810619,0.8094974819473711,0.48783310336907304
26,2,0.8143758129810619,0.7713056136231675,4.307019935789436
26,3,0.8143758129810619,0.7363800812844115,7.799573169665042
26,4,0.8143758129810619,0.7415829584379963,7.279285454306561
26,5,0.8143758129810619,0.7971836964797778,1.719211650128405
26,6,0.8143758129810619,0.7787014463973558,3.567436658370604
26,7,0.8143758129810619,0.7584923897022725,5.588342327878937
26,8,0.8143758129810619,0.7334020436356856,8.097376934537625
27,0,0.8899871434653319,0.907298616476679,-1.7311473011347056
27,1,0.8899871434653319,0.8967541274723049,-0.6766984006972954
27,2,0.8899871434653319,0.8521055978421046,3.788154562322732
27,3,0.8899871434653319,0.8674087516273958,2.2578391837936085
27,4,0.8899871434653319,0.8429345691148767,4.705257435045517
27,5,0.8899871434653319,0.8586641818171551,3.132296164817683
27,6,0.8899871434653319,0.8931856974080522,-0.31985539427202836
27,7,0.8899871434653319,0.8522735069524556,3.771363651287629
27,8,0.8899871434653319,0.8827189756773398,0.7268167787992108
28,0,0.8443449749484232,0.8325096705695578,1.1835304378865374
28,1,0.8443449749484232,0.8343730386217951,0.9971936326628073
28,2,0.8443449749484232,0.8035293629111232,4.08156120373
28,3,0.8443449749484232,0.7713046426992126,7.304033224921058
28,4,0.8443449749484232,0.7898620035208082,5.448297142761504
28,5,0.8443449749484232,0.7414927225435234,10.285225240489982
28,6,0.8443449749484232,0.855275699231573,-1.0930724283149784
28,7,0.8443449749484232,0.7836993262489461,6.064564869947708
28,8,0.8443449749484232,0.821521809984985,2.282316496343817
29,0,0.8371587602839291,0.7801788607301974,5.697989955373172
29,1,0.8371587602839291,0.8307325249171139,0.6426235366815192
29,2,0.8371587602839291,0.7999555638142779,3.72031964696512
29,3,0.8371587602839291,0.7998381126217844,3.7320647662144713
29,4,0.8371587602839291,0.7658817538143776,7.127700646955148
29,5,0.8371587602839291,0.7631008093768226,7.4057950907106544
29,6,0.8371587602839291,0.8463199303461764,-0.9161170062247259
29,7,0.8371587602839291,0.8160485534433548,2.1110206840574297
29,8,0.8371587602839291,0.7583867529052497,7.877200737867939
30,0,0.8480074938499897,0.8807136843026085,-3.27061904526188
30,1,0.8480074938499897,0.866392782448183,-1.8385288598193217
30,2,0.8480074938499897,0.839825453364935,0.8182040485054776
30,3,0.8480074938499897,0.8345022148277141,1.3505279022275607
30,4,0.8480074938499897,0.8170559903672486,3.0951503482741116
30,5,0.8480074938499897,0.8179738490240267,3.0033644825963046
30,6,0.8480074938499897,0.856503289519635,-0.8495795669645201
30,7,0.8480074938499897,0.7855483474093194,6.24591464406703
30,8,0.8480074938499897,0.8334830465587044,1.4524447291285325
31,0,0.7905461301942631,0.7588695057383038,3.1676624455959312
31,1,0.7905461301942631,0.7721092148358201,1.8436915358443051
31,2,0.7905461301942631,0.7408783980551595,4.966773213910358
31,3,0.7905461301942631,0.7647688022539314,2.577732794033172
31,4,0.7905461301942631,0.7833688009493518,0.7177329244911324
31,5,0.7905461301942631,0.802924577192067,-1.2378446997803882
31,6,0.7905461301942631,0.7644230396018726,2.6123090592390485
31,7,0.7905461301942631,0.6865325767257006,10.401355346856256
31,8,0.7905461301942631,0.7138371314129403,7.670899878132287
32,0,0.8700788144324669,0.805522622111966,6.455619232050092
32,1,0.8700788144324669,0.8575572275319774,1.2521586900489545
32,2,0.8700788144324669,0.8175310364894282,5.254777794303878
32,3,0.8700788144324669,0.8161467197079577,5.393209472450922
32,4,0.8700788144324669,0.8118216413124989,5.825717311996803
32,5,0.8700788144324669,0.8199796711614404,5.009914327102649
32,6,0.8700788144324669,0.8554974452114075,1.458136922105946
32,7,0.8700788144324669,0.8122860472745255,5.779276715794146
32,8,0.8700788144324669,0.793956094204856,7.612272022761091
33,0,0.8828875879723463,0.8388870727543496,4.400051521799675
33,1,0.8828875879723463,0.8940361461603888,-1.11485581880425
33,2,0.8828875879723463,0.8317178490246508,5.11697389476955
33,3,0.8828875879723463,0.8693005332245517,1.3587054747794647
33,4,0.8828875879723463,0.8878253620113022,-0.49377740389559
33,5,0.8828875879723463,0.8883798811804954,-0.5492293208149035
33,6,0.8828875879723463,0.8123624734775501,7.052511449479626
33,7,0.8828875879723463,0.8447433108763158,3.814427709603052
33,8,0.8828875879723463,0.8268898077312601,5.599778024108626
34,0,0.9102524774103028,0.8396806404440257,7.057183696627711
34,1,0.9102524774103028,0.8914677630269385,1.8784714383364265
34,2,0.9102524774103028,0.898677147126963,1.157533028333979
34,3,0.9102524774103028,0.8514861155105058,5.876636189979701
34,4,0.9102524774103028,0.8980636722639386,1.2188805146364223
34,5,0.9102524774103028,0.879145192445049,3.1107284965253834
34,6,0.9102524774103028,0.8947849140999669,1.5467563310335941
34,7,0.9102524774103028,0.8524872788030683,5.77651986072345
34,8,0.9102524774103028,0.7879096795208711,12.23427978894317
35,0,0.7559127715033804,0.72233186252825,3.358090897513044
35,1,0.7559127715033804,0.737150526716885,1.8762244786495463
35,2,0.7559127715033804,0.7188136077245846,3.709916377879585
35,3,0.7559127715033804,0.7154823618977325,4.043040960564792
35,4,0.7559127715033804,0.7542776739223103,0.16350975810701662
35,5,0.7559127715033804,0.7454307512003606,1.0482020303019812
35,6,0.7559127715033804,0.761903289942234,-0.5990518438853565
35,7,0.7559127715033804,0.7270596204959388,2.885315100744168
35,8,0.7559127715033804,0.715597136685194,4.031563481818646
36,0,0.837098377749218,0.7874137453363439,4.968463241287413
36,1,0.837098377749218,0.8200405527665383,1.7057824982679715
36,2,0.837098377749218,0.7799974248724677,5.710095287675032
36,3,0.837098377749218,0.7369703696229778,10.012800812624024
36,4,0.837098377749218,0.8311774639951167,0.5920913754101309
36,5,0.837098377749218,0.8317565043124631,0.5341873436754963
36,6,0.837098377749218,0.7667772748671069,7.032110288211113
36,7,0.837098377749218,0.692263661256862,14.483471649235602
36,8,0.837098377749218,0.6624225257226558,17.46758520265622
37,0,0.8883337937260795,0.8444653900060483,4.38684037200312
37,1,0.8883337937260795,0.8521857605340954,3.614803319198401
37,2,0.8883337937260795,0.8405590817843028,4.777471194177663
37,3,0.8883337937260795,0.8698660499671178,1.8467743758961652
37,4,0.8883337937260795,0.8496055226824457,3.8728271043633744
37,5,0.8883337937260795,0.8560801505105302,3.2253643215549244
37,6,0.8883337937260795,0.871549335837183,1.6784457888896487
37,7,0.8883337937260795,0.8077496079203943,8.058418580568516
37,8,0.8883337937260795,0.8341478674057471,5.418592632033237
38,0,0.898921074461945,0.80320802509793,9.571304936401503
38,1,0.898921074461945,0.8297443475314317,6.917672693051335
38,2,0.898921074461945,0.8364324951174957,6.2488579344449295
38,3,0.898921074461945,0.8695404021647626,2.938067229718244
38,4,0.898921074461945,0.8503202510659285,4.860082339601657
38,5,0.898921074461945,0.8459632875572063,5.295778690473874
38,6,0.898921074461945,0.8678183831872489,3.1102691274696115
38,7,0.898921074461945,0.8342539265266258,6.466714793531924
38,8,0.898921074461945,0.8288283766923008,7.009269776964421
39,0,0.8217297651764086,0.7827865697423544,3.8943195434054223
39,1,0.8217297651764086,0.7951091951637315,2.6620570012677147
39,2,0.8217297651764086,0.811725262507988,1.0004502668420567
39,3,0.8217297651764086,0.7036928666366064,11.803689853980226
39,4,0.8217297651764086,0.7942851732081022,2.7444591968306398
39,5,0.8217297651764086,0.8068789543686072,1.4850810807801373
39,6,0.8217297651764086,0.8266046098483268,-0.48748446719182326
39,7,0.8217297651764086,0.7988979440159565,2.2831821160452126
39,8,0.8217297651764086,0.8057464123050869,1.5983352871321688
40,0,0.8091427463352607,0.7864454730329093,2.2697273302351384
40,1,0.8091427463352607,0.7893598796533962,1.9782866681864575
40,2,0.8091427463352607,0.8489693376452271,-3.9826591309966353
40,3,0.8091427463352607,0.8395447034747525,-3.0401957139491786
40,4,0.8091427463352607,0.8170125974470814,-0.7869851111820703
40,5,0.8091427463352607,0.8126117648662927,-0.34690185310319865
40,6,0.8091427463352607,0.7745625036499217,3.458024268533899
40,7,0.8091427463352607,0.7095476434076803,9.959510292758045
40,8,0.8091427463352607,0.7360476055174455,7.30951408178152
