subject,block,block_width,feature_channel,gate_mean,gate_sd
1,0,32,0,0.43537336587905884,0.0617855042219162
1,0,32,1,0.503646969795227,0.05093983933329582
1,0,32,2,0.5201927423477173,0.028159551322460175
1,0,32,3,0.41755610704421997,0.06375342607498169
1,0,32,4,0.43546736240386963,0.07445963472127914
1,0,32,5,0.6137358546257019,0.07185044884681702
1,0,32,6,0.5281516909599304,0.17265650629997253
1,0,32,7,0.4178825616836548,0.09549207985401154
1,0,32,8,0.4492908716201782,0.0798460841178894
1,0,32,9,0.3810347318649292,0.047202955931425095
1,0,32,10,0.4501901865005493,0.14311227202415466
1,0,32,11,0.4198680520057678,0.01746051385998726
1,0,32,12,0.617757260799408,0.11931058764457703
1,0,32,13,0.5432774424552917,0.08521761745214462
1,0,32,14,0.4345332086086273,0.07383658736944199
1,0,32,15,0.5168967247009277,0.032513100653886795
1,0,32,16,0.49936816096305847,0.03188638016581535
1,0,32,17,0.5542230010032654,0.024839667603373528
1,0,32,18,0.5065769553184509,0.045386310666799545
1,0,32,19,0.4865702688694,0.028462912887334824
1,0,32,20,0.4282814860343933,0.08929914236068726
1,0,32,21,0.4843481481075287,0.05528099834918976
1,0,32,22,0.5122751593589783,0.12354612350463867
1,0,32,23,0.38602176308631897,0.05975337699055672
1,0,32,24,0.5471000075340271,0.06475021690130234
1,0,32,25,0.4200855493545532,0.06815583258867264
1,0,32,26,0.428564190864563,0.09604895114898682
1,0,32,27,0.4425916075706482,0.12766437232494354
1,0,32,28,0.37493136525154114,0.06196063011884689
1,0,32,29,0.5996763110160828,0.06018542870879173
1,0,32,30,0.5354105830192566,0.05394233018159866
1,0,32,31,0.48410937190055847,0.07532655447721481
1,1,32,0,0.5525797605514526,0.07334071397781372
1,1,32,1,0.6458373665809631,0.10095188766717911
1,1,32,2,0.3753758668899536,0.0681319385766983
1,1,32,3,0.5241390466690063,0.03945561870932579
1,1,32,4,0.6441174745559692,0.08176414668560028
1,1,32,5,0.4830101430416107,0.12208467721939087
1,1,32,6,0.4724719524383545,0.07585394382476807
1,1,32,7,0.37800559401512146,0.08336495608091354
1,1,32,8,0.48636093735694885,0.06788301467895508
1,1,32,9,0.37292900681495667,0.06580576300621033
1,1,32,10,0.42621737718582153,0.08174709230661392
1,1,32,11,0.5213158130645752,0.09121678024530411
1,1,32,12,0.5029584169387817,0.08571604639291763
1,1,32,13,0.5074465274810791,0.11553666740655899
1,1,32,14,0.4329814910888672,0.11900021135807037
1,1,32,15,0.5902746915817261,0.020724378526210785
1,1,32,16,0.502368688583374,0.09080414474010468
1,1,32,17,0.5714174509048462,0.02781894989311695
1,1,32,18,0.5290780067443848,0.09171437472105026
1,1,32,19,0.47008609771728516,0.042417261749506
1,1,32,20,0.4125570058822632,0.07219026237726212
1,1,32,21,0.32226577401161194,0.092537060379982
1,1,32,22,0.3951108157634735,0.10500046610832214
1,1,32,23,0.5171261429786682,0.020806415006518364
1,1,32,24,0.4697651267051697,0.10494967550039291
1,1,32,25,0.47683238983154297,0.11280401796102524
1,1,32,26,0.5793390870094299,0.036664847284555435
1,1,32,27,0.6406643986701965,0.0813770666718483
1,1,32,28,0.5651382803916931,0.07287417352199554
1,1,32,29,0.5926730632781982,0.10637124627828598
1,1,32,30,0.37813428044319153,0.07554631680250168
1,1,32,31,0.547247052192688,0.10288093984127045
1,2,64,0,0.5264880061149597,0.2116452157497406
1,2,64,1,0.3767406940460205,0.24292311072349548
1,2,64,2,0.6241957545280457,0.1442541778087616
1,2,64,3,0.35699307918548584,0.18963949382305145
1,2,64,4,0.5168629288673401,0.2513752579689026
1,2,64,5,0.4721187353134155,0.2773422300815582
1,2,64,6,0.7246665358543396,0.06693803519010544
1,2,64,7,0.6580289602279663,0.15592889487743378
1,2,64,8,0.44882264733314514,0.1355695277452469
1,2,64,9,0.7319644093513489,0.09106524288654327
1,2,64,10,0.15848982334136963,0.10127057135105133
1,2,64,11,0.3507083058357239,0.0939457044005394
1,2,64,12,0.44389498233795166,0.24792659282684326
1,2,64,13,0.6709726452827454,0.09036099910736084
1,2,64,14,0.5452161431312561,0.11924510449171066
1,2,64,15,0.46857327222824097,0.060629814863204956
1,2,64,16,0.7363645434379578,0.10147322714328766
1,2,64,17,0.4125003516674042,0.1194913387298584
1,2,64,18,0.44583871960639954,0.1328107863664627
1,2,64,19,0.33838048577308655,0.11649876832962036
1,2,64,20,0.5321695804595947,0.2416699379682541
1,2,64,21,0.652208149433136,0.10362029075622559
1,2,64,22,0.5418306589126587,0.27839165925979614
1,2,64,23,0.21915075182914734,0.1134260892868042
1,2,64,24,0.6046019792556763,0.0679122805595398
1,2,64,25,0.43773573637008667,0.20845352113246918
1,2,64,26,0.41981616616249084,0.26753997802734375
1,2,64,27,0.4636247754096985,0.27539363503456116
1,2,64,28,0.4070662260055542,0.2469862848520279
1,2,64,29,0.3117418587207794,0.11369908601045609
1,2,64,30,0.42394718527793884,0.26345762610435486
1,2,64,31,0.2786605656147003,0.09539920091629028
1,2,64,32,0.3837812840938568,0.2381134331226349
1,2,64,33,0.41230469942092896,0.15705052018165588
1,2,64,34,0.45642274618148804,0.23721563816070557
1,2,64,35,0.642880380153656,0.26430806517601013
1,2,64,36,0.6954922676086426,0.18275916576385498
1,2,64,37,0.4405173063278198,0.16726551949977875
1,2,64,38,0.5634880065917969,0.3408031463623047
1,2,64,39,0.45264723896980286,0.12059963494539261
1,2,64,40,0.571986198425293,0.27987730503082275
1,2,64,41,0.28690004348754883,0.16527965664863586
1,2,64,42,0.4849914014339447,0.17807282507419586
1,2,64,43,0.39232778549194336,0.1744699329137802
1,2,64,44,0.6257789731025696,0.11793000251054764
1,2,64,45,0.5384284257888794,0.30925410985946655
1,2,64,46,0.5524954199790955,0.28268682956695557
1,2,64,47,0.31305649876594543,0.17070935666561127
1,2,64,48,0.3357268273830414,0.15841208398342133
1,2,64,49,0.46411505341529846,0.2728317379951477
1,2,64,50,0.4558916687965393,0.22959524393081665
1,2,64,51,0.3978191912174225,0.2650820314884186
1,2,64,52,0.6414759755134583,0.08980198204517365
1,2,64,53,0.5117940902709961,0.2949095666408539
1,2,64,54,0.6618009209632874,0.17928096652030945
1,2,64,55,0.47471654415130615,0.2418474555015564
1,2,64,56,0.6471334099769592,0.1805570274591446
1,2,64,57,0.5150929093360901,0.18655706942081451
1,2,64,58,0.48537251353263855,0.1927686482667923
1,2,64,59,0.3391220271587372,0.23008477687835693
1,2,64,60,0.2959398031234741,0.10814888030290604
1,2,64,61,0.5578442811965942,0.15604110062122345
1,2,64,62,0.41610634326934814,0.16021303832530975
1,2,64,63,0.536262571811676,0.13360236585140228
1,3,64,0,0.5762538909912109,0.0977153405547142
1,3,64,1,0.6532706022262573,0.06789858639240265
1,3,64,2,0.5590260624885559,0.1411333978176117
1,3,64,3,0.378970205783844,0.24045388400554657
1,3,64,4,0.6441903710365295,0.10749969631433487
1,3,64,5,0.45986804366111755,0.12645059823989868
1,3,64,6,0.553686261177063,0.19395460188388824
1,3,64,7,0.473207950592041,0.08509228378534317
1,3,64,8,0.3798413574695587,0.15792106091976166
1,3,64,9,0.6968271732330322,0.10737636685371399
1,3,64,10,0.6066303849220276,0.19755792617797852
1,3,64,11,0.4363909363746643,0.10848341137170792
1,3,64,12,0.4445160925388336,0.09344661235809326
1,3,64,13,0.5145571231842041,0.17858262360095978
1,3,64,14,0.5216047763824463,0.2458842694759369
1,3,64,15,0.5287586450576782,0.18281014263629913
1,3,64,16,0.48467522859573364,0.1473204493522644
1,3,64,17,0.528968870639801,0.05502501130104065
1,3,64,18,0.5073685646057129,0.17743180692195892
1,3,64,19,0.4627560079097748,0.13592787086963654
1,3,64,20,0.4419613480567932,0.16174712777137756
1,3,64,21,0.4625757932662964,0.21046480536460876
1,3,64,22,0.4802432358264923,0.170336052775383
1,3,64,23,0.49543634057044983,0.2475631982088089
1,3,64,24,0.5689588189125061,0.1811666339635849
1,3,64,25,0.43812286853790283,0.10390613973140717
1,3,64,26,0.495471328496933,0.06841223686933517
1,3,64,27,0.5173876881599426,0.20780397951602936
1,3,64,28,0.5169489979743958,0.07356676459312439
1,3,64,29,0.5093985199928284,0.2231268733739853
1,3,64,30,0.5394250154495239,0.11235065013170242
1,3,64,31,0.6126409769058228,0.16767795383930206
1,3,64,32,0.25023964047431946,0.08489304780960083
1,3,64,33,0.34428131580352783,0.196330726146698
1,3,64,34,0.6071000695228577,0.15017394721508026
1,3,64,35,0.5370631814002991,0.12651827931404114
1,3,64,36,0.343973308801651,0.1393769085407257
1,3,64,37,0.46754521131515503,0.1426558941602707
1,3,64,38,0.4084984064102173,0.05426483973860741
1,3,64,39,0.4278353452682495,0.07226766645908356
1,3,64,40,0.6050097346305847,0.11281593143939972
1,3,64,41,0.39732614159584045,0.16629445552825928
1,3,64,42,0.42653533816337585,0.10580124706029892
1,3,64,43,0.6529656648635864,0.10954410582780838
1,3,64,44,0.6083124876022339,0.12329356372356415
1,3,64,45,0.6017155051231384,0.10005946457386017
1,3,64,46,0.40442681312561035,0.12429952621459961
1,3,64,47,0.4942370057106018,0.1590242087841034
1,3,64,48,0.6025250554084778,0.08071397244930267
1,3,64,49,0.6225141286849976,0.057149894535541534
1,3,64,50,0.43625399470329285,0.18311625719070435
1,3,64,51,0.39994409680366516,0.15895868837833405
1,3,64,52,0.4860929548740387,0.20534849166870117
1,3,64,53,0.382932186126709,0.20220276713371277
1,3,64,54,0.3555176556110382,0.14427213370800018
1,3,64,55,0.5322574973106384,0.10232779383659363
1,3,64,56,0.3616775572299957,0.19010375440120697
1,3,64,57,0.535247802734375,0.17603613436222076
1,3,64,58,0.6299206018447876,0.07669750601053238
1,3,64,59,0.5555312633514404,0.09049272537231445
1,3,64,60,0.48009058833122253,0.16290977597236633
1,3,64,61,0.47866371273994446,0.15192371606826782
1,3,64,62,0.4310682713985443,0.20492811501026154
1,3,64,63,0.4941757321357727,0.225972518324852
1,4,128,0,0.45057231187820435,0.26199910044670105
1,4,128,1,0.624172568321228,0.35928648710250854
1,4,128,2,0.46174076199531555,0.14279909431934357
1,4,128,3,0.6134169697761536,0.31275901198387146
1,4,128,4,0.6556618213653564,0.22078265249729156
1,4,128,5,0.3599146604537964,0.2435602992773056
1,4,128,6,0.7836634516716003,0.12612460553646088
1,4,128,7,0.46286630630493164,0.34936031699180603
1,4,128,8,0.5648505091667175,0.21948346495628357
1,4,128,9,0.4313942790031433,0.14155350625514984
1,4,128,10,0.3989108204841614,0.3240223526954651
1,4,128,11,0.6076785326004028,0.10332908481359482
1,4,128,12,0.4962085783481598,0.27343955636024475
1,4,128,13,0.6599646806716919,0.13330888748168945
1,4,128,14,0.6515110731124878,0.1754675954580307
1,4,128,15,0.49808207154273987,0.12580223381519318
1,4,128,16,0.4273523688316345,0.2137025147676468
1,4,128,17,0.4169958233833313,0.263292133808136
1,4,128,18,0.5295256972312927,0.3331143260002136
1,4,128,19,0.7155990600585938,0.21437259018421173
1,4,128,20,0.2956138849258423,0.1442859023809433
1,4,128,21,0.49560603499412537,0.194296196103096
1,4,128,22,0.6460713744163513,0.313932329416275
1,4,128,23,0.5745149850845337,0.1844702810049057
1,4,128,24,0.6135105490684509,0.19868040084838867
1,4,128,25,0.472737193107605,0.15311656892299652
1,4,128,26,0.2837013602256775,0.14817428588867188
1,4,128,27,0.7038717269897461,0.08521213382482529
1,4,128,28,0.576531171798706,0.15047630667686462
1,4,128,29,0.5390605330467224,0.24615849554538727
1,4,128,30,0.5032933354377747,0.13568350672721863
1,4,128,31,0.6137120127677917,0.21991996467113495
1,4,128,32,0.47948405146598816,0.13824108242988586
1,4,128,33,0.4509638547897339,0.3332955837249756
1,4,128,34,0.6396757364273071,0.17203974723815918
1,4,128,35,0.5996423959732056,0.21272969245910645
1,4,128,36,0.5551136136054993,0.16425496339797974
1,4,128,37,0.5582607388496399,0.12633167207241058
1,4,128,38,0.6099835634231567,0.11693054437637329
1,4,128,39,0.499972939491272,0.27230510115623474
1,4,128,40,0.7178941965103149,0.07437346875667572
1,4,128,41,0.5746926069259644,0.19869579374790192
1,4,128,42,0.6589339971542358,0.1664789766073227
1,4,128,43,0.36122316122055054,0.23551619052886963
1,4,128,44,0.617002010345459,0.27256911993026733
1,4,128,45,0.6466662883758545,0.1959967166185379
1,4,128,46,0.5327181816101074,0.2050817757844925
1,4,128,47,0.5580204725265503,0.16477972269058228
1,4,128,48,0.5478024482727051,0.11288698762655258
1,4,128,49,0.5646901726722717,0.21749772131443024
1,4,128,50,0.46343091130256653,0.2545534372329712
1,4,128,51,0.6463462710380554,0.3015642762184143
1,4,128,52,0.4845516085624695,0.2974512279033661
1,4,128,53,0.4464714527130127,0.2764311730861664
1,4,128,54,0.2949877679347992,0.08353544026613235
1,4,128,55,0.612266480922699,0.09484924376010895
1,4,128,56,0.31505414843559265,0.21315129101276398
1,4,128,57,0.673389196395874,0.1131264939904213
1,4,128,58,0.5058937668800354,0.08017202466726303
1,4,128,59,0.5897948145866394,0.2420939952135086
1,4,128,60,0.6255131959915161,0.140664204955101
1,4,128,61,0.6285393238067627,0.26636216044425964
1,4,128,62,0.47418269515037537,0.1691126972436905
1,4,128,63,0.6332722306251526,0.09341312944889069
1,4,128,64,0.5595241785049438,0.26147428154945374
1,4,128,65,0.6222317218780518,0.2850651741027832
1,4,128,66,0.5488300919532776,0.15093132853507996
1,4,128,67,0.599853515625,0.3069878816604614
1,4,128,68,0.6937867403030396,0.071381114423275
1,4,128,69,0.48596084117889404,0.2948302924633026
1,4,128,70,0.2959688603878021,0.08773475140333176
1,4,128,71,0.5093398094177246,0.28854450583457947
1,4,128,72,0.580807089805603,0.2745235860347748
1,4,128,73,0.6916849613189697,0.17306309938430786
1,4,128,74,0.4591899514198303,0.23636692762374878
1,4,128,75,0.7081401348114014,0.17947480082511902
1,4,128,76,0.6890143752098083,0.1376626342535019
1,4,128,77,0.7170160412788391,0.1355605274438858
1,4,128,78,0.6603322625160217,0.15949268639087677
1,4,128,79,0.6332669854164124,0.16911140084266663
1,4,128,80,0.53138267993927,0.280128538608551
1,4,128,81,0.37643131613731384,0.31482434272766113
1,4,128,82,0.486860454082489,0.1615574210882187
1,4,128,83,0.6554675102233887,0.11238938570022583
1,4,128,84,0.7642550468444824,0.14027096331119537
1,4,128,85,0.5063484907150269,0.26479771733283997
1,4,128,86,0.37771058082580566,0.16926541924476624
1,4,128,87,0.5885533690452576,0.13698257505893707
1,4,128,88,0.47884371876716614,0.2193068116903305
1,4,128,89,0.3799412250518799,0.18881411850452423
1,4,128,90,0.7549558877944946,0.11442919075489044
1,4,128,91,0.5220475196838379,0.2804289758205414
1,4,128,92,0.5406035780906677,0.07920198142528534
1,4,128,93,0.6033691167831421,0.38675013184547424
1,4,128,94,0.5774444341659546,0.32195180654525757
1,4,128,95,0.543196976184845,0.24142953753471375
1,4,128,96,0.6333564519882202,0.2276904433965683
1,4,128,97,0.4923372268676758,0.37497207522392273
1,4,128,98,0.7305582165718079,0.11317789554595947
1,4,128,99,0.6274035573005676,0.18299749493598938
1,4,128,100,0.7927600145339966,0.10440313071012497
1,4,128,101,0.4588605463504791,0.24128426611423492
1,4,128,102,0.5243492126464844,0.2671754062175751
1,4,128,103,0.6119149327278137,0.3883097469806671
1,4,128,104,0.6981511116027832,0.11316531151533127
1,4,128,105,0.7493693232536316,0.1446191668510437
1,4,128,106,0.5877979397773743,0.22228948771953583
1,4,128,107,0.28987276554107666,0.20965887606143951
1,4,128,108,0.6191384196281433,0.1911964863538742
1,4,128,109,0.653012752532959,0.18283064663410187
1,4,128,110,0.5594087839126587,0.21183449029922485
1,4,128,111,0.44022923707962036,0.19933652877807617
1,4,128,112,0.7080715298652649,0.14342603087425232
1,4,128,113,0.33559903502464294,0.2532716393470764
1,4,128,114,0.6082354187965393,0.18522562086582184
1,4,128,115,0.521037757396698,0.2998085618019104
1,4,128,116,0.6503250002861023,0.2138586789369583
1,4,128,117,0.6777555346488953,0.20203539729118347
1,4,128,118,0.7122201919555664,0.16352060437202454
1,4,128,119,0.8086308836936951,0.09849802404642105
1,4,128,120,0.45503243803977966,0.2837866544723511
1,4,128,121,0.5194932818412781,0.23285895586013794
1,4,128,122,0.6281161308288574,0.28329625725746155
1,4,128,123,0.6404925584793091,0.20525264739990234
1,4,128,124,0.5392447113990784,0.19978593289852142
1,4,128,125,0.49766969680786133,0.23593564331531525
1,4,128,126,0.4333200752735138,0.0686170682311058
1,4,128,127,0.6691005229949951,0.08230710029602051
1,5,128,0,0.799681544303894,0.12305250018835068
1,5,128,1,0.8847643733024597,0.09940620511770248
1,5,128,2,0.6874569058418274,0.26206105947494507
1,5,128,3,0.4617237150669098,0.13135017454624176
1,5,128,4,0.7856043577194214,0.1321055144071579
1,5,128,5,0.3767203986644745,0.33671221137046814
1,5,128,6,0.813570499420166,0.09922166168689728
1,5,128,7,0.6660159826278687,0.2788991630077362
1,5,128,8,0.3869073987007141,0.18106167018413544
1,5,128,9,0.7144128084182739,0.20985721051692963
1,5,128,10,0.5174453854560852,0.11319791525602341
1,5,128,11,0.698875904083252,0.08832971751689911
1,5,128,12,0.5751744508743286,0.13231244683265686
1,5,128,13,0.6599301695823669,0.1621299833059311
1,5,128,14,0.7746753692626953,0.07806364446878433
1,5,128,15,0.4950294494628906,0.19809077680110931
1,5,128,16,0.764348566532135,0.15499992668628693
1,5,128,17,0.45921215415000916,0.19252051413059235
1,5,128,18,0.6438494920730591,0.24647726118564606
1,5,128,19,0.5590541362762451,0.09820589423179626
1,5,128,20,0.5150385499000549,0.19352200627326965
1,5,128,21,0.8420273661613464,0.09095856547355652
1,5,128,22,0.7687128186225891,0.20717677474021912
1,5,128,23,0.7592047452926636,0.06704428791999817
1,5,128,24,0.7438610196113586,0.18456360697746277
1,5,128,25,0.7524076104164124,0.2063683569431305
1,5,128,26,0.5708547234535217,0.1822056770324707
1,5,128,27,0.7665485143661499,0.19807353615760803
1,5,128,28,0.6828367114067078,0.2287367284297943
1,5,128,29,0.45763614773750305,0.11206045746803284
1,5,128,30,0.5227795839309692,0.1938169300556183
1,5,128,31,0.7636477947235107,0.10719916969537735
1,5,128,32,0.6022348403930664,0.09605897217988968
1,5,128,33,0.430666983127594,0.2512575089931488
1,5,128,34,0.6957134008407593,0.2309393733739853
1,5,128,35,0.7620528340339661,0.09137716889381409
1,5,128,36,0.8257046341896057,0.07077769190073013
1,5,128,37,0.7546335458755493,0.086217001080513
1,5,128,38,0.8520489931106567,0.09197121858596802
1,5,128,39,0.5734140872955322,0.06997235864400864
1,5,128,40,0.6942359805107117,0.23023611307144165
1,5,128,41,0.6809081435203552,0.1998361051082611
1,5,128,42,0.5445001721382141,0.11407367885112762
1,5,128,43,0.5958464741706848,0.11554514616727829
1,5,128,44,0.871374785900116,0.09365817159414291
1,5,128,45,0.740534245967865,0.14804382622241974
1,5,128,46,0.7774916291236877,0.1697460561990738
1,5,128,47,0.6883541345596313,0.06191143020987511
1,5,128,48,0.756754457950592,0.1841314136981964
1,5,128,49,0.5822427272796631,0.08128222823143005
1,5,128,50,0.3715645968914032,0.1450197845697403
1,5,128,51,0.6913954615592957,0.24546723067760468
1,5,128,52,0.7175635695457458,0.24303819239139557
1,5,128,53,0.45360898971557617,0.11336410045623779
1,5,128,54,0.7893384695053101,0.1623295545578003
1,5,128,55,0.8172928690910339,0.10661537200212479
1,5,128,56,0.47246208786964417,0.28640878200531006
1,5,128,57,0.7602908611297607,0.14239917695522308
1,5,128,58,0.7634273767471313,0.11744483560323715
1,5,128,59,0.5412996411323547,0.13667665421962738
1,5,128,60,0.7612478137016296,0.09192455559968948
1,5,128,61,0.676304817199707,0.051704466342926025
1,5,128,62,0.653132975101471,0.213460311293602
1,5,128,63,0.7697560787200928,0.08358480036258698
1,5,128,64,0.7475278973579407,0.18615254759788513
1,5,128,65,0.8207797408103943,0.10472297668457031
1,5,128,66,0.7170614004135132,0.13296280801296234
1,5,128,67,0.7345885634422302,0.22433049976825714
1,5,128,68,0.6084529161453247,0.18252740800380707
1,5,128,69,0.8127024173736572,0.0759778767824173
1,5,128,70,0.6876251697540283,0.21861900389194489
1,5,128,71,0.8202176690101624,0.07709424942731857
1,5,128,72,0.8528256416320801,0.10368791967630386
1,5,128,73,0.32695215940475464,0.23327520489692688
1,5,128,74,0.7565051317214966,0.07639854401350021
1,5,128,75,0.8406187891960144,0.1415460705757141
1,5,128,76,0.5419962406158447,0.1350768655538559
1,5,128,77,0.6769722104072571,0.06280728429555893
1,5,128,78,0.7036560773849487,0.12446682900190353
1,5,128,79,0.6515475511550903,0.23740221560001373
1,5,128,80,0.6271202564239502,0.29802513122558594
1,5,128,81,0.4497816562652588,0.1310025155544281
1,5,128,82,0.7548457384109497,0.12390609830617905
1,5,128,83,0.7150678038597107,0.18304915726184845
1,5,128,84,0.8287205696105957,0.09187649190425873
1,5,128,85,0.5920090675354004,0.23077774047851562
1,5,128,86,0.3813282251358032,0.2979465126991272
1,5,128,87,0.6795696020126343,0.17811575531959534
1,5,128,88,0.7391350865364075,0.2180539220571518
1,5,128,89,0.646561861038208,0.08644205331802368
1,5,128,90,0.7924250960350037,0.14912015199661255
1,5,128,91,0.7211647629737854,0.21698109805583954
1,5,128,92,0.7379596829414368,0.15293532609939575
1,5,128,93,0.8715383410453796,0.0762186348438263
1,5,128,94,0.7340661883354187,0.12434567511081696
1,5,128,95,0.759583055973053,0.09217257797718048
1,5,128,96,0.7815282940864563,0.0815201997756958
1,5,128,97,0.7914273738861084,0.15103431046009064
1,5,128,98,0.734654426574707,0.16037245094776154
1,5,128,99,0.8307245373725891,0.10848259180784225
1,5,128,100,0.6644085645675659,0.25994813442230225
1,5,128,101,0.5956399440765381,0.19830322265625
1,5,128,102,0.69527268409729,0.1251329928636551
1,5,128,103,0.7868263721466064,0.2278200089931488
1,5,128,104,0.8081490993499756,0.08041202276945114
1,5,128,105,0.7661443948745728,0.17315983772277832
1,5,128,106,0.8262555599212646,0.1340070217847824
1,5,128,107,0.708714485168457,0.15796317160129547
1,5,128,108,0.8828532695770264,0.11367254704236984
1,5,128,109,0.5610210299491882,0.1657285839319229
1,5,128,110,0.8062822222709656,0.11594411730766296
1,5,128,111,0.8141044974327087,0.08248136192560196
1,5,128,112,0.6460100412368774,0.11105624586343765
1,5,128,113,0.5172852277755737,0.2832479774951935
1,5,128,114,0.8248346447944641,0.12926091253757477
1,5,128,115,0.7788671255111694,0.08152085542678833
1,5,128,116,0.7486398220062256,0.12765026092529297
1,5,128,117,0.8227572441101074,0.09324049949645996
1,5,128,118,0.8189480304718018,0.11118363589048386
1,5,128,119,0.836437463760376,0.06496983766555786
1,5,128,120,0.8889135122299194,0.06130443885922432
1,5,128,121,0.6678323745727539,0.2238948494195938
1,5,128,122,0.7458697557449341,0.18649066984653473
1,5,128,123,0.6944371461868286,0.14711827039718628
1,5,128,124,0.43007954955101013,0.22745397686958313
1,5,128,125,0.7957255244255066,0.11485173553228378
1,5,128,126,0.7737426161766052,0.1780574768781662
1,5,128,127,0.5813305377960205,0.13015209138393402
2,0,32,0,0.2933048605918884,0.08135838806629181
2,0,32,1,0.4561173915863037,0.05011795461177826
2,0,32,2,0.25895023345947266,0.08078280091285706
2,0,32,3,0.3121824264526367,0.07587487995624542
2,0,32,4,0.5583140850067139,0.08140605688095093
2,0,32,5,0.5394898653030396,0.03731052577495575
2,0,32,6,0.41330674290657043,0.09288208931684494
2,0,32,7,0.45801636576652527,0.035187963396310806
2,0,32,8,0.29922229051589966,0.06874263286590576
2,0,32,9,0.6053078770637512,0.0570884570479393
2,0,32,10,0.2808038890361786,0.06096280366182327
2,0,32,11,0.426588773727417,0.042353305965662
2,0,32,12,0.613191545009613,0.038216739892959595
2,0,32,13,0.5995336771011353,0.10616091638803482
2,0,32,14,0.2270011007785797,0.11770516633987427
2,0,32,15,0.39355596899986267,0.10543827712535858
2,0,32,16,0.33334633708000183,0.048481859266757965
2,0,32,17,0.43590280413627625,0.08582288771867752
2,0,32,18,0.44067248702049255,0.07639855891466141
2,0,32,19,0.7290604114532471,0.1116681769490242
2,0,32,20,0.4182494878768921,0.08852620422840118
2,0,32,21,0.464008629322052,0.03027755208313465
2,0,32,22,0.5973190665245056,0.09895646572113037
2,0,32,23,0.3701745867729187,0.08767156302928925
2,0,32,24,0.3543087840080261,0.1197114810347557
2,0,32,25,0.39694756269454956,0.06295418739318848
2,0,32,26,0.367044061422348,0.0754014179110527
2,0,32,27,0.535138726234436,0.05210447311401367
2,0,32,28,0.3737814426422119,0.09207309782505035
2,0,32,29,0.49111634492874146,0.10834019631147385
2,0,32,30,0.552640438079834,0.042634379118680954
2,0,32,31,0.3775574266910553,0.08445939421653748
2,1,32,0,0.3886796832084656,0.08509275317192078
2,1,32,1,0.36383944749832153,0.059729427099227905
2,1,32,2,0.6148539185523987,0.09242618083953857
2,1,32,3,0.5501002073287964,0.07010852545499802
2,1,32,4,0.5325080752372742,0.13010261952877045
2,1,32,5,0.6033972501754761,0.12373192608356476
2,1,32,6,0.5735642910003662,0.06370608508586884
2,1,32,7,0.498148649930954,0.10866592079401016
2,1,32,8,0.5087157487869263,0.035740792751312256
2,1,32,9,0.48442918062210083,0.10915527492761612
2,1,32,10,0.5198848247528076,0.12347383052110672
2,1,32,11,0.4973885715007782,0.07283420860767365
2,1,32,12,0.4407099485397339,0.07169780880212784
2,1,32,13,0.35761842131614685,0.06625533103942871
2,1,32,14,0.42477333545684814,0.07299769669771194
2,1,32,15,0.5289992690086365,0.07327567785978317
2,1,32,16,0.3646816313266754,0.07347246259450912
2,1,32,17,0.3607635796070099,0.07560233771800995
2,1,32,18,0.5869557857513428,0.07308769971132278
2,1,32,19,0.5194119811058044,0.10257264971733093
2,1,32,20,0.5108725428581238,0.14736048877239227
2,1,32,21,0.6126953363418579,0.04865269362926483
2,1,32,22,0.5981846451759338,0.12069593369960785
2,1,32,23,0.4362798035144806,0.0917825698852539
2,1,32,24,0.5010195374488831,0.14996635913848877
2,1,32,25,0.524762749671936,0.11563314497470856
2,1,32,26,0.4366568922996521,0.07034263014793396
2,1,32,27,0.4967050552368164,0.09482605010271072
2,1,32,28,0.5692325830459595,0.13199423253536224
2,1,32,29,0.36234402656555176,0.08402136713266373
2,1,32,30,0.3818371593952179,0.04443344473838806
2,1,32,31,0.3846995532512665,0.062167394906282425
2,2,64,0,0.44188374280929565,0.11951620876789093
2,2,64,1,0.5884626507759094,0.14361365139484406
2,2,64,2,0.5668706893920898,0.1031586304306984
2,2,64,3,0.6300607919692993,0.14219731092453003
2,2,64,4,0.5323958396911621,0.13818208873271942
2,2,64,5,0.3688543438911438,0.0993722677230835
2,2,64,6,0.5021180510520935,0.2091260403394699
2,2,64,7,0.533724844455719,0.19625382125377655
2,2,64,8,0.524796187877655,0.26665449142456055
2,2,64,9,0.33501145243644714,0.12706643342971802
2,2,64,10,0.5753943920135498,0.17882685363292694
2,2,64,11,0.720467209815979,0.11536741256713867
2,2,64,12,0.41403621435165405,0.11304393410682678
2,2,64,13,0.6128497123718262,0.08614880591630936
2,2,64,14,0.46572357416152954,0.09401658177375793
2,2,64,15,0.47701799869537354,0.25653889775276184
2,2,64,16,0.43455594778060913,0.20153851807117462
2,2,64,17,0.4247065782546997,0.1734965294599533
2,2,64,18,0.46355003118515015,0.22615903615951538
2,2,64,19,0.5560177564620972,0.12990933656692505
2,2,64,20,0.5032565593719482,0.27913162112236023
2,2,64,21,0.46836116909980774,0.1871635615825653
2,2,64,22,0.41758713126182556,0.15106181800365448
2,2,64,23,0.45050954818725586,0.2705900967121124
2,2,64,24,0.49547097086906433,0.11890639364719391
2,2,64,25,0.5421504974365234,0.09180086106061935
2,2,64,26,0.3773554861545563,0.16004253923892975
2,2,64,27,0.5623114109039307,0.06671833246946335
2,2,64,28,0.48169854283332825,0.17401397228240967
2,2,64,29,0.6383394598960876,0.11079683899879456
2,2,64,30,0.5425861477851868,0.246486634016037
2,2,64,31,0.5720897912979126,0.1921561062335968
2,2,64,32,0.4921262264251709,0.1027509793639183
2,2,64,33,0.3480704724788666,0.22157055139541626
2,2,64,34,0.6958475112915039,0.18398675322532654
2,2,64,35,0.5427813529968262,0.16049931943416595
2,2,64,36,0.5202050805091858,0.15745162963867188
2,2,64,37,0.4748658239841461,0.2950035035610199
2,2,64,38,0.5430172681808472,0.1122565045952797
2,2,64,39,0.5367606282234192,0.15573818981647491
2,2,64,40,0.36894670128822327,0.2271997630596161
2,2,64,41,0.3292745351791382,0.10949736833572388
2,2,64,42,0.3265594244003296,0.13909812271595
2,2,64,43,0.5916104912757874,0.07550844550132751
2,2,64,44,0.5068592429161072,0.24007515609264374
2,2,64,45,0.3976311981678009,0.24305830895900726
2,2,64,46,0.504657506942749,0.25817325711250305
2,2,64,47,0.4914008677005768,0.22454145550727844
2,2,64,48,0.4454379677772522,0.2599951922893524
2,2,64,49,0.3349931538105011,0.16526560485363007
2,2,64,50,0.5934560894966125,0.224953755736351
2,2,64,51,0.4056277275085449,0.16398601233959198
2,2,64,52,0.48678892850875854,0.09568985551595688
2,2,64,53,0.4575481712818146,0.17587973177433014
2,2,64,54,0.35760101675987244,0.1674191951751709
2,2,64,55,0.588555097579956,0.14501707255840302
2,2,64,56,0.4140453338623047,0.13946689665317535
2,2,64,57,0.5957428216934204,0.11612224578857422
2,2,64,58,0.5398393273353577,0.11326581984758377
2,2,64,59,0.6249525547027588,0.12193112820386887
2,2,64,60,0.550929069519043,0.19815482199192047
2,2,64,61,0.542470395565033,0.21921883523464203
2,2,64,62,0.5215097069740295,0.06485601514577866
2,2,64,63,0.5838767290115356,0.10197556018829346
2,3,64,0,0.5307559967041016,0.05405357480049133
2,3,64,1,0.46378645300865173,0.0946185290813446
2,3,64,2,0.5810344219207764,0.08844466507434845
2,3,64,3,0.6108314990997314,0.14512570202350616
2,3,64,4,0.3463600277900696,0.1362583488225937
2,3,64,5,0.559080183506012,0.04854535311460495
2,3,64,6,0.5929669141769409,0.08594513684511185
2,3,64,7,0.6209718585014343,0.09257778525352478
2,3,64,8,0.40249672532081604,0.11595914512872696
2,3,64,9,0.45305538177490234,0.10042906552553177
2,3,64,10,0.4924277663230896,0.11641503870487213
2,3,64,11,0.4673125147819519,0.1118914783000946
2,3,64,12,0.45485761761665344,0.09972111135721207
2,3,64,13,0.48814672231674194,0.08835407346487045
2,3,64,14,0.4574751853942871,0.07245995104312897
2,3,64,15,0.31103459000587463,0.13694477081298828
2,3,64,16,0.457569420337677,0.1038786917924881
2,3,64,17,0.6186686754226685,0.06368286162614822
2,3,64,18,0.4920450747013092,0.11080147325992584
2,3,64,19,0.5618241429328918,0.10562783479690552
2,3,64,20,0.5241000056266785,0.1480080932378769
2,3,64,21,0.5543873310089111,0.08834754675626755
2,3,64,22,0.3861071467399597,0.0893280953168869
2,3,64,23,0.4375591278076172,0.09984681755304337
2,3,64,24,0.4329708516597748,0.03327598795294762
2,3,64,25,0.5101461410522461,0.16577331721782684
2,3,64,26,0.38023433089256287,0.13275232911109924
2,3,64,27,0.5759686827659607,0.0886087417602539
2,3,64,28,0.5241026878356934,0.15313465893268585
2,3,64,29,0.4470103979110718,0.1398797631263733
2,3,64,30,0.5766162276268005,0.1465693861246109
2,3,64,31,0.5741588473320007,0.11932530254125595
2,3,64,32,0.4449954628944397,0.109793521463871
2,3,64,33,0.4139629900455475,0.2001653015613556
2,3,64,34,0.3189985454082489,0.1627747118473053
2,3,64,35,0.4166969358921051,0.03520417585968971
2,3,64,36,0.5126240253448486,0.11717917770147324
2,3,64,37,0.502013087272644,0.06269499659538269
2,3,64,38,0.3585193455219269,0.07519042491912842
2,3,64,39,0.4588835537433624,0.11993646621704102
2,3,64,40,0.5948706865310669,0.14391398429870605
2,3,64,41,0.5301116704940796,0.08905403316020966
2,3,64,42,0.3993171751499176,0.09383799135684967
2,3,64,43,0.5490180850028992,0.15148520469665527
2,3,64,44,0.47079113125801086,0.06556890159845352
2,3,64,45,0.5950745940208435,0.13452036678791046
2,3,64,46,0.46973568201065063,0.1241844967007637
2,3,64,47,0.4725286662578583,0.08725583553314209
2,3,64,48,0.5754340291023254,0.10948536545038223
2,3,64,49,0.5218544602394104,0.17446596920490265
2,3,64,50,0.5908530950546265,0.08982080221176147
2,3,64,51,0.5162396430969238,0.18831168115139008
2,3,64,52,0.5166409611701965,0.07146435976028442
2,3,64,53,0.4534894824028015,0.20738095045089722
2,3,64,54,0.3852325975894928,0.13689693808555603
2,3,64,55,0.4866870641708374,0.15739043056964874
2,3,64,56,0.6428543925285339,0.08471360057592392
2,3,64,57,0.5055558681488037,0.15940144658088684
2,3,64,58,0.5647467374801636,0.10207950323820114
2,3,64,59,0.4560631811618805,0.11322729289531708
2,3,64,60,0.4993652403354645,0.10124221444129944
2,3,64,61,0.5218566656112671,0.1923564225435257
2,3,64,62,0.4786352217197418,0.19363759458065033
2,3,64,63,0.5299860835075378,0.17910167574882507
2,4,128,0,0.7351633906364441,0.14351138472557068
2,4,128,1,0.6489360332489014,0.19966475665569305
2,4,128,2,0.4566780626773834,0.2758776843547821
2,4,128,3,0.7708927989006042,0.07879326492547989
2,4,128,4,0.6359023451805115,0.05794615298509598
2,4,128,5,0.5571369528770447,0.18806058168411255
2,4,128,6,0.46377354860305786,0.13469113409519196
2,4,128,7,0.5183435678482056,0.26909080147743225
2,4,128,8,0.627886950969696,0.079093798995018
2,4,128,9,0.5963347554206848,0.33344632387161255
2,4,128,10,0.3672989308834076,0.2269267737865448
2,4,128,11,0.5184239745140076,0.13916684687137604
2,4,128,12,0.6450789570808411,0.11336039751768112
2,4,128,13,0.4904794692993164,0.17327702045440674
2,4,128,14,0.6102830171585083,0.26394516229629517
2,4,128,15,0.37092870473861694,0.20357713103294373
2,4,128,16,0.6716067790985107,0.2760447561740875
2,4,128,17,0.6484559774398804,0.22993877530097961
2,4,128,18,0.6906925439834595,0.26112017035484314
2,4,128,19,0.6274212598800659,0.09703231602907181
2,4,128,20,0.4375259280204773,0.2734955847263336
2,4,128,21,0.6880053877830505,0.2638653516769409
2,4,128,22,0.37018701434135437,0.26188769936561584
2,4,128,23,0.6951761245727539,0.07629555463790894
2,4,128,24,0.7905257940292358,0.07567016035318375
2,4,128,25,0.6910037994384766,0.1925038844347
2,4,128,26,0.4998076856136322,0.22457890212535858
2,4,128,27,0.6979063153266907,0.11881310492753983
2,4,128,28,0.659506618976593,0.31880560517311096
2,4,128,29,0.7593756914138794,0.06410983949899673
2,4,128,30,0.6239137649536133,0.3390098512172699
2,4,128,31,0.5205503106117249,0.19081652164459229
2,4,128,32,0.6963217258453369,0.13559135794639587
2,4,128,33,0.6221575140953064,0.1963435411453247
2,4,128,34,0.6811720132827759,0.25922948122024536
2,4,128,35,0.5623793601989746,0.18449828028678894
2,4,128,36,0.650978684425354,0.11173342913389206
2,4,128,37,0.6026158332824707,0.058386802673339844
2,4,128,38,0.5794257521629333,0.28387629985809326
2,4,128,39,0.53658527135849,0.17908063530921936
2,4,128,40,0.3692707121372223,0.09083166718482971
2,4,128,41,0.7386765480041504,0.1805495172739029
2,4,128,42,0.4587327241897583,0.19570665061473846
2,4,128,43,0.7510240077972412,0.13077783584594727
2,4,128,44,0.6908904910087585,0.24074910581111908
2,4,128,45,0.3342269957065582,0.20105908811092377
2,4,128,46,0.6340783834457397,0.2170839011669159
2,4,128,47,0.3864821195602417,0.3105579912662506
2,4,128,48,0.5653517246246338,0.16548259556293488
2,4,128,49,0.6186497211456299,0.17794397473335266
2,4,128,50,0.4522688090801239,0.25392162799835205
2,4,128,51,0.5671785473823547,0.18882696330547333
2,4,128,52,0.6808990836143494,0.21250149607658386
2,4,128,53,0.4719464182853699,0.12365628778934479
2,4,128,54,0.45303240418434143,0.2727321982383728
2,4,128,55,0.27286025881767273,0.18515391647815704
2,4,128,56,0.6492308378219604,0.1013636365532875
2,4,128,57,0.7887083888053894,0.08365029096603394
2,4,128,58,0.6570906639099121,0.08134612441062927
2,4,128,59,0.7081589698791504,0.14466634392738342
2,4,128,60,0.6791431307792664,0.18192805349826813
2,4,128,61,0.5159137845039368,0.11222868412733078
2,4,128,62,0.7442103028297424,0.14364714920520782
2,4,128,63,0.6956298351287842,0.18525001406669617
2,4,128,64,0.6073528528213501,0.12232813984155655
2,4,128,65,0.53654545545578,0.0706028863787651
2,4,128,66,0.5281046628952026,0.20107613503932953
2,4,128,67,0.32314783334732056,0.06486625969409943
2,4,128,68,0.3832753896713257,0.12658901512622833
2,4,128,69,0.6656089425086975,0.33782026171684265
2,4,128,70,0.676034688949585,0.08477410674095154
2,4,128,71,0.5742677450180054,0.20775079727172852
2,4,128,72,0.6937519907951355,0.19981908798217773
2,4,128,73,0.655095100402832,0.10113832354545593
2,4,128,74,0.811201810836792,0.14546284079551697
2,4,128,75,0.38532736897468567,0.14686891436576843
2,4,128,76,0.6984870433807373,0.24733099341392517
2,4,128,77,0.6946689486503601,0.0889238491654396
2,4,128,78,0.5264762043952942,0.13653191924095154
2,4,128,79,0.6129273772239685,0.2702949047088623
2,4,128,80,0.46711963415145874,0.11536287516355515
2,4,128,81,0.4478870630264282,0.12876498699188232
2,4,128,82,0.3123757541179657,0.26711413264274597
2,4,128,83,0.6786763072013855,0.16776449978351593
2,4,128,84,0.3742402195930481,0.33063554763793945
2,4,128,85,0.6743928790092468,0.28558075428009033
2,4,128,86,0.6723058819770813,0.24654695391654968
2,4,128,87,0.4718504548072815,0.2528771460056305
2,4,128,88,0.4982210099697113,0.2678845524787903
2,4,128,89,0.694602906703949,0.0935094878077507
2,4,128,90,0.5894119143486023,0.2165856510400772
2,4,128,91,0.7335450053215027,0.10772497951984406
2,4,128,92,0.6083545088768005,0.10184482485055923
2,4,128,93,0.5542915463447571,0.11685594916343689
2,4,128,94,0.400229275226593,0.22991427779197693
2,4,128,95,0.6145744919776917,0.15364858508110046
2,4,128,96,0.4897598922252655,0.17018376290798187
2,4,128,97,0.5020929574966431,0.18421101570129395
2,4,128,98,0.374440461397171,0.13628792762756348
2,4,128,99,0.6331655383110046,0.21378710865974426
2,4,128,100,0.49721091985702515,0.2344219982624054
2,4,128,101,0.4341670870780945,0.31442323327064514
2,4,128,102,0.6565431356430054,0.3177739977836609
2,4,128,103,0.37164273858070374,0.1909867823123932
2,4,128,104,0.563258171081543,0.24172279238700867
2,4,128,105,0.49673667550086975,0.13366617262363434
2,4,128,106,0.6391246914863586,0.2812526524066925
2,4,128,107,0.7221941947937012,0.12124544382095337
2,4,128,108,0.6211003661155701,0.2260802686214447
2,4,128,109,0.6728178858757019,0.259547621011734
2,4,128,110,0.4454120993614197,0.17409487068653107
2,4,128,111,0.5870628952980042,0.1690460443496704
2,4,128,112,0.6506593227386475,0.12877634167671204
2,4,128,113,0.3319050967693329,0.16582295298576355
2,4,128,114,0.5518423914909363,0.26216140389442444
2,4,128,115,0.6243221163749695,0.2028890997171402
2,4,128,116,0.5990902781486511,0.22938670217990875
2,4,128,117,0.6473565697669983,0.10875879228115082
2,4,128,118,0.44956573843955994,0.16111858189105988
2,4,128,119,0.4071294367313385,0.1354142278432846
2,4,128,120,0.5867465138435364,0.31104183197021484
2,4,128,121,0.6660213470458984,0.13399870693683624
2,4,128,122,0.45923593640327454,0.09834626317024231
2,4,128,123,0.6016431450843811,0.14220836758613586
2,4,128,124,0.6810986399650574,0.3140835165977478
2,4,128,125,0.6587731838226318,0.15156623721122742
2,4,128,126,0.6663272976875305,0.047398388385772705
2,4,128,127,0.6524187326431274,0.07588144391775131
2,5,128,0,0.5653299689292908,0.2361723929643631
2,5,128,1,0.573573648929596,0.18380066752433777
2,5,128,2,0.48826533555984497,0.23963341116905212
2,5,128,3,0.7031958103179932,0.23806731402873993
2,5,128,4,0.7110635638237,0.11875028908252716
2,5,128,5,0.778935432434082,0.10111664980649948
2,5,128,6,0.4782796800136566,0.27942273020744324
2,5,128,7,0.8391388654708862,0.08404294401407242
2,5,128,8,0.7154996991157532,0.13643549382686615
2,5,128,9,0.730850338935852,0.1335165649652481
2,5,128,10,0.2077248990535736,0.07994586229324341
2,5,128,11,0.6601147651672363,0.18111209571361542
2,5,128,12,0.7649340033531189,0.1897474229335785
2,5,128,13,0.6592355370521545,0.2512672543525696
2,5,128,14,0.7547551393508911,0.09142229706048965
2,5,128,15,0.5298835635185242,0.3044511675834656
2,5,128,16,0.766875684261322,0.18618334829807281
2,5,128,17,0.8344255685806274,0.1343367099761963
2,5,128,18,0.8788369297981262,0.08265438675880432
2,5,128,19,0.43143102526664734,0.23199041187763214
2,5,128,20,0.8474933505058289,0.08266555517911911
2,5,128,21,0.8485157489776611,0.10137099772691727
2,5,128,22,0.5951973795890808,0.06488250941038132
2,5,128,23,0.8394162058830261,0.12521874904632568
2,5,128,24,0.4993175268173218,0.19982187449932098
2,5,128,25,0.7209356427192688,0.2861268222332001
2,5,128,26,0.5425286293029785,0.14365024864673615
2,5,128,27,0.760390043258667,0.1372397094964981
2,5,128,28,0.7737727165222168,0.11455762386322021
2,5,128,29,0.8487511873245239,0.09243492782115936
2,5,128,30,0.8213375210762024,0.14637675881385803
2,5,128,31,0.509169340133667,0.10219132900238037
2,5,128,32,0.7932380437850952,0.07408887147903442
2,5,128,33,0.7927076816558838,0.08980782330036163
2,5,128,34,0.42463383078575134,0.24053117632865906
2,5,128,35,0.4479758143424988,0.2852475345134735
2,5,128,36,0.7423549294471741,0.17986910045146942
2,5,128,37,0.7093777656555176,0.12705403566360474
2,5,128,38,0.83086758852005,0.07057701796293259
2,5,128,39,0.569980800151825,0.2873893082141876
2,5,128,40,0.7578569650650024,0.17727600038051605
2,5,128,41,0.6522969603538513,0.3386227786540985
2,5,128,42,0.4928014874458313,0.17659051716327667
2,5,128,43,0.8021395206451416,0.16939732432365417
2,5,128,44,0.7027976512908936,0.08129889518022537
2,5,128,45,0.38442814350128174,0.14160238206386566
2,5,128,46,0.8359209895133972,0.06982523202896118
2,5,128,47,0.564706027507782,0.18837645649909973
2,5,128,48,0.7893683910369873,0.21785221993923187
2,5,128,49,0.8062362670898438,0.140666663646698
2,5,128,50,0.5234208703041077,0.11254028230905533
2,5,128,51,0.7637575268745422,0.15705765783786774
2,5,128,52,0.6571119427680969,0.1116044744849205
2,5,128,53,0.3844592571258545,0.3203601539134979
2,5,128,54,0.6802197098731995,0.2710946500301361
2,5,128,55,0.7377751469612122,0.2098499983549118
2,5,128,56,0.4806590676307678,0.11113515496253967
2,5,128,57,0.8366076946258545,0.11452697962522507
2,5,128,58,0.5119486451148987,0.20083564519882202
2,5,128,59,0.6654183268547058,0.3227291405200958
2,5,128,60,0.8845322728157043,0.06623051315546036
2,5,128,61,0.7941724061965942,0.17581826448440552
2,5,128,62,0.6757481694221497,0.08048073202371597
2,5,128,63,0.6801168322563171,0.21291399002075195
2,5,128,64,0.6899279952049255,0.12424596399068832
2,5,128,65,0.7222315669059753,0.2156725823879242
2,5,128,66,0.8425806164741516,0.1144811287522316
2,5,128,67,0.7352843880653381,0.1806296408176422
2,5,128,68,0.7460760474205017,0.22450217604637146
2,5,128,69,0.8732349276542664,0.09386079013347626
2,5,128,70,0.7726009488105774,0.1808561086654663
2,5,128,71,0.81637042760849,0.1303437352180481
2,5,128,72,0.7592570185661316,0.19878588616847992
2,5,128,73,0.5060157179832458,0.19452643394470215
2,5,128,74,0.6644874811172485,0.11943211406469345
2,5,128,75,0.714479386806488,0.243917778134346
2,5,128,76,0.8573706746101379,0.07213094085454941
2,5,128,77,0.7040340900421143,0.1963111162185669
2,5,128,78,0.7893997430801392,0.1367996484041214
2,5,128,79,0.7471562623977661,0.13167011737823486
2,5,128,80,0.7730405926704407,0.1536320149898529
2,5,128,81,0.8686295747756958,0.07343083620071411
2,5,128,82,0.6550101041793823,0.11398468911647797
2,5,128,83,0.8586994409561157,0.08860017359256744
2,5,128,84,0.6207680702209473,0.13510873913764954
2,5,128,85,0.7519730925559998,0.2367086559534073
2,5,128,86,0.8257045149803162,0.1246008574962616
2,5,128,87,0.8564010858535767,0.08842097967863083
2,5,128,88,0.7909671068191528,0.1213422417640686
2,5,128,89,0.6031501889228821,0.23162023723125458
2,5,128,90,0.7991695404052734,0.1583552360534668
2,5,128,91,0.7682809233665466,0.18955650925636292
2,5,128,92,0.8504849672317505,0.141073077917099
2,5,128,93,0.6016787886619568,0.15942081809043884
2,5,128,94,0.6801211833953857,0.29393938183784485
2,5,128,95,0.7785190343856812,0.1531732678413391
2,5,128,96,0.5118004679679871,0.10290525108575821
2,5,128,97,0.5265203714370728,0.264737606048584
2,5,128,98,0.6510366201400757,0.13003632426261902
2,5,128,99,0.7941446900367737,0.10843411833047867
2,5,128,100,0.7258464097976685,0.1753043830394745
2,5,128,101,0.8569847941398621,0.06975147128105164
2,5,128,102,0.622912585735321,0.3457927107810974
2,5,128,103,0.5467112064361572,0.2631939649581909
2,5,128,104,0.696504533290863,0.1462116837501526
2,5,128,105,0.5351315140724182,0.13782788813114166
2,5,128,106,0.8581097722053528,0.11064265668392181
2,5,128,107,0.7264057993888855,0.19461697340011597
2,5,128,108,0.7676986455917358,0.19475388526916504
2,5,128,109,0.785375714302063,0.127885103225708
2,5,128,110,0.7911129593849182,0.10724474489688873
2,5,128,111,0.7893969416618347,0.14122126996517181
2,5,128,112,0.777043342590332,0.1219068169593811
2,5,128,113,0.3683011531829834,0.15975064039230347
2,5,128,114,0.6082246899604797,0.3835710883140564
2,5,128,115,0.7279697060585022,0.1758364886045456
2,5,128,116,0.542387068271637,0.29221194982528687
2,5,128,117,0.8227389454841614,0.14600911736488342
2,5,128,118,0.7842273116111755,0.16023066639900208
2,5,128,119,0.7936924695968628,0.10691939294338226
2,5,128,120,0.6357576251029968,0.32294920086860657
2,5,128,121,0.5738837718963623,0.26834970712661743
2,5,128,122,0.7994206547737122,0.08602911978960037
2,5,128,123,0.7577120065689087,0.1883646547794342
2,5,128,124,0.5047006011009216,0.03783508017659187
2,5,128,125,0.6987650990486145,0.24397218227386475
2,5,128,126,0.8380743265151978,0.06931304931640625
2,5,128,127,0.5981437563896179,0.2220042496919632
3,0,32,0,0.4437243938446045,0.07409380376338959
3,0,32,1,0.3655816614627838,0.08745205402374268
3,0,32,2,0.4340975880622864,0.055082064121961594
3,0,32,3,0.4737265110015869,0.10018729418516159
3,0,32,4,0.4881629943847656,0.08980429172515869
3,0,32,5,0.299108624458313,0.05204237625002861
3,0,32,6,0.6446200013160706,0.05178530886769295
3,0,32,7,0.4801141023635864,0.11130384355783463
3,0,32,8,0.3407236635684967,0.10108835250139236
3,0,32,9,0.5278414487838745,0.10191028565168381
3,0,32,10,0.5592391490936279,0.03625929355621338
3,0,32,11,0.49699288606643677,0.1284817010164261
3,0,32,12,0.5515655279159546,0.072927325963974
3,0,32,13,0.37481051683425903,0.08827018737792969
3,0,32,14,0.49041748046875,0.06904447078704834
3,0,32,15,0.4444628357887268,0.03376384824514389
3,0,32,16,0.6493712067604065,0.03891531005501747
3,0,32,17,0.3770614266395569,0.034199003130197525
3,0,32,18,0.4742376208305359,0.07438751310110092
3,0,32,19,0.3370402753353119,0.08245979994535446
3,0,32,20,0.37903422117233276,0.020708320662379265
3,0,32,21,0.31479349732398987,0.052973728626966476
3,0,32,22,0.5922316908836365,0.12073712050914764
3,0,32,23,0.5666162967681885,0.1343916952610016
3,0,32,24,0.5519906282424927,0.13038651645183563
3,0,32,25,0.44318458437919617,0.10738049447536469
3,0,32,26,0.41405683755874634,0.11083658784627914
3,0,32,27,0.6011972427368164,0.06395287066698074
3,0,32,28,0.35612788796424866,0.09215059131383896
3,0,32,29,0.31907084584236145,0.10309363156557083
3,0,32,30,0.567689836025238,0.09799199551343918
3,0,32,31,0.42605695128440857,0.1406642645597458
3,1,32,0,0.4465664327144623,0.0878865048289299
3,1,32,1,0.4552778899669647,0.1285635530948639
3,1,32,2,0.3659532070159912,0.09937025606632233
3,1,32,3,0.42049872875213623,0.12442007660865784
3,1,32,4,0.48922914266586304,0.06869019567966461
3,1,32,5,0.31972426176071167,0.12908633053302765
3,1,32,6,0.5805535912513733,0.020925264805555344
3,1,32,7,0.3596617877483368,0.06286406517028809
3,1,32,8,0.5698543190956116,0.14025500416755676
3,1,32,9,0.4618348479270935,0.10433704406023026
3,1,32,10,0.5125489234924316,0.04098767787218094
3,1,32,11,0.40041303634643555,0.06871779263019562
3,1,32,12,0.562131404876709,0.05411531403660774
3,1,32,13,0.4846981465816498,0.024485597386956215
3,1,32,14,0.4240967929363251,0.07599044591188431
3,1,32,15,0.5105025172233582,0.08582738786935806
3,1,32,16,0.3652621805667877,0.1281803995370865
3,1,32,17,0.5263727903366089,0.08545029163360596
3,1,32,18,0.41085562109947205,0.0698254406452179
3,1,32,19,0.40327882766723633,0.07886631786823273
3,1,32,20,0.6640278697013855,0.1230909451842308
3,1,32,21,0.5385225415229797,0.03051922097802162
3,1,32,22,0.4959889352321625,0.11497008800506592
3,1,32,23,0.4684654176235199,0.14232461154460907
3,1,32,24,0.5090519785881042,0.13102349638938904
3,1,32,25,0.39677101373672485,0.05750509724020958
3,1,32,26,0.5619082450866699,0.10384855419397354
3,1,32,27,0.6091593503952026,0.14594116806983948
3,1,32,28,0.4827516973018646,0.09220446646213531
3,1,32,29,0.49927622079849243,0.0827348530292511
3,1,32,30,0.4721815288066864,0.06445694714784622
3,1,32,31,0.37674856185913086,0.07519789785146713
3,2,64,0,0.49888938665390015,0.2959398627281189
3,2,64,1,0.5307986736297607,0.08816980570554733
3,2,64,2,0.4905437231063843,0.06628958880901337
3,2,64,3,0.49227726459503174,0.19156773388385773
3,2,64,4,0.4919019639492035,0.2069680094718933
3,2,64,5,0.6280970573425293,0.22029970586299896
3,2,64,6,0.49915438890457153,0.1468610167503357
3,2,64,7,0.5624570846557617,0.26743602752685547
3,2,64,8,0.4209517538547516,0.1168007031083107
3,2,64,9,0.53021639585495,0.20378345251083374
3,2,64,10,0.3265054225921631,0.15798163414001465
3,2,64,11,0.39787471294403076,0.14606375992298126
3,2,64,12,0.424254447221756,0.23620080947875977
3,2,64,13,0.629461944103241,0.16472870111465454
3,2,64,14,0.5452440977096558,0.1640150398015976
3,2,64,15,0.5614362955093384,0.20418326556682587
3,2,64,16,0.3886861205101013,0.21607938408851624
3,2,64,17,0.5551251769065857,0.23596717417240143
3,2,64,18,0.3293541669845581,0.09241635352373123
3,2,64,19,0.5154435634613037,0.0891088992357254
3,2,64,20,0.3772484362125397,0.19910457730293274
3,2,64,21,0.38256996870040894,0.1374814510345459
3,2,64,22,0.515828549861908,0.1483105570077896
3,2,64,23,0.3999811112880707,0.1659822314977646
3,2,64,24,0.491422563791275,0.132661834359169
3,2,64,25,0.49751588702201843,0.1419747769832611
3,2,64,26,0.40482521057128906,0.18617384135723114
3,2,64,27,0.583411455154419,0.17448608577251434
3,2,64,28,0.46069663763046265,0.17648476362228394
3,2,64,29,0.4146571755409241,0.24729716777801514
3,2,64,30,0.43897897005081177,0.15578556060791016
3,2,64,31,0.5066046118736267,0.2233114093542099
3,2,64,32,0.4539005756378174,0.1856776773929596
3,2,64,33,0.6490034461021423,0.1648380309343338
3,2,64,34,0.5395637154579163,0.13666385412216187
3,2,64,35,0.3306727707386017,0.14580661058425903
3,2,64,36,0.44098907709121704,0.08149994164705276
3,2,64,37,0.5672706961631775,0.16763177514076233
3,2,64,38,0.5666415095329285,0.1381131410598755
3,2,64,39,0.5280416011810303,0.07872138917446136
3,2,64,40,0.4041951894760132,0.16506285965442657
3,2,64,41,0.5867255330085754,0.14346541464328766
3,2,64,42,0.48636916279792786,0.15285082161426544
3,2,64,43,0.44848576188087463,0.17995385825634003
3,2,64,44,0.331405907869339,0.1792575716972351
3,2,64,45,0.6028812527656555,0.06266823410987854
3,2,64,46,0.41895022988319397,0.26538628339767456
3,2,64,47,0.5887656211853027,0.14925110340118408
3,2,64,48,0.4748058319091797,0.13868999481201172
3,2,64,49,0.5896816253662109,0.2225247323513031
3,2,64,50,0.3742978870868683,0.13990312814712524
3,2,64,51,0.36046716570854187,0.05282045900821686
3,2,64,52,0.6243559718132019,0.12755520641803741
3,2,64,53,0.37130263447761536,0.12892450392246246
3,2,64,54,0.46609070897102356,0.14154429733753204
3,2,64,55,0.4353371560573578,0.12828244268894196
3,2,64,56,0.4474240839481354,0.12513823807239532
3,2,64,57,0.46202144026756287,0.1784055531024933
3,2,64,58,0.5680385231971741,0.1910923570394516
3,2,64,59,0.3362378776073456,0.1625545173883438
3,2,64,60,0.5279383063316345,0.25695720314979553
3,2,64,61,0.6034652590751648,0.1007843017578125
3,2,64,62,0.4006477892398834,0.13679631054401398
3,2,64,63,0.5145977735519409,0.16588963568210602
3,3,64,0,0.4502272605895996,0.20027358829975128
3,3,64,1,0.5582615733146667,0.07322197407484055
3,3,64,2,0.4516812264919281,0.04803362488746643
3,3,64,3,0.379625529050827,0.13541865348815918
3,3,64,4,0.6232555508613586,0.058710597455501556
3,3,64,5,0.5284526348114014,0.08262524753808975
3,3,64,6,0.34193697571754456,0.13079561293125153
3,3,64,7,0.48611271381378174,0.27721846103668213
3,3,64,8,0.4038446545600891,0.12978708744049072
3,3,64,9,0.49009206891059875,0.15747292339801788
3,3,64,10,0.29801374673843384,0.11006004363298416
3,3,64,11,0.5553048253059387,0.16343583166599274
3,3,64,12,0.4568023681640625,0.12978899478912354
3,3,64,13,0.46572762727737427,0.06097141280770302
3,3,64,14,0.5050450563430786,0.20505662262439728
3,3,64,15,0.30648931860923767,0.08115534484386444
3,3,64,16,0.5200979709625244,0.12123103439807892
3,3,64,17,0.2830445170402527,0.1224837526679039
3,3,64,18,0.4630732238292694,0.11058107763528824
3,3,64,19,0.4606184959411621,0.2046419084072113
3,3,64,20,0.38465291261672974,0.16225774586200714
3,3,64,21,0.5861205458641052,0.1103723868727684
3,3,64,22,0.45049941539764404,0.09661488234996796
3,3,64,23,0.4260996878147125,0.17788450419902802
3,3,64,24,0.48915597796440125,0.19433929026126862
3,3,64,25,0.5493345856666565,0.1431017518043518
3,3,64,26,0.35689008235931396,0.13314658403396606
3,3,64,27,0.5150567293167114,0.07925575226545334
3,3,64,28,0.3790735900402069,0.12466729432344437
3,3,64,29,0.4502159059047699,0.07170887291431427
3,3,64,30,0.5403276681900024,0.10441094636917114
3,3,64,31,0.46638360619544983,0.12268330901861191
3,3,64,32,0.5277614593505859,0.20008419454097748
3,3,64,33,0.5037354230880737,0.10038693994283676
3,3,64,34,0.48381808400154114,0.1212305873632431
3,3,64,35,0.5662969350814819,0.13052792847156525
3,3,64,36,0.3994165360927582,0.1612410843372345
3,3,64,37,0.5805237293243408,0.15604974329471588
3,3,64,38,0.4039247930049896,0.1155032366514206
3,3,64,39,0.45163121819496155,0.08562357723712921
3,3,64,40,0.4481361508369446,0.07999242842197418
3,3,64,41,0.5034635663032532,0.1836070865392685
3,3,64,42,0.4903768002986908,0.13726645708084106
3,3,64,43,0.6421566009521484,0.11942771822214127
3,3,64,44,0.4934982657432556,0.24044373631477356
3,3,64,45,0.4917745888233185,0.06214239075779915
3,3,64,46,0.34843069314956665,0.09320451319217682
3,3,64,47,0.6340397000312805,0.06898816674947739
3,3,64,48,0.49603378772735596,0.18228748440742493
3,3,64,49,0.6278330683708191,0.10449542105197906
3,3,64,50,0.5764569640159607,0.1366054266691208
3,3,64,51,0.49610432982444763,0.2196555733680725
3,3,64,52,0.5374341011047363,0.14495083689689636
3,3,64,53,0.34649941325187683,0.09102733433246613
3,3,64,54,0.5221613645553589,0.1885240077972412
3,3,64,55,0.49509739875793457,0.2676282823085785
3,3,64,56,0.4440547525882721,0.19125904142856598
3,3,64,57,0.46291616559028625,0.1550244241952896
3,3,64,58,0.6407318115234375,0.10761392116546631
3,3,64,59,0.3729356825351715,0.13187217712402344
3,3,64,60,0.4488198757171631,0.11125187575817108
3,3,64,61,0.46975716948509216,0.13688933849334717
3,3,64,62,0.5149291157722473,0.16527053713798523
3,3,64,63,0.5721202492713928,0.128623828291893
3,4,128,0,0.7310336232185364,0.30341342091560364
3,4,128,1,0.7035892009735107,0.22065573930740356
3,4,128,2,0.6255678534507751,0.1642073392868042
3,4,128,3,0.4708671271800995,0.18488043546676636
3,4,128,4,0.7521543502807617,0.10063856095075607
3,4,128,5,0.6522798538208008,0.2910158932209015
3,4,128,6,0.7176988124847412,0.17882631719112396
3,4,128,7,0.7470545768737793,0.13527268171310425
3,4,128,8,0.6454270482063293,0.3983129858970642
3,4,128,9,0.3203083872795105,0.18424512445926666
3,4,128,10,0.3874858021736145,0.2741435170173645
3,4,128,11,0.7079895734786987,0.0936870127916336
3,4,128,12,0.6246370077133179,0.07547124475240707
3,4,128,13,0.6714047789573669,0.23882834613323212
3,4,128,14,0.5212111473083496,0.21737568080425262
3,4,128,15,0.6305714845657349,0.2868739068508148
3,4,128,16,0.49353766441345215,0.20704109966754913
3,4,128,17,0.3455401062965393,0.1913885921239853
3,4,128,18,0.4640071988105774,0.28630828857421875
3,4,128,19,0.6390111446380615,0.31045666337013245
3,4,128,20,0.7255376577377319,0.13174960017204285
3,4,128,21,0.8109411597251892,0.06901764869689941
3,4,128,22,0.623796820640564,0.20286379754543304
3,4,128,23,0.492112398147583,0.15614664554595947
3,4,128,24,0.36051806807518005,0.2812558710575104
3,4,128,25,0.768798291683197,0.09552621096372604
3,4,128,26,0.7202364206314087,0.1817781925201416
3,4,128,27,0.25339704751968384,0.2585919499397278
3,4,128,28,0.6934640407562256,0.22164635360240936
3,4,128,29,0.35988324880599976,0.30731967091560364
3,4,128,30,0.6325825452804565,0.22144973278045654
3,4,128,31,0.5092995166778564,0.18774867057800293
3,4,128,32,0.5723434686660767,0.18206322193145752
3,4,128,33,0.5133421421051025,0.12036911398172379
3,4,128,34,0.6861348748207092,0.3043195903301239
3,4,128,35,0.8224373459815979,0.13655966520309448
3,4,128,36,0.7279397249221802,0.20750951766967773
3,4,128,37,0.44705265760421753,0.392179399728775
3,4,128,38,0.6661635041236877,0.2068053036928177
3,4,128,39,0.7228868007659912,0.17732001841068268
3,4,128,40,0.4582250714302063,0.3018600344657898
3,4,128,41,0.7761669754981995,0.11762396991252899
3,4,128,42,0.4016622304916382,0.2958143949508667
3,4,128,43,0.6590367555618286,0.23593133687973022
3,4,128,44,0.3151504099369049,0.3130170404911041
3,4,128,45,0.6817114353179932,0.28690600395202637
3,4,128,46,0.6385669708251953,0.41864702105522156
3,4,128,47,0.4494244158267975,0.309050589799881
3,4,128,48,0.6381437182426453,0.4156503975391388
3,4,128,49,0.5981780886650085,0.23895500600337982
3,4,128,50,0.4897940754890442,0.09865380823612213
3,4,128,51,0.7141063809394836,0.11630982905626297
3,4,128,52,0.4114081859588623,0.3667195737361908
3,4,128,53,0.4070126712322235,0.25675296783447266
3,4,128,54,0.3483092784881592,0.30369842052459717
3,4,128,55,0.4045727849006653,0.3841783106327057
3,4,128,56,0.37587180733680725,0.2986460030078888
3,4,128,57,0.47045600414276123,0.10257228463888168
3,4,128,58,0.426388680934906,0.16569669544696808
3,4,128,59,0.7497057318687439,0.1635453850030899
3,4,128,60,0.6102445721626282,0.1263119876384735
3,4,128,61,0.5087594985961914,0.1878153532743454
3,4,128,62,0.5652822852134705,0.06529161334037781
3,4,128,63,0.29359719157218933,0.24791480600833893
3,4,128,64,0.6425091624259949,0.22671431303024292
3,4,128,65,0.3003568649291992,0.23115326464176178
3,4,128,66,0.6739168763160706,0.11806748807430267
3,4,128,67,0.487805038690567,0.19135063886642456
3,4,128,68,0.39382120966911316,0.21346259117126465
3,4,128,69,0.718795657157898,0.148105189204216
3,4,128,70,0.6082914471626282,0.28490346670150757
3,4,128,71,0.7047892808914185,0.2029574066400528
3,4,128,72,0.5642884969711304,0.23431262373924255
3,4,128,73,0.7714009284973145,0.10857336968183517
3,4,128,74,0.7926296591758728,0.09178505092859268
3,4,128,75,0.7294951677322388,0.19110624492168427
3,4,128,76,0.7394062280654907,0.07495594024658203
3,4,128,77,0.6447623372077942,0.3687468469142914
3,4,128,78,0.6282135248184204,0.30165746808052063
3,4,128,79,0.6713690757751465,0.20042841136455536
3,4,128,80,0.4988810122013092,0.13681887090206146
3,4,128,81,0.669333279132843,0.33756667375564575
3,4,128,82,0.6732406616210938,0.19492566585540771
3,4,128,83,0.5918499231338501,0.21863047778606415
3,4,128,84,0.6664348840713501,0.17240148782730103
3,4,128,85,0.40759143233299255,0.2676469087600708
3,4,128,86,0.7266814112663269,0.15556564927101135
3,4,128,87,0.8640984296798706,0.09667541831731796
3,4,128,88,0.5841721296310425,0.2818892300128937
3,4,128,89,0.3377738893032074,0.2746184468269348
3,4,128,90,0.6065050363540649,0.18435809016227722
3,4,128,91,0.4337920546531677,0.22952915728092194
3,4,128,92,0.4282185137271881,0.40102502703666687
3,4,128,93,0.6895595192909241,0.3143625855445862
3,4,128,94,0.5945274829864502,0.06365460902452469
3,4,128,95,0.4678891897201538,0.21419401466846466
3,4,128,96,0.27394911646842957,0.18775716423988342
3,4,128,97,0.5358379483222961,0.13987882435321808
3,4,128,98,0.627051055431366,0.08397828787565231
3,4,128,99,0.38989099860191345,0.2696998417377472
3,4,128,100,0.6076802015304565,0.1188000738620758
3,4,128,101,0.4499463438987732,0.35893070697784424
3,4,128,102,0.6073230504989624,0.17970208823680878
3,4,128,103,0.7777257561683655,0.07029108703136444
3,4,128,104,0.7114911079406738,0.19551299512386322
3,4,128,105,0.5907496213912964,0.12639504671096802
3,4,128,106,0.6769980788230896,0.25623592734336853
3,4,128,107,0.6846330761909485,0.11330258846282959
3,4,128,108,0.5157885551452637,0.17895914614200592
3,4,128,109,0.7479737401008606,0.26131075620651245
3,4,128,110,0.776238739490509,0.14991438388824463
3,4,128,111,0.3084845542907715,0.27508285641670227
3,4,128,112,0.6134269833564758,0.32960575819015503
3,4,128,113,0.6656492948532104,0.24975387752056122
3,4,128,114,0.6191325783729553,0.2074631005525589
3,4,128,115,0.6029377579689026,0.18662844598293304
3,4,128,116,0.3371081054210663,0.2590014934539795
3,4,128,117,0.44852352142333984,0.2706422805786133
3,4,128,118,0.6841302514076233,0.2000216394662857
3,4,128,119,0.7378180623054504,0.18983399868011475
3,4,128,120,0.6978511214256287,0.18770889937877655
3,4,128,121,0.3910764455795288,0.15284469723701477
3,4,128,122,0.411361962556839,0.18212875723838806
3,4,128,123,0.3211093544960022,0.11327489465475082
3,4,128,124,0.7126864790916443,0.10111837834119797
3,4,128,125,0.4434129595756531,0.2315794825553894
3,4,128,126,0.4885958135128021,0.06126704066991806
3,4,128,127,0.6489527225494385,0.3185727000236511
3,5,128,0,0.5132016539573669,0.24247592687606812
3,5,128,1,0.5907183885574341,0.12556661665439606
3,5,128,2,0.6762167811393738,0.22861000895500183
3,5,128,3,0.6291921138763428,0.14454394578933716
3,5,128,4,0.4421156644821167,0.18737293779850006
3,5,128,5,0.8220105767250061,0.14619924128055573
3,5,128,6,0.5817492604255676,0.18056653439998627
3,5,128,7,0.5601091384887695,0.17988093197345734
3,5,128,8,0.8103724122047424,0.15549275279045105
3,5,128,9,0.4855121672153473,0.231748566031456
3,5,128,10,0.26588794589042664,0.2279019057750702
3,5,128,11,0.7845669984817505,0.08844656497240067
3,5,128,12,0.5535978078842163,0.24058720469474792
3,5,128,13,0.8559110164642334,0.145958811044693
3,5,128,14,0.7394684553146362,0.15594692528247833
3,5,128,15,0.7981715798377991,0.08555411547422409
3,5,128,16,0.8314847350120544,0.14546789228916168
3,5,128,17,0.3020324409008026,0.3003101050853729
3,5,128,18,0.6213040351867676,0.15139371156692505
3,5,128,19,0.7898461222648621,0.12347716093063354
3,5,128,20,0.5438312888145447,0.14017698168754578
3,5,128,21,0.7834118604660034,0.1946343332529068
3,5,128,22,0.7725423574447632,0.13341788947582245
3,5,128,23,0.7061970233917236,0.17804785072803497
3,5,128,24,0.5723890066146851,0.15218479931354523
3,5,128,25,0.6826478838920593,0.11455295234918594
3,5,128,26,0.6813538670539856,0.1291642189025879
3,5,128,27,0.627177357673645,0.06130717694759369
3,5,128,28,0.4895709455013275,0.20381566882133484
3,5,128,29,0.6717817783355713,0.22736284136772156
3,5,128,30,0.7990959286689758,0.1552472859621048
3,5,128,31,0.5642658472061157,0.16775642335414886
3,5,128,32,0.6942736506462097,0.16197843849658966
3,5,128,33,0.390559583902359,0.28939616680145264
3,5,128,34,0.7586294412612915,0.2513708174228668
3,5,128,35,0.7798065543174744,0.08475310355424881
3,5,128,36,0.8777457475662231,0.06393121182918549
3,5,128,37,0.45373621582984924,0.2707597315311432
3,5,128,38,0.6594656705856323,0.17271985113620758
3,5,128,39,0.8640933036804199,0.0802784189581871
3,5,128,40,0.7046679258346558,0.14893928170204163
3,5,128,41,0.7960122227668762,0.1564633846282959
3,5,128,42,0.4512183666229248,0.1911648064851761
3,5,128,43,0.7014232873916626,0.22957204282283783
3,5,128,44,0.45493292808532715,0.11364001035690308
3,5,128,45,0.8208423256874084,0.13614852726459503
3,5,128,46,0.783737301826477,0.08304809778928757
3,5,128,47,0.8738682866096497,0.07275783270597458
3,5,128,48,0.8263975977897644,0.08398418873548508
3,5,128,49,0.6231595873832703,0.15244047343730927
3,5,128,50,0.8806889057159424,0.08301451057195663
3,5,128,51,0.49086397886276245,0.17178136110305786
3,5,128,52,0.5450305342674255,0.18004769086837769
3,5,128,53,0.5476638674736023,0.12377304583787918
3,5,128,54,0.4800718128681183,0.14112310111522675
3,5,128,55,0.7027446627616882,0.09727853536605835
3,5,128,56,0.831606388092041,0.07840932905673981
3,5,128,57,0.5964803695678711,0.13029801845550537
3,5,128,58,0.7206683158874512,0.132274329662323
3,5,128,59,0.7965905666351318,0.16656328737735748
3,5,128,60,0.658709704875946,0.1176941990852356
3,5,128,61,0.7280782461166382,0.14390815794467926
3,5,128,62,0.7638699412345886,0.13316090404987335
3,5,128,63,0.31278032064437866,0.16090664267539978
3,5,128,64,0.6934282183647156,0.1255301684141159
3,5,128,65,0.45561665296554565,0.12856481969356537
3,5,128,66,0.674344539642334,0.17800778150558472
3,5,128,67,0.7411371469497681,0.19652964174747467
3,5,128,68,0.3845222592353821,0.18930883705615997
3,5,128,69,0.8392520546913147,0.08370453119277954
3,5,128,70,0.6861264109611511,0.21845029294490814
3,5,128,71,0.3857318162918091,0.20251065492630005
3,5,128,72,0.8463770747184753,0.09653092920780182
3,5,128,73,0.5111636519432068,0.15862639248371124
3,5,128,74,0.5651165246963501,0.17481333017349243
3,5,128,75,0.8176354765892029,0.1004139855504036
3,5,128,76,0.42496350407600403,0.1897856593132019
3,5,128,77,0.8154831528663635,0.09541631489992142
3,5,128,78,0.7593981623649597,0.23633213341236115
3,5,128,79,0.7315894365310669,0.2622721791267395
3,5,128,80,0.7580502033233643,0.1275612711906433
3,5,128,81,0.5178072452545166,0.2000732421875
3,5,128,82,0.46055367588996887,0.35727450251579285
3,5,128,83,0.822498619556427,0.12529447674751282
3,5,128,84,0.8514453768730164,0.09609197825193405
3,5,128,85,0.7912867665290833,0.13026195764541626
3,5,128,86,0.6407400369644165,0.24568167328834534
3,5,128,87,0.8694841265678406,0.1111491471529007
3,5,128,88,0.7862858772277832,0.17667743563652039
3,5,128,89,0.6796419620513916,0.13310344517230988
3,5,128,90,0.8596469759941101,0.0798434391617775
3,5,128,91,0.4986618459224701,0.16276922821998596
3,5,128,92,0.7945815324783325,0.12459640949964523
3,5,128,93,0.3673853576183319,0.3351088762283325
3,5,128,94,0.5672972798347473,0.1646396666765213
3,5,128,95,0.6278223395347595,0.20891764760017395
3,5,128,96,0.8011870384216309,0.08920270204544067
3,5,128,97,0.5649646520614624,0.18253028392791748
3,5,128,98,0.5147174596786499,0.20376476645469666
3,5,128,99,0.7924580574035645,0.1344621777534485
3,5,128,100,0.7437314391136169,0.0949220135807991
3,5,128,101,0.8466229438781738,0.07254002243280411
3,5,128,102,0.5770622491836548,0.17340068519115448
3,5,128,103,0.8581233024597168,0.06992979347705841
3,5,128,104,0.7042732238769531,0.14559487998485565
3,5,128,105,0.8093333840370178,0.07627704739570618
3,5,128,106,0.632753849029541,0.19356456398963928
3,5,128,107,0.8359862565994263,0.12703998386859894
3,5,128,108,0.8083860278129578,0.09929978847503662
3,5,128,109,0.8365864753723145,0.07524062693119049
3,5,128,110,0.744562029838562,0.1307339072227478
3,5,128,111,0.44103413820266724,0.1138237938284874
3,5,128,112,0.7860594987869263,0.14094340801239014
3,5,128,113,0.4258776605129242,0.2161242812871933
3,5,128,114,0.5445420145988464,0.08918782323598862
3,5,128,115,0.5180587768554688,0.16454069316387177
3,5,128,116,0.6343960762023926,0.1563749611377716
3,5,128,117,0.8739100098609924,0.07517972588539124
3,5,128,118,0.6932147741317749,0.1581498682498932
3,5,128,119,0.7328464984893799,0.1089988574385643
3,5,128,120,0.6877654194831848,0.25565096735954285
3,5,128,121,0.6004502177238464,0.14351025223731995
3,5,128,122,0.3540548086166382,0.17189759016036987
3,5,128,123,0.677955687046051,0.2652500867843628
3,5,128,124,0.7128316164016724,0.12149880081415176
3,5,128,125,0.6325121521949768,0.12787222862243652
3,5,128,126,0.8087984323501587,0.1397569328546524
3,5,128,127,0.8653685450553894,0.08817509561777115
4,0,32,0,0.5059372186660767,0.09561287611722946
4,0,32,1,0.4406702220439911,0.09845796227455139
4,0,32,2,0.43463918566703796,0.0598323680460453
4,0,32,3,0.5033279657363892,0.1506027728319168
4,0,32,4,0.40034404397010803,0.11433729529380798
4,0,32,5,0.43287399411201477,0.02387962117791176
4,0,32,6,0.5023772716522217,0.032917823642492294
4,0,32,7,0.5673218369483948,0.05634841322898865
4,0,32,8,0.30926212668418884,0.10573318600654602
4,0,32,9,0.4477631747722626,0.12346222996711731
4,0,32,10,0.5363368391990662,0.1285279393196106
4,0,32,11,0.3376200497150421,0.13308772444725037
4,0,32,12,0.4709179699420929,0.08111292868852615
4,0,32,13,0.41860783100128174,0.040093373507261276
4,0,32,14,0.4491748809814453,0.11253508925437927
4,0,32,15,0.6521409749984741,0.0384209081530571
4,0,32,16,0.5588756203651428,0.12602537870407104
4,0,32,17,0.660362184047699,0.09059140831232071
4,0,32,18,0.5847209692001343,0.1961248219013214
4,0,32,19,0.5337442755699158,0.13380877673625946
4,0,32,20,0.48536133766174316,0.05179137736558914
4,0,32,21,0.6818150877952576,0.11062025278806686
4,0,32,22,0.3419354259967804,0.0845814049243927
4,0,32,23,0.4310361444950104,0.07890237122774124
4,0,32,24,0.6692252159118652,0.12227632850408554
4,0,32,25,0.523479163646698,0.08322209119796753
4,0,32,26,0.3484230935573578,0.04976101592183113
4,0,32,27,0.7105419635772705,0.07972731441259384
4,0,32,28,0.4272606372833252,0.11143802851438522
4,0,32,29,0.5488648414611816,0.18190954625606537
4,0,32,30,0.37524083256721497,0.15855668485164642
4,0,32,31,0.3485642969608307,0.05816114321351051
4,1,32,0,0.5906713008880615,0.03793638199567795
4,1,32,1,0.5431523323059082,0.05517467111349106
4,1,32,2,0.42126303911209106,0.04988415166735649
4,1,32,3,0.4107998013496399,0.13650691509246826
4,1,32,4,0.5048032999038696,0.1909952610731125
4,1,32,5,0.433660626411438,0.08380867540836334
4,1,32,6,0.3142341375350952,0.11105437576770782
4,1,32,7,0.40368834137916565,0.07984878122806549
4,1,32,8,0.5462260246276855,0.07587238401174545
4,1,32,9,0.5486676692962646,0.06617466360330582
4,1,32,10,0.4460716247558594,0.0868275910615921
4,1,32,11,0.5916309356689453,0.06717437505722046
4,1,32,12,0.5043191313743591,0.16728006303310394
4,1,32,13,0.37421590089797974,0.13318420946598053
4,1,32,14,0.35764122009277344,0.14345335960388184
4,1,32,15,0.5807338953018188,0.06999973207712173
4,1,32,16,0.5292642712593079,0.17507918179035187
4,1,32,17,0.637159526348114,0.08653246611356735
4,1,32,18,0.369041383266449,0.16312742233276367
4,1,32,19,0.6404117345809937,0.1257462352514267
4,1,32,20,0.423875093460083,0.09052832424640656
4,1,32,21,0.5753408670425415,0.12921571731567383
4,1,32,22,0.4412586987018585,0.166409432888031
4,1,32,23,0.36382898688316345,0.07261236757040024
4,1,32,24,0.5002267360687256,0.1098480373620987
4,1,32,25,0.4596000015735626,0.08608334511518478
4,1,32,26,0.3706549406051636,0.10476720333099365
4,1,32,27,0.47221243381500244,0.08987431973218918
4,1,32,28,0.5687848925590515,0.09491187334060669
4,1,32,29,0.45473507046699524,0.11587700992822647
4,1,32,30,0.5200251340866089,0.14579249918460846
4,1,32,31,0.5056105256080627,0.10894632339477539
4,2,64,0,0.5346974730491638,0.13812479376792908
4,2,64,1,0.5310566425323486,0.047424983233213425
4,2,64,2,0.34482163190841675,0.11033333837985992
4,2,64,3,0.5015605092048645,0.17907026410102844
4,2,64,4,0.556391716003418,0.1458282172679901
4,2,64,5,0.5504669547080994,0.14134536683559418
4,2,64,6,0.46143439412117004,0.2004539519548416
4,2,64,7,0.47868308424949646,0.10137943923473358
4,2,64,8,0.6381561160087585,0.11673317104578018
4,2,64,9,0.36227720975875854,0.10430123656988144
4,2,64,10,0.47486504912376404,0.12573039531707764
4,2,64,11,0.36485517024993896,0.1301242709159851
4,2,64,12,0.4749794900417328,0.1957324594259262
4,2,64,13,0.40732473134994507,0.11214748024940491
4,2,64,14,0.4979872703552246,0.14356687664985657
4,2,64,15,0.4574529528617859,0.15399441123008728
4,2,64,16,0.4985825717449188,0.1485344022512436
4,2,64,17,0.3731575310230255,0.13404437899589539
4,2,64,18,0.38319411873817444,0.06945526599884033
4,2,64,19,0.45088616013526917,0.18769687414169312
4,2,64,20,0.43222177028656006,0.032201167196035385
4,2,64,21,0.5679463148117065,0.1555166095495224
4,2,64,22,0.4388061761856079,0.1929488480091095
4,2,64,23,0.3945499062538147,0.11503196507692337
4,2,64,24,0.4751547873020172,0.06714168936014175
4,2,64,25,0.41699522733688354,0.19673112034797668
4,2,64,26,0.6403531432151794,0.1521235704421997
4,2,64,27,0.5404021143913269,0.203764408826828
4,2,64,28,0.5355831980705261,0.11613446474075317
4,2,64,29,0.37516891956329346,0.16917528212070465
4,2,64,30,0.39534705877304077,0.11518494784832001
4,2,64,31,0.6694319844245911,0.047115445137023926
4,2,64,32,0.6349220275878906,0.11249519139528275
4,2,64,33,0.5350661277770996,0.0904521644115448
4,2,64,34,0.515387237071991,0.13617968559265137
4,2,64,35,0.5298125743865967,0.1886601448059082
4,2,64,36,0.5634496212005615,0.19060760736465454
4,2,64,37,0.5043331384658813,0.1392659693956375
4,2,64,38,0.40603187680244446,0.08070402592420578
4,2,64,39,0.39785999059677124,0.16541144251823425
4,2,64,40,0.5084458589553833,0.1265518069267273
4,2,64,41,0.4259851276874542,0.0759534165263176
4,2,64,42,0.5279512405395508,0.14918635785579681
4,2,64,43,0.5206344127655029,0.14910754561424255
4,2,64,44,0.48274433612823486,0.08833751827478409
4,2,64,45,0.37277066707611084,0.13435760140419006
4,2,64,46,0.3716321885585785,0.11349184811115265
4,2,64,47,0.47792255878448486,0.18895797431468964
4,2,64,48,0.3602854013442993,0.06657792627811432
4,2,64,49,0.5037068724632263,0.08671852201223373
4,2,64,50,0.5339837074279785,0.08704790472984314
4,2,64,51,0.49075135588645935,0.08116313815116882
4,2,64,52,0.30859482288360596,0.08956702798604965
4,2,64,53,0.4165271818637848,0.1053013727068901
4,2,64,54,0.5044717192649841,0.10474180430173874
4,2,64,55,0.5075892210006714,0.0936458632349968
4,2,64,56,0.5436424016952515,0.0941435694694519
4,2,64,57,0.45202967524528503,0.18374097347259521
4,2,64,58,0.4225708842277527,0.23983491957187653
4,2,64,59,0.4267571270465851,0.16766496002674103
4,2,64,60,0.5050519704818726,0.18890386819839478
4,2,64,61,0.46814069151878357,0.14345546066761017
4,2,64,62,0.478148490190506,0.12140537053346634
4,2,64,63,0.5539570450782776,0.15132562816143036
4,3,64,0,0.4638355076313019,0.119131900370121
4,3,64,1,0.3568930923938751,0.12691174447536469
4,3,64,2,0.379224568605423,0.07840114831924438
4,3,64,3,0.5677062273025513,0.10351896286010742
4,3,64,4,0.573030948638916,0.03868968039751053
4,3,64,5,0.4815419018268585,0.17408500611782074
4,3,64,6,0.3865310549736023,0.08971621841192245
4,3,64,7,0.5938332080841064,0.04592198505997658
4,3,64,8,0.3798774778842926,0.12517337501049042
4,3,64,9,0.43395712971687317,0.06575275957584381
4,3,64,10,0.3327347934246063,0.07986477017402649
4,3,64,11,0.4027482271194458,0.0517362616956234
4,3,64,12,0.2593088150024414,0.09289537370204926
4,3,64,13,0.5542436242103577,0.09697229415178299
4,3,64,14,0.4512929618358612,0.049958016723394394
4,3,64,15,0.49249860644340515,0.061674781143665314
4,3,64,16,0.4979085624217987,0.2292586863040924
4,3,64,17,0.6108199954032898,0.08465450257062912
4,3,64,18,0.49683287739753723,0.13582777976989746
4,3,64,19,0.3588871359825134,0.11726333945989609
4,3,64,20,0.4931299090385437,0.09423006325960159
4,3,64,21,0.435052752494812,0.07248040288686752
4,3,64,22,0.3799745440483093,0.13992871344089508
4,3,64,23,0.46874359250068665,0.08994273841381073
4,3,64,24,0.6385212540626526,0.0935453325510025
4,3,64,25,0.6251222491264343,0.08703101426362991
4,3,64,26,0.4211566150188446,0.11435998976230621
4,3,64,27,0.5927237272262573,0.04571133852005005
4,3,64,28,0.41338759660720825,0.032563094049692154
4,3,64,29,0.41262152791023254,0.11727327853441238
4,3,64,30,0.5645887851715088,0.12262432277202606
4,3,64,31,0.36748674511909485,0.11110149323940277
4,3,64,32,0.5876930952072144,0.0472291000187397
4,3,64,33,0.5702623724937439,0.12726041674613953
4,3,64,34,0.5757346749305725,0.16608232259750366
4,3,64,35,0.5354409217834473,0.1428019106388092
4,3,64,36,0.5588430166244507,0.22571364045143127
4,3,64,37,0.5850350260734558,0.061791181564331055
4,3,64,38,0.5150366425514221,0.17511866986751556
4,3,64,39,0.40196913480758667,0.09956307709217072
4,3,64,40,0.486034095287323,0.16188915073871613
4,3,64,41,0.49868181347846985,0.13884668052196503
4,3,64,42,0.5913764238357544,0.10931049287319183
4,3,64,43,0.5190541744232178,0.09037591516971588
4,3,64,44,0.4181497097015381,0.07155010104179382
4,3,64,45,0.39493700861930847,0.1617279052734375
4,3,64,46,0.5379910469055176,0.10157826542854309
4,3,64,47,0.4147322177886963,0.11258146911859512
4,3,64,48,0.591349184513092,0.16580024361610413
4,3,64,49,0.5958300232887268,0.08200142532587051
4,3,64,50,0.5864351391792297,0.08033601194620132
4,3,64,51,0.30770009756088257,0.09040390700101852
4,3,64,52,0.44474318623542786,0.11558111011981964
4,3,64,53,0.4297950863838196,0.1831747591495514
4,3,64,54,0.5535961389541626,0.07567864656448364
4,3,64,55,0.5535471439361572,0.07664190232753754
4,3,64,56,0.4656117856502533,0.1339419186115265
4,3,64,57,0.5847487449645996,0.14351488649845123
4,3,64,58,0.4037790298461914,0.1315763294696808
4,3,64,59,0.45335787534713745,0.1271483153104782
4,3,64,60,0.47782108187675476,0.10060860216617584
4,3,64,61,0.6059209704399109,0.11055046319961548
4,3,64,62,0.3874824345111847,0.08815451711416245
4,3,64,63,0.6263556480407715,0.11388104408979416
4,4,128,0,0.7707561254501343,0.11913871020078659
4,4,128,1,0.6341546177864075,0.29207298159599304
4,4,128,2,0.6499478220939636,0.22101730108261108
4,4,128,3,0.7804973721504211,0.10653568059206009
4,4,128,4,0.8067805767059326,0.08361942321062088
4,4,128,5,0.802801251411438,0.13145340979099274
4,4,128,6,0.5900231599807739,0.35779401659965515
4,4,128,7,0.40064042806625366,0.3027706742286682
4,4,128,8,0.5756524801254272,0.14677445590496063
4,4,128,9,0.4485810101032257,0.30943939089775085
4,4,128,10,0.41123974323272705,0.3458844721317291
4,4,128,11,0.49014613032341003,0.2985861599445343
4,4,128,12,0.7126802802085876,0.14519494771957397
4,4,128,13,0.6054601669311523,0.0720352753996849
4,4,128,14,0.7129576206207275,0.11315883696079254
4,4,128,15,0.3362215459346771,0.20740799605846405
4,4,128,16,0.7475829720497131,0.1337510496377945
4,4,128,17,0.5939143896102905,0.34050166606903076
4,4,128,18,0.7997618913650513,0.10848355293273926
4,4,128,19,0.7921686768531799,0.12365967035293579
4,4,128,20,0.5342409014701843,0.07598724216222763
4,4,128,21,0.4987785220146179,0.2389611452817917
4,4,128,22,0.48508694767951965,0.17732664942741394
4,4,128,23,0.5260401368141174,0.2572582960128784
4,4,128,24,0.7406762838363647,0.10377621650695801
4,4,128,25,0.4199248254299164,0.03877273201942444
4,4,128,26,0.4692635238170624,0.31940868496894836
4,4,128,27,0.7888725996017456,0.12031176686286926
4,4,128,28,0.41291341185569763,0.08861926943063736
4,4,128,29,0.5690053105354309,0.2800367772579193
4,4,128,30,0.573530375957489,0.11869937926530838
4,4,128,31,0.4340423345565796,0.31808504462242126
4,4,128,32,0.4576316475868225,0.33064547181129456
4,4,128,33,0.4430333375930786,0.35338273644447327
4,4,128,34,0.5189723372459412,0.17735858261585236
4,4,128,35,0.7755556106567383,0.10518629848957062
4,4,128,36,0.5311465859413147,0.26362165808677673
4,4,128,37,0.6474589705467224,0.21488939225673676
4,4,128,38,0.4265672564506531,0.17135177552700043
4,4,128,39,0.6469132900238037,0.30844980478286743
4,4,128,40,0.6306184530258179,0.09169230610132217
4,4,128,41,0.5651668906211853,0.18215961754322052
4,4,128,42,0.5829450488090515,0.25793835520744324
4,4,128,43,0.5941044092178345,0.07941722124814987
4,4,128,44,0.3985441327095032,0.11589078605175018
4,4,128,45,0.7043799161911011,0.13010667264461517
4,4,128,46,0.5456026196479797,0.24348506331443787
4,4,128,47,0.5837762355804443,0.1983521282672882
4,4,128,48,0.5136216282844543,0.24385182559490204
4,4,128,49,0.3553191125392914,0.2978411912918091
4,4,128,50,0.45271041989326477,0.283778578042984
4,4,128,51,0.5985414981842041,0.3632880449295044
4,4,128,52,0.6012369394302368,0.1911047250032425
4,4,128,53,0.43688106536865234,0.3430802822113037
4,4,128,54,0.706092119216919,0.1864449828863144
4,4,128,55,0.5376051068305969,0.08393987268209457
4,4,128,56,0.5994240045547485,0.09936094284057617
4,4,128,57,0.4029916524887085,0.3163806200027466
4,4,128,58,0.3485734462738037,0.1264546662569046
4,4,128,59,0.6034945249557495,0.26790851354599
4,4,128,60,0.4385073781013489,0.35192763805389404
4,4,128,61,0.6735844612121582,0.0977700725197792
4,4,128,62,0.5923053622245789,0.3819936215877533
4,4,128,63,0.6103344559669495,0.16016405820846558
4,4,128,64,0.48715341091156006,0.2476780265569687
4,4,128,65,0.5780441761016846,0.3149532675743103
4,4,128,66,0.7138292789459229,0.08396146446466446
4,4,128,67,0.6213969588279724,0.35627835988998413
4,4,128,68,0.7341396808624268,0.14341409504413605
4,4,128,69,0.3721826374530792,0.22580204904079437
4,4,128,70,0.769237756729126,0.10623326897621155
4,4,128,71,0.6359758377075195,0.30957069993019104
4,4,128,72,0.6467576026916504,0.07342357188463211
4,4,128,73,0.5859794616699219,0.09047561138868332
4,4,128,74,0.6673691272735596,0.0712989941239357
4,4,128,75,0.592361330986023,0.22698453068733215
4,4,128,76,0.30415844917297363,0.061150722205638885
4,4,128,77,0.7152956128120422,0.09424559026956558
4,4,128,78,0.2809221148490906,0.09442906826734543
4,4,128,79,0.5845109820365906,0.19782942533493042
4,4,128,80,0.4202005863189697,0.25764742493629456
4,4,128,81,0.28093332052230835,0.11739165335893631
4,4,128,82,0.7203360199928284,0.12946049869060516
4,4,128,83,0.7557803392410278,0.09108232706785202
4,4,128,84,0.5045504570007324,0.18808689713478088
4,4,128,85,0.7050150632858276,0.11462721973657608
4,4,128,86,0.346187949180603,0.15189461410045624
4,4,128,87,0.6698560118675232,0.13542455434799194
4,4,128,88,0.6612958312034607,0.11910984665155411
4,4,128,89,0.3873289227485657,0.27236366271972656
4,4,128,90,0.38806581497192383,0.29138919711112976
4,4,128,91,0.4349859058856964,0.07447731494903564
4,4,128,92,0.6115640997886658,0.2562003433704376
4,4,128,93,0.6330910921096802,0.23457621037960052
4,4,128,94,0.6874118447303772,0.11337760090827942
4,4,128,95,0.5011915564537048,0.13452230393886566
4,4,128,96,0.6153914928436279,0.2854401767253876
4,4,128,97,0.6723225116729736,0.3090295195579529
4,4,128,98,0.33155861496925354,0.15034040808677673
4,4,128,99,0.740175187587738,0.1138063296675682
4,4,128,100,0.6473529934883118,0.13256406784057617
4,4,128,101,0.5925687551498413,0.36960890889167786
4,4,128,102,0.46316203474998474,0.315214067697525
4,4,128,103,0.496531218290329,0.2739103138446808
4,4,128,104,0.46325311064720154,0.23332829773426056
4,4,128,105,0.39583060145378113,0.14017067849636078
4,4,128,106,0.6310853362083435,0.27577850222587585
4,4,128,107,0.6056084036827087,0.322338730096817
4,4,128,108,0.29798510670661926,0.09061188250780106
4,4,128,109,0.5586440563201904,0.291542112827301
4,4,128,110,0.6438415050506592,0.21851091086864471
4,4,128,111,0.62215656042099,0.2788321375846863
4,4,128,112,0.5980660915374756,0.29034891724586487
4,4,128,113,0.6028077006340027,0.07629069685935974
4,4,128,114,0.45648193359375,0.30573272705078125
4,4,128,115,0.43070584535598755,0.2566277086734772
4,4,128,116,0.5738013982772827,0.21135877072811127
4,4,128,117,0.3787997364997864,0.12104123085737228
4,4,128,118,0.5777357816696167,0.3038823902606964
4,4,128,119,0.31642189621925354,0.16903506219387054
4,4,128,120,0.47135600447654724,0.14956602454185486
4,4,128,121,0.3230457305908203,0.16193439066410065
4,4,128,122,0.5163282752037048,0.1332210898399353
4,4,128,123,0.5849044322967529,0.17115682363510132
4,4,128,124,0.5266183614730835,0.3052747845649719
4,4,128,125,0.5142845511436462,0.17474442720413208
4,4,128,126,0.5800164341926575,0.1807142198085785
4,4,128,127,0.6577260494232178,0.3151594400405884
4,5,128,0,0.7334412336349487,0.11993517726659775
4,5,128,1,0.7935771942138672,0.23084986209869385
4,5,128,2,0.3278960883617401,0.19832980632781982
4,5,128,3,0.8876649141311646,0.07251407951116562
4,5,128,4,0.764021635055542,0.05537805333733559
4,5,128,5,0.844860851764679,0.0647590234875679
4,5,128,6,0.8182913064956665,0.18602880835533142
4,5,128,7,0.39148688316345215,0.3243878483772278
4,5,128,8,0.4208979904651642,0.18645897507667542
4,5,128,9,0.671424150466919,0.13026025891304016
4,5,128,10,0.807540237903595,0.19098889827728271
4,5,128,11,0.34648966789245605,0.3521157205104828
4,5,128,12,0.6713460087776184,0.11590937525033951
4,5,128,13,0.8231235146522522,0.12875451147556305
4,5,128,14,0.4594012498855591,0.2669438123703003
4,5,128,15,0.6394431591033936,0.12947387993335724
4,5,128,16,0.6242216229438782,0.1417931467294693
4,5,128,17,0.8495059609413147,0.11902107298374176
4,5,128,18,0.8578803539276123,0.07947753369808197
4,5,128,19,0.859487771987915,0.14500929415225983
4,5,128,20,0.5799820423126221,0.11040227115154266
4,5,128,21,0.26410114765167236,0.17038573324680328
4,5,128,22,0.7919014692306519,0.07614292949438095
4,5,128,23,0.4389813542366028,0.09777265787124634
4,5,128,24,0.6987162828445435,0.09451807290315628
4,5,128,25,0.8135024309158325,0.1477387249469757
4,5,128,26,0.6475400924682617,0.10870616137981415
4,5,128,27,0.6921578049659729,0.30353373289108276
4,5,128,28,0.4329530596733093,0.3099822402000427
4,5,128,29,0.3725389242172241,0.35441187024116516
4,5,128,30,0.7226114869117737,0.15148718655109406
4,5,128,31,0.5059306621551514,0.1635100096464157
4,5,128,32,0.3983840048313141,0.23413041234016418
4,5,128,33,0.8759160041809082,0.09463239461183548
4,5,128,34,0.4757731556892395,0.05809774994850159
4,5,128,35,0.8613136410713196,0.14053915441036224
4,5,128,36,0.7833066582679749,0.15610727667808533
4,5,128,37,0.7845258712768555,0.21922342479228973
4,5,128,38,0.548440158367157,0.05085931718349457
4,5,128,39,0.3465370833873749,0.2996475398540497
4,5,128,40,0.6866009831428528,0.25632017850875854
4,5,128,41,0.8138447403907776,0.1795271337032318
4,5,128,42,0.872645378112793,0.10057426989078522
4,5,128,43,0.8272397518157959,0.1040247306227684
4,5,128,44,0.8078563213348389,0.1452072560787201
4,5,128,45,0.8674963712692261,0.12868370115756989
4,5,128,46,0.6913289427757263,0.2803485095500946
4,5,128,47,0.6294129490852356,0.11427295207977295
4,5,128,48,0.875305712223053,0.09867701679468155
4,5,128,49,0.4163266122341156,0.093126580119133
4,5,128,50,0.8323761820793152,0.15484721958637238
4,5,128,51,0.7687342762947083,0.24764268100261688
4,5,128,52,0.8558616638183594,0.09890134632587433
4,5,128,53,0.8184683918952942,0.08583487570285797
4,5,128,54,0.7863540649414062,0.14167071878910065
4,5,128,55,0.7389237880706787,0.24487142264842987
4,5,128,56,0.471271812915802,0.19108346104621887
4,5,128,57,0.6613809466362,0.09257887303829193
4,5,128,58,0.5202543139457703,0.1354297250509262
4,5,128,59,0.8646837472915649,0.08860725164413452
4,5,128,60,0.5846909284591675,0.0635816678404808
4,5,128,61,0.7815616726875305,0.2423282265663147
4,5,128,62,0.7594649791717529,0.19690930843353271
4,5,128,63,0.8304911255836487,0.0710461363196373
4,5,128,64,0.7305442094802856,0.18618841469287872
4,5,128,65,0.8612405061721802,0.10701411962509155
4,5,128,66,0.7095686793327332,0.08603712171316147
4,5,128,67,0.8961485028266907,0.1101575493812561
4,5,128,68,0.8402790427207947,0.1131872907280922
4,5,128,69,0.7426324486732483,0.23600682616233826
4,5,128,70,0.7577268481254578,0.17634795606136322
4,5,128,71,0.34626147150993347,0.3353898227214813
4,5,128,72,0.7164374589920044,0.19412685930728912
4,5,128,73,0.7221413254737854,0.3243200480937958
4,5,128,74,0.8363786339759827,0.0798846185207367
4,5,128,75,0.876923143863678,0.08620599657297134
4,5,128,76,0.795211136341095,0.13651882112026215
4,5,128,77,0.8511068224906921,0.11854304373264313
4,5,128,78,0.7337616086006165,0.2510955035686493
4,5,128,79,0.587350606918335,0.18888990581035614
4,5,128,80,0.8234447240829468,0.10273665934801102
4,5,128,81,0.7354846596717834,0.14792396128177643
4,5,128,82,0.8778130412101746,0.08391764014959335
4,5,128,83,0.8013824820518494,0.1639501005411148
4,5,128,84,0.7487859725952148,0.17329156398773193
4,5,128,85,0.877909243106842,0.10653764754533768
4,5,128,86,0.8127834796905518,0.13024720549583435
4,5,128,87,0.8422083258628845,0.10584338009357452
4,5,128,88,0.7855585217475891,0.16313600540161133
4,5,128,89,0.8050066828727722,0.058070577681064606
4,5,128,90,0.7137756943702698,0.2651333212852478
4,5,128,91,0.6874751448631287,0.20687255263328552
4,5,128,92,0.6875135898590088,0.03164934366941452
4,5,128,93,0.8021944761276245,0.1760861575603485
4,5,128,94,0.6236562132835388,0.06953683495521545
4,5,128,95,0.4942825734615326,0.22329705953598022
4,5,128,96,0.6826988458633423,0.14293073117733002
4,5,128,97,0.7663038969039917,0.23721742630004883
4,5,128,98,0.772724986076355,0.12416373193264008
4,5,128,99,0.5828184485435486,0.1848621368408203
4,5,128,100,0.7493072748184204,0.1652226746082306
4,5,128,101,0.8151736259460449,0.2171512097120285
4,5,128,102,0.7152843475341797,0.1778842806816101
4,5,128,103,0.8030136227607727,0.1833687573671341
4,5,128,104,0.7450741529464722,0.21318663656711578
4,5,128,105,0.5857287049293518,0.18679744005203247
4,5,128,106,0.7632240653038025,0.18521398305892944
4,5,128,107,0.7464526891708374,0.2226770967245102
4,5,128,108,0.6941216588020325,0.28888121247291565
4,5,128,109,0.6897298693656921,0.16729892790317535
4,5,128,110,0.827204167842865,0.08230263739824295
4,5,128,111,0.41967153549194336,0.19475868344306946
4,5,128,112,0.762763500213623,0.24451307952404022
4,5,128,113,0.8499383926391602,0.08766236156225204
4,5,128,114,0.740453839302063,0.2545406222343445
4,5,128,115,0.7128193974494934,0.1112905815243721
4,5,128,116,0.45963573455810547,0.2868533134460449
4,5,128,117,0.7401519417762756,0.06242088973522186
4,5,128,118,0.7241330742835999,0.27788370847702026
4,5,128,119,0.7713750004768372,0.114149309694767
4,5,128,120,0.49441221356391907,0.18584686517715454
4,5,128,121,0.3452054262161255,0.18987441062927246
4,5,128,122,0.508360743522644,0.137641042470932
4,5,128,123,0.7229165434837341,0.19481763243675232
4,5,128,124,0.8804499506950378,0.08416067063808441
4,5,128,125,0.554093599319458,0.17090190947055817
4,5,128,126,0.8219348192214966,0.07867010682821274
4,5,128,127,0.7527832388877869,0.23521967232227325
5,0,32,0,0.5727121829986572,0.1301482766866684
5,0,32,1,0.46551841497421265,0.11337113380432129
5,0,32,2,0.6411939263343811,0.09048977494239807
5,0,32,3,0.530705451965332,0.12839879095554352
5,0,32,4,0.5218372941017151,0.10470535606145859
5,0,32,5,0.4553420841693878,0.12028266489505768
5,0,32,6,0.4604814648628235,0.18031729757785797
5,0,32,7,0.4612754285335541,0.09749768674373627
5,0,32,8,0.5940993428230286,0.12092553824186325
5,0,32,9,0.4070962965488434,0.09587185829877853
5,0,32,10,0.545712947845459,0.07527945935726166
5,0,32,11,0.36926037073135376,0.12994185090065002
5,0,32,12,0.4963952302932739,0.11176278442144394
5,0,32,13,0.49154672026634216,0.15965314209461212
5,0,32,14,0.4781578481197357,0.08545949310064316
5,0,32,15,0.33764830231666565,0.11978365480899811
5,0,32,16,0.5231172442436218,0.07200873643159866
5,0,32,17,0.5237517952919006,0.1394413411617279
5,0,32,18,0.4223605990409851,0.11228528618812561
5,0,32,19,0.26647448539733887,0.07524564862251282
5,0,32,20,0.51528400182724,0.08143904060125351
5,0,32,21,0.3830176293849945,0.051812298595905304
5,0,32,22,0.6432985067367554,0.10560039430856705
5,0,32,23,0.1997481733560562,0.09521732479333878
5,0,32,24,0.47807419300079346,0.09647584706544876
5,0,32,25,0.49835601449012756,0.1462026834487915
5,0,32,26,0.39238399267196655,0.26051151752471924
5,0,32,27,0.5201432108879089,0.19637714326381683
5,0,32,28,0.5896884799003601,0.16781087219715118
5,0,32,29,0.3339001536369324,0.08998072892427444
5,0,32,30,0.5902350544929504,0.06638597697019577
5,0,32,31,0.6249220967292786,0.11537376046180725
5,1,32,0,0.5958786606788635,0.03664072975516319
5,1,32,1,0.398112416267395,0.07126166671514511
5,1,32,2,0.3748866319656372,0.05859906226396561
5,1,32,3,0.454047292470932,0.02796412631869316
5,1,32,4,0.3719051778316498,0.05856863409280777
5,1,32,5,0.30695876479148865,0.0521269291639328
5,1,32,6,0.4364822208881378,0.059228599071502686
5,1,32,7,0.45538878440856934,0.10161954909563065
5,1,32,8,0.5227594375610352,0.0636293888092041
5,1,32,9,0.5817733407020569,0.0894884467124939
5,1,32,10,0.37542760372161865,0.07768968492746353
5,1,32,11,0.4595243036746979,0.033112891018390656
5,1,32,12,0.5163317918777466,0.06443661451339722
5,1,32,13,0.5690889358520508,0.048643842339515686
5,1,32,14,0.614189088344574,0.03488357737660408
5,1,32,15,0.3895202577114105,0.021179107949137688
5,1,32,16,0.5915177464485168,0.04100588709115982
5,1,32,17,0.5499022603034973,0.031057260930538177
5,1,32,18,0.35296082496643066,0.04155045747756958
5,1,32,19,0.4983479082584381,0.048159629106521606
5,1,32,20,0.4391516149044037,0.04216558113694191
5,1,32,21,0.4295237958431244,0.11788374185562134
5,1,32,22,0.5292089581489563,0.11584629118442535
5,1,32,23,0.4192259609699249,0.07105369865894318
5,1,32,24,0.5806314945220947,0.058017194271087646
5,1,32,25,0.38047897815704346,0.1381455361843109
5,1,32,26,0.4923233687877655,0.049554724246263504
5,1,32,27,0.41338610649108887,0.08422263711690903
5,1,32,28,0.41940057277679443,0.11925719678401947
5,1,32,29,0.4167042076587677,0.026148391887545586
5,1,32,30,0.5282347798347473,0.020419208332896233
5,1,32,31,0.5783789157867432,0.09083414822816849
5,2,64,0,0.5651488304138184,0.18688111007213593
5,2,64,1,0.5110341906547546,0.1326603889465332
5,2,64,2,0.4189893305301666,0.09742610156536102
5,2,64,3,0.5330842733383179,0.16317926347255707
5,2,64,4,0.44457170367240906,0.11608076840639114
5,2,64,5,0.47918036580085754,0.16310468316078186
5,2,64,6,0.6009183526039124,0.12052958458662033
5,2,64,7,0.5665878653526306,0.0818634033203125
5,2,64,8,0.5405051708221436,0.09559445083141327
5,2,64,9,0.4846374988555908,0.08766932785511017
5,2,64,10,0.4844660460948944,0.10745894908905029
5,2,64,11,0.6073325872421265,0.1564640998840332
5,2,64,12,0.5021625757217407,0.2525991201400757
5,2,64,13,0.3915442228317261,0.14357447624206543
5,2,64,14,0.39077597856521606,0.16739951074123383
5,2,64,15,0.6011309623718262,0.11631114035844803
5,2,64,16,0.6018056273460388,0.1593768149614334
5,2,64,17,0.49191156029701233,0.059431351721286774
5,2,64,18,0.4579322040081024,0.1252012848854065
5,2,64,19,0.6350697875022888,0.15052637457847595
5,2,64,20,0.5229103565216064,0.16933126747608185
5,2,64,21,0.574417233467102,0.2603287398815155
5,2,64,22,0.41691890358924866,0.13776789605617523
5,2,64,23,0.47853100299835205,0.08271830528974533
5,2,64,24,0.4668561518192291,0.06119398772716522
5,2,64,25,0.46050822734832764,0.1364670991897583
5,2,64,26,0.34508270025253296,0.09568650275468826
5,2,64,27,0.4934837520122528,0.08830922842025757
5,2,64,28,0.36592721939086914,0.2130584865808487
5,2,64,29,0.5347523093223572,0.1292497217655182
5,2,64,30,0.3778214156627655,0.09013476967811584
5,2,64,31,0.4404882788658142,0.08512904495000839
5,2,64,32,0.4092985987663269,0.1411384791135788
5,2,64,33,0.5155488848686218,0.1306210160255432
5,2,64,34,0.4375568628311157,0.11170360445976257
5,2,64,35,0.6650886535644531,0.13104021549224854
5,2,64,36,0.5594452023506165,0.17244577407836914
5,2,64,37,0.4939489960670471,0.09878762811422348
5,2,64,38,0.4697447419166565,0.18475081026554108
5,2,64,39,0.4477497637271881,0.10026997327804565
5,2,64,40,0.5838541984558105,0.1157509908080101
5,2,64,41,0.5456346273422241,0.14730829000473022
5,2,64,42,0.3299902081489563,0.12387038767337799
5,2,64,43,0.657721757888794,0.07775361835956573
5,2,64,44,0.48219338059425354,0.15440352261066437
5,2,64,45,0.5393524765968323,0.09922483563423157
5,2,64,46,0.5198636651039124,0.2062404304742813
5,2,64,47,0.48192763328552246,0.13227109611034393
5,2,64,48,0.5426731109619141,0.13050693273544312
5,2,64,49,0.5439943075180054,0.14151668548583984
5,2,64,50,0.45667675137519836,0.19400011003017426
5,2,64,51,0.5784129500389099,0.13931706547737122
5,2,64,52,0.5147939324378967,0.12624487280845642
5,2,64,53,0.2743990123271942,0.1131618544459343
5,2,64,54,0.432448148727417,0.10403450578451157
5,2,64,55,0.484932541847229,0.13717760145664215
5,2,64,56,0.5314499735832214,0.1512337028980255
5,2,64,57,0.6228728890419006,0.1564098596572876
5,2,64,58,0.4716416597366333,0.11680539697408676
5,2,64,59,0.3685967028141022,0.09117511659860611
5,2,64,60,0.5074571371078491,0.1458251178264618
5,2,64,61,0.4329102635383606,0.10711567103862762
5,2,64,62,0.43474280834198,0.09316408634185791
5,2,64,63,0.46214601397514343,0.09673530608415604
5,3,64,0,0.6015037298202515,0.11921722441911697
5,3,64,1,0.444064736366272,0.10890283435583115
5,3,64,2,0.5186305046081543,0.157703697681427
5,3,64,3,0.45249274373054504,0.117713563144207
5,3,64,4,0.4521386921405792,0.16487354040145874
5,3,64,5,0.3270575702190399,0.15436360239982605
5,3,64,6,0.6833434700965881,0.08692173659801483
5,3,64,7,0.5652115941047668,0.06292524188756943
5,3,64,8,0.4609367251396179,0.23926159739494324
5,3,64,9,0.5171117186546326,0.07383934408426285
5,3,64,10,0.4591253101825714,0.08460602909326553
5,3,64,11,0.6384394764900208,0.09381305426359177
5,3,64,12,0.3769788146018982,0.19239351153373718
5,3,64,13,0.5381978750228882,0.17615699768066406
5,3,64,14,0.46317002177238464,0.1765693575143814
5,3,64,15,0.5852529406547546,0.07128418236970901
5,3,64,16,0.4663388133049011,0.11317544430494308
5,3,64,17,0.5673693418502808,0.09719518572092056
5,3,64,18,0.5130892992019653,0.15232045948505402
5,3,64,19,0.36387789249420166,0.1977093517780304
5,3,64,20,0.3230113983154297,0.13618212938308716
5,3,64,21,0.3922942876815796,0.13767659664154053
5,3,64,22,0.6535837054252625,0.19917157292366028
5,3,64,23,0.45423397421836853,0.17418476939201355
5,3,64,24,0.4965362548828125,0.09885871410369873
5,3,64,25,0.516359806060791,0.09627089649438858
5,3,64,26,0.28063076734542847,0.09457019716501236
5,3,64,27,0.46740326285362244,0.23691950738430023
5,3,64,28,0.372618168592453,0.19915537536144257
5,3,64,29,0.47482550144195557,0.07305935770273209
5,3,64,30,0.42179104685783386,0.15699218213558197
5,3,64,31,0.3841991424560547,0.18799848854541779
5,3,64,32,0.6999884247779846,0.10641399770975113
5,3,64,33,0.38893282413482666,0.1652824878692627
5,3,64,34,0.5630770921707153,0.1282896101474762
5,3,64,35,0.5058307647705078,0.14312364161014557
5,3,64,36,0.7024677395820618,0.13115942478179932
5,3,64,37,0.38950538635253906,0.22274859249591827
5,3,64,38,0.30893465876579285,0.15553118288516998
5,3,64,39,0.4779132604598999,0.2101706862449646
5,3,64,40,0.6261444091796875,0.05584666132926941
5,3,64,41,0.5171640515327454,0.07263325899839401
5,3,64,42,0.6392979621887207,0.14237545430660248
5,3,64,43,0.521501362323761,0.041988126933574677
5,3,64,44,0.4930972456932068,0.15104293823242188
5,3,64,45,0.47698652744293213,0.12315435707569122
5,3,64,46,0.40564224123954773,0.1902894675731659
5,3,64,47,0.5160577893257141,0.07004765421152115
5,3,64,48,0.47945088148117065,0.07499534636735916
5,3,64,49,0.5262808799743652,0.07272835075855255
5,3,64,50,0.6139689683914185,0.08601244539022446
5,3,64,51,0.5356000661849976,0.12028034031391144
5,3,64,52,0.5146068930625916,0.19247666001319885
5,3,64,53,0.5714898109436035,0.05958489328622818
5,3,64,54,0.39882293343544006,0.1925698071718216
5,3,64,55,0.48664218187332153,0.07871484756469727
5,3,64,56,0.5511733889579773,0.13403311371803284
5,3,64,57,0.44875574111938477,0.1001894623041153
5,3,64,58,0.49685969948768616,0.21700112521648407
5,3,64,59,0.3702160716056824,0.18872100114822388
5,3,64,60,0.4389781057834625,0.09106280654668808
5,3,64,61,0.5701749920845032,0.10867834836244583
5,3,64,62,0.3570997714996338,0.10946611315011978
5,3,64,63,0.4666898846626282,0.24118614196777344
5,4,128,0,0.49020886421203613,0.22978363931179047
5,4,128,1,0.46303483843803406,0.29403311014175415
5,4,128,2,0.4402259290218353,0.1780548244714737
5,4,128,3,0.7746061086654663,0.09352033585309982
5,4,128,4,0.6042552590370178,0.11724155396223068
5,4,128,5,0.7698158025741577,0.09886576235294342
5,4,128,6,0.7695551514625549,0.09392518550157547
5,4,128,7,0.6371642351150513,0.0875873789191246
5,4,128,8,0.5578368306159973,0.3433680236339569
5,4,128,9,0.6246330738067627,0.23511068522930145
5,4,128,10,0.5530475974082947,0.3010227084159851
5,4,128,11,0.5334528088569641,0.10117451846599579
5,4,128,12,0.41091588139533997,0.17883628606796265
5,4,128,13,0.6766464114189148,0.2187023013830185
5,4,128,14,0.7840090990066528,0.1455463021993637
5,4,128,15,0.5604058504104614,0.15297627449035645
5,4,128,16,0.6086522340774536,0.3345625102519989
5,4,128,17,0.29790422320365906,0.06238042190670967
5,4,128,18,0.6304574608802795,0.1435086876153946
5,4,128,19,0.6046743392944336,0.17202474176883698
5,4,128,20,0.5069580674171448,0.11082696169614792
5,4,128,21,0.6251513957977295,0.1911698281764984
5,4,128,22,0.6583746671676636,0.15511354804039001
5,4,128,23,0.7692915201187134,0.08954617381095886
5,4,128,24,0.6184134483337402,0.2569228410720825
5,4,128,25,0.5288573503494263,0.2501339316368103
5,4,128,26,0.8004013895988464,0.07314920425415039
5,4,128,27,0.44969624280929565,0.23601533472537994
5,4,128,28,0.6486233472824097,0.10406944155693054
5,4,128,29,0.5822474360466003,0.2548547685146332
5,4,128,30,0.5899126529693604,0.18808868527412415
5,4,128,31,0.6297249794006348,0.08339583873748779
5,4,128,32,0.6662978529930115,0.220033660531044
5,4,128,33,0.7346305251121521,0.10244700312614441
5,4,128,34,0.5905663371086121,0.2349831461906433
5,4,128,35,0.4106672406196594,0.14594580233097076
5,4,128,36,0.6774221062660217,0.07412011176347733
5,4,128,37,0.6234709024429321,0.22620262205600739
5,4,128,38,0.4480188190937042,0.08493580669164658
5,4,128,39,0.6734638214111328,0.12659680843353271
5,4,128,40,0.5493141412734985,0.4099380671977997
5,4,128,41,0.5435881614685059,0.134432852268219
5,4,128,42,0.3339915871620178,0.058542005717754364
5,4,128,43,0.7157428860664368,0.14236794412136078
5,4,128,44,0.5835011005401611,0.09264573454856873
5,4,128,45,0.5143106579780579,0.26672157645225525
5,4,128,46,0.6950801610946655,0.1029115542769432
5,4,128,47,0.5026869177818298,0.23260293900966644
5,4,128,48,0.6584322452545166,0.16270944476127625
5,4,128,49,0.577730655670166,0.19132952392101288
5,4,128,50,0.6242273449897766,0.3107943832874298
5,4,128,51,0.5278254747390747,0.21206866204738617
5,4,128,52,0.6437151432037354,0.29751768708229065
5,4,128,53,0.5984435081481934,0.308008074760437
5,4,128,54,0.6619209051132202,0.29910629987716675
5,4,128,55,0.4095044732093811,0.211345374584198
5,4,128,56,0.5735976099967957,0.16880910098552704
5,4,128,57,0.6217796206474304,0.19971178472042084
5,4,128,58,0.4852118194103241,0.16203320026397705
5,4,128,59,0.6930997967720032,0.13500644266605377
5,4,128,60,0.7312803268432617,0.09100746363401413
5,4,128,61,0.5722471475601196,0.05963603034615517
5,4,128,62,0.32826098799705505,0.14366589486598969
5,4,128,63,0.7511489987373352,0.10079605877399445
5,4,128,64,0.6951347589492798,0.06470398604869843
5,4,128,65,0.6112844347953796,0.2951987385749817
5,4,128,66,0.5718675851821899,0.3399350345134735
5,4,128,67,0.336516410112381,0.1842353343963623
5,4,128,68,0.6084768176078796,0.2290673851966858
5,4,128,69,0.650236964225769,0.12624773383140564
5,4,128,70,0.5924903750419617,0.2103460282087326
5,4,128,71,0.37820425629615784,0.12634363770484924
5,4,128,72,0.39437633752822876,0.24836736917495728
5,4,128,73,0.47979941964149475,0.27556127309799194
5,4,128,74,0.4461832344532013,0.21278057992458344
5,4,128,75,0.6457454562187195,0.1464383453130722
5,4,128,76,0.7401010990142822,0.08613702654838562
5,4,128,77,0.6782018542289734,0.19344879686832428
5,4,128,78,0.4439017176628113,0.28681838512420654
5,4,128,79,0.6761856079101562,0.13896453380584717
5,4,128,80,0.6251738667488098,0.2252180129289627
5,4,128,81,0.4493633508682251,0.2946004271507263
5,4,128,82,0.4125904142856598,0.06755904853343964
5,4,128,83,0.547236442565918,0.11401581764221191
5,4,128,84,0.6216574907302856,0.06315349787473679
5,4,128,85,0.634461522102356,0.3063073754310608
5,4,128,86,0.46340611577033997,0.2049311101436615
5,4,128,87,0.6624453067779541,0.1712898164987564
5,4,128,88,0.711539089679718,0.07315714657306671
5,4,128,89,0.4039692282676697,0.16273795068264008
5,4,128,90,0.7071589231491089,0.11567258834838867
5,4,128,91,0.40889105200767517,0.20195963978767395
5,4,128,92,0.7440207004547119,0.08850619941949844
5,4,128,93,0.699985921382904,0.13258232176303864
5,4,128,94,0.3963354825973511,0.14853812754154205
5,4,128,95,0.6178925037384033,0.3000943064689636
5,4,128,96,0.6123331785202026,0.074365995824337
5,4,128,97,0.5137742161750793,0.07441031187772751
5,4,128,98,0.6327582597732544,0.17212922871112823
5,4,128,99,0.45841333270072937,0.15499450266361237
5,4,128,100,0.790296196937561,0.15495607256889343
5,4,128,101,0.6875783801078796,0.13803839683532715
5,4,128,102,0.7648866176605225,0.14544305205345154
5,4,128,103,0.4678889513015747,0.1438862830400467
5,4,128,104,0.675108015537262,0.2079283744096756
5,4,128,105,0.6870914697647095,0.28473973274230957
5,4,128,106,0.5529167056083679,0.29778340458869934
5,4,128,107,0.3831811547279358,0.3133002817630768
5,4,128,108,0.6509057879447937,0.050687991082668304
5,4,128,109,0.42726725339889526,0.1775340586900711
5,4,128,110,0.4982272684574127,0.3720485270023346
5,4,128,111,0.36322900652885437,0.2591763138771057
5,4,128,112,0.4901484549045563,0.09619695693254471
5,4,128,113,0.20459811389446259,0.10584854334592819
5,4,128,114,0.6890816688537598,0.11337008327245712
5,4,128,115,0.44314640760421753,0.2319338321685791
5,4,128,116,0.5033496022224426,0.13722673058509827
5,4,128,117,0.39484143257141113,0.24175629019737244
5,4,128,118,0.3605193793773651,0.08721663057804108
5,4,128,119,0.6388773322105408,0.2498035728931427
5,4,128,120,0.3761793375015259,0.29073280096054077
5,4,128,121,0.6099842190742493,0.32094791531562805
5,4,128,122,0.5564334988594055,0.1951117366552353
5,4,128,123,0.6827280521392822,0.10374467819929123
5,4,128,124,0.481283038854599,0.282877653837204
5,4,128,125,0.5673454999923706,0.31992727518081665
5,4,128,126,0.7079759240150452,0.1084977462887764
5,4,128,127,0.7105452418327332,0.14466452598571777
5,5,128,0,0.4736972153186798,0.20832033455371857
5,5,128,1,0.4276181161403656,0.22737424075603485
5,5,128,2,0.42145973443984985,0.08824294060468674
5,5,128,3,0.7026259899139404,0.10519888252019882
5,5,128,4,0.49238142371177673,0.21657858788967133
5,5,128,5,0.6579405069351196,0.14508149027824402
5,5,128,6,0.5635958909988403,0.1196822002530098
5,5,128,7,0.7614977359771729,0.11404922604560852
5,5,128,8,0.6068785786628723,0.23458728194236755
5,5,128,9,0.2633252441883087,0.12996339797973633
5,5,128,10,0.4991185665130615,0.23281601071357727
5,5,128,11,0.5686010122299194,0.23389995098114014
5,5,128,12,0.5947468876838684,0.19486048817634583
5,5,128,13,0.4812590181827545,0.21488621830940247
5,5,128,14,0.7958433628082275,0.11375844478607178
5,5,128,15,0.7012400031089783,0.09308172762393951
5,5,128,16,0.7697771191596985,0.1302591860294342
5,5,128,17,0.6760212779045105,0.0945797935128212
5,5,128,18,0.5660374760627747,0.20050927996635437
5,5,128,19,0.5890243649482727,0.15350967645645142
5,5,128,20,0.6750795245170593,0.0803801491856575
5,5,128,21,0.6083823442459106,0.07251426577568054
5,5,128,22,0.7841426134109497,0.09928099066019058
5,5,128,23,0.42817020416259766,0.18444541096687317
5,5,128,24,0.46640291810035706,0.25719699263572693
5,5,128,25,0.43473392724990845,0.17886632680892944
5,5,128,26,0.7901846766471863,0.14892445504665375
5,5,128,27,0.4677460789680481,0.21380452811717987
5,5,128,28,0.6092822551727295,0.14781935513019562
5,5,128,29,0.6873214840888977,0.12143788486719131
5,5,128,30,0.6427653431892395,0.13541269302368164
5,5,128,31,0.7654011249542236,0.16203522682189941
5,5,128,32,0.35959500074386597,0.29663610458374023
5,5,128,33,0.7871269583702087,0.08663301169872284
5,5,128,34,0.6991822123527527,0.12871931493282318
5,5,128,35,0.5514938235282898,0.16917754709720612
5,5,128,36,0.5141288042068481,0.2647854685783386
5,5,128,37,0.6893537044525146,0.19471728801727295
5,5,128,38,0.32625168561935425,0.11823733150959015
5,5,128,39,0.7321367263793945,0.17277413606643677
5,5,128,40,0.7568084597587585,0.12348291277885437
5,5,128,41,0.7205449342727661,0.16260290145874023
5,5,128,42,0.4801667630672455,0.16428326070308685
5,5,128,43,0.7461762428283691,0.0967082530260086
5,5,128,44,0.3109634816646576,0.07223408669233322
5,5,128,45,0.754220724105835,0.11943944543600082
5,5,128,46,0.511224091053009,0.1204649806022644
5,5,128,47,0.6276591420173645,0.1473148614168167
5,5,128,48,0.7299467325210571,0.13061785697937012
5,5,128,49,0.6729484796524048,0.18144065141677856
5,5,128,50,0.8158946633338928,0.12422212213277817
5,5,128,51,0.4556761085987091,0.29771432280540466
5,5,128,52,0.7008591294288635,0.19411638379096985
5,5,128,53,0.6755580902099609,0.2329610139131546
5,5,128,54,0.7975472211837769,0.12089148163795471
5,5,128,55,0.7324910163879395,0.11618880927562714
5,5,128,56,0.678821861743927,0.18670354783535004
5,5,128,57,0.7814663648605347,0.1143861785531044
5,5,128,58,0.5407353639602661,0.07423549145460129
5,5,128,59,0.6055651903152466,0.084640733897686
5,5,128,60,0.738427460193634,0.13975830376148224
5,5,128,61,0.5331637859344482,0.2648601233959198
5,5,128,62,0.4118373394012451,0.24448159337043762
5,5,128,63,0.7648656964302063,0.12922540307044983
5,5,128,64,0.7521398663520813,0.10821691155433655
5,5,128,65,0.6814748644828796,0.17360685765743256
5,5,128,66,0.7502860426902771,0.09493924677371979
5,5,128,67,0.34517666697502136,0.25192078948020935
5,5,128,68,0.6843337416648865,0.14514724910259247
5,5,128,69,0.49815791845321655,0.1622777283191681
5,5,128,70,0.3399837613105774,0.19098889827728271
5,5,128,71,0.5520904660224915,0.11721344292163849
5,5,128,72,0.48294711112976074,0.2259778380393982
5,5,128,73,0.6230936050415039,0.12002381682395935
5,5,128,74,0.7954742908477783,0.10301950573921204
5,5,128,75,0.49823644757270813,0.15719950199127197
5,5,128,76,0.7518141865730286,0.1050540953874588
5,5,128,77,0.6552011966705322,0.225801020860672
5,5,128,78,0.5952519774436951,0.11289477348327637
5,5,128,79,0.7847749590873718,0.11003067344427109
5,5,128,80,0.5670532584190369,0.07314905524253845
5,5,128,81,0.5549604296684265,0.12377668917179108
5,5,128,82,0.7678260803222656,0.12917661666870117
5,5,128,83,0.7385016083717346,0.09033927321434021
5,5,128,84,0.7993631362915039,0.12838493287563324
5,5,128,85,0.7517184615135193,0.1384432017803192
5,5,128,86,0.6249231696128845,0.13640405237674713
5,5,128,87,0.6885568499565125,0.21576698124408722
5,5,128,88,0.6257100105285645,0.20206359028816223
5,5,128,89,0.3751829266548157,0.15444806218147278
5,5,128,90,0.6531555652618408,0.23174352943897247
5,5,128,91,0.6475188732147217,0.18111976981163025
5,5,128,92,0.5660980343818665,0.21783433854579926
5,5,128,93,0.7787634134292603,0.09505114704370499
5,5,128,94,0.5833442211151123,0.15746799111366272
5,5,128,95,0.6329805254936218,0.12178392708301544
5,5,128,96,0.7356205582618713,0.15315504372119904
5,5,128,97,0.7378224730491638,0.17460227012634277
5,5,128,98,0.7927670478820801,0.12517350912094116
5,5,128,99,0.38094332814216614,0.23393207788467407
5,5,128,100,0.6403046250343323,0.09946942329406738
5,5,128,101,0.7844240665435791,0.13352234661579132
5,5,128,102,0.7218530178070068,0.12203147262334824
5,5,128,103,0.529841959476471,0.11730419099330902
5,5,128,104,0.5600800514221191,0.11549252271652222
5,5,128,105,0.8134476542472839,0.11548992991447449
5,5,128,106,0.6812730431556702,0.14042316377162933
5,5,128,107,0.6991327404975891,0.17249080538749695
5,5,128,108,0.757396399974823,0.09805868566036224
5,5,128,109,0.6411648392677307,0.13112106919288635
5,5,128,110,0.8035316467285156,0.08857279270887375
5,5,128,111,0.6955224275588989,0.21834620833396912
5,5,128,112,0.775944709777832,0.10828141123056412
5,5,128,113,0.47559452056884766,0.19660556316375732
5,5,128,114,0.6957840323448181,0.18009497225284576
5,5,128,115,0.5622743368148804,0.17121654748916626
5,5,128,116,0.6808156371116638,0.08588060736656189
5,5,128,117,0.7594292163848877,0.1397087275981903
5,5,128,118,0.7850704789161682,0.1586105227470398
5,5,128,119,0.7906911969184875,0.08422080427408218
5,5,128,120,0.4475291073322296,0.2851971685886383
5,5,128,121,0.8053069710731506,0.15036259591579437
5,5,128,122,0.47176408767700195,0.05177513509988785
5,5,128,123,0.365275502204895,0.18390226364135742
5,5,128,124,0.7166584134101868,0.18129423260688782
5,5,128,125,0.5689641833305359,0.08933001011610031
5,5,128,126,0.707578182220459,0.15622705221176147
5,5,128,127,0.7520929574966431,0.19618995487689972
6,0,32,0,0.5795823931694031,0.01675286889076233
6,0,32,1,0.45589303970336914,0.04708288982510567
6,0,32,2,0.5381652116775513,0.04567297548055649
6,0,32,3,0.46800851821899414,0.1188223659992218
6,0,32,4,0.4508325159549713,0.06281642615795135
6,0,32,5,0.5550384521484375,0.059720560908317566
6,0,32,6,0.4362359046936035,0.06376855820417404
6,0,32,7,0.5210078954696655,0.05206423997879028
6,0,32,8,0.5382821559906006,0.13781549036502838
6,0,32,9,0.4181734621524811,0.061235565692186356
6,0,32,10,0.5130426287651062,0.034173883497714996
6,0,32,11,0.5354543328285217,0.032837510108947754
6,0,32,12,0.6021378636360168,0.13679270446300507
6,0,32,13,0.35603925585746765,0.11227323114871979
6,0,32,14,0.4737536907196045,0.10902334004640579
6,0,32,15,0.6662023663520813,0.049787964671850204
6,0,32,16,0.3935950696468353,0.19206050038337708
6,0,32,17,0.49875637888908386,0.10002893209457397
6,0,32,18,0.5833181142807007,0.05549679696559906
6,0,32,19,0.4210849702358246,0.07285608351230621
6,0,32,20,0.5802487134933472,0.02726958505809307
6,0,32,21,0.3769814372062683,0.10632625967264175
6,0,32,22,0.45737966895103455,0.12226656079292297
6,0,32,23,0.4097418189048767,0.034035105258226395
6,0,32,24,0.3231239914894104,0.12855638563632965
6,0,32,25,0.4532793164253235,0.055522505193948746
6,0,32,26,0.5931326150894165,0.026226606220006943
6,0,32,27,0.5932611227035522,0.1803942322731018
6,0,32,28,0.3452409505844116,0.15068483352661133
6,0,32,29,0.33511629700660706,0.07637478411197662
6,0,32,30,0.42796552181243896,0.08958268165588379
6,0,32,31,0.47110629081726074,0.03906276822090149
6,1,32,0,0.6211453676223755,0.14058923721313477
6,1,32,1,0.34762948751449585,0.10769117623567581
6,1,32,2,0.4177291989326477,0.16528959572315216
6,1,32,3,0.5023245811462402,0.028540106490254402
6,1,32,4,0.2570088505744934,0.09455661475658417
6,1,32,5,0.48560670018196106,0.11905564367771149
6,1,32,6,0.5062408447265625,0.12096718698740005
6,1,32,7,0.40675005316734314,0.10237105935811996
6,1,32,8,0.35886016488075256,0.12312889844179153
6,1,32,9,0.48647621273994446,0.10443685203790665
6,1,32,10,0.36545446515083313,0.06832015514373779
6,1,32,11,0.5576474666595459,0.2256385087966919
6,1,32,12,0.36717095971107483,0.08598633855581284
6,1,32,13,0.5309714674949646,0.02888352982699871
6,1,32,14,0.4098764657974243,0.14575915038585663
6,1,32,15,0.5851577520370483,0.0330224446952343
6,1,32,16,0.4645797312259674,0.13222144544124603
6,1,32,17,0.6774076223373413,0.04841117560863495
6,1,32,18,0.5440929532051086,0.1911219358444214
6,1,32,19,0.4769441485404968,0.07792970538139343
6,1,32,20,0.4306914508342743,0.06285309791564941
6,1,32,21,0.5632396340370178,0.10793117433786392
6,1,32,22,0.4087440073490143,0.06057615950703621
6,1,32,23,0.396778404712677,0.09839785099029541
6,1,32,24,0.41436517238616943,0.19751420617103577
6,1,32,25,0.3778749704360962,0.09945666044950485
6,1,32,26,0.5717387199401855,0.12110042572021484
6,1,32,27,0.4247168302536011,0.125102236866951
6,1,32,28,0.4345458745956421,0.11119396239519119
6,1,32,29,0.4887915551662445,0.17886020243167877
6,1,32,30,0.5454562306404114,0.034394025802612305
6,1,32,31,0.49220147728919983,0.038341499865055084
6,2,64,0,0.6487537622451782,0.04191430285573006
6,2,64,1,0.7060295343399048,0.1171967014670372
6,2,64,2,0.5738462805747986,0.18454930186271667
6,2,64,3,0.5306738615036011,0.1656186878681183
6,2,64,4,0.4049784541130066,0.24077220261096954
6,2,64,5,0.4023042917251587,0.09565409272909164
6,2,64,6,0.5828956961631775,0.07705332338809967
6,2,64,7,0.6241124868392944,0.13861508667469025
6,2,64,8,0.5116146206855774,0.05483512207865715
6,2,64,9,0.7022269368171692,0.08013801276683807
6,2,64,10,0.6030563712120056,0.12474380433559418
6,2,64,11,0.4114030599594116,0.15080244839191437
6,2,64,12,0.35430359840393066,0.09826795756816864
6,2,64,13,0.5809531211853027,0.11764958500862122
6,2,64,14,0.5007713437080383,0.1355436146259308
6,2,64,15,0.39093267917633057,0.09603305160999298
6,2,64,16,0.4061318039894104,0.1278190314769745
6,2,64,17,0.6318119168281555,0.07150998711585999
6,2,64,18,0.508217990398407,0.13324156403541565
6,2,64,19,0.5615519285202026,0.1300305426120758
6,2,64,20,0.4573802947998047,0.1682278960943222
6,2,64,21,0.5969251990318298,0.22609609365463257
6,2,64,22,0.39260661602020264,0.07781687378883362
6,2,64,23,0.36944282054901123,0.09748838096857071
6,2,64,24,0.5903980135917664,0.1631109118461609
6,2,64,25,0.4930036664009094,0.10548880696296692
6,2,64,26,0.6030411720275879,0.09598471969366074
6,2,64,27,0.3998255729675293,0.09937278926372528
6,2,64,28,0.535062313079834,0.05421164631843567
6,2,64,29,0.44080594182014465,0.17784330248832703
6,2,64,30,0.5348530411720276,0.2326042652130127
6,2,64,31,0.3904820382595062,0.0927213802933693
6,2,64,32,0.3750467300415039,0.16492533683776855
6,2,64,33,0.37319710850715637,0.1859428435564041
6,2,64,34,0.454314649105072,0.09034646302461624
6,2,64,35,0.6116446256637573,0.09241800755262375
6,2,64,36,0.6165453195571899,0.0902419239282608
6,2,64,37,0.5891831517219543,0.11697159707546234
6,2,64,38,0.5699502229690552,0.1031886488199234
6,2,64,39,0.46738433837890625,0.13001719117164612
6,2,64,40,0.4833950996398926,0.1056554839015007
6,2,64,41,0.5367116332054138,0.1669197380542755
6,2,64,42,0.44944462180137634,0.15529648959636688
6,2,64,43,0.6423161625862122,0.0987950935959816
6,2,64,44,0.48893555998802185,0.20030364394187927
6,2,64,45,0.5514901876449585,0.16317345201969147
6,2,64,46,0.505646824836731,0.16291917860507965
6,2,64,47,0.44045135378837585,0.12299628555774689
6,2,64,48,0.3795117139816284,0.15894246101379395
6,2,64,49,0.5320802330970764,0.12316954135894775
6,2,64,50,0.5208301544189453,0.17446687817573547
6,2,64,51,0.5642539858818054,0.11965838074684143
6,2,64,52,0.4398093819618225,0.08600682020187378
6,2,64,53,0.6327741146087646,0.18312501907348633
6,2,64,54,0.4398963749408722,0.07269478589296341
6,2,64,55,0.46214982867240906,0.065627321600914
6,2,64,56,0.3470877408981323,0.12003674358129501
6,2,64,57,0.3200775384902954,0.1401151865720749
6,2,64,58,0.45678621530532837,0.11051977425813675
6,2,64,59,0.47595226764678955,0.1699022352695465
6,2,64,60,0.47990572452545166,0.11767271161079407
6,2,64,61,0.6297118067741394,0.08778572827577591
6,2,64,62,0.5176835656166077,0.08486991375684738
6,2,64,63,0.4313177168369293,0.1262287050485611
6,3,64,0,0.34472623467445374,0.12270276248455048
6,3,64,1,0.5105236172676086,0.07833147794008255
6,3,64,2,0.407194584608078,0.08254208415746689
6,3,64,3,0.5107043981552124,0.21239303052425385
6,3,64,4,0.4194798767566681,0.03610273450613022
6,3,64,5,0.3857361376285553,0.15630462765693665
6,3,64,6,0.567838191986084,0.07228019088506699
6,3,64,7,0.3735004961490631,0.06694518774747849
6,3,64,8,0.4441969096660614,0.15295244753360748
6,3,64,9,0.5077524185180664,0.25418341159820557
6,3,64,10,0.4753364026546478,0.1760830134153366
6,3,64,11,0.466806560754776,0.14299707114696503
6,3,64,12,0.5490672588348389,0.08585090935230255
6,3,64,13,0.5036128759384155,0.12300363183021545
6,3,64,14,0.43074896931648254,0.2268245816230774
6,3,64,15,0.39244046807289124,0.1456976681947708
6,3,64,16,0.3996883034706116,0.11736549437046051
6,3,64,17,0.48008736968040466,0.1074138879776001
6,3,64,18,0.627044677734375,0.12027667462825775
6,3,64,19,0.4572897255420685,0.2344151884317398
6,3,64,20,0.4440668225288391,0.05935787782073021
6,3,64,21,0.4222954511642456,0.2622218430042267
6,3,64,22,0.4115241765975952,0.21240215003490448
6,3,64,23,0.37048062682151794,0.08912850171327591
6,3,64,24,0.5789754986763,0.18058302998542786
6,3,64,25,0.5737078785896301,0.055350568145513535
6,3,64,26,0.5465958714485168,0.156525120139122
6,3,64,27,0.4790848195552826,0.24515528976917267
6,3,64,28,0.3458437919616699,0.1359930783510208
6,3,64,29,0.4373629689216614,0.19988365471363068
6,3,64,30,0.452421635389328,0.21695378422737122
6,3,64,31,0.3936471939086914,0.15606136620044708
6,3,64,32,0.577297031879425,0.2370835393667221
6,3,64,33,0.36064594984054565,0.14956147968769073
6,3,64,34,0.5507634878158569,0.08495369553565979
6,3,64,35,0.48952436447143555,0.25243380665779114
6,3,64,36,0.5007332563400269,0.23780682682991028
6,3,64,37,0.508308470249176,0.18146078288555145
6,3,64,38,0.49816474318504333,0.18440209329128265
6,3,64,39,0.35261428356170654,0.09651783853769302
6,3,64,40,0.5282672643661499,0.14787043631076813
6,3,64,41,0.39111340045928955,0.2510524392127991
6,3,64,42,0.5378623604774475,0.08890902251005173
6,3,64,43,0.3751673698425293,0.1344660520553589
6,3,64,44,0.41860872507095337,0.13317228853702545
6,3,64,45,0.3316747844219208,0.13168427348136902
6,3,64,46,0.4000611901283264,0.11655999720096588
6,3,64,47,0.5423082113265991,0.19197598099708557
6,3,64,48,0.5196624398231506,0.15767456591129303
6,3,64,49,0.43808072805404663,0.1425504833459854
6,3,64,50,0.5763487815856934,0.20370545983314514
6,3,64,51,0.3220682442188263,0.12667804956436157
6,3,64,52,0.5610272288322449,0.17175808548927307
6,3,64,53,0.45462653040885925,0.2553521692752838
6,3,64,54,0.5657550096511841,0.16250289976596832
6,3,64,55,0.6373597979545593,0.14230206608772278
6,3,64,56,0.45455172657966614,0.07829438894987106
6,3,64,57,0.5581628680229187,0.09939437359571457
6,3,64,58,0.4943414628505707,0.1011745035648346
6,3,64,59,0.5664332509040833,0.20303404331207275
6,3,64,60,0.5113890767097473,0.1226125955581665
6,3,64,61,0.5598397850990295,0.08930843323469162
6,3,64,62,0.4287407100200653,0.10150431841611862
