subject,channel,alpha,f1,drop_pp
156,0,1.0,0.6676665993905834,0.0
156,0,0.75,0.6849349320151398,-1.7268332624556404
156,0,0.5,0.6852658458747699,-1.7599246484186537
156,0,0.25,0.6785778928623789,-1.0911293471795536
156,0,0.0,0.6715010421456254,-0.3834442755042078
156,1,1.0,0.6676665993905834,0.0
156,1,0.75,0.6623294925806041,0.5337106809979231
156,1,0.5,0.6520320276533067,1.563457173727667
156,1,0.25,0.6284269479181219,3.9239651472461445
156,1,0.0,0.6111925274175818,5.647407197300158
156,2,1.0,0.6676665993905834,0.0
156,2,0.75,0.679443789629899,-1.1777190239315671
156,2,0.5,0.691009210572903,-2.3342611182319617
156,2,0.25,0.65954759612563,0.8119003264953406
156,2,0.0,0.6325572145343024,3.510938485628101
156,3,1.0,0.6676665993905834,0.0
156,3,0.75,0.669397500250053,-0.17309008594695863
156,3,0.5,0.6625177246042043,0.5148874786379043
156,3,0.25,0.648865605591887,1.8800993798696375
156,3,0.0,0.6369454592050621,3.07211401855213
156,4,1.0,0.6676665993905834,0.0
156,4,0.75,0.658806960176464,0.8859639214119364
156,4,0.5,0.653528107483025,1.4138491907558337
156,4,0.25,0.6386399889379628,2.902661045262056
156,4,0.0,0.6078757602115795,5.979083917900385
156,5,1.0,0.6676665993905834,0.0
156,5,0.75,0.653971869336254,1.3694730054329418
156,5,0.5,0.6106953086412417,5.697129074934171
156,5,0.25,0.5165626437854577,15.110395560512568
156,5,0.0,0.40963167827478075,25.803492111580262
156,6,1.0,0.6676665993905834,0.0
156,6,0.75,0.6656768504610907,0.1989748929492663
156,6,0.5,0.6552418452198339,1.2424754170749508
156,6,0.25,0.6483721851123659,1.929441427821743
156,6,0.0,0.6413656585593608,2.6300940831222586
185,0,1.0,0.4810760004431869,0.0
185,0,0.75,0.48044700512242317,0.06289953207637144
185,0,0.5,0.4765736606418137,0.45023398013731564
185,0,0.25,0.45113028062071847,2.994571982246841
185,0,0.0,0.42018962410441507,6.08863763387718
185,1,1.0,0.4810760004431869,0.0
185,1,0.75,0.4885814514167369,-0.7505450973550043
185,1,0.5,0.4846136100269174,-0.35376095837305055
185,1,0.25,0.41728083849568093,6.379516194750595
185,1,0.0,0.3691479058213403,11.192809462184655
185,2,1.0,0.4810760004431869,0.0
185,2,0.75,0.45939867777280785,2.167732267037903
185,2,0.5,0.46021820023478865,2.0857800208398225
185,2,0.25,0.42661911390931667,5.445688653387021
185,2,0.0,0.36700111749653186,11.407488294665502
185,3,1.0,0.4810760004431869,0.0
185,3,0.75,0.4727350255553191,0.834097488786778
185,3,0.5,0.46447712370044114,1.6598876742745738
185,3,0.25,0.4486821424784941,3.2393857964692794
185,3,0.0,0.43707946112782226,4.399653931536463
185,4,1.0,0.4810760004431869,0.0
185,4,0.75,0.47600469100130965,0.5071309441877225
185,4,0.5,0.4680782025943623,1.29977978488246
185,4,0.25,0.4597686163811817,2.1307384062005164
185,4,0.0,0.4426399586928792,3.843604175030768
185,5,1.0,0.4810760004431869,0.0
185,5,0.75,0.4922523047098249,-1.1176304266638015
185,5,0.5,0.49536702270573907,-1.4291022262552189
185,5,0.25,0.4904902470070298,-0.9414246563842932
185,5,0.0,0.4625577552492254,1.8518245193961502
185,6,1.0,0.4810760004431869,0.0
185,6,0.75,0.4795758902380921,0.15001102050947734
185,6,0.5,0.47842920167557773,0.26467987676091487
185,6,0.25,0.46942175870808966,1.1654241735097215
185,6,0.0,0.45013148689796856,3.094451354521832
186,0,1.0,0.7614069149691786,0.0
186,0,0.75,0.745579606132316,1.5827308836862564
186,0,0.5,0.7204309591488367,4.097595582034186
186,0,0.25,0.6823136064016201,7.909330856755847
186,0,0.0,0.656853488568462,10.455342640071652
186,1,1.0,0.7614069149691786,0.0
186,1,0.75,0.7688673228488421,-0.7460407879663511
186,1,0.5,0.735660509732109,2.5746405237069614
186,1,0.25,0.6744552207218715,8.69516942473071
186,1,0.0,0.609134130609052,15.227278436012659
186,2,1.0,0.7614069149691786,0.0
186,2,0.75,0.7539669421487604,0.7439972820418195
186,2,0.5,0.723766870139241,3.7640044829937547
186,2,0.25,0.6543883502739992,10.701856469517935
186,2,0.0,0.576407780372837,18.499913459634154
186,3,1.0,0.7614069149691786,0.0
186,3,0.75,0.7586066381030019,0.28002768661766764
186,3,0.5,0.7514698695583427,0.9937045410835843
186,3,0.25,0.7455957361384149,1.5811178830763661
186,3,0.0,0.7322648550228026,2.9142059946375976
186,4,1.0,0.7614069149691786,0.0
186,4,0.75,0.7465679303818747,1.4838984587303816
186,4,0.5,0.726516473360466,3.4890441608712575
186,4,0.25,0.7039456276570053,5.7461287312173255
186,4,0.0,0.6812301087418781,8.017680622730051
186,5,1.0,0.7614069149691786,0.0
186,5,0.75,0.7435519042679992,1.7855010701179341
186,5,0.5,0.7076468687539559,5.376004621522268
186,5,0.25,0.5965702349921099,16.483667997706863
186,5,0.0,0.4806555973566641,28.07513176125145
186,6,1.0,0.7614069149691786,0.0
186,6,0.75,0.7618838241248084,-0.04769091556298122
186,6,0.5,0.7433174738818717,1.8089441087306812
186,6,0.25,0.7172869277312232,4.4119987237955405
186,6,0.0,0.6974517057225115,6.395520924666709
188,0,1.0,0.5562780475489725,0.0
188,0,0.75,0.5498861994569146,0.6391848092057839
188,0,0.5,0.5455745092301497,1.0703538318822758
188,0,0.25,0.5377599667350501,1.8518080813922366
188,0,0.0,0.5317273275902468,2.455071995872571
188,1,1.0,0.5562780475489725,0.0
188,1,0.75,0.555738998599229,0.0539048949743437
188,1,0.5,0.5459609067194,1.0317140829572469
188,1,0.25,0.5238044394533057,3.2473608095666795
188,1,0.0,0.48257650716931444,7.370154037965804
188,2,1.0,0.5562780475489725,0.0
188,2,0.75,0.5503143731521422,0.5963674396830321
188,2,0.5,0.5373947898891522,1.888325765982024
188,2,0.25,0.5151985936097695,4.107945393920298
188,2,0.0,0.49126512677178513,6.501292077718734
188,3,1.0,0.5562780475489725,0.0
188,3,0.75,0.5522745758790234,0.4003471669949077
188,3,0.5,0.5463406583580983,0.9937389190874168
188,3,0.25,0.5306790683633498,2.5598979185622706
188,3,0.0,0.518934624961345,3.734342258762746
188,4,1.0,0.5562780475489725,0.0
188,4,0.75,0.5643479730027203,-0.806992545374785
188,4,0.5,0.5652084816273943,-0.8930434078421867
188,4,0.25,0.5562392451375026,0.003880241146991814
188,4,0.0,0.5405688528231017,1.5709194725870734
188,5,1.0,0.5562780475489725,0.0
188,5,0.75,0.580651258190116,-2.4373210641143506
188,5,0.5,0.5854449491746004,-2.916690162562796
188,5,0.25,0.5226450875579344,3.3632959991038103
188,5,0.0,0.44227791175514586,11.400013579382662
188,6,1.0,0.5562780475489725,0.0
188,6,0.75,0.5557830409117243,0.04950066372482187
188,6,0.5,0.5539619567203858,0.23160908285866366
188,6,0.25,0.5573640517463633,-0.10860041973907997
188,6,0.0,0.5572744683532294,-0.09964208042568812
189,0,1.0,0.6260133866903776,0.0
189,0,0.75,0.6342856861328898,-0.8272299442512177
189,0,0.5,0.6301515145981277,-0.4138127907750033
189,0,0.25,0.6059704898933355,2.0042896797042187
189,0,0.0,0.5934991784855448,3.251420820483286
189,1,1.0,0.6260133866903776,0.0
189,1,0.75,0.6211248802674727,0.4888506422904948
189,1,0.5,0.6095100172176956,1.650336947268205
189,1,0.25,0.5718190739474489,5.419431274292874
189,1,0.0,0.5189706909506768,10.704269573970082
189,2,1.0,0.6260133866903776,0.0
189,2,0.75,0.6402889039066728,-1.4275517216295164
189,2,0.5,0.6285228962585362,-0.2509509568158541
189,2,0.25,0.5894079508520952,3.6605435838282463
189,2,0.0,0.5181158872312936,10.789749945908401
189,3,1.0,0.6260133866903776,0.0
189,3,0.75,0.6266494218532016,-0.06360351628239558
189,3,0.5,0.6252198103861102,0.07935763042674626
189,3,0.25,0.6177481483871203,0.8265238303257316
189,3,0.0,0.6068127847697062,1.9200601920671412
189,4,1.0,0.6260133866903776,0.0
189,4,0.75,0.6295958710306151,-0.3582484340237446
189,4,0.5,0.6326813509080652,-0.6667964217687561
189,4,0.25,0.6308797612825746,-0.4866374592196965
189,4,0.0,0.6241094019994751,0.19039846909025826
189,5,1.0,0.6260133866903776,0.0
189,5,0.75,0.6163494532795413,0.9663933410836378
189,5,0.5,0.576189503055461,4.982388363491664
189,5,0.25,0.4866844079867254,13.932897870365224
189,5,0.0,0.4192508386494215,20.676254804095617
189,6,1.0,0.6260133866903776,0.0
189,6,0.75,0.6443499765479035,-1.8336589857525842
189,6,0.5,0.6555446081658911,-2.953122147551346
189,6,0.25,0.6637523694521118,-3.7738982761734152
189,6,0.0,0.6828093363734881,-5.679594968311042
190,0,1.0,0.5887656750850071,0.0
190,0,0.75,0.6123398336207528,-2.3574158535745737
190,0,0.5,0.6118726027070144,-2.310692762200728
190,0,0.25,0.6005932256580632,-1.1827550573056067
190,0,0.0,0.5595288908572356,2.923678422777154
190,1,1.0,0.5887656750850071,0.0
190,1,0.75,0.5360873451223995,5.267832996260758
190,1,0.5,0.48448922277528805,10.427645230971905
190,1,0.25,0.4359635242894889,15.280215079551818
190,1,0.0,0.3907931789574703,19.79724961275368
190,2,1.0,0.5887656750850071,0.0
190,2,0.75,0.5586283849639812,3.013729012102595
190,2,0.5,0.53544910160289,5.331657348211705
190,2,0.25,0.505786322650523,8.297935243448407
190,2,0.0,0.46579239817040996,12.297327691459714
190,3,1.0,0.5887656750850071,0.0
190,3,0.75,0.648611903827531,-5.984622874252388
190,3,0.5,0.6659835703719823,-7.721789528697521
190,3,0.25,0.663146716760541,-7.438104167553394
190,3,0.0,0.6576101280937139,-6.884445300870679
190,4,1.0,0.5887656750850071,0.0
190,4,0.75,0.5689924290600614,1.9773246024945679
190,4,0.5,0.543135088249072,4.563058683593512
190,4,0.25,0.5200539195377721,6.8711755547234965
190,4,0.0,0.5056840905042312,8.308158458077585
190,5,1.0,0.5887656750850071,0.0
190,5,0.75,0.5855865177650551,0.31791573199519974
190,5,0.5,0.553586746076017,3.517892900899011
190,5,0.25,0.49865627917586175,9.010939590914536
190,5,0.0,0.4564867151267872,13.227895995821992
190,6,1.0,0.5887656750850071,0.0
190,6,0.75,0.5739878385988488,1.477783648615827
190,6,0.5,0.5402516679886172,4.851400709638987
190,6,0.25,0.513096172987991,7.566950209701606
190,6,0.0,0.5040234053164139,8.474226976859322
191,0,1.0,0.5328474962649066,0.0
191,0,0.75,0.5198397291813901,1.3007767083516475
191,0,0.5,0.4687136340107136,6.413386225419298
191,0,0.25,0.43431846021080817,9.852903605409841
191,0,0.0,0.4025991348314096,13.024836143349699
191,1,1.0,0.5328474962649066,0.0
191,1,0.75,0.5538774527301215,-2.1029956465214883
191,1,0.5,0.5506342811316192,-1.778678486671259
191,1,0.25,0.5199316539779373,1.2915842286969292
191,1,0.0,0.4830796400156613,4.9767856249245295
191,2,1.0,0.5328474962649066,0.0
191,2,0.75,0.5556786460779712,-2.2831149813064666
191,2,0.5,0.5550918586601006,-2.2244362395194006
191,2,0.25,0.5238089389880116,0.9038557276894954
191,2,0.0,0.49611048067522767,3.67370155896789
191,3,1.0,0.5328474962649066,0.0
191,3,0.75,0.5459618616585707,-1.3114365393664174
191,3,0.5,0.555126281427851,-2.227878516294446
191,3,0.25,0.5749079688048364,-4.206047253992984
191,3,0.0,0.5904771854875496,-5.7629689222642995
191,4,1.0,0.5328474962649066,0.0
191,4,0.75,0.5680474485366788,-3.5199952271772195
191,4,0.5,0.5680883818664396,-3.5240885601533045
191,4,0.25,0.5634834123448922,-3.0635916079985615
191,4,0.0,0.5517889345207001,-1.894143825579353
191,5,1.0,0.5328474962649066,0.0
191,5,0.75,0.5232364741888966,0.9611022076009945
191,5,0.5,0.5021231036033398,3.072439266156679
191,5,0.25,0.46258646061323844,7.026103565166814
191,5,0.0,0.4079863778810552,12.486111838385138
191,6,1.0,0.5328474962649066,0.0
191,6,0.75,0.5275911204884787,0.5256375776427902
191,6,0.5,0.5161513535841841,1.6696142680722503
191,6,0.25,0.5075718712187927,2.5275625046113914
191,6,0.0,0.49803024868130635,3.4817247583600217
192,0,1.0,0.4427770591447121,0.0
192,0,0.75,0.434758934202345,0.8018124942367089
192,0,0.5,0.42904202541201697,1.3735033732695134
192,0,0.25,0.41281513950575255,2.9961919638959555
192,0,0.0,0.41219989130629436,3.057716783841774
192,1,1.0,0.4427770591447121,0.0
192,1,0.75,0.44045535220161147,0.2321706943100632
192,1,0.5,0.42594815390322294,1.6828905241489167
192,1,0.25,0.4019562619026531,4.082079724205901
192,1,0.0,0.3709269997805002,7.185005936421191
192,2,1.0,0.4427770591447121,0.0
192,2,0.75,0.4174592913065473,2.531776783816481
192,2,0.5,0.3746621251868887,6.8114933957823425
192,2,0.25,0.33456424994052403,10.821280920418808
192,2,0.0,0.29862632439200476,14.415073475270734
192,3,1.0,0.4427770591447121,0.0
192,3,0.75,0.4321287541258113,1.0648305018900794
192,3,0.5,0.4116077019077322,3.116935723697989
192,3,0.25,0.391841165293012,5.093589385170011
192,3,0.0,0.38325249320677723,5.952456593793487
192,4,1.0,0.4427770591447121,0.0
192,4,0.75,0.4437000827198483,-0.09230235751361837
192,4,0.5,0.4410761805930702,0.17008785516419156
192,4,0.25,0.4382531894769772,0.4523869667734881
192,4,0.0,0.4298134551446911,1.2963604000021
192,5,1.0,0.4427770591447121,0.0
192,5,0.75,0.4473393943467416,-0.4562335202029477
192,5,0.5,0.43314426322839816,0.9632795916313941
192,5,0.25,0.4215988360530747,2.1178223091637416
192,5,0.0,0.4096520723079662,3.3124986836745918
192,6,1.0,0.4427770591447121,0.0
192,6,0.75,0.4519649430480031,-0.9187883903291005
192,6,0.5,0.4590576042251342,-1.6280545080422093
192,6,0.25,0.4629061603728325,-2.0129101228120394
192,6,0.0,0.4657210241061328,-2.2943964961420704
193,0,1.0,0.5965626836523963,0.0
193,0,0.75,0.6006525846391229,-0.4089900986726569
193,0,0.5,0.582333794744393,1.4228888908003334
193,0,0.25,0.539086815727101,5.747586792529525
193,0,0.0,0.5119701335831996,8.459255006919664
193,1,1.0,0.5965626836523963,0.0
193,1,0.75,0.5817046680268749,1.485801562552136
193,1,0.5,0.5536051693357351,4.295751431666117
193,1,0.25,0.5136767714445742,8.288591220782205
193,1,0.0,0.4681177714667735,12.844491218562275
193,2,1.0,0.5965626836523963,0.0
193,2,0.75,0.580927175691373,1.563550796102331
193,2,0.5,0.5512403811203294,4.532230253206693
193,2,0.25,0.5226397227051792,7.392296094721706
193,2,0.0,0.502986514779682,9.357616887271424
193,3,1.0,0.5965626836523963,0.0
193,3,0.75,0.5965983557030273,-0.0035672050631041508
193,3,0.5,0.5769420186915916,1.9620664960804723
193,3,0.25,0.549744313695412,4.681836995698429
193,3,0.0,0.5333007343164788,6.3261949335917445
193,4,1.0,0.5965626836523963,0.0
193,4,0.75,0.607518779505769,-1.095609585337276
193,4,0.5,0.6204433530992317,-2.3880669446835423
193,4,0.25,0.6210719900191405,-2.45093063667442
193,4,0.0,0.6014865891800967,-0.49239055277003896
193,5,1.0,0.5965626836523963,0.0
193,5,0.75,0.5864557607599707,1.010692289242554
193,5,0.5,0.5528413970237077,4.372128662868857
193,5,0.25,0.5242612007857599,7.23014828666364
193,5,0.0,0.49540908184072696,10.115360181166933
193,6,1.0,0.5965626836523963,0.0
193,6,0.75,0.6129944243241442,-1.6431740671747908
193,6,0.5,0.6256750274254721,-2.911234377307581
193,6,0.25,0.6224751945938451,-2.5912510941448863
193,6,0.0,0.6144348228869475,-1.787213923455122
194,0,1.0,0.7127208262874283,0.0
194,0,0.75,0.7159796205972879,-0.3258794309859647
194,0,0.5,0.7099416523982465,0.27791738891818074
194,0,0.25,0.6799751531103475,3.274567317708077
194,0,0.0,0.6607657556066873,5.195507068074101
194,1,1.0,0.7127208262874283,0.0
194,1,0.75,0.7111518712896405,0.15689549977877526
194,1,0.5,0.6961546148174351,1.6566211469993153
194,1,0.25,0.6656152284030943,4.710559788433399
194,1,0.0,0.5864009493660105,12.631987692141777
194,2,1.0,0.7127208262874283,0.0
194,2,0.75,0.7149737266721827,-0.22529003847544526
194,2,0.5,0.7127037807702117,0.0017045517216596195
194,2,0.25,0.6830418765332329,2.9678949754195383
194,2,0.0,0.6215658758325948,9.115495045483346
194,3,1.0,0.7127208262874283,0.0
194,3,0.75,0.7077660430549637,0.4954783232464566
194,3,0.5,0.6959115028260477,1.6809323461380532
194,3,0.25,0.6801402889058046,3.2580537381623698
194,3,0.0,0.6711884156875156,4.153241059991264
194,4,1.0,0.7127208262874283,0.0
194,4,0.75,0.7086833209969093,0.4037505290518939
194,4,0.5,0.6988360696403796,1.388475664704869
194,4,0.25,0.6826924981407156,3.0028328146712635
194,4,0.0,0.6542673593000511,5.845346698737719
194,5,1.0,0.7127208262874283,0.0
194,5,0.75,0.7102422027376089,0.24786235498194253
194,5,0.5,0.688245684716684,2.4475141570744263
194,5,0.25,0.6377123272007013,7.500849908672702
194,5,0.0,0.5755139661289376,13.72068601584907
194,6,1.0,0.7127208262874283,0.0
194,6,0.75,0.7170891269062534,-0.4368300618825094
194,6,0.5,0.7086416578216759,0.4079168465752403
194,6,0.25,0.7086440040991847,0.40768221882435673
194,6,0.0,0.7035945855578272,0.9126240729601109
