subject,block,block_width,feature_channel,gate_mean,gate_sd
156,0,32,0,0.6039221882820129,0.05368047207593918
156,0,32,1,0.3693043887615204,0.09844659268856049
156,0,32,2,0.5681867599487305,0.06997167319059372
156,0,32,3,0.36054810881614685,0.038034796714782715
156,0,32,4,0.5004566311836243,0.052671417593955994
156,0,32,5,0.6395428776741028,0.03305361419916153
156,0,32,6,0.5167627930641174,0.0465550571680069
156,0,32,7,0.31615084409713745,0.11248969286680222
156,0,32,8,0.523948609828949,0.1172243133187294
156,0,32,9,0.5751999020576477,0.10748104751110077
156,0,32,10,0.4902879297733307,0.1083165630698204
156,0,32,11,0.36153754591941833,0.06289921700954437
156,0,32,12,0.512231707572937,0.0941237136721611
156,0,32,13,0.4755603075027466,0.07047129422426224
156,0,32,14,0.353132963180542,0.10977385938167572
156,0,32,15,0.5486182570457458,0.05855201184749603
156,0,32,16,0.3716268241405487,0.13075141608715057
156,0,32,17,0.4638776183128357,0.07443735003471375
156,0,32,18,0.40110379457473755,0.09617765247821808
156,0,32,19,0.672413170337677,0.11343849450349808
156,0,32,20,0.6277258396148682,0.0759497731924057
156,0,32,21,0.4428669810295105,0.06371799111366272
156,0,32,22,0.29675379395484924,0.06750989705324173
156,0,32,23,0.3943648636341095,0.04790306091308594
156,0,32,24,0.345224529504776,0.09597831219434738
156,0,32,25,0.5102100968360901,0.04581569507718086
156,0,32,26,0.34540048241615295,0.04663342982530594
156,0,32,27,0.49896934628486633,0.0475504994392395
156,0,32,28,0.42411041259765625,0.16242961585521698
156,0,32,29,0.41835081577301025,0.06220967322587967
156,0,32,30,0.5038987398147583,0.14441171288490295
156,0,32,31,0.6150568723678589,0.04626455903053284
156,1,32,0,0.36934927105903625,0.05647697672247887
156,1,32,1,0.4639692008495331,0.07939447462558746
156,1,32,2,0.6134352684020996,0.11545852571725845
156,1,32,3,0.462847501039505,0.0572364442050457
156,1,32,4,0.5207421183586121,0.12219809740781784
156,1,32,5,0.4794175326824188,0.04634499549865723
156,1,32,6,0.44198495149612427,0.09105512499809265
156,1,32,7,0.5658262372016907,0.09200377762317657
156,1,32,8,0.6425940990447998,0.0328616201877594
156,1,32,9,0.5269075632095337,0.09139396995306015
156,1,32,10,0.5684301853179932,0.09211160987615585
156,1,32,11,0.4885430335998535,0.06564803421497345
156,1,32,12,0.5527400970458984,0.030111921951174736
156,1,32,13,0.5448423624038696,0.0982062891125679
156,1,32,14,0.4965361952781677,0.07209990173578262
156,1,32,15,0.5082924962043762,0.08373300731182098
156,1,32,16,0.5649377703666687,0.08574561029672623
156,1,32,17,0.4935878813266754,0.0167674757540226
156,1,32,18,0.46882855892181396,0.029791517183184624
156,1,32,19,0.5109493136405945,0.08762459456920624
156,1,32,20,0.4782596230506897,0.0503951758146286
156,1,32,21,0.35986003279685974,0.0825137346982956
156,1,32,22,0.4742296040058136,0.042158953845500946
156,1,32,23,0.4320474863052368,0.06373033672571182
156,1,32,24,0.4258975684642792,0.10552827268838882
156,1,32,25,0.3222469389438629,0.08180483430624008
156,1,32,26,0.5624533891677856,0.11976386606693268
156,1,32,27,0.4215756952762604,0.03914869949221611
156,1,32,28,0.6204956769943237,0.059961311519145966
156,1,32,29,0.5342181324958801,0.07852161675691605
156,1,32,30,0.49253609776496887,0.035935450345277786
156,1,32,31,0.3002406358718872,0.0689467191696167
156,2,64,0,0.3552539348602295,0.07214304804801941
156,2,64,1,0.3981941044330597,0.11671450734138489
156,2,64,2,0.3293093740940094,0.10274432599544525
156,2,64,3,0.6050146222114563,0.15603680908679962
156,2,64,4,0.6217445731163025,0.11123470216989517
156,2,64,5,0.4562262296676636,0.08301068842411041
156,2,64,6,0.4781942665576935,0.08167976140975952
156,2,64,7,0.624952495098114,0.09378761053085327
156,2,64,8,0.5217206478118896,0.12838628888130188
156,2,64,9,0.7278237342834473,0.10697375237941742
156,2,64,10,0.4370681047439575,0.14421001076698303
156,2,64,11,0.5181066393852234,0.11902861297130585
156,2,64,12,0.37812623381614685,0.16379982233047485
156,2,64,13,0.4631541967391968,0.0889616459608078
156,2,64,14,0.5587736964225769,0.1205199807882309
156,2,64,15,0.30587026476860046,0.1158517450094223
156,2,64,16,0.4883515536785126,0.11612249910831451
156,2,64,17,0.5360548496246338,0.1547616720199585
156,2,64,18,0.545254111289978,0.1816711276769638
156,2,64,19,0.6345406770706177,0.0716969221830368
156,2,64,20,0.5305169820785522,0.13579675555229187
156,2,64,21,0.49698638916015625,0.1398526430130005
156,2,64,22,0.7074169516563416,0.12586840987205505
156,2,64,23,0.4594321548938751,0.13787780702114105
156,2,64,24,0.5319573283195496,0.2194136381149292
156,2,64,25,0.5218604803085327,0.230412095785141
156,2,64,26,0.4402341842651367,0.1261589676141739
156,2,64,27,0.40570613741874695,0.14141927659511566
156,2,64,28,0.5119652152061462,0.20422807335853577
156,2,64,29,0.5551127195358276,0.19202305376529694
156,2,64,30,0.40159672498703003,0.16257135570049286
156,2,64,31,0.6881065964698792,0.1595371961593628
156,2,64,32,0.566754162311554,0.18584105372428894
156,2,64,33,0.5444083213806152,0.05252914875745773
156,2,64,34,0.5024785995483398,0.09635895490646362
156,2,64,35,0.35345619916915894,0.14687509834766388
156,2,64,36,0.5035325884819031,0.2224443256855011
156,2,64,37,0.39654362201690674,0.10443425178527832
156,2,64,38,0.5246270298957825,0.11812269687652588
156,2,64,39,0.5199406147003174,0.13709719479084015
156,2,64,40,0.41770118474960327,0.15639084577560425
156,2,64,41,0.4844995439052582,0.2066400945186615
156,2,64,42,0.4722856283187866,0.0702197402715683
156,2,64,43,0.543820321559906,0.1911880373954773
156,2,64,44,0.3635953664779663,0.14586107432842255
156,2,64,45,0.4433763921260834,0.1560381054878235
156,2,64,46,0.4479621946811676,0.20967067778110504
156,2,64,47,0.401884526014328,0.19746699929237366
156,2,64,48,0.49042484164237976,0.1786758303642273
156,2,64,49,0.40549275279045105,0.10240057110786438
156,2,64,50,0.41030433773994446,0.16231699287891388
156,2,64,51,0.6214935779571533,0.11125880479812622
156,2,64,52,0.541999101638794,0.11106612533330917
156,2,64,53,0.49274885654449463,0.1849677413702011
156,2,64,54,0.5801876783370972,0.1958847939968109
156,2,64,55,0.545215904712677,0.1207573190331459
156,2,64,56,0.5216304063796997,0.09803631156682968
156,2,64,57,0.4662190079689026,0.0843563973903656
156,2,64,58,0.5954543352127075,0.14233750104904175
156,2,64,59,0.4595836400985718,0.27372369170188904
156,2,64,60,0.4986037015914917,0.16510310769081116
156,2,64,61,0.5293525457382202,0.10684588551521301
156,2,64,62,0.4325542747974396,0.19222858548164368
156,2,64,63,0.5184107422828674,0.07862228155136108
156,3,64,0,0.395270437002182,0.13622501492500305
156,3,64,1,0.5054411888122559,0.13298949599266052
156,3,64,2,0.45149311423301697,0.16456016898155212
156,3,64,3,0.3850269615650177,0.15819527208805084
156,3,64,4,0.6461260914802551,0.15051467716693878
156,3,64,5,0.6187745928764343,0.1230204775929451
156,3,64,6,0.39566200971603394,0.09342139959335327
156,3,64,7,0.5016508102416992,0.12978138029575348
156,3,64,8,0.5338576436042786,0.1416468769311905
156,3,64,9,0.5456112027168274,0.17189601063728333
156,3,64,10,0.5172655582427979,0.1925961822271347
156,3,64,11,0.5065890550613403,0.12449168413877487
156,3,64,12,0.5032896399497986,0.15167368948459625
156,3,64,13,0.5364859700202942,0.09345182776451111
156,3,64,14,0.5943422913551331,0.08446035534143448
156,3,64,15,0.3880053460597992,0.15723055601119995
156,3,64,16,0.6103373765945435,0.23502925038337708
156,3,64,17,0.5231585502624512,0.12144436687231064
156,3,64,18,0.64914870262146,0.12279029935598373
156,3,64,19,0.5344027280807495,0.11059531569480896
156,3,64,20,0.49928000569343567,0.09528156369924545
156,3,64,21,0.5493360757827759,0.19154487550258636
156,3,64,22,0.3607065975666046,0.1571853756904602
156,3,64,23,0.5442620515823364,0.08594246208667755
156,3,64,24,0.48671603202819824,0.25144627690315247
156,3,64,25,0.595481812953949,0.1735466867685318
156,3,64,26,0.5281740427017212,0.11241012066602707
156,3,64,27,0.4415934979915619,0.1572408676147461
156,3,64,28,0.3987799286842346,0.1386474221944809
156,3,64,29,0.42289817333221436,0.2075788825750351
156,3,64,30,0.5703392028808594,0.08318021893501282
156,3,64,31,0.5588313937187195,0.14428924024105072
156,3,64,32,0.5916911959648132,0.18766503036022186
156,3,64,33,0.43209245800971985,0.15947023034095764
156,3,64,34,0.42669251561164856,0.17255468666553497
156,3,64,35,0.5957445502281189,0.07504092901945114
156,3,64,36,0.42485037446022034,0.13914969563484192
156,3,64,37,0.6426734924316406,0.08033875375986099
156,3,64,38,0.5366477370262146,0.19315925240516663
156,3,64,39,0.48942872881889343,0.11808866262435913
156,3,64,40,0.7303622961044312,0.10098782926797867
156,3,64,41,0.41194677352905273,0.21648702025413513
156,3,64,42,0.5935781598091125,0.15562333166599274
156,3,64,43,0.4090564548969269,0.09500071406364441
156,3,64,44,0.4689064919948578,0.17943082749843597
156,3,64,45,0.5170705914497375,0.16554854810237885
156,3,64,46,0.520943820476532,0.21406912803649902
156,3,64,47,0.43676453828811646,0.19839274883270264
156,3,64,48,0.5665279030799866,0.15560480952262878
156,3,64,49,0.5875939130783081,0.0836963877081871
156,3,64,50,0.4737674295902252,0.14444321393966675
156,3,64,51,0.4377323389053345,0.10930722206830978
156,3,64,52,0.44159772992134094,0.10356900095939636
156,3,64,53,0.35530224442481995,0.14880603551864624
156,3,64,54,0.33801910281181335,0.1162140965461731
156,3,64,55,0.3274431526660919,0.07502740621566772
156,3,64,56,0.573765754699707,0.11691246181726456
156,3,64,57,0.3443533182144165,0.18430095911026
156,3,64,58,0.5445294380187988,0.14906445145606995
156,3,64,59,0.4363277852535248,0.17922426760196686
156,3,64,60,0.3201650381088257,0.16573566198349
156,3,64,61,0.6090665459632874,0.14195866882801056
156,3,64,62,0.6200427412986755,0.09369155764579773
156,3,64,63,0.5016576051712036,0.11527574807405472
156,4,128,0,0.7336506247520447,0.11665744334459305
156,4,128,1,0.5688915252685547,0.18149924278259277
156,4,128,2,0.4189123809337616,0.19548293948173523
156,4,128,3,0.567633867263794,0.1821264773607254
156,4,128,4,0.6239461302757263,0.26431405544281006
156,4,128,5,0.662537157535553,0.12478680908679962
156,4,128,6,0.5233137011528015,0.10742609947919846
156,4,128,7,0.6405410170555115,0.0789186879992485
156,4,128,8,0.6464272737503052,0.14528730511665344
156,4,128,9,0.3785269260406494,0.09843230247497559
156,4,128,10,0.5984558463096619,0.14971189200878143
156,4,128,11,0.4216108024120331,0.23390251398086548
156,4,128,12,0.6429093480110168,0.15131612122058868
156,4,128,13,0.6141379475593567,0.15333524346351624
156,4,128,14,0.4097917675971985,0.19069693982601166
156,4,128,15,0.6687195897102356,0.10857023298740387
156,4,128,16,0.38981831073760986,0.2650414705276489
156,4,128,17,0.3712109327316284,0.19385123252868652
156,4,128,18,0.6186866164207458,0.2590889036655426
156,4,128,19,0.5959731936454773,0.12765537202358246
156,4,128,20,0.3779257535934448,0.22623826563358307
156,4,128,21,0.5331987142562866,0.28663039207458496
156,4,128,22,0.47786030173301697,0.2163771539926529
156,4,128,23,0.49759596586227417,0.1941046267747879
156,4,128,24,0.629118025302887,0.18646730482578278
156,4,128,25,0.5498553514480591,0.23487089574337006
156,4,128,26,0.42704930901527405,0.21535921096801758
156,4,128,27,0.6181390881538391,0.2608543634414673
156,4,128,28,0.632815957069397,0.15232506394386292
156,4,128,29,0.6626589894294739,0.17252279818058014
156,4,128,30,0.3979564607143402,0.15768969058990479
156,4,128,31,0.41992899775505066,0.19281697273254395
156,4,128,32,0.5598854422569275,0.24092905223369598
156,4,128,33,0.6201698184013367,0.16757018864154816
156,4,128,34,0.4694572687149048,0.12099320441484451
156,4,128,35,0.3676040768623352,0.19480691850185394
156,4,128,36,0.612906813621521,0.2161175161600113
156,4,128,37,0.4530280530452728,0.21354874968528748
156,4,128,38,0.42619210481643677,0.27212607860565186
156,4,128,39,0.3831261396408081,0.19918739795684814
156,4,128,40,0.577277660369873,0.3253282606601715
156,4,128,41,0.38117969036102295,0.17191563546657562
156,4,128,42,0.3385598659515381,0.09572076797485352
156,4,128,43,0.769019365310669,0.13276852667331696
156,4,128,44,0.6534140110015869,0.16153207421302795
156,4,128,45,0.7215726971626282,0.17192670702934265
156,4,128,46,0.6139177680015564,0.08702430129051208
156,4,128,47,0.6758880019187927,0.16283588111400604
156,4,128,48,0.5176075100898743,0.23460255563259125
156,4,128,49,0.4541928470134735,0.23227448761463165
156,4,128,50,0.6267217993736267,0.1991734355688095
156,4,128,51,0.4827481806278229,0.19338877499103546
156,4,128,52,0.583650529384613,0.04914722964167595
156,4,128,53,0.3175264298915863,0.16854597628116608
156,4,128,54,0.4181879758834839,0.27169209718704224
156,4,128,55,0.5868322253227234,0.27243173122406006
156,4,128,56,0.6291157007217407,0.12910723686218262
156,4,128,57,0.30823981761932373,0.13841940462589264
156,4,128,58,0.595379114151001,0.23423407971858978
156,4,128,59,0.43315935134887695,0.1874360889196396
156,4,128,60,0.6140024662017822,0.26516127586364746
156,4,128,61,0.691858172416687,0.18107636272907257
156,4,128,62,0.7012737393379211,0.20830577611923218
156,4,128,63,0.34036508202552795,0.17535586655139923
156,4,128,64,0.6137277483940125,0.2418484389781952
156,4,128,65,0.5230119228363037,0.15904660522937775
156,4,128,66,0.6069280505180359,0.28561726212501526
156,4,128,67,0.6431965231895447,0.16188162565231323
156,4,128,68,0.6382446885108948,0.28359630703926086
156,4,128,69,0.41900569200515747,0.1388433277606964
156,4,128,70,0.6597042083740234,0.15683488547801971
156,4,128,71,0.5177223086357117,0.20037133991718292
156,4,128,72,0.6631084084510803,0.21501974761486053
156,4,128,73,0.49315059185028076,0.2699070870876312
156,4,128,74,0.4883963465690613,0.07244545966386795
156,4,128,75,0.32789167761802673,0.167190283536911
156,4,128,76,0.4121883809566498,0.18338996171951294
156,4,128,77,0.5029354095458984,0.1718849390745163
156,4,128,78,0.6463362574577332,0.23526664078235626
156,4,128,79,0.7487693428993225,0.12319188565015793
156,4,128,80,0.5364795923233032,0.18286506831645966
156,4,128,81,0.6411152482032776,0.13206756114959717
156,4,128,82,0.6314017176628113,0.20808301866054535
156,4,128,83,0.5853980779647827,0.11227981001138687
156,4,128,84,0.5799576640129089,0.17176347970962524
156,4,128,85,0.43438467383384705,0.18623007833957672
156,4,128,86,0.503576397895813,0.23054517805576324
156,4,128,87,0.5413359999656677,0.19853012263774872
156,4,128,88,0.6555456519126892,0.14989309012889862
156,4,128,89,0.5331621766090393,0.09500618278980255
156,4,128,90,0.4327303171157837,0.18778571486473083
156,4,128,91,0.5282477140426636,0.16537436842918396
156,4,128,92,0.5612472295761108,0.14743810892105103
156,4,128,93,0.4180581569671631,0.22188372910022736
156,4,128,94,0.46327272057533264,0.20318181812763214
156,4,128,95,0.6354363560676575,0.14993159472942352
156,4,128,96,0.5415295958518982,0.03776242583990097
156,4,128,97,0.7254489660263062,0.11278308928012848
156,4,128,98,0.44486212730407715,0.15134136378765106
156,4,128,99,0.585472583770752,0.09681191295385361
156,4,128,100,0.6349361538887024,0.13423699140548706
156,4,128,101,0.4843863844871521,0.2341286987066269
156,4,128,102,0.42409399151802063,0.12153874337673187
156,4,128,103,0.5089211463928223,0.24968068301677704
156,4,128,104,0.7195771932601929,0.2438843697309494
156,4,128,105,0.6711204051971436,0.12301935255527496
156,4,128,106,0.43947088718414307,0.17093195021152496
156,4,128,107,0.5709705352783203,0.273791640996933
156,4,128,108,0.5738321542739868,0.301992803812027
156,4,128,109,0.6450462341308594,0.1730279177427292
156,4,128,110,0.44486570358276367,0.17711542546749115
156,4,128,111,0.6105748414993286,0.26842963695526123
156,4,128,112,0.4438179135322571,0.09785627573728561
156,4,128,113,0.5096337795257568,0.24001319706439972
156,4,128,114,0.5807033777236938,0.2796841859817505
156,4,128,115,0.56744784116745,0.26329687237739563
156,4,128,116,0.6306830644607544,0.25757867097854614
156,4,128,117,0.390895813703537,0.2743868827819824
156,4,128,118,0.5857293009757996,0.1190125122666359
156,4,128,119,0.6188583374023438,0.174409419298172
156,4,128,120,0.4167666435241699,0.265449196100235
156,4,128,121,0.6618725061416626,0.0887584388256073
156,4,128,122,0.5072879791259766,0.25365135073661804
156,4,128,123,0.6827800869941711,0.12366919219493866
156,4,128,124,0.5604817271232605,0.19044333696365356
156,4,128,125,0.7208877801895142,0.13276220858097076
156,4,128,126,0.4755581021308899,0.14076799154281616
156,4,128,127,0.5924813747406006,0.2068219631910324
156,5,128,0,0.7774248719215393,0.1347568929195404
156,5,128,1,0.5553943514823914,0.20547622442245483
156,5,128,2,0.7475531697273254,0.13410627841949463
156,5,128,3,0.6950221657752991,0.17188434302806854
156,5,128,4,0.688852846622467,0.1284785270690918
156,5,128,5,0.6732707619667053,0.21084891259670258
156,5,128,6,0.49487945437431335,0.18313850462436676
156,5,128,7,0.3994486331939697,0.09597068279981613
156,5,128,8,0.7339339852333069,0.10939430445432663
156,5,128,9,0.4984015226364136,0.1480056345462799
156,5,128,10,0.6892035007476807,0.1586332470178604
156,5,128,11,0.7041335701942444,0.1793360412120819
156,5,128,12,0.5780798196792603,0.0842454582452774
156,5,128,13,0.6964642405509949,0.17807380855083466
156,5,128,14,0.758038341999054,0.20838060975074768
156,5,128,15,0.5011067390441895,0.18108652532100677
156,5,128,16,0.6868656277656555,0.2428683489561081
156,5,128,17,0.5181010961532593,0.17677424848079681
156,5,128,18,0.6963242888450623,0.1815301924943924
156,5,128,19,0.5701013803482056,0.19600532948970795
156,5,128,20,0.5324265360832214,0.15018880367279053
156,5,128,21,0.5662395358085632,0.1661340594291687
156,5,128,22,0.35473644733428955,0.11434638500213623
156,5,128,23,0.690778911113739,0.13972032070159912
156,5,128,24,0.6698856353759766,0.2089497596025467
156,5,128,25,0.5018909573554993,0.12586405873298645
156,5,128,26,0.695820152759552,0.1743345707654953
156,5,128,27,0.692622184753418,0.15549935400485992
156,5,128,28,0.515204906463623,0.19845153391361237
156,5,128,29,0.68989098072052,0.14382733404636383
156,5,128,30,0.7262740731239319,0.19567783176898956
156,5,128,31,0.7341060638427734,0.20896774530410767
156,5,128,32,0.7144837379455566,0.2003258466720581
156,5,128,33,0.4421433210372925,0.1880200207233429
156,5,128,34,0.4003382623195648,0.14494512975215912
156,5,128,35,0.491856187582016,0.16564792394638062
156,5,128,36,0.7481860518455505,0.17824716866016388
156,5,128,37,0.3330613076686859,0.09634576737880707
156,5,128,38,0.5733367800712585,0.15676997601985931
156,5,128,39,0.5574325323104858,0.10447115451097488
156,5,128,40,0.6361998915672302,0.25021272897720337
156,5,128,41,0.3127887547016144,0.15329770743846893
156,5,128,42,0.7325300574302673,0.15828680992126465
156,5,128,43,0.6812237501144409,0.1066325306892395
156,5,128,44,0.5842024087905884,0.21832460165023804
156,5,128,45,0.7266316413879395,0.1818096786737442
156,5,128,46,0.6040827035903931,0.09837418049573898
156,5,128,47,0.6028981804847717,0.08471014350652695
156,5,128,48,0.6759263873100281,0.0819232389330864
156,5,128,49,0.42064934968948364,0.142397940158844
156,5,128,50,0.7693367600440979,0.16517111659049988
156,5,128,51,0.6876615285873413,0.2480086237192154
156,5,128,52,0.7329332828521729,0.22305133938789368
156,5,128,53,0.44584524631500244,0.10876534879207611
156,5,128,54,0.6590923070907593,0.24608144164085388
156,5,128,55,0.6309828758239746,0.2499784529209137
156,5,128,56,0.697328507900238,0.14598087966442108
156,5,128,57,0.6134594082832336,0.18278396129608154
156,5,128,58,0.6865414977073669,0.163112610578537
156,5,128,59,0.7384806275367737,0.13385848701000214
156,5,128,60,0.5810214281082153,0.24041932821273804
156,5,128,61,0.49927735328674316,0.061847370117902756
156,5,128,62,0.8114229440689087,0.12608475983142853
156,5,128,63,0.6055561900138855,0.14729730784893036
156,5,128,64,0.6623058915138245,0.12812122702598572
156,5,128,65,0.7412863373756409,0.13591715693473816
156,5,128,66,0.8101546168327332,0.1443772166967392
156,5,128,67,0.5412640571594238,0.09869727492332458
156,5,128,68,0.7122776508331299,0.19338494539260864
156,5,128,69,0.44752782583236694,0.19847914576530457
156,5,128,70,0.7014237642288208,0.14170952141284943
156,5,128,71,0.6347793936729431,0.18885812163352966
156,5,128,72,0.7423633337020874,0.1809077262878418
156,5,128,73,0.6643360257148743,0.2141476273536682
156,5,128,74,0.44245412945747375,0.15189358592033386
156,5,128,75,0.39002612233161926,0.18626628816127777
156,5,128,76,0.6966567039489746,0.180540069937706
156,5,128,77,0.7143938541412354,0.1361677199602127
156,5,128,78,0.3824382424354553,0.20400667190551758
156,5,128,79,0.8006369471549988,0.15452627837657928
156,5,128,80,0.7094581723213196,0.16670918464660645
156,5,128,81,0.6487905383110046,0.13659685850143433
156,5,128,82,0.750768780708313,0.1471956968307495
156,5,128,83,0.7654612064361572,0.13722293078899384
156,5,128,84,0.6060494780540466,0.06232047826051712
156,5,128,85,0.6637808680534363,0.11619331687688828
156,5,128,86,0.7211081981658936,0.18689613044261932
156,5,128,87,0.683638870716095,0.2000662386417389
156,5,128,88,0.7153754830360413,0.16422680020332336
156,5,128,89,0.6762675642967224,0.25048568844795227
156,5,128,90,0.7195537090301514,0.14454320073127747
156,5,128,91,0.6202311515808105,0.11202283203601837
156,5,128,92,0.5430430173873901,0.18086980283260345
156,5,128,93,0.7279111742973328,0.169499933719635
156,5,128,94,0.6475934982299805,0.09496942162513733
156,5,128,95,0.6507397294044495,0.18156245350837708
156,5,128,96,0.7229589223861694,0.15935605764389038
156,5,128,97,0.6707186102867126,0.12620778381824493
156,5,128,98,0.5819165706634521,0.23362621665000916
156,5,128,99,0.5215272903442383,0.1767316609621048
156,5,128,100,0.7183455228805542,0.20811498165130615
156,5,128,101,0.6927791237831116,0.18768535554409027
156,5,128,102,0.5621148347854614,0.21576200425624847
156,5,128,103,0.6485550999641418,0.25184789299964905
156,5,128,104,0.7934475541114807,0.14515072107315063
156,5,128,105,0.7123913764953613,0.18080230057239532
156,5,128,106,0.6866412162780762,0.08643844723701477
156,5,128,107,0.5993556380271912,0.2572554349899292
156,5,128,108,0.5729696750640869,0.2786531150341034
156,5,128,109,0.2848508059978485,0.1316032111644745
156,5,128,110,0.6837069988250732,0.1841241419315338
156,5,128,111,0.8332265019416809,0.1236119270324707
156,5,128,112,0.7433867454528809,0.18044044077396393
156,5,128,113,0.5337138772010803,0.20918259024620056
156,5,128,114,0.672446608543396,0.22845005989074707
156,5,128,115,0.7643349766731262,0.13368259370326996
156,5,128,116,0.733579158782959,0.18316800892353058
156,5,128,117,0.5483111143112183,0.07111748307943344
156,5,128,118,0.6637314558029175,0.19591787457466125
156,5,128,119,0.703829824924469,0.0944092720746994
156,5,128,120,0.7798290252685547,0.10895102471113205
156,5,128,121,0.6335622668266296,0.1698332130908966
156,5,128,122,0.6642376780509949,0.1499764323234558
156,5,128,123,0.6752265691757202,0.08804342150688171
156,5,128,124,0.6338661313056946,0.11727050691843033
156,5,128,125,0.7512644529342651,0.11314064264297485
156,5,128,126,0.4982164800167084,0.1658833771944046
156,5,128,127,0.7713935971260071,0.08780146390199661
185,0,32,0,0.5174798369407654,0.03787679225206375
185,0,32,1,0.3706453740596771,0.06077142059803009
185,0,32,2,0.371154248714447,0.029800044372677803
185,0,32,3,0.41972899436950684,0.09737896919250488
185,0,32,4,0.4693398177623749,0.07858148217201233
185,0,32,5,0.4686341881752014,0.06053740531206131
185,0,32,6,0.4577231705188751,0.1007436066865921
185,0,32,7,0.5605438947677612,0.06302657723426819
185,0,32,8,0.6606504917144775,0.08373381942510605
185,0,32,9,0.41502198576927185,0.05903388187289238
185,0,32,10,0.5807129740715027,0.07846694439649582
185,0,32,11,0.4644775986671448,0.05741257965564728
185,0,32,12,0.5083457827568054,0.06594248116016388
185,0,32,13,0.5200497508049011,0.07918758690357208
185,0,32,14,0.4739857614040375,0.10994969308376312
185,0,32,15,0.5128912329673767,0.08245114237070084
185,0,32,16,0.42637139558792114,0.06274937838315964
185,0,32,17,0.6329054832458496,0.08084794878959656
185,0,32,18,0.5869233012199402,0.04248478263616562
185,0,32,19,0.5297423601150513,0.05187102034687996
185,0,32,20,0.46724003553390503,0.06597581505775452
185,0,32,21,0.4777996838092804,0.04666070640087128
185,0,32,22,0.5442304015159607,0.06291097402572632
185,0,32,23,0.5323037505149841,0.07538852095603943
185,0,32,24,0.4672144651412964,0.0620034784078598
185,0,32,25,0.5528268218040466,0.0608438104391098
185,0,32,26,0.48523804545402527,0.09740904718637466
185,0,32,27,0.5448769330978394,0.08040448278188705
185,0,32,28,0.5184106826782227,0.018795199692249298
185,0,32,29,0.46089041233062744,0.08471450954675674
185,0,32,30,0.6468534469604492,0.05777239799499512
185,0,32,31,0.5013677477836609,0.03622909262776375
185,1,32,0,0.5893068313598633,0.027655744925141335
185,1,32,1,0.48848143219947815,0.09043048322200775
185,1,32,2,0.36274850368499756,0.05279916524887085
185,1,32,3,0.5459170937538147,0.02048839069902897
185,1,32,4,0.5663335919380188,0.06678768247365952
185,1,32,5,0.5408689379692078,0.07711919397115707
185,1,32,6,0.4558168947696686,0.05905598774552345
185,1,32,7,0.3348678648471832,0.08460524678230286
185,1,32,8,0.5067147612571716,0.049944907426834106
185,1,32,9,0.3485119938850403,0.05692576244473457
185,1,32,10,0.550610363483429,0.08916477113962173
185,1,32,11,0.3829501271247864,0.08204362541437149
185,1,32,12,0.5200919508934021,0.06887488067150116
185,1,32,13,0.3579392433166504,0.05927345156669617
185,1,32,14,0.5044500231742859,0.06260384619235992
185,1,32,15,0.5492017865180969,0.06251510232686996
185,1,32,16,0.5448527932167053,0.11900296062231064
185,1,32,17,0.42081719636917114,0.1052427813410759
185,1,32,18,0.6062028408050537,0.11124377697706223
185,1,32,19,0.44321727752685547,0.09945782274007797
185,1,32,20,0.562244713306427,0.07520078122615814
185,1,32,21,0.6762181520462036,0.06458861380815506
185,1,32,22,0.5579855442047119,0.029622090980410576
185,1,32,23,0.373010516166687,0.0563996396958828
185,1,32,24,0.3864683210849762,0.048048458993434906
185,1,32,25,0.4870263636112213,0.06198151037096977
185,1,32,26,0.5628681778907776,0.11984387785196304
185,1,32,27,0.4871295094490051,0.06321226805448532
185,1,32,28,0.5601123571395874,0.1142534464597702
185,1,32,29,0.46865421533584595,0.11294442415237427
185,1,32,30,0.4954875111579895,0.048127882182598114
185,1,32,31,0.4778379499912262,0.042495109140872955
185,2,64,0,0.4757261276245117,0.09869047999382019
185,2,64,1,0.5546562075614929,0.0683404728770256
185,2,64,2,0.48211345076560974,0.062126774340867996
185,2,64,3,0.5492101311683655,0.08392714709043503
185,2,64,4,0.42202505469322205,0.17918764054775238
185,2,64,5,0.4073418378829956,0.124860979616642
185,2,64,6,0.504017174243927,0.18836601078510284
185,2,64,7,0.5715554356575012,0.21169191598892212
185,2,64,8,0.4036960005760193,0.12071423977613449
185,2,64,9,0.477946400642395,0.09612858295440674
185,2,64,10,0.5193636417388916,0.07026515156030655
185,2,64,11,0.45249682664871216,0.10930217057466507
185,2,64,12,0.6249682903289795,0.05628575384616852
185,2,64,13,0.4756719470024109,0.08632324635982513
185,2,64,14,0.6437749862670898,0.1047438383102417
185,2,64,15,0.5720908641815186,0.15259765088558197
185,2,64,16,0.3231855034828186,0.08447477221488953
185,2,64,17,0.5713411569595337,0.04143092408776283
185,2,64,18,0.33389484882354736,0.11057516187429428
185,2,64,19,0.4691583514213562,0.06912148743867874
185,2,64,20,0.35300782322883606,0.10573238879442215
185,2,64,21,0.580268919467926,0.08262533694505692
185,2,64,22,0.514190673828125,0.09685930609703064
185,2,64,23,0.3998279273509979,0.07231129705905914
185,2,64,24,0.5429196357727051,0.13751338422298431
185,2,64,25,0.5319390892982483,0.08950744569301605
185,2,64,26,0.40881869196891785,0.10718514770269394
185,2,64,27,0.5371491312980652,0.1832028180360794
185,2,64,28,0.6457390785217285,0.08600937575101852
185,2,64,29,0.5282683372497559,0.038524359464645386
185,2,64,30,0.6267276406288147,0.0797528326511383
185,2,64,31,0.3737356662750244,0.0762895718216896
185,2,64,32,0.49088427424430847,0.15208275616168976
185,2,64,33,0.43219318985939026,0.05804891139268875
185,2,64,34,0.4915418326854706,0.16814538836479187
185,2,64,35,0.500663161277771,0.12186100333929062
185,2,64,36,0.4407452642917633,0.09293399751186371
185,2,64,37,0.5497535467147827,0.14216548204421997
185,2,64,38,0.6451922059059143,0.1075419932603836
185,2,64,39,0.36812835931777954,0.0666772648692131
185,2,64,40,0.5401111245155334,0.12103120237588882
185,2,64,41,0.3214876055717468,0.08147937059402466
185,2,64,42,0.4805190861225128,0.0757073238492012
185,2,64,43,0.5742271542549133,0.12914085388183594
185,2,64,44,0.5825164318084717,0.1659659445285797
185,2,64,45,0.4580210745334625,0.08426116406917572
185,2,64,46,0.53617262840271,0.10964075475931168
185,2,64,47,0.37169530987739563,0.09027866274118423
185,2,64,48,0.6372641921043396,0.09296996146440506
185,2,64,49,0.42825138568878174,0.04993138462305069
185,2,64,50,0.4738160967826843,0.03541829437017441
185,2,64,51,0.5120924711227417,0.16782815754413605
185,2,64,52,0.566777229309082,0.08710547536611557
185,2,64,53,0.40888404846191406,0.03154117986559868
185,2,64,54,0.615330696105957,0.08043447881937027
185,2,64,55,0.49389970302581787,0.14389263093471527
185,2,64,56,0.5006910562515259,0.04958467558026314
185,2,64,57,0.5533379316329956,0.08288003504276276
185,2,64,58,0.4585545063018799,0.09296056628227234
185,2,64,59,0.4244934320449829,0.04870796576142311
185,2,64,60,0.3903369605541229,0.0693947821855545
185,2,64,61,0.5256198644638062,0.08245644718408585
185,2,64,62,0.43797555565834045,0.1264372169971466
185,2,64,63,0.5171041488647461,0.12391521781682968
185,3,64,0,0.4495641887187958,0.07269410043954849
185,3,64,1,0.5594291687011719,0.0863364040851593
185,3,64,2,0.5650045871734619,0.06891698390245438
185,3,64,3,0.5125253796577454,0.11004727333784103
185,3,64,4,0.3850436508655548,0.0699043869972229
185,3,64,5,0.49599364399909973,0.1240723729133606
185,3,64,6,0.3803872764110565,0.07284140586853027
185,3,64,7,0.5436756014823914,0.04884037375450134
185,3,64,8,0.5811939239501953,0.04379647597670555
185,3,64,9,0.39206695556640625,0.06657905876636505
185,3,64,10,0.4567095637321472,0.0578458271920681
185,3,64,11,0.5171673893928528,0.043829791247844696
185,3,64,12,0.5763610005378723,0.06674988567829132
185,3,64,13,0.5804294943809509,0.06858322769403458
185,3,64,14,0.5106862783432007,0.0940406322479248
185,3,64,15,0.49580836296081543,0.07610058039426804
185,3,64,16,0.44643011689186096,0.06905486434698105
185,3,64,17,0.4377654492855072,0.030196836218237877
185,3,64,18,0.5213534235954285,0.11544439196586609
185,3,64,19,0.566943883895874,0.11203274130821228
185,3,64,20,0.6084275245666504,0.08855452388525009
185,3,64,21,0.6413461565971375,0.0738707035779953
185,3,64,22,0.3760279715061188,0.04440178722143173
185,3,64,23,0.47102561593055725,0.06875220686197281
185,3,64,24,0.3726523518562317,0.054117634892463684
185,3,64,25,0.5926012992858887,0.05900983512401581
185,3,64,26,0.5007174015045166,0.06735467165708542
185,3,64,27,0.4429100453853607,0.10011247545480728
185,3,64,28,0.4049852192401886,0.0768461599946022
185,3,64,29,0.51698899269104,0.08058193325996399
185,3,64,30,0.36487463116645813,0.07764878123998642
185,3,64,31,0.4189178943634033,0.05194336175918579
185,3,64,32,0.5235424041748047,0.05746154487133026
185,3,64,33,0.5575242042541504,0.07880349457263947
185,3,64,34,0.5217899680137634,0.08124084770679474
185,3,64,35,0.4721984267234802,0.09638706594705582
185,3,64,36,0.5289551615715027,0.11355665326118469
185,3,64,37,0.39356639981269836,0.05787709355354309
185,3,64,38,0.5317108631134033,0.03268344700336456
185,3,64,39,0.44044944643974304,0.07616555690765381
185,3,64,40,0.5546770691871643,0.06878362596035004
185,3,64,41,0.4515887200832367,0.039787035435438156
185,3,64,42,0.4457898437976837,0.11350271105766296
185,3,64,43,0.4174983501434326,0.021648963913321495
185,3,64,44,0.5175701975822449,0.06000767648220062
185,3,64,45,0.5798699259757996,0.049076516181230545
185,3,64,46,0.5212481617927551,0.05328533798456192
185,3,64,47,0.3873549699783325,0.05859820917248726
185,3,64,48,0.4620935022830963,0.0884859636425972
185,3,64,49,0.3875637948513031,0.09898219257593155
185,3,64,50,0.5329651832580566,0.07820723950862885
185,3,64,51,0.46767815947532654,0.047386329621076584
185,3,64,52,0.4528631269931793,0.0626249685883522
185,3,64,53,0.5266904234886169,0.08833004534244537
185,3,64,54,0.4598027467727661,0.01997109316289425
185,3,64,55,0.6210936307907104,0.062282267957925797
185,3,64,56,0.5566146969795227,0.06759721785783768
185,3,64,57,0.5486742258071899,0.08043595403432846
185,3,64,58,0.4860862195491791,0.11058831959962845
185,3,64,59,0.5087313055992126,0.029923591762781143
185,3,64,60,0.47593262791633606,0.048502903431653976
185,3,64,61,0.5414912700653076,0.02952638640999794
185,3,64,62,0.5846036672592163,0.07097862660884857
185,3,64,63,0.4707231819629669,0.11100511997938156
185,4,128,0,0.54060298204422,0.08084055036306381
185,4,128,1,0.44869887828826904,0.13174507021903992
185,4,128,2,0.5767830610275269,0.09582053124904633
185,4,128,3,0.5733876824378967,0.14858223497867584
185,4,128,4,0.4154335856437683,0.09409885853528976
185,4,128,5,0.46124279499053955,0.0944162979722023
185,4,128,6,0.49251410365104675,0.11639641225337982
185,4,128,7,0.42372697591781616,0.08362410217523575
185,4,128,8,0.5320165157318115,0.10336961597204208
185,4,128,9,0.5032426118850708,0.08112335205078125
185,4,128,10,0.44887080788612366,0.08355877548456192
185,4,128,11,0.5487921833992004,0.08243655413389206
185,4,128,12,0.5374908447265625,0.11379307508468628
185,4,128,13,0.571991503238678,0.08939836174249649
185,4,128,14,0.6009113788604736,0.12628571689128876
185,4,128,15,0.6123737096786499,0.12944479286670685
185,4,128,16,0.5117592811584473,0.09903430193662643
185,4,128,17,0.3980560004711151,0.06697846949100494
185,4,128,18,0.5599852800369263,0.06361448764801025
185,4,128,19,0.4289589524269104,0.06770890206098557
185,4,128,20,0.5722094774246216,0.16916581988334656
185,4,128,21,0.635539174079895,0.1217777281999588
185,4,128,22,0.36803576350212097,0.09459598362445831
185,4,128,23,0.4774138629436493,0.09109913557767868
185,4,128,24,0.3793339133262634,0.10418745875358582
185,4,128,25,0.4291946589946747,0.13042861223220825
185,4,128,26,0.46924886107444763,0.0527985654771328
185,4,128,27,0.5960770845413208,0.06430847942829132
185,4,128,28,0.7029111385345459,0.12392136454582214
185,4,128,29,0.5422374606132507,0.08665347099304199
185,4,128,30,0.43759772181510925,0.12267044931650162
185,4,128,31,0.48593881726264954,0.05030115693807602
185,4,128,32,0.47582778334617615,0.08290209621191025
185,4,128,33,0.6185128092765808,0.08905210345983505
185,4,128,34,0.5024833679199219,0.16844837367534637
185,4,128,35,0.602064311504364,0.13681316375732422
185,4,128,36,0.5066285729408264,0.07232184708118439
185,4,128,37,0.42632269859313965,0.09254501760005951
185,4,128,38,0.46151018142700195,0.03760252147912979
185,4,128,39,0.6048204898834229,0.10034096986055374
185,4,128,40,0.5156757831573486,0.09969189763069153
185,4,128,41,0.43671929836273193,0.1256113499403
185,4,128,42,0.4351954758167267,0.11893807351589203
185,4,128,43,0.43800458312034607,0.10774912685155869
185,4,128,44,0.5023359060287476,0.11272360384464264
185,4,128,45,0.6983394622802734,0.1159558966755867
185,4,128,46,0.4472064673900604,0.06763046979904175
185,4,128,47,0.45630499720573425,0.09446845948696136
185,4,128,48,0.49418821930885315,0.14443492889404297
185,4,128,49,0.45161494612693787,0.10987785458564758
185,4,128,50,0.5404221415519714,0.07165481150150299
185,4,128,51,0.5055218935012817,0.06737970560789108
185,4,128,52,0.45167088508605957,0.10284081846475601
185,4,128,53,0.5018103122711182,0.10550519824028015
185,4,128,54,0.40653544664382935,0.0857183113694191
185,4,128,55,0.5086193084716797,0.06617029756307602
185,4,128,56,0.6333351731300354,0.11825106292963028
185,4,128,57,0.5456030964851379,0.09611991047859192
185,4,128,58,0.45781365036964417,0.09397431463003159
185,4,128,59,0.5295031070709229,0.0857371911406517
185,4,128,60,0.5585210919380188,0.06483091413974762
185,4,128,61,0.42422249913215637,0.10175081342458725
185,4,128,62,0.6298660039901733,0.06781623512506485
185,4,128,63,0.4924643337726593,0.10643845051527023
185,4,128,64,0.4702547490596771,0.12499696016311646
185,4,128,65,0.3116408884525299,0.10430746525526047
185,4,128,66,0.5327392220497131,0.06864479929208755
185,4,128,67,0.609117329120636,0.12234591692686081
185,4,128,68,0.5142137408256531,0.08710837364196777
185,4,128,69,0.5831724405288696,0.08105386048555374
185,4,128,70,0.6095981001853943,0.07406824827194214
185,4,128,71,0.5947738289833069,0.14159099757671356
185,4,128,72,0.5300953388214111,0.1214851438999176
185,4,128,73,0.5910851955413818,0.11293794959783554
185,4,128,74,0.5177739858627319,0.06317315250635147
185,4,128,75,0.509626567363739,0.12632298469543457
185,4,128,76,0.6041865348815918,0.09530573338270187
185,4,128,77,0.5313889384269714,0.13890226185321808
185,4,128,78,0.4109041094779968,0.08412956446409225
185,4,128,79,0.4982425272464752,0.09938668459653854
185,4,128,80,0.5443369746208191,0.0773128941655159
185,4,128,81,0.6177401542663574,0.1324077695608139
185,4,128,82,0.5607490539550781,0.08857381343841553
185,4,128,83,0.559006929397583,0.10291634500026703
185,4,128,84,0.496766060590744,0.062139250338077545
185,4,128,85,0.3447939455509186,0.10472944378852844
185,4,128,86,0.44423896074295044,0.1044175997376442
185,4,128,87,0.48681798577308655,0.10162390768527985
185,4,128,88,0.45237505435943604,0.06243833899497986
185,4,128,89,0.5681881904602051,0.08463121205568314
185,4,128,90,0.39058205485343933,0.08150184899568558
185,4,128,91,0.5902134776115417,0.06140100210905075
185,4,128,92,0.5640861392021179,0.08499312400817871
185,4,128,93,0.5947570204734802,0.09855610877275467
185,4,128,94,0.559407651424408,0.06725248694419861
185,4,128,95,0.47048220038414,0.07329493761062622
185,4,128,96,0.4717523753643036,0.1401391327381134
185,4,128,97,0.44727998971939087,0.10455819964408875
185,4,128,98,0.6047108173370361,0.057579491287469864
185,4,128,99,0.3623068630695343,0.11388735473155975
185,4,128,100,0.5824547410011292,0.13195154070854187
185,4,128,101,0.4647440016269684,0.10251498967409134
185,4,128,102,0.3089830279350281,0.11314816772937775
185,4,128,103,0.41588491201400757,0.08849963545799255
185,4,128,104,0.45941412448883057,0.107798732817173
185,4,128,105,0.5172508358955383,0.11494430154561996
185,4,128,106,0.5985432863235474,0.07301018387079239
185,4,128,107,0.6024255752563477,0.07387164980173111
185,4,128,108,0.6081414222717285,0.12336409837007523
185,4,128,109,0.5616865158081055,0.06945381313562393
185,4,128,110,0.6401562094688416,0.12863852083683014
185,4,128,111,0.4023974537849426,0.1315707564353943
185,4,128,112,0.46072062849998474,0.13179434835910797
185,4,128,113,0.40506279468536377,0.0965813398361206
185,4,128,114,0.3704960346221924,0.12394142895936966
185,4,128,115,0.4874793291091919,0.07237828522920609
185,4,128,116,0.4954427480697632,0.06276431679725647
185,4,128,117,0.5196413397789001,0.08989134430885315
185,4,128,118,0.5161762833595276,0.05562127009034157
185,4,128,119,0.5620251893997192,0.07333490997552872
185,4,128,120,0.5224342942237854,0.08802235126495361
185,4,128,121,0.5532678365707397,0.06858763843774796
185,4,128,122,0.5502517223358154,0.08342515677213669
185,4,128,123,0.46085429191589355,0.06170443445444107
185,4,128,124,0.506633460521698,0.10350453108549118
185,4,128,125,0.360053688287735,0.10939089208841324
185,4,128,126,0.3628026247024536,0.08774763345718384
185,4,128,127,0.5366531014442444,0.08714552968740463
185,5,128,0,0.6067699790000916,0.10560721158981323
185,5,128,1,0.5392053127288818,0.099310502409935
185,5,128,2,0.5676581263542175,0.05667926371097565
185,5,128,3,0.5565392971038818,0.09862500429153442
185,5,128,4,0.5969997048377991,0.11691863089799881
185,5,128,5,0.4826919436454773,0.10837429761886597
185,5,128,6,0.5069204568862915,0.10669638961553574
185,5,128,7,0.4928485155105591,0.14354291558265686
185,5,128,8,0.4922940731048584,0.12762561440467834
185,5,128,9,0.6397082805633545,0.06590641289949417
185,5,128,10,0.44141480326652527,0.12299533188343048
185,5,128,11,0.6507198810577393,0.07069186121225357
185,5,128,12,0.4394405484199524,0.0755186527967453
185,5,128,13,0.4431594908237457,0.05908055976033211
185,5,128,14,0.5175239443778992,0.11435649544000626
185,5,128,15,0.5799914002418518,0.1554195135831833
185,5,128,16,0.5642957091331482,0.15515059232711792
185,5,128,17,0.514377772808075,0.14524956047534943
185,5,128,18,0.5399186015129089,0.13619527220726013
185,5,128,19,0.5727980136871338,0.059973329305648804
185,5,128,20,0.5740749835968018,0.08829253166913986
185,5,128,21,0.517086386680603,0.06420964747667313
185,5,128,22,0.3785344064235687,0.0965966135263443
185,5,128,23,0.4856358468532562,0.09001309424638748
185,5,128,24,0.5227431654930115,0.21480150520801544
185,5,128,25,0.44325345754623413,0.1172623261809349
185,5,128,26,0.6340125203132629,0.11425427347421646
185,5,128,27,0.60383540391922,0.047330647706985474
185,5,128,28,0.47094571590423584,0.12352998554706573
185,5,128,29,0.4627454876899719,0.07285665720701218
185,5,128,30,0.458675742149353,0.12343205511569977
185,5,128,31,0.5447685122489929,0.09976574778556824
185,5,128,32,0.5723722577095032,0.09717412292957306
185,5,128,33,0.49129897356033325,0.09671080857515335
185,5,128,34,0.45075076818466187,0.11535484343767166
185,5,128,35,0.42806878685951233,0.10820011794567108
185,5,128,36,0.45489057898521423,0.15902920067310333
185,5,128,37,0.4680798351764679,0.1469012349843979
185,5,128,38,0.5544931292533875,0.03915581852197647
185,5,128,39,0.5168798565864563,0.13094192743301392
185,5,128,40,0.564073920249939,0.08057377487421036
185,5,128,41,0.4060080349445343,0.10892027616500854
185,5,128,42,0.5148537755012512,0.045615460723638535
185,5,128,43,0.6085159182548523,0.10913632065057755
185,5,128,44,0.6782295107841492,0.10128515958786011
185,5,128,45,0.5339268445968628,0.1190679594874382
185,5,128,46,0.6001259684562683,0.1035437136888504
185,5,128,47,0.5082585215568542,0.05039457604289055
185,5,128,48,0.41513633728027344,0.059898510575294495
185,5,128,49,0.5470813512802124,0.10774806141853333
185,5,128,50,0.6611290574073792,0.09999100863933563
185,5,128,51,0.4725574851036072,0.16203458607196808
185,5,128,52,0.4615049660205841,0.15915565192699432
185,5,128,53,0.5408924221992493,0.07953640818595886
185,5,128,54,0.4809614419937134,0.07640527188777924
185,5,128,55,0.5752094388008118,0.10619485378265381
185,5,128,56,0.4908144772052765,0.15736842155456543
185,5,128,57,0.4891597330570221,0.1297723799943924
185,5,128,58,0.4284496009349823,0.15230871737003326
185,5,128,59,0.6098746061325073,0.09560840576887131
185,5,128,60,0.4529292583465576,0.14293643832206726
185,5,128,61,0.5175609588623047,0.11071856319904327
185,5,128,62,0.5567297339439392,0.11658129841089249
185,5,128,63,0.4193325936794281,0.1364596039056778
185,5,128,64,0.6127524971961975,0.08131185173988342
185,5,128,65,0.564609706401825,0.12733356654644012
185,5,128,66,0.6537832617759705,0.07868222892284393
185,5,128,67,0.5707654356956482,0.12941177189350128
185,5,128,68,0.49599871039390564,0.11845199018716812
185,5,128,69,0.6061909198760986,0.08578480780124664
185,5,128,70,0.5217806696891785,0.13576792180538177
185,5,128,71,0.5667343139648438,0.08076716959476471
185,5,128,72,0.5906001925468445,0.10360094159841537
185,5,128,73,0.4569450616836548,0.10916013270616531
185,5,128,74,0.3557043969631195,0.06458083540201187
185,5,128,75,0.5704213380813599,0.06906944513320923
185,5,128,76,0.5483880043029785,0.10825276374816895
185,5,128,77,0.48572179675102234,0.08917294442653656
185,5,128,78,0.5822517275810242,0.12265030294656754
185,5,128,79,0.4765087962150574,0.08098679780960083
185,5,128,80,0.49921080470085144,0.13684597611427307
185,5,128,81,0.5727635622024536,0.11408109962940216
185,5,128,82,0.5634393095970154,0.0571296326816082
185,5,128,83,0.5388858318328857,0.04748900979757309
185,5,128,84,0.6619685888290405,0.10620755702257156
185,5,128,85,0.5837500095367432,0.0944707989692688
185,5,128,86,0.5410599112510681,0.1802169531583786
185,5,128,87,0.46610912680625916,0.08496863394975662
185,5,128,88,0.556941568851471,0.13908246159553528
185,5,128,89,0.47888386249542236,0.13981612026691437
185,5,128,90,0.38105061650276184,0.10768602788448334
185,5,128,91,0.4879898130893707,0.033194899559020996
185,5,128,92,0.5596349835395813,0.08061258494853973
185,5,128,93,0.5542168021202087,0.07299593091011047
185,5,128,94,0.478596568107605,0.07303117215633392
185,5,128,95,0.5145493149757385,0.059530556201934814
185,5,128,96,0.6302001476287842,0.11880020797252655
185,5,128,97,0.5320074558258057,0.15237325429916382
185,5,128,98,0.5892891883850098,0.14456285536289215
185,5,128,99,0.49611228704452515,0.10876636207103729
185,5,128,100,0.44753360748291016,0.07200436294078827
185,5,128,101,0.6225897669792175,0.11568988859653473
185,5,128,102,0.512234091758728,0.06802131980657578
185,5,128,103,0.4276925027370453,0.08486879616975784
185,5,128,104,0.4703258275985718,0.09076790511608124
185,5,128,105,0.4537582993507385,0.13280199468135834
185,5,128,106,0.5837376713752747,0.14419223368167877
185,5,128,107,0.5064802169799805,0.070364810526371
185,5,128,108,0.5096726417541504,0.0907331183552742
185,5,128,109,0.5562353134155273,0.12687700986862183
185,5,128,110,0.5944036841392517,0.14355877041816711
185,5,128,111,0.4413718581199646,0.11868536472320557
185,5,128,112,0.48221370577812195,0.15100429952144623
185,5,128,113,0.509412407875061,0.13771390914916992
185,5,128,114,0.39610555768013,0.0855003148317337
185,5,128,115,0.6191385388374329,0.07925214618444443
185,5,128,116,0.518702507019043,0.0725235641002655
185,5,128,117,0.51729816198349,0.1588132083415985
185,5,128,118,0.5045920610427856,0.18029053509235382
185,5,128,119,0.4537416696548462,0.09402753412723541
185,5,128,120,0.6150380969047546,0.1568569540977478
185,5,128,121,0.4445604979991913,0.1508703976869583
185,5,128,122,0.6302348971366882,0.07558704912662506
185,5,128,123,0.34489935636520386,0.10414928942918777
185,5,128,124,0.5070226788520813,0.09126584231853485
185,5,128,125,0.5536406636238098,0.15017162263393402
185,5,128,126,0.4168053865432739,0.10847196727991104
185,5,128,127,0.5695643424987793,0.0654505267739296
186,0,32,0,0.6378635168075562,0.08081969618797302
186,0,32,1,0.5149617195129395,0.10682207345962524
186,0,32,2,0.4554325044155121,0.09544695913791656
186,0,32,3,0.46716904640197754,0.12451297789812088
186,0,32,4,0.31779634952545166,0.10614223033189774
186,0,32,5,0.5965473651885986,0.09075863659381866
186,0,32,6,0.5154418349266052,0.1446598619222641
186,0,32,7,0.4423181414604187,0.13544303178787231
186,0,32,8,0.4913256764411926,0.06756601482629776
186,0,32,9,0.55121910572052,0.06795632839202881
186,0,32,10,0.34964242577552795,0.06660832464694977
186,0,32,11,0.4129680097103119,0.055023323744535446
186,0,32,12,0.496783971786499,0.13532805442810059
186,0,32,13,0.488582581281662,0.10773229598999023
186,0,32,14,0.5295335650444031,0.09086278080940247
186,0,32,15,0.41119611263275146,0.12724559009075165
186,0,32,16,0.45546895265579224,0.09676405787467957
186,0,32,17,0.5599663257598877,0.10763341933488846
186,0,32,18,0.34810176491737366,0.08434413373470306
186,0,32,19,0.6110084056854248,0.10042114555835724
186,0,32,20,0.4064519703388214,0.06853681802749634
186,0,32,21,0.5518167614936829,0.0535290464758873
186,0,32,22,0.4280850887298584,0.12478326261043549
186,0,32,23,0.6590290069580078,0.10960819572210312
186,0,32,24,0.45623213052749634,0.09879062324762344
186,0,32,25,0.446548193693161,0.08956100791692734
186,0,32,26,0.45340070128440857,0.12378957122564316
186,0,32,27,0.4644755721092224,0.08745336532592773
186,0,32,28,0.5224515199661255,0.08931434154510498
186,0,32,29,0.5633193254470825,0.08358024805784225
186,0,32,30,0.5706278681755066,0.04137371852993965
186,0,32,31,0.5294153690338135,0.07749036699533463
186,1,32,0,0.3707306683063507,0.07203090935945511
186,1,32,1,0.5485824346542358,0.03894965350627899
186,1,32,2,0.49167782068252563,0.11286468058824539
186,1,32,3,0.408272922039032,0.028648754581809044
186,1,32,4,0.5732922554016113,0.07616820931434631
186,1,32,5,0.4068233072757721,0.048276547342538834
186,1,32,6,0.3814198970794678,0.0554807148873806
186,1,32,7,0.44452789425849915,0.047558706253767014
186,1,32,8,0.524471640586853,0.03116254135966301
186,1,32,9,0.4221678674221039,0.025340164080262184
186,1,32,10,0.42308759689331055,0.07295452058315277
186,1,32,11,0.5565429925918579,0.06933735311031342
186,1,32,12,0.3985895812511444,0.04229143634438515
186,1,32,13,0.4716363847255707,0.054970405995845795
186,1,32,14,0.591812789440155,0.06008130684494972
186,1,32,15,0.4833240807056427,0.049907077103853226
186,1,32,16,0.5478264093399048,0.09869050979614258
186,1,32,17,0.4193839728832245,0.08384961634874344
186,1,32,18,0.4560539722442627,0.08350995182991028
186,1,32,19,0.5690048336982727,0.07855075597763062
186,1,32,20,0.5609691739082336,0.10364439338445663
186,1,32,21,0.5331003069877625,0.09328773617744446
186,1,32,22,0.42624151706695557,0.04161577671766281
186,1,32,23,0.5817908644676208,0.03698071837425232
186,1,32,24,0.5862236022949219,0.049188464879989624
186,1,32,25,0.5592212677001953,0.09885483235120773
186,1,32,26,0.42703285813331604,0.08812042325735092
186,1,32,27,0.46392160654067993,0.07864975184202194
186,1,32,28,0.416447252035141,0.10445711016654968
186,1,32,29,0.4086964726448059,0.0618438683450222
186,1,32,30,0.5575079321861267,0.09657976031303406
186,1,32,31,0.4398183822631836,0.0420994833111763
186,2,64,0,0.6202044486999512,0.20099201798439026
186,2,64,1,0.4181658625602722,0.18375079333782196
186,2,64,2,0.49739477038383484,0.08409745991230011
186,2,64,3,0.6467098593711853,0.06986664980649948
186,2,64,4,0.43773749470710754,0.09469984471797943
186,2,64,5,0.5860247015953064,0.1306183785200119
186,2,64,6,0.5449240803718567,0.10845433920621872
186,2,64,7,0.6167221665382385,0.12858819961547852
186,2,64,8,0.42157745361328125,0.07773828506469727
186,2,64,9,0.6062324047088623,0.11556007713079453
186,2,64,10,0.31051844358444214,0.14040584862232208
186,2,64,11,0.510759711265564,0.12620408833026886
186,2,64,12,0.4208565354347229,0.15706758201122284
186,2,64,13,0.5778709053993225,0.14369598031044006
186,2,64,14,0.4769526720046997,0.10212310403585434
186,2,64,15,0.6118111610412598,0.12398988008499146
186,2,64,16,0.5764259696006775,0.0830707848072052
186,2,64,17,0.5833547115325928,0.17671693861484528
186,2,64,18,0.5623255968093872,0.12175354361534119
186,2,64,19,0.6021712422370911,0.09380628168582916
186,2,64,20,0.43778908252716064,0.0844217985868454
186,2,64,21,0.4108142554759979,0.12401987612247467
186,2,64,22,0.2862199544906616,0.13989919424057007
186,2,64,23,0.5168368816375732,0.07352714985609055
186,2,64,24,0.41840603947639465,0.09016560018062592
186,2,64,25,0.5643054842948914,0.20683765411376953
186,2,64,26,0.3989866077899933,0.12621428072452545
186,2,64,27,0.3971783220767975,0.11030537635087967
186,2,64,28,0.5296923518180847,0.1196046695113182
186,2,64,29,0.535063624382019,0.14887702465057373
186,2,64,30,0.4466710090637207,0.19942240417003632
186,2,64,31,0.4261009991168976,0.14696893095970154
186,2,64,32,0.4167981743812561,0.12770819664001465
186,2,64,33,0.5816724300384521,0.11311101168394089
186,2,64,34,0.5992742776870728,0.14590394496917725
186,2,64,35,0.5836853384971619,0.1299656480550766
186,2,64,36,0.42395007610321045,0.13529200851917267
186,2,64,37,0.43398720026016235,0.14605358242988586
186,2,64,38,0.6199935674667358,0.1940051168203354
186,2,64,39,0.458268940448761,0.09471256285905838
186,2,64,40,0.4362691044807434,0.07682570815086365
186,2,64,41,0.4011717438697815,0.1640312671661377
186,2,64,42,0.6732434034347534,0.14130350947380066
186,2,64,43,0.41726550459861755,0.13390278816223145
186,2,64,44,0.5244910717010498,0.1157311499118805
186,2,64,45,0.38835397362709045,0.06738858669996262
186,2,64,46,0.3424566686153412,0.15786640346050262
186,2,64,47,0.43095138669013977,0.12096337229013443
186,2,64,48,0.5600866079330444,0.12475551664829254
186,2,64,49,0.4980557858943939,0.09870344400405884
186,2,64,50,0.4894043207168579,0.09899712353944778
186,2,64,51,0.4565061926841736,0.10817607492208481
186,2,64,52,0.4338560700416565,0.13710461556911469
186,2,64,53,0.6286795735359192,0.06412248313426971
186,2,64,54,0.4972170293331146,0.12956783175468445
186,2,64,55,0.5033780336380005,0.1449039876461029
186,2,64,56,0.4052365720272064,0.19371797144412994
186,2,64,57,0.6984723806381226,0.14853890240192413
186,2,64,58,0.5476493835449219,0.10222657769918442
186,2,64,59,0.39059722423553467,0.14482499659061432
186,2,64,60,0.5325660109519958,0.07798812538385391
186,2,64,61,0.6171659827232361,0.17163094878196716
186,2,64,62,0.35001617670059204,0.12223440408706665
186,2,64,63,0.4513835310935974,0.18773262202739716
186,3,64,0,0.4234161674976349,0.06306936591863632
186,3,64,1,0.6075454354286194,0.13027815520763397
186,3,64,2,0.3445962071418762,0.1130262017250061
186,3,64,3,0.5432054400444031,0.10990280658006668
186,3,64,4,0.5001612901687622,0.1973113715648651
186,3,64,5,0.5678481459617615,0.16776753962039948
186,3,64,6,0.5872443318367004,0.15246665477752686
186,3,64,7,0.6126012802124023,0.08383522927761078
186,3,64,8,0.5629782676696777,0.115712009370327
186,3,64,9,0.46704530715942383,0.1529702991247177
186,3,64,10,0.46871089935302734,0.17009775340557098
186,3,64,11,0.4735049605369568,0.09002852439880371
186,3,64,12,0.4836499094963074,0.10132181644439697
186,3,64,13,0.5012823343276978,0.1501052975654602
186,3,64,14,0.39557671546936035,0.05942653492093086
186,3,64,15,0.386898010969162,0.08248190581798553
186,3,64,16,0.5802533626556396,0.055897057056427
186,3,64,17,0.6215038895606995,0.12778909504413605
186,3,64,18,0.5503591299057007,0.06222900003194809
186,3,64,19,0.611770749092102,0.051005687564611435
186,3,64,20,0.4788694977760315,0.08260493725538254
186,3,64,21,0.40039247274398804,0.1246681734919548
186,3,64,22,0.39474907517433167,0.06196806952357292
186,3,64,23,0.7008890509605408,0.13153403997421265
186,3,64,24,0.6212870478630066,0.12257765978574753
186,3,64,25,0.3935945928096771,0.12878726422786713
186,3,64,26,0.626235842704773,0.06853807717561722
186,3,64,27,0.5464128851890564,0.21590711176395416
186,3,64,28,0.31014159321784973,0.09650594741106033
186,3,64,29,0.597752571105957,0.07694904506206512
186,3,64,30,0.5846962332725525,0.15926001965999603
186,3,64,31,0.32234978675842285,0.13844598829746246
186,3,64,32,0.36839452385902405,0.11497118324041367
186,3,64,33,0.5653035640716553,0.1216629296541214
186,3,64,34,0.34017521142959595,0.1324928253889084
186,3,64,35,0.4709186553955078,0.07443714141845703
186,3,64,36,0.3779587149620056,0.11907292157411575
186,3,64,37,0.5255123376846313,0.26060107350349426
186,3,64,38,0.4031311273574829,0.06449276953935623
186,3,64,39,0.44345784187316895,0.0709397941827774
186,3,64,40,0.5573627352714539,0.10318334400653839
186,3,64,41,0.4148019254207611,0.15188762545585632
186,3,64,42,0.4258024990558624,0.1511244922876358
186,3,64,43,0.49080803990364075,0.2004351168870926
186,3,64,44,0.5976173281669617,0.11207754164934158
186,3,64,45,0.3579470217227936,0.12268092483282089
186,3,64,46,0.32202643156051636,0.1214156374335289
186,3,64,47,0.45057305693626404,0.12083258479833603
186,3,64,48,0.6345717310905457,0.10453405231237411
186,3,64,49,0.48978087306022644,0.19283364713191986
186,3,64,50,0.586372971534729,0.12461527436971664
186,3,64,51,0.46274420619010925,0.2653447985649109
186,3,64,52,0.4041798412799835,0.08165107667446136
186,3,64,53,0.44170626997947693,0.16818232834339142
186,3,64,54,0.36754053831100464,0.14432747662067413
186,3,64,55,0.4738521873950958,0.10133736580610275
186,3,64,56,0.417679101228714,0.07641325891017914
186,3,64,57,0.5238379836082458,0.08222289383411407
186,3,64,58,0.43396079540252686,0.1424226015806198
186,3,64,59,0.6323702931404114,0.09061342477798462
186,3,64,60,0.6312689781188965,0.1257752627134323
186,3,64,61,0.5892012119293213,0.13376592099666595
186,3,64,62,0.49410247802734375,0.18871694803237915
186,3,64,63,0.5258601307868958,0.2089303582906723
186,4,128,0,0.5653327107429504,0.2131093293428421
186,4,128,1,0.6681023240089417,0.2496766597032547
186,4,128,2,0.4528942406177521,0.09731617569923401
186,4,128,3,0.4859914779663086,0.23039372265338898
186,4,128,4,0.5117009878158569,0.16951437294483185
186,4,128,5,0.4861752390861511,0.2280852347612381
186,4,128,6,0.4232758581638336,0.31861618161201477
186,4,128,7,0.4244907796382904,0.28379157185554504
186,4,128,8,0.4680502414703369,0.16341784596443176
186,4,128,9,0.41541483998298645,0.11591856181621552
186,4,128,10,0.6581350564956665,0.21727000176906586
186,4,128,11,0.428022563457489,0.29963359236717224
186,4,128,12,0.4335690140724182,0.1784895658493042
186,4,128,13,0.38160309195518494,0.21792219579219818
186,4,128,14,0.6822367906570435,0.11304233223199844
186,4,128,15,0.6796286702156067,0.20242199301719666
186,4,128,16,0.6447858810424805,0.14769649505615234
186,4,128,17,0.6900108456611633,0.13564303517341614
186,4,128,18,0.5122132301330566,0.2758876383304596
186,4,128,19,0.6569761633872986,0.263131320476532
186,4,128,20,0.525371253490448,0.21029680967330933
186,4,128,21,0.5118311047554016,0.16410832107067108
186,4,128,22,0.48746249079704285,0.23391513526439667
186,4,128,23,0.7178659439086914,0.1265552043914795
186,4,128,24,0.5536084771156311,0.12491738051176071
186,4,128,25,0.49195021390914917,0.23161430656909943
186,4,128,26,0.42211973667144775,0.11895245313644409
186,4,128,27,0.7330067753791809,0.11893276125192642
186,4,128,28,0.42394059896469116,0.2622562646865845
186,4,128,29,0.6828407645225525,0.09945658594369888
186,4,128,30,0.6705300211906433,0.22971487045288086
186,4,128,31,0.6547203660011292,0.14713124930858612
186,4,128,32,0.3803867697715759,0.24773064255714417
186,4,128,33,0.5764144062995911,0.2589767873287201
186,4,128,34,0.3884976804256439,0.24122460186481476
186,4,128,35,0.483248770236969,0.1636846661567688
186,4,128,36,0.7140617966651917,0.09319116175174713
186,4,128,37,0.7443113327026367,0.10364376753568649
186,4,128,38,0.6100462675094604,0.12465957552194595
186,4,128,39,0.4172200858592987,0.32192790508270264
186,4,128,40,0.4832785725593567,0.22088178992271423
186,4,128,41,0.5250239372253418,0.25388839840888977
186,4,128,42,0.29235392808914185,0.1899648904800415
186,4,128,43,0.6096612811088562,0.19343037903308868
186,4,128,44,0.5966991186141968,0.20455606281757355
186,4,128,45,0.6294015645980835,0.16614316403865814
186,4,128,46,0.3596239984035492,0.12345167249441147
186,4,128,47,0.6813214421272278,0.2232292741537094
186,4,128,48,0.6247308254241943,0.2521992623806
186,4,128,49,0.47820889949798584,0.16222453117370605
186,4,128,50,0.5963245630264282,0.2047543078660965
186,4,128,51,0.7410520315170288,0.1879480630159378
186,4,128,52,0.5260599851608276,0.23477649688720703
186,4,128,53,0.3932892978191376,0.24018387496471405
186,4,128,54,0.5812472105026245,0.22470109164714813
186,4,128,55,0.6580083966255188,0.22897927463054657
186,4,128,56,0.39720138907432556,0.2137569636106491
186,4,128,57,0.4765179455280304,0.1711883246898651
186,4,128,58,0.7185096144676208,0.17421849071979523
186,4,128,59,0.6846293807029724,0.12667246162891388
186,4,128,60,0.2958862781524658,0.20876850187778473
186,4,128,61,0.4463518559932709,0.23813223838806152
186,4,128,62,0.5091199278831482,0.13277313113212585
186,4,128,63,0.6208271980285645,0.1232520043849945
186,4,128,64,0.7046427130699158,0.22054928541183472
186,4,128,65,0.5830910205841064,0.25922727584838867
186,4,128,66,0.5367040634155273,0.20647184550762177
186,4,128,67,0.4215560257434845,0.19289708137512207
186,4,128,68,0.36496761441230774,0.18749816715717316
186,4,128,69,0.8010375499725342,0.09763748198747635
186,4,128,70,0.5289616584777832,0.206645205616951
186,4,128,71,0.36497652530670166,0.2549118101596832
186,4,128,72,0.7300349473953247,0.19293804466724396
186,4,128,73,0.5518226623535156,0.2622859477996826
186,4,128,74,0.659252941608429,0.19672346115112305
186,4,128,75,0.8119470477104187,0.08367406576871872
186,4,128,76,0.5434893369674683,0.16219688951969147
186,4,128,77,0.5705897808074951,0.11946357786655426
186,4,128,78,0.4143775701522827,0.10413715243339539
186,4,128,79,0.4564568102359772,0.2383139431476593
186,4,128,80,0.42889702320098877,0.18177497386932373
186,4,128,81,0.5747458934783936,0.31105077266693115
186,4,128,82,0.6783757209777832,0.20858386158943176
186,4,128,83,0.4717990458011627,0.18860626220703125
186,4,128,84,0.36650678515434265,0.20485123991966248
186,4,128,85,0.7109168171882629,0.1058468371629715
186,4,128,86,0.4192584753036499,0.19430342316627502
186,4,128,87,0.3365687131881714,0.16174885630607605
186,4,128,88,0.45037490129470825,0.26104849576950073
186,4,128,89,0.4079991281032562,0.18562333285808563
186,4,128,90,0.4973220229148865,0.21134315431118011
186,4,128,91,0.815312922000885,0.08261801302433014
186,4,128,92,0.46687713265419006,0.31471946835517883
186,4,128,93,0.4552268981933594,0.22143004834651947
186,4,128,94,0.6306126117706299,0.131645068526268
186,4,128,95,0.4049105644226074,0.2851699888706207
186,4,128,96,0.44792452454566956,0.24815772473812103
186,4,128,97,0.6037563681602478,0.12291364371776581
186,4,128,98,0.5415356159210205,0.15501724183559418
186,4,128,99,0.7258575558662415,0.1612749695777893
186,4,128,100,0.3049924075603485,0.11089365184307098
186,4,128,101,0.37237441539764404,0.20719283819198608
186,4,128,102,0.49944284558296204,0.22151373326778412
186,4,128,103,0.4844169616699219,0.312526673078537
186,4,128,104,0.5360416769981384,0.24860070645809174
186,4,128,105,0.49855801463127136,0.21202170848846436
186,4,128,106,0.3447210192680359,0.23644892871379852
186,4,128,107,0.6792733073234558,0.283914178609848
186,4,128,108,0.7981624007225037,0.10066347569227219
186,4,128,109,0.5143747329711914,0.24249796569347382
186,4,128,110,0.4975145757198334,0.17538219690322876
186,4,128,111,0.6310312747955322,0.21498166024684906
186,4,128,112,0.7822529077529907,0.10984822362661362
186,4,128,113,0.3503398597240448,0.14270877838134766
186,4,128,114,0.4836899936199188,0.24243862926959991
186,4,128,115,0.7626809477806091,0.09298869222402573
186,4,128,116,0.42261964082717896,0.1745179295539856
186,4,128,117,0.6704151034355164,0.1435403674840927
186,4,128,118,0.5858450531959534,0.22536209225654602
186,4,128,119,0.42417559027671814,0.12454080581665039
186,4,128,120,0.4455393850803375,0.2859894931316376
186,4,128,121,0.40957334637641907,0.14256469905376434
186,4,128,122,0.614680290222168,0.24019283056259155
186,4,128,123,0.6010634303092957,0.25132301449775696
186,4,128,124,0.4918752610683441,0.19801577925682068
186,4,128,125,0.41911426186561584,0.15702059864997864
186,4,128,126,0.4749857187271118,0.23408065736293793
186,4,128,127,0.5789982676506042,0.11619371175765991
186,5,128,0,0.6759803295135498,0.23241998255252838
186,5,128,1,0.6271883845329285,0.12765203416347504
186,5,128,2,0.3313642740249634,0.18811962008476257
186,5,128,3,0.34890425205230713,0.13770495355129242
186,5,128,4,0.3707113265991211,0.26959049701690674
186,5,128,5,0.4506225883960724,0.2226921021938324
186,5,128,6,0.7548723220825195,0.2256927788257599
186,5,128,7,0.3469255566596985,0.24194210767745972
186,5,128,8,0.5003419518470764,0.30503591895103455
186,5,128,9,0.4451441764831543,0.1192195788025856
186,5,128,10,0.8398427367210388,0.12040127068758011
186,5,128,11,0.8026485443115234,0.1079932451248169
186,5,128,12,0.41999849677085876,0.24424436688423157
186,5,128,13,0.5509667992591858,0.252706915140152
186,5,128,14,0.3423817753791809,0.21793222427368164
186,5,128,15,0.6622492671012878,0.17760716378688812
186,5,128,16,0.38926464319229126,0.10650278627872467
186,5,128,17,0.8362923860549927,0.14857450127601624
186,5,128,18,0.8783107995986938,0.09023462235927582
186,5,128,19,0.5765209794044495,0.21220409870147705
186,5,128,20,0.880257248878479,0.08551038801670074
186,5,128,21,0.7043439149856567,0.1551186442375183
186,5,128,22,0.5263282656669617,0.2405005693435669
186,5,128,23,0.8525429964065552,0.09736397862434387
186,5,128,24,0.5564363598823547,0.2374783754348755
186,5,128,25,0.7908557057380676,0.19213028252124786
186,5,128,26,0.5373331904411316,0.24414034187793732
186,5,128,27,0.8449380993843079,0.11477966606616974
186,5,128,28,0.7148353457450867,0.2643696963787079
186,5,128,29,0.6166775822639465,0.1666303128004074
186,5,128,30,0.5314921736717224,0.1153479516506195
186,5,128,31,0.8337840437889099,0.13339225947856903
186,5,128,32,0.47221213579177856,0.06031837314367294
186,5,128,33,0.7904320359230042,0.23285628855228424
186,5,128,34,0.7750378847122192,0.15576215088367462
186,5,128,35,0.45257568359375,0.2988206446170807
186,5,128,36,0.7754666805267334,0.14539030194282532
186,5,128,37,0.6403298377990723,0.15269504487514496
186,5,128,38,0.8258991837501526,0.11374310404062271
186,5,128,39,0.8425711393356323,0.10814645886421204
186,5,128,40,0.6927458047866821,0.185885488986969
186,5,128,41,0.8235047459602356,0.11338844150304794
186,5,128,42,0.570553183555603,0.18607792258262634
186,5,128,43,0.7580300569534302,0.2959015667438507
186,5,128,44,0.7726022601127625,0.11713635176420212
186,5,128,45,0.871736466884613,0.10776590555906296
186,5,128,46,0.741093099117279,0.16655851900577545
186,5,128,47,0.8741341233253479,0.09833487123250961
186,5,128,48,0.5677474141120911,0.12190447747707367
186,5,128,49,0.4027548134326935,0.1685250997543335
186,5,128,50,0.8591402769088745,0.08947596698999405
186,5,128,51,0.8045527338981628,0.19926203787326813
186,5,128,52,0.8703211545944214,0.0880151242017746
186,5,128,53,0.5217642188072205,0.20250198245048523
186,5,128,54,0.5021085739135742,0.29326099157333374
186,5,128,55,0.6479695439338684,0.27681979537010193
186,5,128,56,0.7272953987121582,0.1929311454296112
186,5,128,57,0.6851384043693542,0.15899764001369476
186,5,128,58,0.5828012228012085,0.10976415872573853
186,5,128,59,0.48160651326179504,0.18882986903190613
186,5,128,60,0.6544724106788635,0.18160508573055267
186,5,128,61,0.543597400188446,0.279103547334671
186,5,128,62,0.34170886874198914,0.19621916115283966
186,5,128,63,0.6499640345573425,0.1829659789800644
186,5,128,64,0.7899187207221985,0.2068966180086136
186,5,128,65,0.4757198393344879,0.2834104299545288
186,5,128,66,0.5061213970184326,0.29662126302719116
186,5,128,67,0.6353186964988708,0.15956240892410278
186,5,128,68,0.5728112459182739,0.22601892054080963
186,5,128,69,0.8365527391433716,0.15812064707279205
186,5,128,70,0.8314726948738098,0.10154370218515396
186,5,128,71,0.47101128101348877,0.202241450548172
186,5,128,72,0.5528661012649536,0.26671016216278076
186,5,128,73,0.7233203053474426,0.14552122354507446
186,5,128,74,0.7231436967849731,0.24032288789749146
186,5,128,75,0.8018993735313416,0.25103360414505005
186,5,128,76,0.6654911041259766,0.15064555406570435
186,5,128,77,0.7571199536323547,0.16181382536888123
186,5,128,78,0.6439694762229919,0.15480874478816986
186,5,128,79,0.5142382979393005,0.2507355809211731
186,5,128,80,0.5921633839607239,0.24231676757335663
186,5,128,81,0.8304753303527832,0.19147074222564697
186,5,128,82,0.7500640153884888,0.16613224148750305
186,5,128,83,0.6676742434501648,0.16649314761161804
186,5,128,84,0.36530357599258423,0.2378106266260147
186,5,128,85,0.7387663722038269,0.14172078669071198
186,5,128,86,0.8089872002601624,0.1510082334280014
186,5,128,87,0.7534369826316833,0.12491517513990402
186,5,128,88,0.6727839708328247,0.18330149352550507
186,5,128,89,0.39988961815834045,0.2573772668838501
186,5,128,90,0.6366049647331238,0.1549762338399887
186,5,128,91,0.89515221118927,0.07969150692224503
186,5,128,92,0.7610395550727844,0.1714981645345688
186,5,128,93,0.657145082950592,0.3212032914161682
186,5,128,94,0.7717030048370361,0.12252182513475418
186,5,128,95,0.6249268651008606,0.20988935232162476
186,5,128,96,0.6574740409851074,0.23268665373325348
186,5,128,97,0.5567351579666138,0.2028549760580063
186,5,128,98,0.8237132430076599,0.11647102981805801
186,5,128,99,0.8181928992271423,0.14831405878067017
186,5,128,100,0.4348186254501343,0.23264238238334656
186,5,128,101,0.6226741075515747,0.2255602329969406
186,5,128,102,0.7094025611877441,0.18333420157432556
186,5,128,103,0.80189448595047,0.18912269175052643
186,5,128,104,0.6344765424728394,0.33484676480293274
186,5,128,105,0.8340195417404175,0.1172885000705719
186,5,128,106,0.6512373685836792,0.19536536931991577
186,5,128,107,0.41379091143608093,0.2916521430015564
186,5,128,108,0.598718523979187,0.17257121205329895
186,5,128,109,0.6290852427482605,0.2225172221660614
186,5,128,110,0.4948052167892456,0.09632929414510727
186,5,128,111,0.6808944940567017,0.13333360850811005
186,5,128,112,0.7942734360694885,0.1010417640209198
186,5,128,113,0.510334312915802,0.18381112813949585
186,5,128,114,0.5752665400505066,0.2206985056400299
186,5,128,115,0.7649477124214172,0.1680906116962433
186,5,128,116,0.7314862608909607,0.26160821318626404
186,5,128,117,0.8038721680641174,0.2098439782857895
186,5,128,118,0.7834153771400452,0.14223900437355042
186,5,128,119,0.6076677441596985,0.261138379573822
186,5,128,120,0.8097390532493591,0.08828499913215637
186,5,128,121,0.735643744468689,0.18494869768619537
186,5,128,122,0.7497753500938416,0.26519080996513367
186,5,128,123,0.7716238498687744,0.10898386687040329
186,5,128,124,0.4686586558818817,0.24904689192771912
186,5,128,125,0.523556649684906,0.10761576890945435
186,5,128,126,0.6662654280662537,0.12949733436107635
186,5,128,127,0.8997128009796143,0.08252911269664764
188,0,32,0,0.5199426412582397,0.03169626742601395
188,0,32,1,0.4369199872016907,0.031063145026564598
188,0,32,2,0.5752022862434387,0.031074803322553635
188,0,32,3,0.4872490465641022,0.033922113478183746
188,0,32,4,0.5671401619911194,0.04820382595062256
188,0,32,5,0.41538047790527344,0.02154599130153656
188,0,32,6,0.4918995499610901,0.04090414568781853
188,0,32,7,0.5067375302314758,0.05533096194267273
188,0,32,8,0.4705166816711426,0.04305725917220116
188,0,32,9,0.44630494713783264,0.045364972203969955
188,0,32,10,0.5533252358436584,0.0231394674628973
188,0,32,11,0.5560536980628967,0.05553179606795311
188,0,32,12,0.526792585849762,0.04611349105834961
188,0,32,13,0.5493758916854858,0.04419349879026413
188,0,32,14,0.4302492141723633,0.04062654823064804
188,0,32,15,0.5444521903991699,0.05823592096567154
188,0,32,16,0.4938465356826782,0.046957340091466904
188,0,32,17,0.4563855528831482,0.03802037239074707
188,0,32,18,0.4522315561771393,0.04184117540717125
188,0,32,19,0.5908181071281433,0.019169995561242104
188,0,32,20,0.4799627661705017,0.0452694371342659
188,0,32,21,0.40415477752685547,0.03295019268989563
188,0,32,22,0.5981261730194092,0.03959859907627106
188,0,32,23,0.6094627976417542,0.03386188670992851
188,0,32,24,0.5454289317131042,0.03903917968273163
188,0,32,25,0.5013248324394226,0.03327752649784088
188,0,32,26,0.5472204089164734,0.04036913067102432
188,0,32,27,0.5805118083953857,0.0274804700165987
188,0,32,28,0.40855541825294495,0.039961062371730804
188,0,32,29,0.46322545409202576,0.04166112840175629
188,0,32,30,0.4549046754837036,0.027906199917197227
188,0,32,31,0.5458575487136841,0.04884585738182068
188,1,32,0,0.36562445759773254,0.08383148163557053
188,1,32,1,0.5160273909568787,0.12804342806339264
188,1,32,2,0.3311256468296051,0.058422256261110306
188,1,32,3,0.29800233244895935,0.07340694963932037
188,1,32,4,0.4143575429916382,0.137458935379982
188,1,32,5,0.6817631125450134,0.030522873625159264
188,1,32,6,0.6637367010116577,0.07215913385152817
188,1,32,7,0.5021454691886902,0.15336501598358154
188,1,32,8,0.45341968536376953,0.1334909200668335
188,1,32,9,0.3138555884361267,0.11225691437721252
188,1,32,10,0.628622829914093,0.12526832520961761
188,1,32,11,0.6200553178787231,0.10848549008369446
188,1,32,12,0.5025489926338196,0.13476255536079407
188,1,32,13,0.4441978335380554,0.12301324307918549
188,1,32,14,0.4240919053554535,0.09442778676748276
188,1,32,15,0.4589592516422272,0.11542268842458725
188,1,32,16,0.4839436113834381,0.07348009943962097
188,1,32,17,0.529748260974884,0.07799136638641357
188,1,32,18,0.5916821360588074,0.06312374770641327
188,1,32,19,0.36995628476142883,0.0603092685341835
188,1,32,20,0.32083526253700256,0.0473511666059494
188,1,32,21,0.6350520849227905,0.11216531693935394
188,1,32,22,0.586666464805603,0.026359692215919495
188,1,32,23,0.3886980712413788,0.09942059963941574
188,1,32,24,0.48619791865348816,0.0942980945110321
188,1,32,25,0.5954660177230835,0.04643179476261139
188,1,32,26,0.5139288306236267,0.06574379652738571
188,1,32,27,0.45002737641334534,0.027406616136431694
188,1,32,28,0.46511706709861755,0.05896909907460213
188,1,32,29,0.46955281496047974,0.05392100661993027
188,1,32,30,0.5370773077011108,0.13910096883773804
188,1,32,31,0.6633185744285583,0.06776348501443863
188,2,64,0,0.35892921686172485,0.09876292198896408
188,2,64,1,0.4732516407966614,0.16715946793556213
188,2,64,2,0.6946858167648315,0.08551423251628876
188,2,64,3,0.3120860159397125,0.15070168673992157
188,2,64,4,0.5899508595466614,0.08381492644548416
188,2,64,5,0.490141361951828,0.21156010031700134
188,2,64,6,0.5589182376861572,0.11221811175346375
188,2,64,7,0.576851487159729,0.11664081364870071
188,2,64,8,0.45503517985343933,0.13107436895370483
188,2,64,9,0.6810738444328308,0.10123032331466675
188,2,64,10,0.5269601941108704,0.03968917578458786
188,2,64,11,0.3771105408668518,0.07982048392295837
188,2,64,12,0.41961872577667236,0.11756936460733414
188,2,64,13,0.34982603788375854,0.18020488321781158
188,2,64,14,0.4818502962589264,0.13846586644649506
188,2,64,15,0.4193936586380005,0.07358643412590027
188,2,64,16,0.5163567066192627,0.09975253790616989
188,2,64,17,0.4184078574180603,0.07624338567256927
188,2,64,18,0.5021093487739563,0.1065327599644661
188,2,64,19,0.44553929567337036,0.12949126958847046
188,2,64,20,0.6194742918014526,0.11612027138471603
188,2,64,21,0.5103076100349426,0.09807536751031876
188,2,64,22,0.34969523549079895,0.04770501330494881
188,2,64,23,0.495720773935318,0.04316864535212517
188,2,64,24,0.46888086199760437,0.04626087471842766
188,2,64,25,0.6122668385505676,0.08811065554618835
188,2,64,26,0.577452540397644,0.11235633492469788
188,2,64,27,0.5064504146575928,0.07060141861438751
188,2,64,28,0.47248220443725586,0.16511501371860504
188,2,64,29,0.5302162170410156,0.09514936059713364
188,2,64,30,0.516372561454773,0.06621205806732178
188,2,64,31,0.46638599038124084,0.09361504018306732
188,2,64,32,0.5690838098526001,0.11621272563934326
188,2,64,33,0.6124971508979797,0.1337108612060547
188,2,64,34,0.5088866353034973,0.09579887241125107
188,2,64,35,0.3099597692489624,0.055538322776556015
188,2,64,36,0.47992825508117676,0.11110643297433853
188,2,64,37,0.43061935901641846,0.06346166878938675
188,2,64,38,0.5224305987358093,0.10943154990673065
188,2,64,39,0.6542346477508545,0.08366997539997101
188,2,64,40,0.546778678894043,0.10984399914741516
188,2,64,41,0.49513015151023865,0.14399750530719757
188,2,64,42,0.2610534131526947,0.08768392354249954
188,2,64,43,0.5853198170661926,0.16374728083610535
188,2,64,44,0.5229554772377014,0.1312083750963211
188,2,64,45,0.4227770268917084,0.12853772938251495
188,2,64,46,0.4269590377807617,0.10402881354093552
188,2,64,47,0.4817831516265869,0.16371425986289978
188,2,64,48,0.38234323263168335,0.15047119557857513
188,2,64,49,0.6410136222839355,0.1609000563621521
188,2,64,50,0.5258899927139282,0.20155146718025208
188,2,64,51,0.567093551158905,0.06281272321939468
188,2,64,52,0.5006062388420105,0.12304811924695969
188,2,64,53,0.4713080823421478,0.0889228880405426
188,2,64,54,0.5659219622612,0.1402370035648346
188,2,64,55,0.3463943302631378,0.07959171384572983
188,2,64,56,0.5332071781158447,0.09157966822385788
188,2,64,57,0.6454705595970154,0.1050942987203598
188,2,64,58,0.4327147603034973,0.051092423498630524
188,2,64,59,0.4512313902378082,0.09332431852817535
188,2,64,60,0.6642304062843323,0.14179907739162445
188,2,64,61,0.4497045576572418,0.10472062975168228
188,2,64,62,0.4182138741016388,0.09169384092092514
188,2,64,63,0.38989394903182983,0.13377441465854645
188,3,64,0,0.4430598020553589,0.10630854219198227
188,3,64,1,0.42080050706863403,0.09630929678678513
188,3,64,2,0.5176870226860046,0.0981665775179863
188,3,64,3,0.586495578289032,0.1797782927751541
188,3,64,4,0.40529870986938477,0.1952955424785614
188,3,64,5,0.3148072063922882,0.07331354171037674
188,3,64,6,0.512198269367218,0.12670810520648956
188,3,64,7,0.5272029638290405,0.1758074313402176
188,3,64,8,0.5871432423591614,0.09346915781497955
188,3,64,9,0.5197973847389221,0.11473727226257324
188,3,64,10,0.5168891549110413,0.12264126539230347
188,3,64,11,0.4228363633155823,0.10835123807191849
188,3,64,12,0.4936133921146393,0.06494631618261337
188,3,64,13,0.627036988735199,0.19234885275363922
188,3,64,14,0.6250770092010498,0.10095290839672089
188,3,64,15,0.5189169049263,0.20010261237621307
188,3,64,16,0.5532962083816528,0.08618767559528351
188,3,64,17,0.4040354788303375,0.09409637004137039
188,3,64,18,0.3594159483909607,0.11499375849962234
188,3,64,19,0.4457462728023529,0.12994158267974854
188,3,64,20,0.6257205605506897,0.08074871450662613
188,3,64,21,0.43398842215538025,0.07787395268678665
188,3,64,22,0.3482436239719391,0.0759606882929802
188,3,64,23,0.571040689945221,0.16149017214775085
188,3,64,24,0.4031856060028076,0.08126141130924225
188,3,64,25,0.38139063119888306,0.08188126236200333
188,3,64,26,0.39593055844306946,0.10058736801147461
188,3,64,27,0.4332515597343445,0.1136174350976944
188,3,64,28,0.4015139639377594,0.2151617407798767
188,3,64,29,0.621453046798706,0.13498108088970184
188,3,64,30,0.6135032773017883,0.17981109023094177
188,3,64,31,0.38579508662223816,0.18887841701507568
188,3,64,32,0.38315796852111816,0.07530315220355988
188,3,64,33,0.6137619614601135,0.0609007403254509
188,3,64,34,0.630531907081604,0.1705971360206604
188,3,64,35,0.42255011200904846,0.12211410701274872
188,3,64,36,0.30621132254600525,0.11125870048999786
188,3,64,37,0.49938151240348816,0.11322012543678284
188,3,64,38,0.597653329372406,0.09180392324924469
188,3,64,39,0.4425528943538666,0.13820521533489227
188,3,64,40,0.6256366968154907,0.058416202664375305
188,3,64,41,0.7116069793701172,0.13593323528766632
188,3,64,42,0.30431610345840454,0.10056517273187637
188,3,64,43,0.44764435291290283,0.07588520646095276
188,3,64,44,0.28104546666145325,0.12069790065288544
188,3,64,45,0.5565907955169678,0.14096730947494507
188,3,64,46,0.4112555682659149,0.07913586497306824
188,3,64,47,0.42224183678627014,0.09529833495616913
188,3,64,48,0.41836386919021606,0.08692906051874161
188,3,64,49,0.515794038772583,0.08863622695207596
188,3,64,50,0.675056517124176,0.11163655668497086
188,3,64,51,0.6100984811782837,0.14645600318908691
188,3,64,52,0.5598758459091187,0.08975166827440262
188,3,64,53,0.5059359669685364,0.09553227573633194
188,3,64,54,0.3754936456680298,0.059158772230148315
188,3,64,55,0.5777974128723145,0.08510361611843109
188,3,64,56,0.562512993812561,0.04801883175969124
188,3,64,57,0.6196593046188354,0.07753420621156693
188,3,64,58,0.44366946816444397,0.11212539672851562
188,3,64,59,0.39370259642601013,0.07858117669820786
188,3,64,60,0.5036090016365051,0.09647726267576218
188,3,64,61,0.5380213856697083,0.2199236899614334
188,3,64,62,0.4409773647785187,0.21238620579242706
188,3,64,63,0.5422616004943848,0.05386466905474663
188,4,128,0,0.49823257327079773,0.06398773938417435
188,4,128,1,0.3729652166366577,0.1202654093503952
188,4,128,2,0.2629847824573517,0.13271623849868774
188,4,128,3,0.5710009336471558,0.10150061547756195
188,4,128,4,0.7248954772949219,0.14789769053459167
188,4,128,5,0.48587876558303833,0.2692522704601288
188,4,128,6,0.280135840177536,0.1641107201576233
188,4,128,7,0.34243878722190857,0.07755910605192184
188,4,128,8,0.5190353989601135,0.0334935300052166
188,4,128,9,0.699309229850769,0.17717693746089935
188,4,128,10,0.6583823561668396,0.14022982120513916
188,4,128,11,0.6200071573257446,0.17367424070835114
188,4,128,12,0.6311648488044739,0.1819034069776535
188,4,128,13,0.4536302387714386,0.23921845853328705
188,4,128,14,0.7696417570114136,0.16199778020381927
188,4,128,15,0.41380706429481506,0.12748314440250397
188,4,128,16,0.3521505296230316,0.1266712099313736
188,4,128,17,0.454929918050766,0.20433957874774933
188,4,128,18,0.4512574374675751,0.1954963654279709
188,4,128,19,0.3398345410823822,0.16356982290744781
188,4,128,20,0.7252135872840881,0.11101122200489044
188,4,128,21,0.4538227319717407,0.1630222499370575
188,4,128,22,0.5855749249458313,0.15975321829319
188,4,128,23,0.39177003502845764,0.11772843450307846
188,4,128,24,0.36396023631095886,0.15467801690101624
188,4,128,25,0.618066132068634,0.208516463637352
188,4,128,26,0.5253226161003113,0.15246979892253876
188,4,128,27,0.5259192585945129,0.08605906367301941
188,4,128,28,0.6204569339752197,0.08107193559408188
188,4,128,29,0.37712401151657104,0.11196304112672806
188,4,128,30,0.591483473777771,0.1265060305595398
188,4,128,31,0.5636602640151978,0.2302311509847641
188,4,128,32,0.657749593257904,0.20471347868442535
188,4,128,33,0.5464248061180115,0.11342938244342804
188,4,128,34,0.5745003819465637,0.07293877750635147
188,4,128,35,0.3174363970756531,0.0781136080622673
188,4,128,36,0.4928906559944153,0.06247551366686821
188,4,128,37,0.43312889337539673,0.19682222604751587
188,4,128,38,0.6524657607078552,0.18147172033786774
188,4,128,39,0.744906485080719,0.11791527271270752
188,4,128,40,0.7793640494346619,0.17250268161296844
188,4,128,41,0.4764575958251953,0.1513608992099762
188,4,128,42,0.6710819005966187,0.15847834944725037
188,4,128,43,0.6613690257072449,0.1645841896533966
188,4,128,44,0.7128551006317139,0.14798714220523834
188,4,128,45,0.39324867725372314,0.05867399275302887
188,4,128,46,0.6404850482940674,0.12297660857439041
188,4,128,47,0.6192046403884888,0.1274798959493637
188,4,128,48,0.34762126207351685,0.13751035928726196
188,4,128,49,0.547097384929657,0.06437913328409195
188,4,128,50,0.7409383654594421,0.1533815562725067
188,4,128,51,0.5524340271949768,0.19912151992321014
188,4,128,52,0.3273308575153351,0.16058093309402466
188,4,128,53,0.6902757883071899,0.14751987159252167
188,4,128,54,0.7190654873847961,0.1952933371067047
188,4,128,55,0.4103499948978424,0.22017520666122437
188,4,128,56,0.4798191785812378,0.17136162519454956
188,4,128,57,0.5735454559326172,0.09673728048801422
188,4,128,58,0.7046108245849609,0.1360933631658554
188,4,128,59,0.36938905715942383,0.11704976856708527
188,4,128,60,0.5583710074424744,0.1725534051656723
188,4,128,61,0.6066636443138123,0.22783014178276062
188,4,128,62,0.25992172956466675,0.20071358978748322
188,4,128,63,0.422824501991272,0.20785962045192719
188,4,128,64,0.7559238076210022,0.15749934315681458
188,4,128,65,0.5969952344894409,0.07029418647289276
188,4,128,66,0.6299522519111633,0.057703647762537
188,4,128,67,0.7056683301925659,0.17327392101287842
188,4,128,68,0.7964246273040771,0.14717796444892883
188,4,128,69,0.3820222318172455,0.13336192071437836
188,4,128,70,0.5860263705253601,0.08909940719604492
188,4,128,71,0.6601621508598328,0.11006540805101395
188,4,128,72,0.5179949998855591,0.038297489285469055
188,4,128,73,0.46393948793411255,0.28198978304862976
188,4,128,74,0.3076646625995636,0.14471988379955292
188,4,128,75,0.43082302808761597,0.17331162095069885
188,4,128,76,0.5168755054473877,0.04883686453104019
188,4,128,77,0.6109697818756104,0.24780593812465668
188,4,128,78,0.5522436499595642,0.21087494492530823
188,4,128,79,0.4910662770271301,0.16605646908283234
188,4,128,80,0.48407673835754395,0.17629516124725342
188,4,128,81,0.5133301615715027,0.08171810209751129
188,4,128,82,0.42395949363708496,0.23938211798667908
188,4,128,83,0.3823263943195343,0.1516808271408081
188,4,128,84,0.5736334919929504,0.14779506623744965
188,4,128,85,0.5074089765548706,0.23218902945518494
188,4,128,86,0.752088725566864,0.09557170420885086
188,4,128,87,0.25569260120391846,0.17918191850185394
188,4,128,88,0.3967047929763794,0.18158398568630219
188,4,128,89,0.7037994265556335,0.15858256816864014
188,4,128,90,0.5682550668716431,0.11677000671625137
188,4,128,91,0.7276900410652161,0.17524252831935883
188,4,128,92,0.7283406257629395,0.12880681455135345
188,4,128,93,0.5083531737327576,0.051492445170879364
188,4,128,94,0.4571201503276825,0.08002588897943497
188,4,128,95,0.6440562009811401,0.13337019085884094
188,4,128,96,0.6364668011665344,0.10993719846010208
188,4,128,97,0.6265702247619629,0.22603699564933777
188,4,128,98,0.3291569650173187,0.16038532555103302
188,4,128,99,0.43269896507263184,0.2620045840740204
188,4,128,100,0.5766315460205078,0.13573811948299408
188,4,128,101,0.31916138529777527,0.1418374478816986
188,4,128,102,0.47835788130760193,0.2163737416267395
188,4,128,103,0.41887667775154114,0.13652530312538147
188,4,128,104,0.4992033541202545,0.05197121948003769
188,4,128,105,0.371629536151886,0.11671348661184311
188,4,128,106,0.6941172480583191,0.17713455855846405
188,4,128,107,0.5897721648216248,0.10563623905181885
188,4,128,108,0.6049126982688904,0.15324196219444275
188,4,128,109,0.5851568579673767,0.15041446685791016
188,4,128,110,0.5609589219093323,0.2067124843597412
188,4,128,111,0.42299947142601013,0.09730388224124908
188,4,128,112,0.6193599700927734,0.15933355689048767
188,4,128,113,0.3887998163700104,0.18089522421360016
188,4,128,114,0.41524553298950195,0.15152695775032043
188,4,128,115,0.45143991708755493,0.14779742062091827
188,4,128,116,0.32478490471839905,0.10835007578134537
188,4,128,117,0.7343159914016724,0.11111710220575333
188,4,128,118,0.5093870162963867,0.1654738038778305
188,4,128,119,0.7234594821929932,0.14768730103969574
188,4,128,120,0.7450941801071167,0.1354777216911316
188,4,128,121,0.6415488123893738,0.12023201584815979
188,4,128,122,0.3762681186199188,0.1778876632452011
188,4,128,123,0.38712671399116516,0.22405193746089935
188,4,128,124,0.3138928711414337,0.09342478215694427
188,4,128,125,0.380697101354599,0.07758743315935135
188,4,128,126,0.2818606495857239,0.16026221215724945
188,4,128,127,0.5539311170578003,0.11830341070890427
188,5,128,0,0.5232895612716675,0.08816882967948914
188,5,128,1,0.7966788411140442,0.10941649228334427
188,5,128,2,0.39980629086494446,0.23070262372493744
188,5,128,3,0.6993105411529541,0.15794740617275238
188,5,128,4,0.6928143501281738,0.10321780294179916
188,5,128,5,0.687629222869873,0.08748023211956024
188,5,128,6,0.6831473112106323,0.17337745428085327
188,5,128,7,0.5280526876449585,0.09247815608978271
188,5,128,8,0.7443564534187317,0.203255757689476
188,5,128,9,0.6764564514160156,0.15228654444217682
188,5,128,10,0.5006989240646362,0.11427802592515945
188,5,128,11,0.4178204834461212,0.10379786044359207
188,5,128,12,0.6461424827575684,0.132760688662529
188,5,128,13,0.7215860486030579,0.08917704969644547
188,5,128,14,0.7581288814544678,0.16592073440551758
188,5,128,15,0.4744504690170288,0.16581551730632782
188,5,128,16,0.6705687046051025,0.14966733753681183
188,5,128,17,0.45825597643852234,0.1865708976984024
188,5,128,18,0.501907467842102,0.11966069787740707
188,5,128,19,0.39835259318351746,0.1418459564447403
188,5,128,20,0.6390866041183472,0.10544122755527496
188,5,128,21,0.6066884398460388,0.06135397404432297
188,5,128,22,0.5147026181221008,0.12313921749591827
188,5,128,23,0.658724308013916,0.21806375682353973
188,5,128,24,0.6738510131835938,0.10597960650920868
188,5,128,25,0.4095894992351532,0.14581017196178436
188,5,128,26,0.5731415152549744,0.07013189047574997
188,5,128,27,0.6502194404602051,0.20896373689174652
188,5,128,28,0.6785781979560852,0.0837932899594307
188,5,128,29,0.6071861386299133,0.16486501693725586
188,5,128,30,0.3858477771282196,0.23148590326309204
188,5,128,31,0.6803866624832153,0.18169422447681427
188,5,128,32,0.35904109477996826,0.08506844192743301
188,5,128,33,0.6156694889068604,0.06430130451917648
188,5,128,34,0.5905680656433105,0.10628781467676163
188,5,128,35,0.4793299734592438,0.06638231873512268
188,5,128,36,0.6412957906723022,0.10014171898365021
188,5,128,37,0.688525378704071,0.15211424231529236
188,5,128,38,0.6808510422706604,0.225641131401062
188,5,128,39,0.7686960697174072,0.20357197523117065
188,5,128,40,0.7101749181747437,0.17613829672336578
188,5,128,41,0.6926954388618469,0.1437700390815735
188,5,128,42,0.7283376455307007,0.10630901902914047
188,5,128,43,0.7116152048110962,0.23021715879440308
188,5,128,44,0.667083740234375,0.12728120386600494
188,5,128,45,0.7373459339141846,0.15810756385326385
188,5,128,46,0.5395117402076721,0.16921155154705048
188,5,128,47,0.7377939820289612,0.11099597811698914
188,5,128,48,0.36586207151412964,0.22420285642147064
188,5,128,49,0.6373912692070007,0.18882711231708527
188,5,128,50,0.7148359417915344,0.24112816154956818
188,5,128,51,0.6601938605308533,0.1313648670911789
188,5,128,52,0.4310050904750824,0.12921656668186188
188,5,128,53,0.6326711177825928,0.17811700701713562
188,5,128,54,0.751833975315094,0.1410903036594391
188,5,128,55,0.6025301814079285,0.1391577422618866
188,5,128,56,0.7538600564002991,0.1900346875190735
188,5,128,57,0.38812780380249023,0.1626664102077484
188,5,128,58,0.45219478011131287,0.12253298610448837
188,5,128,59,0.6307142972946167,0.13712601363658905
188,5,128,60,0.6323687434196472,0.07920192182064056
188,5,128,61,0.7259974479675293,0.1277906596660614
188,5,128,62,0.6232125759124756,0.1046292632818222
188,5,128,63,0.6718157529830933,0.11643734574317932
188,5,128,64,0.6077343821525574,0.1447228044271469
188,5,128,65,0.5879723429679871,0.13527865707874298
188,5,128,66,0.6379094123840332,0.08832802623510361
188,5,128,67,0.7888858318328857,0.1255083680152893
188,5,128,68,0.8108089566230774,0.16261571645736694
188,5,128,69,0.5186478495597839,0.15149511396884918
188,5,128,70,0.5026702284812927,0.08971579372882843
188,5,128,71,0.5673362612724304,0.12010329961776733
188,5,128,72,0.46129682660102844,0.15797916054725647
188,5,128,73,0.7893916964530945,0.12854593992233276
188,5,128,74,0.533951461315155,0.17211739718914032
188,5,128,75,0.7304813861846924,0.14368633925914764
188,5,128,76,0.7400326132774353,0.13942016661167145
188,5,128,77,0.6482911109924316,0.18172766268253326
188,5,128,78,0.789473831653595,0.16814351081848145
188,5,128,79,0.3429165780544281,0.17085468769073486
188,5,128,80,0.641075611114502,0.1342940628528595
188,5,128,81,0.5656449198722839,0.08277467638254166
188,5,128,82,0.6997395157814026,0.09337179362773895
188,5,128,83,0.6005662679672241,0.14265358448028564
188,5,128,84,0.41419729590415955,0.14066781103610992
188,5,128,85,0.4160553514957428,0.10835794359445572
188,5,128,86,0.7475478649139404,0.14127475023269653
188,5,128,87,0.31539881229400635,0.17787466943264008
188,5,128,88,0.6016199588775635,0.08675245940685272
188,5,128,89,0.738269567489624,0.19609276950359344
188,5,128,90,0.6895228624343872,0.08297982811927795
188,5,128,91,0.8193253874778748,0.12717658281326294
188,5,128,92,0.6497193574905396,0.12017650902271271
188,5,128,93,0.6801738142967224,0.1817188709974289
188,5,128,94,0.5914761424064636,0.056788332760334015
188,5,128,95,0.697374701499939,0.15094709396362305
188,5,128,96,0.7487484216690063,0.14196588099002838
188,5,128,97,0.7405973076820374,0.15336096286773682
188,5,128,98,0.494916170835495,0.06436318159103394
188,5,128,99,0.5305256247520447,0.11360600590705872
188,5,128,100,0.6975514888763428,0.07761821895837784
188,5,128,101,0.3679802119731903,0.10697523504495621
188,5,128,102,0.5146834254264832,0.09976871311664581
188,5,128,103,0.4733187258243561,0.10107185691595078
188,5,128,104,0.5111407041549683,0.1490831822156906
188,5,128,105,0.3508340120315552,0.1636255383491516
188,5,128,106,0.7058020830154419,0.08237519860267639
188,5,128,107,0.4900815486907959,0.08694074302911758
188,5,128,108,0.5025466680526733,0.11512953788042068
188,5,128,109,0.5110670328140259,0.05387556180357933
188,5,128,110,0.7208302021026611,0.17086724936962128
188,5,128,111,0.565361738204956,0.14735473692417145
188,5,128,112,0.7000715136528015,0.1342814564704895
188,5,128,113,0.45253318548202515,0.16567659378051758
188,5,128,114,0.3760543465614319,0.1415252536535263
188,5,128,115,0.4596260190010071,0.1314723640680313
188,5,128,116,0.5763142108917236,0.09543820470571518
188,5,128,117,0.6637420654296875,0.20657211542129517
188,5,128,118,0.7319256663322449,0.14484383165836334
188,5,128,119,0.42579546570777893,0.2117348313331604
188,5,128,120,0.659796416759491,0.06709221005439758
188,5,128,121,0.4994048774242401,0.15772859752178192
188,5,128,122,0.5509971380233765,0.1172807365655899
188,5,128,123,0.5771200060844421,0.05240573734045029
188,5,128,124,0.5022079348564148,0.10834774374961853
188,5,128,125,0.8087210655212402,0.09926581382751465
188,5,128,126,0.41081005334854126,0.1706463098526001
188,5,128,127,0.36679962277412415,0.14080578088760376
189,0,32,0,0.3852636516094208,0.09318143129348755
189,0,32,1,0.39932191371917725,0.07345139235258102
189,0,32,2,0.4174986779689789,0.07583930343389511
189,0,32,3,0.42645618319511414,0.03566430136561394
189,0,32,4,0.4858182370662689,0.04067866504192352
189,0,32,5,0.47382184863090515,0.04818884655833244
189,0,32,6,0.5031819939613342,0.0813339427113533
189,0,32,7,0.6046967506408691,0.0903150737285614
189,0,32,8,0.4855805039405823,0.051398295909166336
189,0,32,9,0.5115841627120972,0.07058897614479065
189,0,32,10,0.48323094844818115,0.08754543960094452
189,0,32,11,0.5913926362991333,0.06881736218929291
189,0,32,12,0.47201403975486755,0.07990722358226776
189,0,32,13,0.40239518880844116,0.07042713463306427
189,0,32,14,0.38467660546302795,0.05522490665316582
189,0,32,15,0.514662504196167,0.06964204460382462
189,0,32,16,0.46031567454338074,0.07722174376249313
189,0,32,17,0.5855499505996704,0.07557876408100128
189,0,32,18,0.552531898021698,0.07466018199920654
189,0,32,19,0.5933496952056885,0.053009361028671265
189,0,32,20,0.5882661938667297,0.07294344902038574
189,0,32,21,0.49554985761642456,0.05384819582104683
189,0,32,22,0.5597323179244995,0.06760905683040619
189,0,32,23,0.5285269021987915,0.058136194944381714
189,0,32,24,0.5415915846824646,0.03750668466091156
189,0,32,25,0.527076005935669,0.06743361055850983
189,0,32,26,0.4428507387638092,0.0498739555478096
189,0,32,27,0.4892347753047943,0.07852034270763397
189,0,32,28,0.4075297713279724,0.08382753282785416
189,0,32,29,0.666530191898346,0.049934275448322296
189,0,32,30,0.5483956336975098,0.08531980216503143
189,0,32,31,0.4830719828605652,0.029451001435518265
189,1,32,0,0.5635436177253723,0.028613757342100143
189,1,32,1,0.6091345548629761,0.02737596444785595
189,1,32,2,0.5523269176483154,0.08551152050495148
189,1,32,3,0.5067616105079651,0.028530819341540337
189,1,32,4,0.4015074372291565,0.0999588742852211
189,1,32,5,0.3809637427330017,0.036008190363645554
189,1,32,6,0.4865536093711853,0.05826424062252045
189,1,32,7,0.45105546712875366,0.036804646253585815
189,1,32,8,0.42421236634254456,0.07058253139257431
189,1,32,9,0.4688369333744049,0.08286476880311966
189,1,32,10,0.5240005850791931,0.03727781027555466
189,1,32,11,0.5653550028800964,0.10078715533018112
189,1,32,12,0.5992905497550964,0.06716626137495041
189,1,32,13,0.5390000343322754,0.08243487030267715
189,1,32,14,0.4322632849216461,0.09685634821653366
189,1,32,15,0.4650629162788391,0.06535130739212036
189,1,32,16,0.4696703255176544,0.10946477204561234
189,1,32,17,0.4828543961048126,0.07733560353517532
189,1,32,18,0.5585766434669495,0.08015283942222595
189,1,32,19,0.478690505027771,0.11042257398366928
189,1,32,20,0.47675177454948425,0.06667158752679825
189,1,32,21,0.44640523195266724,0.09894409775733948
189,1,32,22,0.3651825487613678,0.09008157253265381
189,1,32,23,0.5287150740623474,0.11074607819318771
189,1,32,24,0.6854885816574097,0.04797334223985672
189,1,32,25,0.4771910309791565,0.07911558449268341
189,1,32,26,0.48485857248306274,0.09978581219911575
189,1,32,27,0.44337114691734314,0.04469255730509758
189,1,32,28,0.4879024922847748,0.05656585842370987
189,1,32,29,0.4116721451282501,0.04528277367353439
189,1,32,30,0.5917476415634155,0.0982002541422844
189,1,32,31,0.6532074809074402,0.09045076370239258
189,2,64,0,0.6289811730384827,0.11009088903665543
189,2,64,1,0.4179917871952057,0.11921120434999466
189,2,64,2,0.36582979559898376,0.11092832684516907
189,2,64,3,0.6243702173233032,0.04371199756860733
189,2,64,4,0.604243278503418,0.07950316369533539
189,2,64,5,0.5037738084793091,0.07336988300085068
189,2,64,6,0.5207727551460266,0.0999654084444046
189,2,64,7,0.47950029373168945,0.05431167781352997
189,2,64,8,0.4562397599220276,0.07003062963485718
189,2,64,9,0.556599497795105,0.10102829337120056
189,2,64,10,0.5461822152137756,0.07757872343063354
189,2,64,11,0.499420166015625,0.061496321111917496
189,2,64,12,0.5758900046348572,0.054045483469963074
189,2,64,13,0.5140656232833862,0.04012894257903099
189,2,64,14,0.5144699811935425,0.07247558981180191
189,2,64,15,0.5102027058601379,0.08228715509176254
189,2,64,16,0.5479095578193665,0.09570453315973282
189,2,64,17,0.38696473836898804,0.07354620099067688
189,2,64,18,0.5231926441192627,0.04797861725091934
189,2,64,19,0.4136837422847748,0.10995594412088394
189,2,64,20,0.516578733921051,0.0855507105588913
189,2,64,21,0.4150595963001251,0.07082471996545792
189,2,64,22,0.38490357995033264,0.08550464361906052
189,2,64,23,0.5304610133171082,0.06217935308814049
189,2,64,24,0.4444812536239624,0.0728444755077362
189,2,64,25,0.4861129820346832,0.053117986768484116
189,2,64,26,0.5021530389785767,0.08717063814401627
189,2,64,27,0.6184940934181213,0.048736970871686935
189,2,64,28,0.3874121606349945,0.04625491797924042
189,2,64,29,0.5638065934181213,0.03359286114573479
189,2,64,30,0.5745486617088318,0.06729146093130112
189,2,64,31,0.43229055404663086,0.050943948328495026
189,2,64,32,0.49879002571105957,0.05854203924536705
189,2,64,33,0.44513607025146484,0.06595035642385483
189,2,64,34,0.46174636483192444,0.044996194541454315
189,2,64,35,0.5191072225570679,0.06516458839178085
189,2,64,36,0.4915992319583893,0.05658312141895294
189,2,64,37,0.4792276918888092,0.03189893066883087
189,2,64,38,0.33968040347099304,0.09195951372385025
189,2,64,39,0.6590805053710938,0.0668015405535698
189,2,64,40,0.5515441298484802,0.046621374785900116
189,2,64,41,0.5642695426940918,0.07108409702777863
189,2,64,42,0.47085127234458923,0.07244177162647247
189,2,64,43,0.39254143834114075,0.07134760916233063
189,2,64,44,0.42820438742637634,0.060022324323654175
189,2,64,45,0.512900173664093,0.050244204699993134
189,2,64,46,0.48471763730049133,0.04877253621816635
189,2,64,47,0.5210081338882446,0.043289586901664734
189,2,64,48,0.478299617767334,0.07800819724798203
189,2,64,49,0.4244050681591034,0.06929672509431839
189,2,64,50,0.5802981853485107,0.09139465540647507
189,2,64,51,0.44194942712783813,0.06797508150339127
189,2,64,52,0.6239530444145203,0.06186956539750099
189,2,64,53,0.3840164840221405,0.054985061287879944
189,2,64,54,0.5509207248687744,0.05167851224541664
189,2,64,55,0.4680462181568146,0.09063805639743805
189,2,64,56,0.4920750558376312,0.06808760017156601
189,2,64,57,0.41787442564964294,0.06110797077417374
189,2,64,58,0.5877823829650879,0.0825161561369896
189,2,64,59,0.4171329736709595,0.08872780203819275
189,2,64,60,0.5306345820426941,0.0864664763212204
189,2,64,61,0.5170220732688904,0.08790836483240128
189,2,64,62,0.410616397857666,0.06981342285871506
189,2,64,63,0.43065017461776733,0.034949686378240585
189,3,64,0,0.569672167301178,0.07125986367464066
189,3,64,1,0.5111798048019409,0.11719726771116257
189,3,64,2,0.6558191776275635,0.08945968747138977
189,3,64,3,0.6149082779884338,0.06306053698062897
189,3,64,4,0.597211480140686,0.07486042380332947
189,3,64,5,0.5179979801177979,0.08202066272497177
189,3,64,6,0.43652963638305664,0.10434161871671677
189,3,64,7,0.3725600242614746,0.10447648167610168
189,3,64,8,0.6055740118026733,0.05587100237607956
189,3,64,9,0.5627458095550537,0.06742537021636963
189,3,64,10,0.46811211109161377,0.04192599654197693
189,3,64,11,0.4163256287574768,0.11422549188137054
189,3,64,12,0.42255574464797974,0.07640895247459412
189,3,64,13,0.47903895378112793,0.06152092292904854
189,3,64,14,0.608862578868866,0.10316326469182968
189,3,64,15,0.3907017409801483,0.06637950241565704
189,3,64,16,0.4772818684577942,0.09958957880735397
189,3,64,17,0.526938796043396,0.04034128040075302
189,3,64,18,0.357393741607666,0.1255306452512741
189,3,64,19,0.5153055787086487,0.09272061288356781
189,3,64,20,0.6206199526786804,0.12414242327213287
189,3,64,21,0.5236108303070068,0.10550273209810257
189,3,64,22,0.49394553899765015,0.08977524936199188
189,3,64,23,0.5383219718933105,0.09077893942594528
189,3,64,24,0.47063586115837097,0.07178738713264465
189,3,64,25,0.43029555678367615,0.13922181725502014
189,3,64,26,0.49756917357444763,0.045918602496385574
189,3,64,27,0.5194686055183411,0.051309503614902496
189,3,64,28,0.38984158635139465,0.11644811928272247
189,3,64,29,0.3567318618297577,0.11010763049125671
189,3,64,30,0.5681589841842651,0.10258865356445312
189,3,64,31,0.3946973979473114,0.10544898360967636
189,3,64,32,0.5076891779899597,0.11313144117593765
189,3,64,33,0.5041742324829102,0.12390482425689697
189,3,64,34,0.3915596604347229,0.07184768468141556
189,3,64,35,0.45987316966056824,0.08964278548955917
189,3,64,36,0.48325562477111816,0.07310277968645096
189,3,64,37,0.571265459060669,0.11568717658519745
189,3,64,38,0.42606744170188904,0.093608058989048
189,3,64,39,0.527181088924408,0.05906424671411514
189,3,64,40,0.42611077427864075,0.060423843562603
189,3,64,41,0.643811047077179,0.15329818427562714
189,3,64,42,0.3481432795524597,0.10171531140804291
189,3,64,43,0.34981653094291687,0.14914573729038239
189,3,64,44,0.510234534740448,0.13768379390239716
189,3,64,45,0.6232528686523438,0.11999920010566711
189,3,64,46,0.37339186668395996,0.10387623310089111
189,3,64,47,0.5491988658905029,0.12061163783073425
189,3,64,48,0.5611711740493774,0.06923224776983261
189,3,64,49,0.3652680814266205,0.08005136251449585
189,3,64,50,0.4587450921535492,0.07890412211418152
189,3,64,51,0.3339836895465851,0.1012866273522377
189,3,64,52,0.6263061165809631,0.05398109182715416
189,3,64,53,0.40144866704940796,0.10117320716381073
189,3,64,54,0.5257167220115662,0.0827171728014946
189,3,64,55,0.35762640833854675,0.0814291313290596
189,3,64,56,0.5613927841186523,0.04685027152299881
189,3,64,57,0.6323755979537964,0.06959368288516998
189,3,64,58,0.5430362224578857,0.07836524397134781
189,3,64,59,0.4090922474861145,0.07781804352998734
189,3,64,60,0.3822387754917145,0.06489831954240799
189,3,64,61,0.39589983224868774,0.10239624977111816
189,3,64,62,0.5960589051246643,0.08612210303544998
189,3,64,63,0.5339149236679077,0.06796253472566605
189,4,128,0,0.5434664487838745,0.08425922691822052
189,4,128,1,0.3937804102897644,0.14347702264785767
189,4,128,2,0.4911636412143707,0.13698557019233704
189,4,128,3,0.5584436058998108,0.09448938816785812
189,4,128,4,0.5904591679573059,0.08443170040845871
189,4,128,5,0.3673672676086426,0.0962577536702156
189,4,128,6,0.527442991733551,0.20542484521865845
189,4,128,7,0.47741737961769104,0.11969445645809174
189,4,128,8,0.4060114622116089,0.20183278620243073
189,4,128,9,0.47221407294273376,0.08255704492330551
189,4,128,10,0.5256795287132263,0.05731784179806709
189,4,128,11,0.5285400748252869,0.11684484034776688
189,4,128,12,0.6492362022399902,0.15952584147453308
189,4,128,13,0.6267269253730774,0.12428716570138931
189,4,128,14,0.6382594704627991,0.2298666089773178
189,4,128,15,0.48216721415519714,0.12132904678583145
189,4,128,16,0.5475157499313354,0.12205220013856888
189,4,128,17,0.6286401748657227,0.1265755593776703
189,4,128,18,0.44044849276542664,0.06742769479751587
189,4,128,19,0.5406445860862732,0.17388558387756348
189,4,128,20,0.4289289116859436,0.15665023028850555
189,4,128,21,0.6934739351272583,0.1253703236579895
189,4,128,22,0.5739102959632874,0.1273122876882553
189,4,128,23,0.5502779483795166,0.07894901931285858
189,4,128,24,0.41449323296546936,0.11602604389190674
189,4,128,25,0.33050572872161865,0.13365082442760468
189,4,128,26,0.6708757281303406,0.17685367166996002
189,4,128,27,0.5912414789199829,0.05726569518446922
189,4,128,28,0.5065239667892456,0.06651586294174194
189,4,128,29,0.5670031905174255,0.09044717997312546
189,4,128,30,0.5898908972740173,0.1746675670146942
189,4,128,31,0.46407032012939453,0.16524454951286316
189,4,128,32,0.36561477184295654,0.10843130946159363
189,4,128,33,0.46448761224746704,0.14832116663455963
189,4,128,34,0.49553656578063965,0.06278639286756516
189,4,128,35,0.5282869935035706,0.1021837443113327
189,4,128,36,0.5737218260765076,0.04930121451616287
189,4,128,37,0.527282178401947,0.05862948298454285
189,4,128,38,0.3181059956550598,0.19197343289852142
189,4,128,39,0.5445050001144409,0.07156190276145935
189,4,128,40,0.5703256726264954,0.22200478613376617
189,4,128,41,0.6022745966911316,0.09952627867460251
189,4,128,42,0.3989010453224182,0.07440592348575592
189,4,128,43,0.5278112888336182,0.13030162453651428
189,4,128,44,0.40550804138183594,0.10727091133594513
189,4,128,45,0.4991176724433899,0.07372821867465973
189,4,128,46,0.6336352825164795,0.0994720458984375
189,4,128,47,0.3732878267765045,0.11273425817489624
189,4,128,48,0.489103227853775,0.05666305869817734
189,4,128,49,0.5852261781692505,0.1613864302635193
189,4,128,50,0.5645554661750793,0.1810823380947113
189,4,128,51,0.5885227918624878,0.08381316810846329
189,4,128,52,0.4234979450702667,0.11858811229467392
189,4,128,53,0.4626278281211853,0.09719430655241013
189,4,128,54,0.4340072572231293,0.11381564289331436
189,4,128,55,0.49812254309654236,0.11219779402017593
189,4,128,56,0.4325973391532898,0.14576420187950134
189,4,128,57,0.6619068384170532,0.07704771310091019
189,4,128,58,0.6123282313346863,0.11869251728057861
189,4,128,59,0.2718423306941986,0.08895839750766754
189,4,128,60,0.5106139183044434,0.08111193031072617
189,4,128,61,0.6230640411376953,0.11754046380519867
189,4,128,62,0.6018277406692505,0.18119089305400848
189,4,128,63,0.4265945851802826,0.09334452450275421
189,4,128,64,0.5767478346824646,0.21428453922271729
189,4,128,65,0.598103940486908,0.06101230904459953
189,4,128,66,0.3223670721054077,0.12030328810214996
189,4,128,67,0.6862003803253174,0.12437433004379272
189,4,128,68,0.6063827872276306,0.231450617313385
189,4,128,69,0.4770846366882324,0.21140870451927185
189,4,128,70,0.6553680300712585,0.09921266883611679
189,4,128,71,0.6157006621360779,0.15096533298492432
189,4,128,72,0.4174318313598633,0.1383070945739746
189,4,128,73,0.5045971870422363,0.09259006381034851
189,4,128,74,0.6201316714286804,0.15644164383411407
189,4,128,75,0.49349328875541687,0.12024465948343277
189,4,128,76,0.47447776794433594,0.053276725113391876
189,4,128,77,0.545322597026825,0.12482039630413055
189,4,128,78,0.5956316590309143,0.0989384800195694
189,4,128,79,0.552383542060852,0.10790994018316269
189,4,128,80,0.4129566550254822,0.18791337311267853
189,4,128,81,0.6000405550003052,0.12958700954914093
189,4,128,82,0.5828348994255066,0.09867621958255768
189,4,128,83,0.6165342330932617,0.14118926227092743
189,4,128,84,0.5541644096374512,0.09584096074104309
189,4,128,85,0.4473191499710083,0.11703282594680786
189,4,128,86,0.44596630334854126,0.05662540718913078
189,4,128,87,0.5198720097541809,0.07461310178041458
189,4,128,88,0.5521666407585144,0.10057715326547623
189,4,128,89,0.461153507232666,0.08459988981485367
189,4,128,90,0.592024028301239,0.17396877706050873
189,4,128,91,0.3756590485572815,0.17744483053684235
189,4,128,92,0.47722378373146057,0.18696708977222443
189,4,128,93,0.6194669008255005,0.22769129276275635
189,4,128,94,0.46401312947273254,0.18663832545280457
189,4,128,95,0.5893971920013428,0.10162466019392014
189,4,128,96,0.5982415676116943,0.10719846934080124
189,4,128,97,0.3783439099788666,0.1119614988565445
189,4,128,98,0.5964774489402771,0.18850013613700867
189,4,128,99,0.49330657720565796,0.1582183539867401
189,4,128,100,0.3523328900337219,0.16052192449569702
189,4,128,101,0.532241940498352,0.07546327263116837
189,4,128,102,0.5568480491638184,0.20597007870674133
189,4,128,103,0.5546892881393433,0.2150300145149231
189,4,128,104,0.5682627558708191,0.10985799878835678
189,4,128,105,0.38535431027412415,0.1284749060869217
189,4,128,106,0.4725923240184784,0.0707257017493248
189,4,128,107,0.5161658525466919,0.11132938414812088
189,4,128,108,0.6347448229789734,0.19501666724681854
189,4,128,109,0.5636465549468994,0.09183825552463531
189,4,128,110,0.5869722366333008,0.08028551191091537
189,4,128,111,0.531861424446106,0.13823913037776947
189,4,128,112,0.4380653202533722,0.0883113369345665
189,4,128,113,0.6036545038223267,0.09412452578544617
189,4,128,114,0.4441671669483185,0.0775877833366394
189,4,128,115,0.5644420981407166,0.1060924381017685
189,4,128,116,0.5007514953613281,0.1444319188594818
189,4,128,117,0.5638321042060852,0.16597427427768707
189,4,128,118,0.5549507737159729,0.11872109025716782
189,4,128,119,0.587049663066864,0.12121762335300446
189,4,128,120,0.4842594265937805,0.20354972779750824
189,4,128,121,0.49628984928131104,0.05349481478333473
189,4,128,122,0.5056001543998718,0.13428260385990143
189,4,128,123,0.5053591728210449,0.07415701448917389
189,4,128,124,0.4396708011627197,0.08498548716306686
189,4,128,125,0.4416818618774414,0.09504251927137375
189,4,128,126,0.27703315019607544,0.07321187108755112
189,4,128,127,0.3538903594017029,0.12538295984268188
189,5,128,0,0.5044524073600769,0.07897642254829407
189,5,128,1,0.6382675170898438,0.1299096643924713
189,5,128,2,0.6039778590202332,0.08807068318128586
189,5,128,3,0.5572977662086487,0.06558091938495636
189,5,128,4,0.4511213004589081,0.10810194909572601
189,5,128,5,0.5395957231521606,0.0408884733915329
189,5,128,6,0.5440084338188171,0.14130881428718567
189,5,128,7,0.6327692270278931,0.09209468960762024
189,5,128,8,0.40307915210723877,0.10947978496551514
189,5,128,9,0.5446423888206482,0.10993003845214844
189,5,128,10,0.6378438472747803,0.06719185411930084
189,5,128,11,0.3951281011104584,0.05350387096405029
189,5,128,12,0.6012210845947266,0.15713071823120117
189,5,128,13,0.5894737243652344,0.0799957662820816
189,5,128,14,0.5544809699058533,0.15321733057498932
189,5,128,15,0.6295802593231201,0.09909312427043915
189,5,128,16,0.655174732208252,0.11016391962766647
189,5,128,17,0.5732601284980774,0.09663239121437073
189,5,128,18,0.5309677124023438,0.07761421799659729
189,5,128,19,0.49915504455566406,0.08715745806694031
189,5,128,20,0.6803234219551086,0.1096247136592865
189,5,128,21,0.5775315165519714,0.04439463093876839
189,5,128,22,0.5061131119728088,0.15461844205856323
189,5,128,23,0.5674899220466614,0.09138999879360199
189,5,128,24,0.44074705243110657,0.059515200555324554
189,5,128,25,0.46568161249160767,0.08765771985054016
189,5,128,26,0.6283344626426697,0.17812828719615936
189,5,128,27,0.6853864192962646,0.10881195962429047
189,5,128,28,0.5087155699729919,0.1251416951417923
189,5,128,29,0.47553008794784546,0.06340152025222778
189,5,128,30,0.49632030725479126,0.06188327819108963
189,5,128,31,0.4653089940547943,0.11535920947790146
189,5,128,32,0.5865383744239807,0.060205765068531036
189,5,128,33,0.5723350644111633,0.06450199335813522
189,5,128,34,0.44766390323638916,0.12057357281446457
189,5,128,35,0.5169024467468262,0.02743173949420452
189,5,128,36,0.4936234951019287,0.10022655874490738
189,5,128,37,0.48324882984161377,0.0807323157787323
189,5,128,38,0.46857014298439026,0.06943372637033463
189,5,128,39,0.5562199354171753,0.04103243723511696
189,5,128,40,0.5847153663635254,0.1751156449317932
189,5,128,41,0.4799579679965973,0.02868402749300003
189,5,128,42,0.3892321288585663,0.07770372182130814
189,5,128,43,0.5808712840080261,0.07190420478582382
189,5,128,44,0.5628162026405334,0.029519477859139442
189,5,128,45,0.636105477809906,0.07729818671941757
189,5,128,46,0.5138971209526062,0.0807458832859993
189,5,128,47,0.406416654586792,0.11749428510665894
189,5,128,48,0.4042758047580719,0.058727215975522995
189,5,128,49,0.5028945803642273,0.17789433896541595
189,5,128,50,0.5713101625442505,0.03414057940244675
189,5,128,51,0.6292939782142639,0.12102994322776794
189,5,128,52,0.4138810932636261,0.12085812538862228
189,5,128,53,0.4642740488052368,0.017431575804948807
189,5,128,54,0.49675747752189636,0.10188712179660797
189,5,128,55,0.5053207874298096,0.05143225938081741
189,5,128,56,0.5739337801933289,0.12777550518512726
189,5,128,57,0.471761554479599,0.08005824685096741
189,5,128,58,0.5830355882644653,0.06520913541316986
189,5,128,59,0.4936361014842987,0.06593906879425049
189,5,128,60,0.5368920564651489,0.052172865718603134
189,5,128,61,0.5662994384765625,0.047164186835289
189,5,128,62,0.45303893089294434,0.12781266868114471
189,5,128,63,0.6414687037467957,0.10185860097408295
189,5,128,64,0.5372327566146851,0.0947621688246727
189,5,128,65,0.6133986711502075,0.11457736790180206
189,5,128,66,0.5098150968551636,0.12747180461883545
189,5,128,67,0.6775985360145569,0.05872247740626335
189,5,128,68,0.6185145378112793,0.1368778944015503
189,5,128,69,0.5843291282653809,0.09591653198003769
189,5,128,70,0.4854705035686493,0.05567353963851929
189,5,128,71,0.5286195278167725,0.031549904495477676
189,5,128,72,0.5141690373420715,0.10035524517297745
189,5,128,73,0.46683117747306824,0.11836902052164078
189,5,128,74,0.5100392699241638,0.10832527279853821
189,5,128,75,0.5423870086669922,0.05366083234548569
189,5,128,76,0.4886680245399475,0.13814117014408112
189,5,128,77,0.52398681640625,0.06466639786958694
189,5,128,78,0.5862959027290344,0.06955718994140625
189,5,128,79,0.6207217574119568,0.10297344624996185
189,5,128,80,0.3793430030345917,0.08871100097894669
189,5,128,81,0.5982974171638489,0.13835103809833527
189,5,128,82,0.49673452973365784,0.02756737358868122
189,5,128,83,0.4678446352481842,0.05198867991566658
189,5,128,84,0.5262297987937927,0.054661981761455536
189,5,128,85,0.5963844656944275,0.10499372333288193
189,5,128,86,0.4441837966442108,0.0862097516655922
189,5,128,87,0.5379579663276672,0.10950330644845963
189,5,128,88,0.5509698390960693,0.12001294642686844
189,5,128,89,0.6454401016235352,0.07241500914096832
189,5,128,90,0.5191236138343811,0.12919603288173676
189,5,128,91,0.5332936644554138,0.12889604270458221
189,5,128,92,0.5081315636634827,0.0531366728246212
189,5,128,93,0.6156253814697266,0.11809764057397842
189,5,128,94,0.6122032403945923,0.06267324835062027
189,5,128,95,0.5948709845542908,0.10911331325769424
189,5,128,96,0.6465070843696594,0.08056267350912094
189,5,128,97,0.623687744140625,0.07827238738536835
189,5,128,98,0.5933130979537964,0.07209168374538422
189,5,128,99,0.5848061442375183,0.06383198499679565
189,5,128,100,0.37747490406036377,0.09759169071912766
189,5,128,101,0.5886383652687073,0.051114607602357864
189,5,128,102,0.43371984362602234,0.03645985573530197
189,5,128,103,0.5855816602706909,0.08951834589242935
189,5,128,104,0.42418962717056274,0.06378082931041718
189,5,128,105,0.4322201907634735,0.10110445320606232
189,5,128,106,0.38974711298942566,0.08499936014413834
189,5,128,107,0.4431069493293762,0.08749525994062424
189,5,128,108,0.6356062889099121,0.10254549235105515
189,5,128,109,0.596523642539978,0.08048257976770401
189,5,128,110,0.6108278036117554,0.10340062528848648
189,5,128,111,0.5458998680114746,0.13330751657485962
189,5,128,112,0.47261732816696167,0.06487569212913513
189,5,128,113,0.49321678280830383,0.15616250038146973
189,5,128,114,0.5316753387451172,0.07869564741849899
189,5,128,115,0.44246000051498413,0.054130248725414276
189,5,128,116,0.6107679605484009,0.14439350366592407
189,5,128,117,0.5918639898300171,0.10635175555944443
189,5,128,118,0.5063807964324951,0.05993247032165527
189,5,128,119,0.5344231724739075,0.14767782390117645
189,5,128,120,0.5904601216316223,0.10726925730705261
189,5,128,121,0.5741746425628662,0.03145420178771019
189,5,128,122,0.5305900573730469,0.0824354961514473
189,5,128,123,0.510019063949585,0.05304025858640671
189,5,128,124,0.45290905237197876,0.059259653091430664
189,5,128,125,0.42154666781425476,0.16478613018989563
189,5,128,126,0.5833231210708618,0.13072578608989716
189,5,128,127,0.5552252531051636,0.11219993233680725
190,0,32,0,0.6455535292625427,0.06740676611661911
190,0,32,1,0.534757137298584,0.08547566831111908
190,0,32,2,0.491138756275177,0.09595387428998947
190,0,32,3,0.5038312673568726,0.12163509428501129
190,0,32,4,0.28913185000419617,0.08814501017332077
190,0,32,5,0.6033264398574829,0.06598687171936035
190,0,32,6,0.4886152744293213,0.14948153495788574
190,0,32,7,0.4686353802680969,0.10432080179452896
190,0,32,8,0.49612295627593994,0.10983108729124069
190,0,32,9,0.5465580224990845,0.03615749999880791
190,0,32,10,0.34545063972473145,0.030004438012838364
190,0,32,11,0.3943766951560974,0.05564215034246445
190,0,32,12,0.4393673539161682,0.1086636558175087
190,0,32,13,0.5014431476593018,0.11448349803686142
190,0,32,14,0.592856764793396,0.07009293884038925
190,0,32,15,0.42920592427253723,0.10407637059688568
190,0,32,16,0.436683714389801,0.11783751100301743
190,0,32,17,0.5509730577468872,0.13097718358039856
190,0,32,18,0.37512439489364624,0.09732584655284882
190,0,32,19,0.61296147108078,0.04288350045681
190,0,32,20,0.45169728994369507,0.08361868560314178
190,0,32,21,0.5346343517303467,0.10329200327396393
190,0,32,22,0.4463816285133362,0.09977512806653976
190,0,32,23,0.6376156210899353,0.10783711075782776
190,0,32,24,0.4420052766799927,0.12958845496177673
190,0,32,25,0.4557775855064392,0.046768996864557266
190,0,32,26,0.43108901381492615,0.08410514891147614
190,0,32,27,0.5137401819229126,0.11494968086481094
190,0,32,28,0.5298802852630615,0.10030736029148102
190,0,32,29,0.5591958165168762,0.10062848776578903
190,0,32,30,0.5680642127990723,0.0458562970161438
190,0,32,31,0.5512961745262146,0.09530163556337357
190,1,32,0,0.4032621681690216,0.07465007156133652
190,1,32,1,0.5614662766456604,0.06664872169494629
190,1,32,2,0.4314698576927185,0.11004049330949783
190,1,32,3,0.4696682095527649,0.10371261835098267
190,1,32,4,0.6333757042884827,0.10517356544733047
190,1,32,5,0.385011225938797,0.0646187886595726
190,1,32,6,0.3626512289047241,0.07503917813301086
190,1,32,7,0.48900872468948364,0.07115371525287628
190,1,32,8,0.5872512459754944,0.09619097411632538
190,1,32,9,0.45231759548187256,0.072943776845932
190,1,32,10,0.37389257550239563,0.07572828233242035
190,1,32,11,0.5642735958099365,0.06321652233600616
190,1,32,12,0.36408731341362,0.07252227514982224
190,1,32,13,0.5251041650772095,0.04838670417666435
190,1,32,14,0.5603892207145691,0.05673613399267197
190,1,32,15,0.4847326874732971,0.048219431191682816
190,1,32,16,0.5287328958511353,0.09009670466184616
190,1,32,17,0.41796234250068665,0.0794633999466896
190,1,32,18,0.4413491487503052,0.07859425246715546
190,1,32,19,0.5622381567955017,0.07239306718111038
190,1,32,20,0.5116973519325256,0.14059574902057648
190,1,32,21,0.5449650287628174,0.059579793363809586
190,1,32,22,0.42448025941848755,0.03835899010300636
190,1,32,23,0.5884721279144287,0.02608051523566246
190,1,32,24,0.572363555431366,0.08720535784959793
190,1,32,25,0.5998359322547913,0.057207804173231125
190,1,32,26,0.503161609172821,0.11016962677240372
190,1,32,27,0.5180819034576416,0.07573967427015305
190,1,32,28,0.398601233959198,0.08838542550802231
190,1,32,29,0.4872073233127594,0.0871836468577385
190,1,32,30,0.6184191703796387,0.11010807007551193
190,1,32,31,0.4528500437736511,0.03907354921102524
190,2,64,0,0.5800075531005859,0.11131925880908966
190,2,64,1,0.4294990003108978,0.07138870656490326
190,2,64,2,0.5214237570762634,0.16965728998184204
190,2,64,3,0.6171173453330994,0.1615617424249649
190,2,64,4,0.3515300750732422,0.10381155461072922
190,2,64,5,0.4840060770511627,0.15412580966949463
190,2,64,6,0.540257453918457,0.11984986066818237
190,2,64,7,0.6679052710533142,0.13410760462284088
190,2,64,8,0.43673381209373474,0.08614422380924225
190,2,64,9,0.5648784041404724,0.1936461478471756
190,2,64,10,0.3608987629413605,0.12828221917152405
190,2,64,11,0.4806745648384094,0.12598340213298798
190,2,64,12,0.41226229071617126,0.11175404489040375
190,2,64,13,0.5692007541656494,0.15811891853809357
190,2,64,14,0.5263569951057434,0.15763460099697113
190,2,64,15,0.6309987306594849,0.11878913640975952
190,2,64,16,0.5760975480079651,0.1560341864824295
190,2,64,17,0.5766434669494629,0.17254184186458588
190,2,64,18,0.5061911940574646,0.16154716908931732
190,2,64,19,0.5536680221557617,0.09605029970407486
190,2,64,20,0.3987700045108795,0.09044600278139114
190,2,64,21,0.3713526725769043,0.14620989561080933
190,2,64,22,0.31991979479789734,0.17582429945468903
190,2,64,23,0.6206179857254028,0.156235009431839
190,2,64,24,0.4372835159301758,0.12827078998088837
190,2,64,25,0.5172343254089355,0.12920163571834564
190,2,64,26,0.44519880414009094,0.08399344980716705
