subject,block,block_width,feature_channel,gate_mean,gate_sd
156,0,32,0,0.38795918226242065,0.08634732663631439
156,0,32,1,0.5243157148361206,0.048321276903152466
156,0,32,2,0.4032118320465088,0.0811217725276947
156,0,32,3,0.38300782442092896,0.06960995495319366
156,0,32,4,0.35087743401527405,0.10100793838500977
156,0,32,5,0.5592639446258545,0.06832357496023178
156,0,32,6,0.5417147278785706,0.08120224624872208
156,0,32,7,0.3828023076057434,0.0614176020026207
156,0,32,8,0.422419935464859,0.05994141101837158
156,0,32,9,0.46808168292045593,0.0955943614244461
156,0,32,10,0.5614941120147705,0.03713274747133255
156,0,32,11,0.4629674553871155,0.08863255381584167
156,0,32,12,0.4829891324043274,0.1194857805967331
156,0,32,13,0.4904107451438904,0.1081380620598793
156,0,32,14,0.38693177700042725,0.06866388767957687
156,0,32,15,0.651768684387207,0.07941123098134995
156,0,32,16,0.46574926376342773,0.05298987776041031
156,0,32,17,0.38593053817749023,0.04405100643634796
156,0,32,18,0.37079718708992004,0.07392587512731552
156,0,32,19,0.3779342770576477,0.12472105771303177
156,0,32,20,0.4437638223171234,0.05383313447237015
156,0,32,21,0.5929431915283203,0.08101110905408859
156,0,32,22,0.4876783788204193,0.1274951845407486
156,0,32,23,0.404043972492218,0.03740112483501434
156,0,32,24,0.5669708251953125,0.03704521059989929
156,0,32,25,0.6027699708938599,0.07925722748041153
156,0,32,26,0.4637117385864258,0.05569365620613098
156,0,32,27,0.4993210732936859,0.12074057012796402
156,0,32,28,0.46204283833503723,0.08437112718820572
156,0,32,29,0.5646588802337646,0.09880683571100235
156,0,32,30,0.3882227838039398,0.0678931400179863
156,0,32,31,0.6317804455757141,0.058040373027324677
156,1,32,0,0.4309646487236023,0.028985030949115753
156,1,32,1,0.5702028870582581,0.0849800854921341
156,1,32,2,0.5489974617958069,0.07508286088705063
156,1,32,3,0.6215735673904419,0.030542626976966858
156,1,32,4,0.45506832003593445,0.06682490557432175
156,1,32,5,0.5394629836082458,0.05556132271885872
156,1,32,6,0.4306112229824066,0.06839995831251144
156,1,32,7,0.3770383298397064,0.08654232323169708
156,1,32,8,0.5747622847557068,0.036178868263959885
156,1,32,9,0.5162261128425598,0.09255009144544601
156,1,32,10,0.48238152265548706,0.06705811619758606
156,1,32,11,0.5157871246337891,0.07534170150756836
156,1,32,12,0.3456558585166931,0.09615255892276764
156,1,32,13,0.5402632355690002,0.11652901023626328
156,1,32,14,0.35118383169174194,0.09114012122154236
156,1,32,15,0.4641234874725342,0.13135741651058197
156,1,32,16,0.5002135634422302,0.085357166826725
156,1,32,17,0.44158607721328735,0.07183561474084854
156,1,32,18,0.45603495836257935,0.09321577847003937
156,1,32,19,0.5139919519424438,0.07340062409639359
156,1,32,20,0.4972788989543915,0.10984808206558228
156,1,32,21,0.5905640721321106,0.09094168245792389
156,1,32,22,0.3321460485458374,0.05227953940629959
156,1,32,23,0.5256580710411072,0.061039239168167114
156,1,32,24,0.5089211463928223,0.09929605573415756
156,1,32,25,0.5275600552558899,0.05658473074436188
156,1,32,26,0.6021117568016052,0.042422350496053696
156,1,32,27,0.5147767663002014,0.09916719794273376
156,1,32,28,0.560268223285675,0.06966547667980194
156,1,32,29,0.5065593123435974,0.08151371777057648
156,1,32,30,0.5021563172340393,0.07418176531791687
156,1,32,31,0.5642308592796326,0.07795947045087814
156,2,64,0,0.5167606472969055,0.14696095883846283
156,2,64,1,0.36318439245224,0.22553996741771698
156,2,64,2,0.42519333958625793,0.18075157701969147
156,2,64,3,0.4747636914253235,0.1448426991701126
156,2,64,4,0.5082812309265137,0.2945961058139801
156,2,64,5,0.6195929646492004,0.1480223834514618
156,2,64,6,0.6353675127029419,0.1438525766134262
156,2,64,7,0.34426599740982056,0.14249934256076813
156,2,64,8,0.38464438915252686,0.22933433949947357
156,2,64,9,0.4053797721862793,0.2484060823917389
156,2,64,10,0.399492472410202,0.09477072954177856
156,2,64,11,0.7382901310920715,0.10413641482591629
156,2,64,12,0.4472723603248596,0.25750473141670227
156,2,64,13,0.6249884366989136,0.24109606444835663
156,2,64,14,0.5743057727813721,0.2479221224784851
156,2,64,15,0.6120989918708801,0.07989516109228134
156,2,64,16,0.5802443027496338,0.20138002932071686
156,2,64,17,0.6146324276924133,0.25296148657798767
156,2,64,18,0.3761780858039856,0.16079024970531464
156,2,64,19,0.6598774194717407,0.229441836476326
156,2,64,20,0.6180057525634766,0.21206976473331451
156,2,64,21,0.5350538492202759,0.2619969844818115
156,2,64,22,0.5910724401473999,0.1767141968011856
156,2,64,23,0.6357539296150208,0.04385947436094284
156,2,64,24,0.6038335561752319,0.09950684756040573
156,2,64,25,0.6523874998092651,0.1416604071855545
156,2,64,26,0.7667484879493713,0.0820559710264206
156,2,64,27,0.5553333163261414,0.27981120347976685
156,2,64,28,0.31514427065849304,0.1877765655517578
156,2,64,29,0.5849788188934326,0.13599704205989838
156,2,64,30,0.37513524293899536,0.14946149289608002
156,2,64,31,0.5161473751068115,0.3224030137062073
156,2,64,32,0.49495214223861694,0.10047220438718796
156,2,64,33,0.5076702833175659,0.08439551293849945
156,2,64,34,0.36777979135513306,0.2177000790834427
156,2,64,35,0.6774979829788208,0.09837943315505981
156,2,64,36,0.46251654624938965,0.25360214710235596
156,2,64,37,0.44356769323349,0.1769096702337265
156,2,64,38,0.5870710015296936,0.20812322199344635
156,2,64,39,0.748977541923523,0.1160053014755249
156,2,64,40,0.3302145302295685,0.07595758885145187
156,2,64,41,0.5348361730575562,0.23203210532665253
156,2,64,42,0.6208345890045166,0.2814134657382965
156,2,64,43,0.4536784291267395,0.15489493310451508
156,2,64,44,0.5629416108131409,0.12992534041404724
156,2,64,45,0.5076730847358704,0.157388374209404
156,2,64,46,0.39905986189842224,0.20974358916282654
156,2,64,47,0.25586140155792236,0.14150488376617432
156,2,64,48,0.4860985577106476,0.15021805465221405
156,2,64,49,0.5654431581497192,0.10567285120487213
156,2,64,50,0.4324842393398285,0.27624204754829407
156,2,64,51,0.49273383617401123,0.13037195801734924
156,2,64,52,0.43745043873786926,0.2024076282978058
156,2,64,53,0.31021836400032043,0.13632087409496307
156,2,64,54,0.5067581534385681,0.12457751482725143
156,2,64,55,0.3833969831466675,0.15593624114990234
156,2,64,56,0.4655319154262543,0.13024267554283142
156,2,64,57,0.4258788824081421,0.1954624503850937
156,2,64,58,0.5704200863838196,0.16386939585208893
156,2,64,59,0.4138224422931671,0.20349717140197754
156,2,64,60,0.5851417779922485,0.08805834501981735
156,2,64,61,0.524488627910614,0.12098538130521774
156,2,64,62,0.617521345615387,0.12820445001125336
156,2,64,63,0.4274865388870239,0.18317346274852753
156,3,64,0,0.3277076184749603,0.16778136789798737
156,3,64,1,0.5658757090568542,0.10618244856595993
156,3,64,2,0.49003732204437256,0.06467273086309433
156,3,64,3,0.4260600507259369,0.22440208494663239
156,3,64,4,0.3243965208530426,0.11018862575292587
156,3,64,5,0.3059059977531433,0.10240966081619263
156,3,64,6,0.35224980115890503,0.15188322961330414
156,3,64,7,0.6401801705360413,0.11981002241373062
156,3,64,8,0.22152875363826752,0.10134854912757874
156,3,64,9,0.6415164470672607,0.14800161123275757
156,3,64,10,0.5894397497177124,0.15344423055648804
156,3,64,11,0.264815092086792,0.11478246748447418
156,3,64,12,0.464361310005188,0.1364564150571823
156,3,64,13,0.5280874371528625,0.25411200523376465
156,3,64,14,0.6505411267280579,0.17896778881549835
156,3,64,15,0.5108247995376587,0.2576237618923187
156,3,64,16,0.4876003563404083,0.2995448410511017
156,3,64,17,0.6320924758911133,0.17386190593242645
156,3,64,18,0.4664648771286011,0.2783125042915344
156,3,64,19,0.4618041217327118,0.13288578391075134
156,3,64,20,0.45657873153686523,0.1547979712486267
156,3,64,21,0.6006529927253723,0.19645029306411743
156,3,64,22,0.37185266613960266,0.14532601833343506
156,3,64,23,0.5199574828147888,0.2729945480823517
156,3,64,24,0.40945327281951904,0.23057584464550018
156,3,64,25,0.5082678198814392,0.30854588747024536
156,3,64,26,0.5200967788696289,0.2301495224237442
156,3,64,27,0.3998725414276123,0.15091869235038757
156,3,64,28,0.5862906575202942,0.20928673446178436
156,3,64,29,0.44151920080184937,0.2085811346769333
156,3,64,30,0.34278857707977295,0.17770487070083618
156,3,64,31,0.5150671005249023,0.23644134402275085
156,3,64,32,0.4772781729698181,0.3106946647167206
156,3,64,33,0.4122697710990906,0.12162814289331436
156,3,64,34,0.5753411650657654,0.05235784873366356
156,3,64,35,0.47449830174446106,0.3168396055698395
156,3,64,36,0.648516833782196,0.14915168285369873
156,3,64,37,0.6871906518936157,0.08577610552310944
156,3,64,38,0.44045963883399963,0.2969686985015869
156,3,64,39,0.4788181781768799,0.1987222582101822
156,3,64,40,0.4909408390522003,0.2793661057949066
156,3,64,41,0.26010292768478394,0.11445354670286179
156,3,64,42,0.4364725947380066,0.17731107771396637
156,3,64,43,0.5936541557312012,0.2494925856590271
156,3,64,44,0.5059021711349487,0.14966575801372528
156,3,64,45,0.474417120218277,0.2088286280632019
156,3,64,46,0.35257047414779663,0.1341768056154251
156,3,64,47,0.526430606842041,0.0964772179722786
156,3,64,48,0.421989768743515,0.13098028302192688
156,3,64,49,0.3949415385723114,0.1549033522605896
156,3,64,50,0.7066900730133057,0.15211744606494904
156,3,64,51,0.2796511650085449,0.1502418965101242
156,3,64,52,0.5699719190597534,0.1680811494588852
156,3,64,53,0.5407992005348206,0.07609505951404572
156,3,64,54,0.2587660551071167,0.12706702947616577
156,3,64,55,0.3118285834789276,0.1942262351512909
156,3,64,56,0.41893741488456726,0.18047966063022614
156,3,64,57,0.26778265833854675,0.13745616376399994
156,3,64,58,0.7203581929206848,0.09996676445007324
156,3,64,59,0.4841756522655487,0.14792375266551971
156,3,64,60,0.4798746109008789,0.26454806327819824
156,3,64,61,0.5134320259094238,0.2991226613521576
156,3,64,62,0.6013736724853516,0.19445858895778656
156,3,64,63,0.5941509008407593,0.20900827646255493
156,4,128,0,0.6932908892631531,0.14484159648418427
156,4,128,1,0.550652027130127,0.11459777504205704
156,4,128,2,0.6558908224105835,0.22337229549884796
156,4,128,3,0.5596749186515808,0.2681218385696411
156,4,128,4,0.7302605509757996,0.1345767229795456
156,4,128,5,0.6127395629882812,0.20667357742786407
156,4,128,6,0.5737218260765076,0.28469228744506836
156,4,128,7,0.34926488995552063,0.07355324178934097
156,4,128,8,0.5375402569770813,0.3052268624305725
156,4,128,9,0.4742993712425232,0.25473475456237793
156,4,128,10,0.680706262588501,0.2589021921157837
156,4,128,11,0.3802008330821991,0.12992504239082336
156,4,128,12,0.44360366463661194,0.29605820775032043
156,4,128,13,0.5429407954216003,0.20931290090084076
156,4,128,14,0.376569539308548,0.2901659607887268
156,4,128,15,0.4660177230834961,0.14235778152942657
156,4,128,16,0.5778852105140686,0.10295850038528442
156,4,128,17,0.7923908233642578,0.13047336041927338
156,4,128,18,0.5509365200996399,0.29320934414863586
156,4,128,19,0.6124163269996643,0.14256632328033447
156,4,128,20,0.6104164719581604,0.15488813817501068
156,4,128,21,0.4072783589363098,0.10732113569974899
156,4,128,22,0.6474266052246094,0.07359392195940018
156,4,128,23,0.7679560780525208,0.14602415263652802
156,4,128,24,0.5319085121154785,0.2017291933298111
156,4,128,25,0.4902266561985016,0.1585456281900406
156,4,128,26,0.6201148629188538,0.26723653078079224
156,4,128,27,0.4703320264816284,0.12895475327968597
156,4,128,28,0.6363163590431213,0.15706326067447662
156,4,128,29,0.6482189893722534,0.20225344598293304
156,4,128,30,0.6607546210289001,0.17902415990829468
156,4,128,31,0.6921366453170776,0.12916047871112823
156,4,128,32,0.6720421314239502,0.22631604969501495
156,4,128,33,0.626488983631134,0.2900213599205017
156,4,128,34,0.4756110906600952,0.23446962237358093
156,4,128,35,0.4269362688064575,0.21651796996593475
156,4,128,36,0.4179425537586212,0.06486320495605469
156,4,128,37,0.3557705581188202,0.2671552002429962
156,4,128,38,0.5979308485984802,0.17179284989833832
156,4,128,39,0.5876251459121704,0.25990399718284607
156,4,128,40,0.526211678981781,0.11941941827535629
156,4,128,41,0.41219472885131836,0.33904674649238586
156,4,128,42,0.7504761815071106,0.1295396238565445
156,4,128,43,0.5139577388763428,0.06709013879299164
156,4,128,44,0.5747696757316589,0.16309042274951935
156,4,128,45,0.6349095702171326,0.10536644607782364
156,4,128,46,0.43938615918159485,0.212520033121109
156,4,128,47,0.4043143689632416,0.16922588646411896
156,4,128,48,0.44621267914772034,0.2828490734100342
156,4,128,49,0.6020670533180237,0.13647295534610748
156,4,128,50,0.8032536506652832,0.10985904186964035
156,4,128,51,0.5926303863525391,0.23710694909095764
156,4,128,52,0.4346880316734314,0.20123699307441711
156,4,128,53,0.43418824672698975,0.1408059298992157
156,4,128,54,0.43168285489082336,0.2801339626312256
156,4,128,55,0.673332929611206,0.1548909693956375
156,4,128,56,0.47315800189971924,0.21028001606464386
156,4,128,57,0.47300347685813904,0.2785137891769409
156,4,128,58,0.26262515783309937,0.12418080866336823
156,4,128,59,0.5458760261535645,0.14853882789611816
156,4,128,60,0.5743411779403687,0.21087084710597992
156,4,128,61,0.5754438638687134,0.18453069031238556
156,4,128,62,0.4032314121723175,0.3277192711830139
156,4,128,63,0.33117562532424927,0.09051355719566345
156,4,128,64,0.5983178019523621,0.17469856142997742
156,4,128,65,0.580549955368042,0.23538838326931
156,4,128,66,0.36704474687576294,0.25678908824920654
156,4,128,67,0.581517219543457,0.2688446342945099
156,4,128,68,0.6284893155097961,0.14944884181022644
156,4,128,69,0.5405263304710388,0.09031647443771362
156,4,128,70,0.7331255078315735,0.13615788519382477
156,4,128,71,0.5210704207420349,0.06700292229652405
156,4,128,72,0.6148027777671814,0.17407985031604767
156,4,128,73,0.6020434498786926,0.2451697438955307
156,4,128,74,0.5239225029945374,0.1357388198375702
156,4,128,75,0.5773825645446777,0.35207614302635193
156,4,128,76,0.5322086811065674,0.18301621079444885
156,4,128,77,0.5985759496688843,0.17055921256542206
156,4,128,78,0.7704006433486938,0.1475037783384323
156,4,128,79,0.44192731380462646,0.21868447959423065
156,4,128,80,0.6362786293029785,0.15417352318763733
156,4,128,81,0.5305119156837463,0.20535911619663239
156,4,128,82,0.6003614664077759,0.3153368830680847
156,4,128,83,0.7255455851554871,0.15214674174785614
156,4,128,84,0.6117938160896301,0.1109907478094101
156,4,128,85,0.6902111768722534,0.18588519096374512
156,4,128,86,0.6305975914001465,0.07885142415761948
156,4,128,87,0.6313307881355286,0.17505671083927155
156,4,128,88,0.529390811920166,0.11537601053714752
156,4,128,89,0.40830013155937195,0.1315218061208725
156,4,128,90,0.6191167831420898,0.15680788457393646
156,4,128,91,0.5596081614494324,0.2299799621105194
156,4,128,92,0.34658780694007874,0.11612123250961304
156,4,128,93,0.38081231713294983,0.20085114240646362
156,4,128,94,0.527550220489502,0.1482948213815689
156,4,128,95,0.7289996147155762,0.18623003363609314
156,4,128,96,0.6236629486083984,0.07989130169153214
156,4,128,97,0.6141262650489807,0.29590511322021484
156,4,128,98,0.5174484848976135,0.33534154295921326
156,4,128,99,0.5251324772834778,0.3032582700252533
156,4,128,100,0.39389991760253906,0.26500174403190613
156,4,128,101,0.47897833585739136,0.24333719909191132
156,4,128,102,0.501400887966156,0.1851947158575058
156,4,128,103,0.6247174739837646,0.17779403924942017
156,4,128,104,0.5382437109947205,0.07733675092458725
156,4,128,105,0.6710459589958191,0.23246078193187714
156,4,128,106,0.5262593626976013,0.19924893975257874
156,4,128,107,0.45459699630737305,0.17053736746311188
156,4,128,108,0.3546997010707855,0.2955911159515381
156,4,128,109,0.6200140118598938,0.10818202048540115
156,4,128,110,0.7045711278915405,0.15545256435871124
156,4,128,111,0.5943718552589417,0.2065141201019287
156,4,128,112,0.44278737902641296,0.15962234139442444
156,4,128,113,0.7523193359375,0.10234788805246353
156,4,128,114,0.684802234172821,0.23576585948467255
156,4,128,115,0.46409228444099426,0.33634117245674133
156,4,128,116,0.6805728077888489,0.07970938831567764
156,4,128,117,0.6533201932907104,0.23980632424354553
156,4,128,118,0.6455901265144348,0.1482180505990982
156,4,128,119,0.7493023872375488,0.11706578731536865
156,4,128,120,0.43031781911849976,0.17597511410713196
156,4,128,121,0.4772305190563202,0.22524891793727875
156,4,128,122,0.44006621837615967,0.17837201058864594
156,4,128,123,0.6100496649742126,0.14064645767211914
156,4,128,124,0.7727705240249634,0.13587264716625214
156,4,128,125,0.6472095847129822,0.23740462958812714
156,4,128,126,0.6435191035270691,0.19457723200321198
156,4,128,127,0.48395195603370667,0.24824315309524536
156,5,128,0,0.6466562151908875,0.21719011664390564
156,5,128,1,0.7486026287078857,0.12190388143062592
156,5,128,2,0.7974699139595032,0.14390800893306732
156,5,128,3,0.73151034116745,0.1469031721353531
156,5,128,4,0.7946859002113342,0.14834728837013245
156,5,128,5,0.5426352024078369,0.11105352640151978
156,5,128,6,0.7526973485946655,0.12544040381908417
156,5,128,7,0.45253512263298035,0.13041719794273376
156,5,128,8,0.47619953751564026,0.25928911566734314
156,5,128,9,0.7273379564285278,0.12958362698554993
156,5,128,10,0.5347185134887695,0.27559196949005127
156,5,128,11,0.7740039825439453,0.1411580890417099
156,5,128,12,0.7268761992454529,0.14519229531288147
156,5,128,13,0.7158642411231995,0.10622838139533997
156,5,128,14,0.642853856086731,0.13324911892414093
156,5,128,15,0.8284668326377869,0.13320428133010864
156,5,128,16,0.7466244697570801,0.16431918740272522
156,5,128,17,0.7925637364387512,0.15516074001789093
156,5,128,18,0.7922967672348022,0.12796743214130402
156,5,128,19,0.5817011594772339,0.2830800414085388
156,5,128,20,0.6437591314315796,0.13113413751125336
156,5,128,21,0.6607016324996948,0.1659696102142334
156,5,128,22,0.7872365117073059,0.10656243562698364
156,5,128,23,0.773155689239502,0.1665543168783188
156,5,128,24,0.7524375915527344,0.13917653262615204
156,5,128,25,0.5579136610031128,0.07063285261392593
156,5,128,26,0.7266724109649658,0.1482222080230713
156,5,128,27,0.7108217477798462,0.13850037753582
156,5,128,28,0.7606126070022583,0.12740997970104218
156,5,128,29,0.6097676157951355,0.279694139957428
156,5,128,30,0.7300385236740112,0.16010397672653198
156,5,128,31,0.7366672158241272,0.15046684443950653
156,5,128,32,0.67326420545578,0.17655573785305023
156,5,128,33,0.6297794580459595,0.2547963857650757
156,5,128,34,0.6679362058639526,0.1342809498310089
156,5,128,35,0.7198171019554138,0.18320217728614807
156,5,128,36,0.5823935866355896,0.12328200042247772
156,5,128,37,0.6672416925430298,0.15649068355560303
156,5,128,38,0.7984047532081604,0.12085307389497757
156,5,128,39,0.7383649945259094,0.15286658704280853
156,5,128,40,0.48541560769081116,0.15431827306747437
156,5,128,41,0.8067547678947449,0.13009598851203918
156,5,128,42,0.7343007326126099,0.13813602924346924
156,5,128,43,0.4633016884326935,0.11577721685171127
156,5,128,44,0.778872549533844,0.1342732012271881
156,5,128,45,0.6480779051780701,0.13430353999137878
156,5,128,46,0.5810224413871765,0.07214339822530746
156,5,128,47,0.7494220733642578,0.1371145248413086
156,5,128,48,0.6885446310043335,0.13828173279762268
156,5,128,49,0.6303603649139404,0.17408157885074615
156,5,128,50,0.7877026796340942,0.14644725620746613
156,5,128,51,0.6233330965042114,0.21948270499706268
156,5,128,52,0.7550017237663269,0.1746342033147812
156,5,128,53,0.5615115761756897,0.2290995568037033
156,5,128,54,0.6790196299552917,0.12623172998428345
156,5,128,55,0.7126736044883728,0.15267308056354523
156,5,128,56,0.4311366677284241,0.1560576856136322
156,5,128,57,0.7034375071525574,0.19155460596084595
156,5,128,58,0.6658376455307007,0.16037090122699738
156,5,128,59,0.6335291862487793,0.16100004315376282
156,5,128,60,0.473114937543869,0.059589631855487823
156,5,128,61,0.7107439637184143,0.17799629271030426
156,5,128,62,0.7165796160697937,0.13894513249397278
156,5,128,63,0.43780192732810974,0.23130355775356293
156,5,128,64,0.5584015250205994,0.2142544984817505
156,5,128,65,0.7229037284851074,0.10669686645269394
156,5,128,66,0.4946218729019165,0.15687784552574158
156,5,128,67,0.5861721038818359,0.21232740581035614
156,5,128,68,0.5235521197319031,0.224831223487854
156,5,128,69,0.6595973372459412,0.1548454463481903
156,5,128,70,0.5356779098510742,0.14260786771774292
156,5,128,71,0.732825517654419,0.1417728215456009
156,5,128,72,0.6315730810165405,0.15694160759449005
156,5,128,73,0.7761907577514648,0.11237222701311111
156,5,128,74,0.6097143888473511,0.22391121089458466
156,5,128,75,0.7463194131851196,0.11936702579259872
156,5,128,76,0.6900036334991455,0.1515330970287323
156,5,128,77,0.7221609950065613,0.1553633213043213
156,5,128,78,0.7827276587486267,0.13216687738895416
156,5,128,79,0.6537982225418091,0.13155850768089294
156,5,128,80,0.6240217685699463,0.26302334666252136
156,5,128,81,0.7334105372428894,0.1499030590057373
156,5,128,82,0.7165509462356567,0.18107964098453522
156,5,128,83,0.7692837715148926,0.15080150961875916
156,5,128,84,0.5452861189842224,0.1881270557641983
156,5,128,85,0.7537162899971008,0.11921685189008713
156,5,128,86,0.6275208592414856,0.24550530314445496
156,5,128,87,0.7919365763664246,0.14314141869544983
156,5,128,88,0.7221537232398987,0.14004431664943695
156,5,128,89,0.6770960688591003,0.20561371743679047
156,5,128,90,0.7378707528114319,0.14773774147033691
156,5,128,91,0.7306639552116394,0.15281027555465698
156,5,128,92,0.5720664858818054,0.14418475329875946
156,5,128,93,0.6866476535797119,0.15695402026176453
156,5,128,94,0.6861743927001953,0.13977055251598358
156,5,128,95,0.7842648029327393,0.12291097640991211
156,5,128,96,0.753154993057251,0.15241041779518127
156,5,128,97,0.583791196346283,0.32860562205314636
156,5,128,98,0.6220965385437012,0.291751891374588
156,5,128,99,0.6702401638031006,0.14070765674114227
156,5,128,100,0.7242149710655212,0.13420459628105164
156,5,128,101,0.7502795457839966,0.17683733999729156
156,5,128,102,0.6795307397842407,0.14419671893119812
156,5,128,103,0.6925251483917236,0.1413159817457199
156,5,128,104,0.746856689453125,0.11584561318159103
156,5,128,105,0.7355928421020508,0.165773406624794
156,5,128,106,0.5199577808380127,0.227722629904747
156,5,128,107,0.4788993000984192,0.1007285788655281
156,5,128,108,0.43852072954177856,0.20901313424110413
156,5,128,109,0.6967626214027405,0.1302180141210556
156,5,128,110,0.6598671078681946,0.20387983322143555
156,5,128,111,0.6705223917961121,0.16323237121105194
156,5,128,112,0.6653806567192078,0.14757968485355377
156,5,128,113,0.7706606984138489,0.1463077813386917
156,5,128,114,0.7893749475479126,0.1601199060678482
156,5,128,115,0.7358241677284241,0.15227441489696503
156,5,128,116,0.5155919194221497,0.19627879559993744
156,5,128,117,0.7212791442871094,0.1289607733488083
156,5,128,118,0.7506279945373535,0.14409007132053375
156,5,128,119,0.7013645172119141,0.128170445561409
156,5,128,120,0.7211446762084961,0.13145755231380463
156,5,128,121,0.7774171829223633,0.11492037773132324
156,5,128,122,0.4721181094646454,0.279935747385025
156,5,128,123,0.777438223361969,0.17387758195400238
156,5,128,124,0.7468852996826172,0.17652131617069244
156,5,128,125,0.5300188064575195,0.1269039511680603
156,5,128,126,0.699724018573761,0.238505557179451
156,5,128,127,0.6762372851371765,0.18458639085292816
185,0,32,0,0.3839956223964691,0.0714183896780014
185,0,32,1,0.5865865349769592,0.03929770737886429
185,0,32,2,0.4001093804836273,0.10440689325332642
185,0,32,3,0.4274507761001587,0.13575230538845062
185,0,32,4,0.4320063889026642,0.13286985456943512
185,0,32,5,0.33659493923187256,0.13588149845600128
185,0,32,6,0.49862757325172424,0.10466637462377548
185,0,32,7,0.38063350319862366,0.07216095179319382
185,0,32,8,0.605502724647522,0.11399984359741211
185,0,32,9,0.46809548139572144,0.08788804709911346
185,0,32,10,0.5213105082511902,0.21372410655021667
185,0,32,11,0.3611956834793091,0.07619357109069824
185,0,32,12,0.4983530342578888,0.10080094635486603
185,0,32,13,0.558275580406189,0.07170532643795013
185,0,32,14,0.588679313659668,0.11606059223413467
185,0,32,15,0.6224172115325928,0.08417753130197525
185,0,32,16,0.4853118062019348,0.09470207244157791
185,0,32,17,0.5156286954879761,0.18707175552845
185,0,32,18,0.5385716557502747,0.0724431574344635
185,0,32,19,0.3879964351654053,0.07167524844408035
185,0,32,20,0.5917437076568604,0.06754324585199356
185,0,32,21,0.45315971970558167,0.10677054524421692
185,0,32,22,0.5781546831130981,0.12154995650053024
185,0,32,23,0.37976208329200745,0.09039995819330215
185,0,32,24,0.4224674105644226,0.07273250073194504
185,0,32,25,0.4709421992301941,0.1719137281179428
185,0,32,26,0.5196173191070557,0.13047324120998383
185,0,32,27,0.42897242307662964,0.08055639266967773
185,0,32,28,0.5127241015434265,0.11860685795545578
185,0,32,29,0.6065301299095154,0.1040957123041153
185,0,32,30,0.496150940656662,0.17172756791114807
185,0,32,31,0.5962066054344177,0.044764675199985504
185,1,32,0,0.6514663100242615,0.06112361699342728
185,1,32,1,0.6542114019393921,0.09914682805538177
185,1,32,2,0.49469929933547974,0.060345545411109924
185,1,32,3,0.6118672490119934,0.034410037100315094
185,1,32,4,0.43501016497612,0.10189450532197952
185,1,32,5,0.4699050188064575,0.08589978516101837
185,1,32,6,0.5526928305625916,0.13208463788032532
185,1,32,7,0.3902895450592041,0.11460823565721512
185,1,32,8,0.5926064252853394,0.053976599127054214
185,1,32,9,0.49273359775543213,0.0905061736702919
185,1,32,10,0.383984237909317,0.13664531707763672
185,1,32,11,0.3750714659690857,0.05298290774226189
185,1,32,12,0.41926318407058716,0.09008348733186722
185,1,32,13,0.48202139139175415,0.11722200363874435
185,1,32,14,0.4972778856754303,0.06662563979625702
185,1,32,15,0.6128681302070618,0.10234823822975159
185,1,32,16,0.603254497051239,0.08541546016931534
185,1,32,17,0.6120596528053284,0.0790121853351593
185,1,32,18,0.4589548110961914,0.1168452650308609
185,1,32,19,0.3712491989135742,0.11078906804323196
185,1,32,20,0.4288794994354248,0.08027973026037216
185,1,32,21,0.42896008491516113,0.09246502816677094
185,1,32,22,0.5935335755348206,0.04435393959283829
185,1,32,23,0.4605325758457184,0.11152369529008865
185,1,32,24,0.4303852915763855,0.11987167596817017
185,1,32,25,0.4454767107963562,0.06101607158780098
185,1,32,26,0.3972310423851013,0.11116918921470642
185,1,32,27,0.5182332396507263,0.07914252579212189
185,1,32,28,0.42184656858444214,0.0898452028632164
185,1,32,29,0.5429397821426392,0.12818129360675812
185,1,32,30,0.6548079252243042,0.03160221129655838
185,1,32,31,0.3822738528251648,0.11135290563106537
185,2,64,0,0.4636867046356201,0.12400998175144196
185,2,64,1,0.5112868547439575,0.09618224948644638
185,2,64,2,0.430901437997818,0.13667146861553192
185,2,64,3,0.6836134791374207,0.1013311967253685
185,2,64,4,0.5208696126937866,0.14785462617874146
185,2,64,5,0.4278017580509186,0.14503026008605957
185,2,64,6,0.49290555715560913,0.13037683069705963
185,2,64,7,0.5956827402114868,0.1271659880876541
185,2,64,8,0.5242654085159302,0.14106407761573792
185,2,64,9,0.603507936000824,0.04000223055481911
185,2,64,10,0.41745755076408386,0.12223391979932785
185,2,64,11,0.5732768774032593,0.14604756236076355
185,2,64,12,0.5110922455787659,0.25912773609161377
185,2,64,13,0.47912830114364624,0.11658545583486557
185,2,64,14,0.42609703540802,0.20223918557167053
185,2,64,15,0.329983651638031,0.15794704854488373
185,2,64,16,0.44517701864242554,0.10953398793935776
185,2,64,17,0.643197774887085,0.13440752029418945
185,2,64,18,0.43043115735054016,0.2245776653289795
185,2,64,19,0.32264912128448486,0.11745386570692062
185,2,64,20,0.4126652181148529,0.11603658646345139
185,2,64,21,0.5554379820823669,0.08239760994911194
185,2,64,22,0.44650447368621826,0.13546806573867798
185,2,64,23,0.603959321975708,0.0753081738948822
185,2,64,24,0.6337124109268188,0.1630525141954422
185,2,64,25,0.3583652377128601,0.08334580063819885
185,2,64,26,0.5699964761734009,0.15771183371543884
185,2,64,27,0.4385873079299927,0.1418376863002777
185,2,64,28,0.3847254514694214,0.08546362072229385
185,2,64,29,0.6326586008071899,0.1959821879863739
185,2,64,30,0.5375326871871948,0.1253928542137146
185,2,64,31,0.5351489186286926,0.1734216958284378
185,2,64,32,0.49659356474876404,0.20545969903469086
185,2,64,33,0.6288674473762512,0.116551473736763
185,2,64,34,0.5580548644065857,0.12811164557933807
185,2,64,35,0.3418746888637543,0.08744470030069351
185,2,64,36,0.48028799891471863,0.19018591940402985
185,2,64,37,0.377692848443985,0.1511983573436737
185,2,64,38,0.39250731468200684,0.1446477323770523
185,2,64,39,0.2759242057800293,0.15980106592178345
185,2,64,40,0.35474979877471924,0.13721507787704468
185,2,64,41,0.504904568195343,0.25656837224960327
185,2,64,42,0.4314797520637512,0.11937537789344788
185,2,64,43,0.4653488099575043,0.08226538449525833
185,2,64,44,0.380549818277359,0.10389003902673721
185,2,64,45,0.5215851068496704,0.10993310809135437
185,2,64,46,0.5824823975563049,0.10924294590950012
185,2,64,47,0.5175069570541382,0.10127702355384827
185,2,64,48,0.45054399967193604,0.1837974637746811
185,2,64,49,0.5199133157730103,0.19202516973018646
185,2,64,50,0.5940917730331421,0.1187950074672699
185,2,64,51,0.5546822547912598,0.19077642261981964
185,2,64,52,0.40244266390800476,0.17152880132198334
185,2,64,53,0.481749951839447,0.19531063735485077
185,2,64,54,0.44904425740242004,0.15137556195259094
185,2,64,55,0.5993232727050781,0.185309499502182
185,2,64,56,0.4037482738494873,0.09339797496795654
185,2,64,57,0.3720473051071167,0.1806769073009491
185,2,64,58,0.4862503707408905,0.11543340235948563
185,2,64,59,0.5145590305328369,0.17641113698482513
185,2,64,60,0.49870437383651733,0.05164806917309761
185,2,64,61,0.4069491922855377,0.19942572712898254
185,2,64,62,0.5708422064781189,0.10005562007427216
185,2,64,63,0.32292068004608154,0.11441544443368912
185,3,64,0,0.3916827440261841,0.09104184061288834
185,3,64,1,0.48903822898864746,0.16779325902462006
185,3,64,2,0.5375795960426331,0.11207196116447449
185,3,64,3,0.5565071105957031,0.10640837997198105
185,3,64,4,0.5705621242523193,0.1364331990480423
185,3,64,5,0.571424663066864,0.13796642422676086
185,3,64,6,0.3337169289588928,0.08140984177589417
185,3,64,7,0.5999393463134766,0.09599578380584717
185,3,64,8,0.5529724359512329,0.13096249103546143
185,3,64,9,0.36687710881233215,0.16766014695167542
185,3,64,10,0.4499843120574951,0.0864761471748352
185,3,64,11,0.4192025065422058,0.14196087419986725
185,3,64,12,0.36633890867233276,0.14842842519283295
185,3,64,13,0.40261080861091614,0.07534697651863098
185,3,64,14,0.6432563066482544,0.09011994302272797
185,3,64,15,0.6288573741912842,0.10742086172103882
185,3,64,16,0.5471231341362,0.11474312841892242
185,3,64,17,0.44644695520401,0.15887551009655
185,3,64,18,0.4403983950614929,0.15103214979171753
185,3,64,19,0.4420963525772095,0.06397908180952072
185,3,64,20,0.5198456645011902,0.09757787734270096
185,3,64,21,0.3030548393726349,0.2147568017244339
185,3,64,22,0.5735992789268494,0.16230176389217377
185,3,64,23,0.4429677128791809,0.217892587184906
185,3,64,24,0.5831008553504944,0.12902748584747314
185,3,64,25,0.3861229419708252,0.13836805522441864
185,3,64,26,0.6028081178665161,0.09233491122722626
185,3,64,27,0.582683801651001,0.06326428055763245
185,3,64,28,0.7103437185287476,0.1431213766336441
185,3,64,29,0.4458397328853607,0.12550176680088043
185,3,64,30,0.49016520380973816,0.16516214609146118
185,3,64,31,0.4576304256916046,0.09002319723367691
185,3,64,32,0.3258695602416992,0.11373622715473175
185,3,64,33,0.42831942439079285,0.09811434894800186
185,3,64,34,0.517630398273468,0.12683071196079254
185,3,64,35,0.40731754899024963,0.0591997392475605
185,3,64,36,0.3629957139492035,0.11397195607423782
185,3,64,37,0.4580997824668884,0.14793017506599426
185,3,64,38,0.568087100982666,0.13325105607509613
185,3,64,39,0.46762239933013916,0.16215477883815765
185,3,64,40,0.40243735909461975,0.11752085387706757
185,3,64,41,0.5878798961639404,0.15348604321479797
185,3,64,42,0.469182550907135,0.09249915182590485
185,3,64,43,0.44921576976776123,0.14303679764270782
185,3,64,44,0.5064272880554199,0.19991640746593475
185,3,64,45,0.4650748372077942,0.14320039749145508
185,3,64,46,0.34129050374031067,0.14354535937309265
185,3,64,47,0.5570279955863953,0.06094001233577728
185,3,64,48,0.719118595123291,0.058023665100336075
185,3,64,49,0.46353819966316223,0.09465953707695007
185,3,64,50,0.42483535408973694,0.2378004491329193
185,3,64,51,0.4487108588218689,0.04835150018334389
185,3,64,52,0.5020285248756409,0.119782954454422
185,3,64,53,0.45210859179496765,0.13380198180675507
185,3,64,54,0.3917044699192047,0.16746053099632263
185,3,64,55,0.3360913097858429,0.15582403540611267
185,3,64,56,0.41025206446647644,0.14917753636837006
185,3,64,57,0.5782424211502075,0.14489531517028809
185,3,64,58,0.4917914867401123,0.12365651875734329
185,3,64,59,0.619371235370636,0.10658832639455795
185,3,64,60,0.5405682921409607,0.15987156331539154
185,3,64,61,0.4450303912162781,0.09073308855295181
185,3,64,62,0.49056050181388855,0.13528117537498474
185,3,64,63,0.3916461169719696,0.19135966897010803
185,4,128,0,0.5251256227493286,0.20904919505119324
185,4,128,1,0.6155316233634949,0.18011155724525452
185,4,128,2,0.596854567527771,0.2891504466533661
185,4,128,3,0.5796567797660828,0.1825520396232605
185,4,128,4,0.6787019371986389,0.0857778936624527
185,4,128,5,0.40763697028160095,0.149524986743927
185,4,128,6,0.5504274368286133,0.1605948656797409
185,4,128,7,0.7214328646659851,0.1319349855184555
185,4,128,8,0.40581128001213074,0.22169552743434906
185,4,128,9,0.6807138323783875,0.30533817410469055
185,4,128,10,0.6884575486183167,0.12829673290252686
185,4,128,11,0.6593627333641052,0.2366577833890915
185,4,128,12,0.5876887440681458,0.24070921540260315
185,4,128,13,0.5384021401405334,0.1418982446193695
185,4,128,14,0.44432348012924194,0.14770784974098206
185,4,128,15,0.39515256881713867,0.20830585062503815
185,4,128,16,0.602169930934906,0.17110079526901245
185,4,128,17,0.6056124567985535,0.20272395014762878
185,4,128,18,0.5408759117126465,0.22897492349147797
185,4,128,19,0.6629674434661865,0.13553498685359955
185,4,128,20,0.6912590265274048,0.12123516201972961
185,4,128,21,0.6239597201347351,0.1667609065771103
185,4,128,22,0.6846469044685364,0.12601718306541443
185,4,128,23,0.5326869487762451,0.18051891028881073
185,4,128,24,0.5202398896217346,0.1312922090291977
185,4,128,25,0.5591176152229309,0.16849425435066223
185,4,128,26,0.3424183428287506,0.10481403023004532
185,4,128,27,0.6292656660079956,0.22849063575267792
185,4,128,28,0.3848496079444885,0.09476229548454285
185,4,128,29,0.3988668620586395,0.25470423698425293
185,4,128,30,0.5181565284729004,0.16366101801395416
185,4,128,31,0.39110425114631653,0.14368897676467896
185,4,128,32,0.5556740760803223,0.09013780206441879
185,4,128,33,0.6716339588165283,0.18779750168323517
185,4,128,34,0.7374765276908875,0.10583695769309998
185,4,128,35,0.36829835176467896,0.12192192673683167
185,4,128,36,0.5377694964408875,0.26090219616889954
185,4,128,37,0.5336052775382996,0.16684724390506744
185,4,128,38,0.5873883366584778,0.2784586548805237
185,4,128,39,0.5774036049842834,0.2722720205783844
185,4,128,40,0.6424880623817444,0.237773597240448
185,4,128,41,0.6348537802696228,0.2001582682132721
185,4,128,42,0.5982562303543091,0.15335112810134888
185,4,128,43,0.6893423795700073,0.22864624857902527
185,4,128,44,0.7384652495384216,0.12316590547561646
185,4,128,45,0.40299561619758606,0.21547521650791168
185,4,128,46,0.6116436123847961,0.11822611093521118
185,4,128,47,0.6282808780670166,0.15486232936382294
185,4,128,48,0.5508414506912231,0.17386572062969208
185,4,128,49,0.441121369600296,0.32524386048316956
185,4,128,50,0.5602288842201233,0.22798842191696167
185,4,128,51,0.4974297285079956,0.16855597496032715
185,4,128,52,0.5432162284851074,0.08533219248056412
185,4,128,53,0.6143192052841187,0.28627365827560425
185,4,128,54,0.7130392789840698,0.11991655081510544
185,4,128,55,0.39318764209747314,0.14140813052654266
185,4,128,56,0.3128318190574646,0.12158165127038956
185,4,128,57,0.5523501038551331,0.19661104679107666
185,4,128,58,0.38459375500679016,0.2219100445508957
185,4,128,59,0.45466992259025574,0.2635263204574585
185,4,128,60,0.729623019695282,0.1269879788160324
185,4,128,61,0.6171621680259705,0.09453807026147842
185,4,128,62,0.5045835375785828,0.1158686950802803
185,4,128,63,0.6355172991752625,0.22393281757831573
185,4,128,64,0.40905681252479553,0.23761489987373352
185,4,128,65,0.5566294193267822,0.1349637508392334
185,4,128,66,0.6504515409469604,0.1933216154575348
185,4,128,67,0.5923550724983215,0.13495586812496185
185,4,128,68,0.4675976634025574,0.21976882219314575
185,4,128,69,0.5134405493736267,0.15395568311214447
185,4,128,70,0.706792950630188,0.10176699608564377
185,4,128,71,0.6541716456413269,0.12910082936286926
185,4,128,72,0.5517947673797607,0.21901991963386536
185,4,128,73,0.4278590679168701,0.16400675475597382
185,4,128,74,0.5714722871780396,0.10952695459127426
185,4,128,75,0.6690336465835571,0.14071419835090637
185,4,128,76,0.3591088354587555,0.11596888303756714
185,4,128,77,0.6059784293174744,0.07966545969247818
185,4,128,78,0.48226794600486755,0.22401228547096252
185,4,128,79,0.3978828489780426,0.2045709639787674
185,4,128,80,0.639754056930542,0.21517013013362885
185,4,128,81,0.500366747379303,0.16339564323425293
185,4,128,82,0.6733754277229309,0.11832991242408752
185,4,128,83,0.618356466293335,0.13030804693698883
185,4,128,84,0.6092982888221741,0.15212005376815796
185,4,128,85,0.4470123052597046,0.15472020208835602
185,4,128,86,0.5213837623596191,0.10558710247278214
185,4,128,87,0.6420261859893799,0.1542191207408905
185,4,128,88,0.5608158707618713,0.11392879486083984
185,4,128,89,0.7251939177513123,0.14648184180259705
185,4,128,90,0.6398067474365234,0.20034977793693542
185,4,128,91,0.5369378328323364,0.2519894540309906
185,4,128,92,0.4142545759677887,0.18641942739486694
185,4,128,93,0.5439111590385437,0.3046620786190033
185,4,128,94,0.5474638342857361,0.08204128593206406
185,4,128,95,0.46888646483421326,0.21860022842884064
185,4,128,96,0.4571259915828705,0.2825090289115906
185,4,128,97,0.40138736367225647,0.13570764660835266
185,4,128,98,0.5086246132850647,0.20637531578540802
185,4,128,99,0.663577675819397,0.14086131751537323
185,4,128,100,0.5791248083114624,0.23186399042606354
185,4,128,101,0.5694593787193298,0.1987438052892685
185,4,128,102,0.5331817865371704,0.14019496738910675
185,4,128,103,0.6671583652496338,0.12708598375320435
185,4,128,104,0.6296640038490295,0.15918505191802979
185,4,128,105,0.41861364245414734,0.1761573702096939
185,4,128,106,0.7092349529266357,0.12904797494411469
185,4,128,107,0.5307721495628357,0.193917378783226
185,4,128,108,0.5165679454803467,0.18015481531620026
185,4,128,109,0.530335009098053,0.17297211289405823
185,4,128,110,0.5680989623069763,0.2947961390018463
185,4,128,111,0.47208768129348755,0.12485961616039276
185,4,128,112,0.4164186418056488,0.20333799719810486
185,4,128,113,0.4907245934009552,0.2861010730266571
185,4,128,114,0.7742829322814941,0.13233411312103271
185,4,128,115,0.7199531197547913,0.14683279395103455
185,4,128,116,0.5535242557525635,0.16417263448238373
185,4,128,117,0.5946298837661743,0.12332086265087128
185,4,128,118,0.4572656452655792,0.24518854916095734
185,4,128,119,0.6366122961044312,0.17940811812877655
185,4,128,120,0.5234515070915222,0.14846214652061462
185,4,128,121,0.5394411087036133,0.2548104524612427
185,4,128,122,0.6317586302757263,0.08561646938323975
185,4,128,123,0.5109620094299316,0.24166850745677948
185,4,128,124,0.484176903963089,0.22129349410533905
185,4,128,125,0.46185678243637085,0.19568654894828796
185,4,128,126,0.5761394500732422,0.24148572981357574
185,4,128,127,0.6637908220291138,0.10263868421316147
185,5,128,0,0.45492807030677795,0.21976833045482635
185,5,128,1,0.6327879428863525,0.20474904775619507
185,5,128,2,0.7512438297271729,0.22134053707122803
185,5,128,3,0.77705979347229,0.12635928392410278
185,5,128,4,0.6085290312767029,0.18465633690357208
185,5,128,5,0.6818723678588867,0.11301983892917633
185,5,128,6,0.5481128692626953,0.24037595093250275
185,5,128,7,0.6314765810966492,0.21939630806446075
185,5,128,8,0.7582141160964966,0.1757446676492691
185,5,128,9,0.6662697196006775,0.11531460285186768
185,5,128,10,0.5342735052108765,0.1904955506324768
185,5,128,11,0.5284255146980286,0.1959787756204605
185,5,128,12,0.6694954037666321,0.1317557692527771
185,5,128,13,0.5852009654045105,0.22689858078956604
185,5,128,14,0.5544055104255676,0.16580557823181152
185,5,128,15,0.4660898447036743,0.18549825251102448
185,5,128,16,0.6354928016662598,0.176967054605484
185,5,128,17,0.4627258777618408,0.1689215749502182
185,5,128,18,0.7630769610404968,0.13783159852027893
185,5,128,19,0.6501948833465576,0.12578721344470978
185,5,128,20,0.7713667750358582,0.09591607749462128
185,5,128,21,0.37809377908706665,0.14262241125106812
185,5,128,22,0.6764293313026428,0.12380673736333847
185,5,128,23,0.5949887037277222,0.20569255948066711
185,5,128,24,0.3875788450241089,0.1256294995546341
185,5,128,25,0.6675019264221191,0.12167096883058548
185,5,128,26,0.563161313533783,0.23034633696079254
185,5,128,27,0.6248966455459595,0.20567220449447632
185,5,128,28,0.5138676166534424,0.1320904642343521
185,5,128,29,0.7111650705337524,0.1196671798825264
185,5,128,30,0.6203432679176331,0.1596345752477646
185,5,128,31,0.4259176254272461,0.20543354749679565
185,5,128,32,0.43917128443717957,0.2095988243818283
185,5,128,33,0.6994666457176208,0.1588159203529358
185,5,128,34,0.6774487495422363,0.10994908958673477
185,5,128,35,0.6849521994590759,0.11908204108476639
185,5,128,36,0.6817161440849304,0.14536477625370026
185,5,128,37,0.709243893623352,0.0902581661939621
185,5,128,38,0.5136762857437134,0.1363746076822281
185,5,128,39,0.4794047474861145,0.16249701380729675
185,5,128,40,0.6639942526817322,0.12313146144151688
185,5,128,41,0.503524124622345,0.22116979956626892
185,5,128,42,0.49462616443634033,0.1863727867603302
185,5,128,43,0.6806843876838684,0.13742351531982422
185,5,128,44,0.7885705232620239,0.09779219329357147
185,5,128,45,0.3507969081401825,0.12811951339244843
185,5,128,46,0.5557935833930969,0.07274407148361206
185,5,128,47,0.3621359169483185,0.21938453614711761
185,5,128,48,0.4163632392883301,0.2036871463060379
185,5,128,49,0.6703127026557922,0.17909610271453857
185,5,128,50,0.573575496673584,0.2627469301223755
185,5,128,51,0.4776376187801361,0.14498905837535858
185,5,128,52,0.7126560211181641,0.10511566698551178
185,5,128,53,0.7438685894012451,0.08324803411960602
185,5,128,54,0.48838216066360474,0.18462465703487396
185,5,128,55,0.5750927925109863,0.22043012082576752
185,5,128,56,0.7691593170166016,0.17123182117938995
185,5,128,57,0.7354229092597961,0.11954468488693237
185,5,128,58,0.5622658729553223,0.14551587402820587
185,5,128,59,0.6950918436050415,0.1681462675333023
185,5,128,60,0.654188871383667,0.20432880520820618
185,5,128,61,0.6030410528182983,0.22784972190856934
185,5,128,62,0.62760329246521,0.09992773085832596
185,5,128,63,0.7982443571090698,0.10838690400123596
185,5,128,64,0.45425960421562195,0.17448054254055023
185,5,128,65,0.549111008644104,0.14193810522556305
185,5,128,66,0.7392436265945435,0.10666398704051971
185,5,128,67,0.673850953578949,0.14009089767932892
185,5,128,68,0.47262758016586304,0.12498247623443604
185,5,128,69,0.49295493960380554,0.23645946383476257
185,5,128,70,0.4781450927257538,0.1672523468732834
185,5,128,71,0.815612256526947,0.11510870605707169
185,5,128,72,0.39236801862716675,0.17244853079319
185,5,128,73,0.36257055401802063,0.08474855870008469
185,5,128,74,0.4831818640232086,0.22583968937397003
185,5,128,75,0.5221654176712036,0.3013075590133667
185,5,128,76,0.5256900787353516,0.12707215547561646
185,5,128,77,0.6405445337295532,0.139370396733284
185,5,128,78,0.45566293597221375,0.15189126133918762
185,5,128,79,0.5204402208328247,0.14541998505592346
185,5,128,80,0.638969898223877,0.06746810674667358
185,5,128,81,0.4646405577659607,0.17753443121910095
185,5,128,82,0.5239309668540955,0.17020370066165924
185,5,128,83,0.5734160542488098,0.164004385471344
185,5,128,84,0.6183401346206665,0.18612496554851532
185,5,128,85,0.6071516275405884,0.11501641571521759
185,5,128,86,0.5717270374298096,0.12182628363370895
185,5,128,87,0.8039847612380981,0.09584175795316696
185,5,128,88,0.6965123414993286,0.16126680374145508
185,5,128,89,0.6410222053527832,0.18488739430904388
185,5,128,90,0.6681434512138367,0.2132178395986557
185,5,128,91,0.520500898361206,0.23654143512248993
185,5,128,92,0.286631315946579,0.09436307847499847
185,5,128,93,0.6842165589332581,0.12025720626115799
185,5,128,94,0.4461199939250946,0.08431131392717361
185,5,128,95,0.4058883488178253,0.05753695219755173
185,5,128,96,0.7212774753570557,0.1387215256690979
185,5,128,97,0.5107542872428894,0.203185573220253
185,5,128,98,0.540427029132843,0.1751786470413208
185,5,128,99,0.5014216899871826,0.1515776365995407
185,5,128,100,0.44717544317245483,0.1005633994936943
185,5,128,101,0.7922459840774536,0.10167122632265091
185,5,128,102,0.5258088707923889,0.11351612210273743
185,5,128,103,0.6223082542419434,0.16144812107086182
185,5,128,104,0.6937764286994934,0.09899616241455078
185,5,128,105,0.35285505652427673,0.10571587085723877
185,5,128,106,0.6834246516227722,0.15195295214653015
185,5,128,107,0.6745349168777466,0.1262674331665039
185,5,128,108,0.5130944848060608,0.1544615626335144
185,5,128,109,0.6350423693656921,0.15696750581264496
185,5,128,110,0.5668869018554688,0.23450146615505219
185,5,128,111,0.4240266680717468,0.0954747200012207
185,5,128,112,0.5532169342041016,0.11586611717939377
185,5,128,113,0.7199447154998779,0.12039868533611298
185,5,128,114,0.684367835521698,0.1732422113418579
185,5,128,115,0.5666438341140747,0.1883305311203003
185,5,128,116,0.449950635433197,0.11133166402578354
185,5,128,117,0.6687886714935303,0.12166570872068405
185,5,128,118,0.7009678483009338,0.1699298620223999
185,5,128,119,0.6175505518913269,0.24620577692985535
185,5,128,120,0.5512146949768066,0.24459269642829895
185,5,128,121,0.7105828523635864,0.15279372036457062
185,5,128,122,0.7524235844612122,0.10400696098804474
185,5,128,123,0.554598331451416,0.08902958780527115
185,5,128,124,0.5278472304344177,0.15672941505908966
185,5,128,125,0.49514541029930115,0.18056544661521912
185,5,128,126,0.676318883895874,0.14594553411006927
185,5,128,127,0.7447402477264404,0.14491979777812958
186,0,32,0,0.4856230318546295,0.05478893220424652
186,0,32,1,0.5679855346679688,0.07439617812633514
186,0,32,2,0.43857669830322266,0.042219314724206924
186,0,32,3,0.6077888607978821,0.06324446201324463
186,0,32,4,0.35859882831573486,0.10601820051670074
186,0,32,5,0.45903533697128296,0.07020583748817444
186,0,32,6,0.4312225580215454,0.09545531123876572
186,0,32,7,0.43774017691612244,0.06136489659547806
186,0,32,8,0.43582862615585327,0.10566592961549759
186,0,32,9,0.4980306327342987,0.09310078620910645
186,0,32,10,0.5732938051223755,0.08762343227863312
186,0,32,11,0.5164717435836792,0.070316381752491
186,0,32,12,0.5562630295753479,0.049182187765836716
186,0,32,13,0.3435888886451721,0.06260504573583603
186,0,32,14,0.544038712978363,0.08962484449148178
186,0,32,15,0.5364688038825989,0.05128607526421547
186,0,32,16,0.5500553846359253,0.1419171690940857
186,0,32,17,0.5345020294189453,0.046654295176267624
186,0,32,18,0.375386506319046,0.04846595227718353
186,0,32,19,0.6207529902458191,0.05080696567893028
186,0,32,20,0.4250626266002655,0.08303932845592499
186,0,32,21,0.44788020849227905,0.022839238867163658
186,0,32,22,0.5597937703132629,0.0925029069185257
186,0,32,23,0.5692616105079651,0.09327634423971176
186,0,32,24,0.5383508205413818,0.03905864059925079
186,0,32,25,0.5773117542266846,0.0678827241063118
186,0,32,26,0.5551900267601013,0.08367979526519775
186,0,32,27,0.4381994307041168,0.06295368075370789
186,0,32,28,0.5597524642944336,0.11401719599962234
186,0,32,29,0.3500363826751709,0.037253983318805695
186,0,32,30,0.4385492503643036,0.07282107323408127
186,0,32,31,0.4164382219314575,0.0942135751247406
186,1,32,0,0.43846002221107483,0.08521706610918045
186,1,32,1,0.30185645818710327,0.09303759783506393
186,1,32,2,0.5974953174591064,0.028913121670484543
186,1,32,3,0.5853481292724609,0.06584427505731583
186,1,32,4,0.46244221925735474,0.0689077228307724
186,1,32,5,0.6544147729873657,0.07470005750656128
186,1,32,6,0.45688819885253906,0.05149377882480621
186,1,32,7,0.5404717326164246,0.0865088552236557
186,1,32,8,0.40252330899238586,0.03177659213542938
186,1,32,9,0.4932177662849426,0.0502023883163929
186,1,32,10,0.5029734969139099,0.11855649203062057
186,1,32,11,0.4703693985939026,0.06533337384462357
186,1,32,12,0.4239214062690735,0.0428130105137825
186,1,32,13,0.5929542183876038,0.07367081195116043
186,1,32,14,0.6534525156021118,0.02832554653286934
186,1,32,15,0.5419533848762512,0.04041844606399536
186,1,32,16,0.5951387882232666,0.10384473204612732
186,1,32,17,0.4377850890159607,0.06481573730707169
186,1,32,18,0.45538949966430664,0.08822093904018402
186,1,32,19,0.4086519479751587,0.1330270767211914
186,1,32,20,0.3004903197288513,0.08164681494235992
186,1,32,21,0.4013046622276306,0.07078036665916443
186,1,32,22,0.5361236333847046,0.042425140738487244
186,1,32,23,0.6165653467178345,0.05555054545402527
186,1,32,24,0.4485050141811371,0.15083472430706024
186,1,32,25,0.542913556098938,0.07804609835147858
186,1,32,26,0.557552695274353,0.04834242910146713
186,1,32,27,0.5498644113540649,0.046900782734155655
186,1,32,28,0.4838361442089081,0.02019735984504223
186,1,32,29,0.3879055082798004,0.06703995168209076
186,1,32,30,0.575407862663269,0.03644778952002525
186,1,32,31,0.35147836804389954,0.0840306282043457
186,2,64,0,0.48396560549736023,0.05987780913710594
186,2,64,1,0.4107232987880707,0.1349765509366989
186,2,64,2,0.5914825201034546,0.1481681764125824
186,2,64,3,0.4888063967227936,0.07922904938459396
186,2,64,4,0.42914390563964844,0.061949264258146286
186,2,64,5,0.4437836706638336,0.14019747078418732
186,2,64,6,0.6618832349777222,0.06921684741973877
186,2,64,7,0.48351922631263733,0.20102332532405853
186,2,64,8,0.4331302344799042,0.05799376592040062
186,2,64,9,0.41312918066978455,0.12286374717950821
186,2,64,10,0.5579766631126404,0.2075655311346054
186,2,64,11,0.32523658871650696,0.11361653357744217
186,2,64,12,0.4631754755973816,0.09507226943969727
186,2,64,13,0.5542089939117432,0.11664322763681412
186,2,64,14,0.5746704339981079,0.0512455590069294
186,2,64,15,0.6004132032394409,0.10988301038742065
186,2,64,16,0.4413738548755646,0.0749388337135315
186,2,64,17,0.41205474734306335,0.14094498753547668
186,2,64,18,0.3452836573123932,0.13905216753482819
186,2,64,19,0.48360708355903625,0.12457427382469177
186,2,64,20,0.5135161280632019,0.11447896808385849
186,2,64,21,0.4248024523258209,0.10501676052808762
186,2,64,22,0.4046878218650818,0.12123475968837738
186,2,64,23,0.5115764141082764,0.07887212187051773
186,2,64,24,0.6025261878967285,0.1187291219830513
186,2,64,25,0.5378362536430359,0.11044729501008987
186,2,64,26,0.6223102807998657,0.0526900514960289
186,2,64,27,0.6556642055511475,0.08613059669733047
186,2,64,28,0.506053626537323,0.0735086128115654
186,2,64,29,0.4588858485221863,0.12669150531291962
186,2,64,30,0.4635213315486908,0.09190678596496582
186,2,64,31,0.545978844165802,0.1349671632051468
186,2,64,32,0.5475348830223083,0.10927238315343857
186,2,64,33,0.5802794098854065,0.051351290196180344
186,2,64,34,0.6151333451271057,0.0829695612192154
186,2,64,35,0.5418573021888733,0.08640747517347336
186,2,64,36,0.6138599514961243,0.15616953372955322
186,2,64,37,0.5355608463287354,0.08108074218034744
186,2,64,38,0.5162653923034668,0.14969491958618164
186,2,64,39,0.42239007353782654,0.11005407571792603
186,2,64,40,0.3962871730327606,0.09948216378688812
186,2,64,41,0.5537509322166443,0.13668374717235565
186,2,64,42,0.3117902874946594,0.07669771462678909
186,2,64,43,0.40284451842308044,0.12536977231502533
186,2,64,44,0.4894205629825592,0.10883881896734238
186,2,64,45,0.4429469108581543,0.1717924028635025
186,2,64,46,0.5247771739959717,0.07363810390233994
186,2,64,47,0.5100569725036621,0.130945086479187
186,2,64,48,0.5275211930274963,0.07833744585514069
186,2,64,49,0.37645432353019714,0.0797276571393013
186,2,64,50,0.5654506087303162,0.08353239297866821
186,2,64,51,0.4348793923854828,0.10466684401035309
186,2,64,52,0.36977651715278625,0.11204033344984055
186,2,64,53,0.6106206178665161,0.09710972011089325
186,2,64,54,0.5160665512084961,0.1559927612543106
186,2,64,55,0.46946099400520325,0.14835985004901886
186,2,64,56,0.509982705116272,0.15180331468582153
186,2,64,57,0.6044784784317017,0.1315300166606903
186,2,64,58,0.5808396339416504,0.1362922489643097
186,2,64,59,0.3461143672466278,0.07468505203723907
186,2,64,60,0.43168219923973083,0.0852423906326294
186,2,64,61,0.6478931307792664,0.11425420641899109
186,2,64,62,0.4883061945438385,0.07469901442527771
186,2,64,63,0.4724256694316864,0.1362781822681427
186,3,64,0,0.3988935649394989,0.06428567320108414
186,3,64,1,0.5091560482978821,0.2125696837902069
186,3,64,2,0.5783491730690002,0.1450945883989334
186,3,64,3,0.43264737725257874,0.13478802144527435
186,3,64,4,0.44885337352752686,0.20750756561756134
186,3,64,5,0.5167322754859924,0.13796161115169525
186,3,64,6,0.4556739926338196,0.08082939684391022
186,3,64,7,0.49741145968437195,0.10045178234577179
186,3,64,8,0.555432915687561,0.11374068260192871
186,3,64,9,0.39486509561538696,0.11710163205862045
186,3,64,10,0.5552206039428711,0.12773461639881134
186,3,64,11,0.5376887917518616,0.09670057892799377
186,3,64,12,0.4281870424747467,0.07728535681962967
186,3,64,13,0.5969425439834595,0.05794763192534447
186,3,64,14,0.5789041519165039,0.15871097147464752
186,3,64,15,0.29651108384132385,0.10378668457269669
186,3,64,16,0.447294145822525,0.10223964601755142
186,3,64,17,0.6245433688163757,0.10668128728866577
186,3,64,18,0.627508819103241,0.10176576673984528
186,3,64,19,0.45113563537597656,0.1643238216638565
186,3,64,20,0.38722676038742065,0.0785314217209816
186,3,64,21,0.6410230398178101,0.08287989348173141
186,3,64,22,0.37561994791030884,0.11487462371587753
186,3,64,23,0.4835098683834076,0.1312185376882553
186,3,64,24,0.45910364389419556,0.25042372941970825
186,3,64,25,0.5682939291000366,0.19713033735752106
186,3,64,26,0.5993641018867493,0.1036398708820343
186,3,64,27,0.42254555225372314,0.08809276670217514
186,3,64,28,0.3243546485900879,0.1352199912071228
186,3,64,29,0.6340681910514832,0.06385008990764618
186,3,64,30,0.501571774482727,0.10945139080286026
186,3,64,31,0.7182286977767944,0.09870436787605286
186,3,64,32,0.5352931618690491,0.11584964394569397
186,3,64,33,0.4351399838924408,0.12496037781238556
186,3,64,34,0.5022929310798645,0.1370575726032257
186,3,64,35,0.46442142128944397,0.07605672627687454
186,3,64,36,0.4454306960105896,0.15617534518241882
186,3,64,37,0.5006083846092224,0.10999282449483871
186,3,64,38,0.4412405788898468,0.0866168662905693
186,3,64,39,0.49743351340293884,0.06748399883508682
186,3,64,40,0.5876920223236084,0.04478606954216957
186,3,64,41,0.5188800096511841,0.15220403671264648
186,3,64,42,0.3930668830871582,0.16285006701946259
186,3,64,43,0.45696327090263367,0.17127619683742523
186,3,64,44,0.5937328338623047,0.07690604031085968
186,3,64,45,0.4189794659614563,0.23040543496608734
186,3,64,46,0.5286008715629578,0.1456494927406311
186,3,64,47,0.44210681319236755,0.0852220430970192
186,3,64,48,0.4816384017467499,0.13180728256702423
186,3,64,49,0.43898290395736694,0.11900253593921661
186,3,64,50,0.5564142465591431,0.07890494167804718
186,3,64,51,0.7250493764877319,0.09178517758846283
186,3,64,52,0.43065667152404785,0.15527042746543884
186,3,64,53,0.5197903513908386,0.09761807322502136
186,3,64,54,0.5966889262199402,0.061256043612957
186,3,64,55,0.48367106914520264,0.0638689249753952
186,3,64,56,0.408469557762146,0.08716610819101334
186,3,64,57,0.4416877031326294,0.23093421757221222
186,3,64,58,0.4739355742931366,0.14689408242702484
186,3,64,59,0.45938199758529663,0.09709983319044113
186,3,64,60,0.470906138420105,0.06936656683683395
186,3,64,61,0.5843567252159119,0.05273650214076042
186,3,64,62,0.5206916928291321,0.19751204550266266
186,3,64,63,0.4994317591190338,0.20962773263454437
186,4,128,0,0.509993851184845,0.2675628364086151
186,4,128,1,0.5366401672363281,0.1199452206492424
186,4,128,2,0.721911609172821,0.14670051634311676
186,4,128,3,0.5719799399375916,0.10651987046003342
186,4,128,4,0.5804232358932495,0.09685821086168289
186,4,128,5,0.5675716996192932,0.1890193074941635
186,4,128,6,0.3536240756511688,0.1259808987379074
186,4,128,7,0.5226149559020996,0.20106478035449982
186,4,128,8,0.5064711570739746,0.22657470405101776
186,4,128,9,0.56458979845047,0.12526819109916687
186,4,128,10,0.5257686376571655,0.1945205181837082
186,4,128,11,0.5222030878067017,0.13057616353034973
186,4,128,12,0.4852583408355713,0.2632220685482025
186,4,128,13,0.527855396270752,0.12958331406116486
186,4,128,14,0.5032460689544678,0.2456139475107193
186,4,128,15,0.5334338545799255,0.17908303439617157
186,4,128,16,0.3922845721244812,0.14688646793365479
186,4,128,17,0.48963823914527893,0.17764097452163696
186,4,128,18,0.648550271987915,0.12955829501152039
186,4,128,19,0.47821760177612305,0.27693021297454834
186,4,128,20,0.504272997379303,0.1166001707315445
186,4,128,21,0.6431717276573181,0.10975111275911331
186,4,128,22,0.6259250640869141,0.1375914216041565
186,4,128,23,0.6062124371528625,0.15699227154254913
186,4,128,24,0.6503576636314392,0.10400504618883133
186,4,128,25,0.5096378326416016,0.22635070979595184
186,4,128,26,0.4798758029937744,0.09229563921689987
186,4,128,27,0.4868326783180237,0.29276567697525024
186,4,128,28,0.46724066138267517,0.17955289781093597
186,4,128,29,0.6408075094223022,0.08363577723503113
186,4,128,30,0.38690730929374695,0.16003990173339844
186,4,128,31,0.4725727438926697,0.19627225399017334
186,4,128,32,0.573956310749054,0.2396600991487503
186,4,128,33,0.6045970916748047,0.18523800373077393
186,4,128,34,0.5003960728645325,0.12095624208450317
186,4,128,35,0.48393216729164124,0.22130313515663147
186,4,128,36,0.6165478229522705,0.2154882550239563
186,4,128,37,0.6435909271240234,0.123831607401371
186,4,128,38,0.5270832777023315,0.1404685229063034
186,4,128,39,0.46529483795166016,0.17791242897510529
186,4,128,40,0.6150473356246948,0.11909446120262146
186,4,128,41,0.47834745049476624,0.07162357121706009
186,4,128,42,0.670151948928833,0.16915425658226013
186,4,128,43,0.7243507504463196,0.13030433654785156
186,4,128,44,0.6738036274909973,0.08599163591861725
186,4,128,45,0.6067339777946472,0.1732558012008667
186,4,128,46,0.6972789168357849,0.12491676956415176
186,4,128,47,0.5901312232017517,0.2240881770849228
186,4,128,48,0.4899924695491791,0.08740539848804474
186,4,128,49,0.5327329039573669,0.3104098439216614
186,4,128,50,0.6003329157829285,0.13089439272880554
186,4,128,51,0.4450313448905945,0.08905540406703949
186,4,128,52,0.4051293730735779,0.10669797658920288
186,4,128,53,0.5070749521255493,0.12812615931034088
186,4,128,54,0.667222261428833,0.07686794549226761
186,4,128,55,0.5788127779960632,0.15310193598270416
186,4,128,56,0.42152008414268494,0.12216893583536148
186,4,128,57,0.5254427194595337,0.1599433720111847
186,4,128,58,0.4841333031654358,0.2129196673631668
186,4,128,59,0.5293633937835693,0.17567934095859528
186,4,128,60,0.6813780069351196,0.09626629203557968
186,4,128,61,0.5239984393119812,0.2321699559688568
186,4,128,62,0.4589913785457611,0.08145889639854431
186,4,128,63,0.5622896552085876,0.1734369993209839
186,4,128,64,0.579106330871582,0.10885866731405258
186,4,128,65,0.46057644486427307,0.23037661612033844
186,4,128,66,0.532004177570343,0.1085265725851059
186,4,128,67,0.5189797878265381,0.23297370970249176
186,4,128,68,0.6321555376052856,0.21907448768615723
186,4,128,69,0.37195712327957153,0.09056039154529572
186,4,128,70,0.399324893951416,0.10616189986467361
186,4,128,71,0.5710307955741882,0.19128404557704926
186,4,128,72,0.5844138860702515,0.16241702437400818
186,4,128,73,0.5106232166290283,0.17473578453063965
186,4,128,74,0.48748496174812317,0.19743558764457703
186,4,128,75,0.5409796833992004,0.2679116129875183
186,4,128,76,0.5050197839736938,0.1604764461517334
186,4,128,77,0.5394083857536316,0.278522789478302
186,4,128,78,0.6355534791946411,0.11529122292995453
186,4,128,79,0.5066227912902832,0.2735039293766022
186,4,128,80,0.49201318621635437,0.17399542033672333
186,4,128,81,0.549961507320404,0.262281209230423
186,4,128,82,0.4474788010120392,0.13835150003433228
186,4,128,83,0.5706242918968201,0.1910940706729889
186,4,128,84,0.7110610008239746,0.12328755110502243
186,4,128,85,0.3862973749637604,0.08591122925281525
186,4,128,86,0.3907780349254608,0.1201835572719574
186,4,128,87,0.7589402198791504,0.129606232047081
186,4,128,88,0.48378270864486694,0.2856872081756592
186,4,128,89,0.4566553235054016,0.20512014627456665
186,4,128,90,0.5969650745391846,0.17664706707000732
186,4,128,91,0.6415423154830933,0.08507788926362991
186,4,128,92,0.5455052852630615,0.23139457404613495
186,4,128,93,0.440946102142334,0.0620613768696785
186,4,128,94,0.5677902698516846,0.15675410628318787
186,4,128,95,0.5119361281394958,0.19643980264663696
186,4,128,96,0.5993652939796448,0.24204763770103455
186,4,128,97,0.482901930809021,0.17586928606033325
186,4,128,98,0.4518587291240692,0.16680622100830078
186,4,128,99,0.4521578848361969,0.16903692483901978
186,4,128,100,0.5414513349533081,0.06764307618141174
186,4,128,101,0.5446988940238953,0.14743612706661224
186,4,128,102,0.47818467020988464,0.18049460649490356
186,4,128,103,0.466391921043396,0.2042950987815857
186,4,128,104,0.5898674130439758,0.13817165791988373
186,4,128,105,0.5308419466018677,0.19123733043670654
186,4,128,106,0.4704841673374176,0.06575571745634079
186,4,128,107,0.39509648084640503,0.0886693075299263
186,4,128,108,0.44551828503608704,0.167764350771904
186,4,128,109,0.384197860956192,0.16025272011756897
186,4,128,110,0.46354615688323975,0.25798434019088745
186,4,128,111,0.5172243714332581,0.09679558128118515
186,4,128,112,0.48031193017959595,0.08421485126018524
186,4,128,113,0.5900693535804749,0.10462214797735214
186,4,128,114,0.6274500489234924,0.15114319324493408
186,4,128,115,0.513343334197998,0.14802315831184387
186,4,128,116,0.612167239189148,0.1455339640378952
186,4,128,117,0.645681619644165,0.10075227171182632
186,4,128,118,0.35718363523483276,0.1387079954147339
186,4,128,119,0.4614850878715515,0.17217843234539032
186,4,128,120,0.5112647414207458,0.16153335571289062
186,4,128,121,0.5753958821296692,0.19424638152122498
186,4,128,122,0.3519550561904907,0.16275154054164886
186,4,128,123,0.5727258920669556,0.19968892633914948
186,4,128,124,0.5608614087104797,0.10860580950975418
186,4,128,125,0.36851033568382263,0.07515785843133926
186,4,128,126,0.4880848526954651,0.0971570536494255
186,4,128,127,0.6295494437217712,0.12965263426303864
186,5,128,0,0.4807332754135132,0.14423705637454987
186,5,128,1,0.7110439538955688,0.11010253429412842
186,5,128,2,0.6219164133071899,0.1264042854309082
186,5,128,3,0.4745737314224243,0.12505100667476654
186,5,128,4,0.7046931385993958,0.10220251232385635
186,5,128,5,0.5161435008049011,0.21339751780033112
186,5,128,6,0.5811191201210022,0.08224750310182571
186,5,128,7,0.4176442325115204,0.21072763204574585
186,5,128,8,0.5188840627670288,0.1820068210363388
186,5,128,9,0.5694036483764648,0.17721062898635864
186,5,128,10,0.703359067440033,0.11723373085260391
186,5,128,11,0.4442402124404907,0.10505420714616776
186,5,128,12,0.4256131947040558,0.06724461913108826
186,5,128,13,0.5210086703300476,0.06246238946914673
186,5,128,14,0.5500311851501465,0.10920228064060211
186,5,128,15,0.7048432230949402,0.09617490321397781
186,5,128,16,0.6526753902435303,0.11499402672052383
186,5,128,17,0.46105000376701355,0.06322146952152252
186,5,128,18,0.6603181958198547,0.13543948531150818
186,5,128,19,0.6067878007888794,0.06107699126005173
186,5,128,20,0.6560719013214111,0.13110771775245667
186,5,128,21,0.4224436283111572,0.0748351514339447
186,5,128,22,0.6386354565620422,0.045848604291677475
186,5,128,23,0.534233808517456,0.2184574156999588
186,5,128,24,0.5288596153259277,0.16311044991016388
186,5,128,25,0.6885376572608948,0.11722636222839355
186,5,128,26,0.6568789482116699,0.060390446335077286
186,5,128,27,0.6185624003410339,0.1909736692905426
186,5,128,28,0.6953694820404053,0.12101879715919495
186,5,128,29,0.6479200720787048,0.08949282765388489
186,5,128,30,0.6764510273933411,0.15925589203834534
186,5,128,31,0.5877195596694946,0.18764738738536835
186,5,128,32,0.7158604860305786,0.142094224691391
186,5,128,33,0.6680611968040466,0.19793212413787842
186,5,128,34,0.629749059677124,0.06996382027864456
186,5,128,35,0.6512203216552734,0.10286084562540054
186,5,128,36,0.7098278999328613,0.16534455120563507
186,5,128,37,0.5927074551582336,0.14374855160713196
186,5,128,38,0.33546432852745056,0.08061601221561432
186,5,128,39,0.5123497843742371,0.1047530248761177
186,5,128,40,0.47348421812057495,0.11762899160385132
186,5,128,41,0.6860227584838867,0.2416606992483139
186,5,128,42,0.7009713053703308,0.14871704578399658
186,5,128,43,0.5222749710083008,0.23670601844787598
186,5,128,44,0.5376821160316467,0.19871199131011963
186,5,128,45,0.45195597410202026,0.21098800003528595
186,5,128,46,0.5781118273735046,0.1267782300710678
186,5,128,47,0.6861092448234558,0.20019197463989258
186,5,128,48,0.3232012987136841,0.11641506850719452
186,5,128,49,0.6574460864067078,0.09460929781198502
186,5,128,50,0.5851681232452393,0.15207238495349884
186,5,128,51,0.7217955589294434,0.09266466647386551
186,5,128,52,0.3131551146507263,0.10731041431427002
186,5,128,53,0.6737212538719177,0.07757343351840973
186,5,128,54,0.6125535368919373,0.14311456680297852
186,5,128,55,0.6326987743377686,0.148245170712471
186,5,128,56,0.5632149577140808,0.03604329004883766
186,5,128,57,0.8095746040344238,0.09422575682401657
186,5,128,58,0.679915726184845,0.10315992683172226
186,5,128,59,0.5218879580497742,0.13531024754047394
186,5,128,60,0.6758679151535034,0.1266126185655594
186,5,128,61,0.6802995204925537,0.1337098628282547
186,5,128,62,0.5025413036346436,0.1404305249452591
186,5,128,63,0.5810834169387817,0.02768409252166748
186,5,128,64,0.6433737874031067,0.09713289886713028
186,5,128,65,0.45877885818481445,0.09901633113622665
186,5,128,66,0.46288633346557617,0.07917581498622894
186,5,128,67,0.6394252777099609,0.12585370242595673
186,5,128,68,0.6016969084739685,0.21992015838623047
186,5,128,69,0.3645099401473999,0.08054917305707932
186,5,128,70,0.4614574611186981,0.1748625785112381
186,5,128,71,0.5319778919219971,0.2144996076822281
186,5,128,72,0.6863300204277039,0.133381649851799
186,5,128,73,0.6889458298683167,0.19363848865032196
186,5,128,74,0.4568699300289154,0.16030237078666687
186,5,128,75,0.6014710664749146,0.12941384315490723
186,5,128,76,0.5529425144195557,0.11509422212839127
186,5,128,77,0.5788216590881348,0.2321896255016327
186,5,128,78,0.5315834283828735,0.09146083146333694
186,5,128,79,0.4947888255119324,0.10915781557559967
186,5,128,80,0.5593664646148682,0.024284038692712784
186,5,128,81,0.6940785050392151,0.12797977030277252
186,5,128,82,0.4937862157821655,0.17120756208896637
186,5,128,83,0.7276812195777893,0.17930975556373596
186,5,128,84,0.47415322065353394,0.06153169646859169
186,5,128,85,0.5485684871673584,0.11163263767957687
186,5,128,86,0.5675140023231506,0.10643667727708817
186,5,128,87,0.7517142295837402,0.08394072204828262
186,5,128,88,0.395741730928421,0.0642441138625145
186,5,128,89,0.6173031330108643,0.11921118944883347
186,5,128,90,0.6493353247642517,0.17586469650268555
186,5,128,91,0.773382842540741,0.13571786880493164
186,5,128,92,0.5409592986106873,0.10727191716432571
186,5,128,93,0.4561986029148102,0.12354381382465363
186,5,128,94,0.4352814555168152,0.07949857413768768
186,5,128,95,0.5081362724304199,0.12295907735824585
186,5,128,96,0.48718374967575073,0.18460088968276978
186,5,128,97,0.5028224587440491,0.14625337719917297
186,5,128,98,0.5578287839889526,0.1765272170305252
186,5,128,99,0.5189678072929382,0.14988113939762115
186,5,128,100,0.6244957447052002,0.09638150781393051
186,5,128,101,0.634503185749054,0.09594126790761948
186,5,128,102,0.5598384141921997,0.2219008058309555
186,5,128,103,0.6428919434547424,0.0956978127360344
186,5,128,104,0.32867690920829773,0.1155792772769928
186,5,128,105,0.5263795852661133,0.081547811627388
186,5,128,106,0.47529858350753784,0.10418097674846649
186,5,128,107,0.5789340734481812,0.1393219232559204
186,5,128,108,0.6172139644622803,0.133266419172287
186,5,128,109,0.6571651101112366,0.11677736788988113
186,5,128,110,0.7065407037734985,0.09054119884967804
186,5,128,111,0.605094850063324,0.13923311233520508
186,5,128,112,0.6727516651153564,0.14878025650978088
186,5,128,113,0.5293540358543396,0.08083248138427734
186,5,128,114,0.6798127293586731,0.11673597991466522
186,5,128,115,0.46853259205818176,0.06725504249334335
186,5,128,116,0.3789907693862915,0.199666365981102
186,5,128,117,0.45380353927612305,0.2209593504667282
186,5,128,118,0.596282422542572,0.20132677257061005
186,5,128,119,0.4158211052417755,0.1641792207956314
186,5,128,120,0.6898133754730225,0.12878632545471191
186,5,128,121,0.6956494450569153,0.1618289053440094
186,5,128,122,0.5260999202728271,0.043988220393657684
186,5,128,123,0.7575350403785706,0.10844068229198456
186,5,128,124,0.6557872295379639,0.1394144594669342
186,5,128,125,0.7516482472419739,0.1053389385342598
186,5,128,126,0.6378309726715088,0.1265631765127182
186,5,128,127,0.6713752746582031,0.16407538950443268
188,0,32,0,0.36552903056144714,0.08475229144096375
188,0,32,1,0.6018644571304321,0.05410340428352356
188,0,32,2,0.5431014895439148,0.03754211217164993
188,0,32,3,0.3247493803501129,0.03678422421216965
188,0,32,4,0.6548938751220703,0.08318066596984863
188,0,32,5,0.5073083639144897,0.1010930985212326
188,0,32,6,0.6079165935516357,0.08308292925357819
188,0,32,7,0.49485665559768677,0.07341909408569336
188,0,32,8,0.3712078928947449,0.06530023366212845
188,0,32,9,0.6279813051223755,0.11985017359256744
188,0,32,10,0.5104560852050781,0.05399457365274429
188,0,32,11,0.4369610548019409,0.03515905141830444
188,0,32,12,0.42019733786582947,0.11687438189983368
188,0,32,13,0.5216891169548035,0.06620461493730545
188,0,32,14,0.6044743657112122,0.0940936878323555
188,0,32,15,0.4497361481189728,0.11323661357164383
188,0,32,16,0.379859060049057,0.02613147534430027
188,0,32,17,0.36071333289146423,0.14200328290462494
188,0,32,18,0.4142773151397705,0.08062787353992462
188,0,32,19,0.427432119846344,0.037649448961019516
188,0,32,20,0.5718252062797546,0.022242747247219086
188,0,32,21,0.3111998438835144,0.15045690536499023
188,0,32,22,0.4277004897594452,0.16014328598976135
188,0,32,23,0.4866391122341156,0.0741853415966034
188,0,32,24,0.6133450269699097,0.13271604478359222
188,0,32,25,0.34480857849121094,0.08379478752613068
188,0,32,26,0.3753724694252014,0.03849580138921738
188,0,32,27,0.46357226371765137,0.02025672234594822
188,0,32,28,0.5090987086296082,0.08941691368818283
188,0,32,29,0.4002985954284668,0.08531180024147034
188,0,32,30,0.3835172653198242,0.06887668371200562
188,0,32,31,0.3841838836669922,0.06225345656275749
188,1,32,0,0.5876728296279907,0.04689314588904381
188,1,32,1,0.6092061400413513,0.0649162009358406
188,1,32,2,0.5383337736129761,0.04471997916698456
188,1,32,3,0.5537347793579102,0.03482011705636978
188,1,32,4,0.42093804478645325,0.05967027321457863
188,1,32,5,0.6394463777542114,0.028341570869088173
188,1,32,6,0.3853895962238312,0.0367203950881958
188,1,32,7,0.3598911762237549,0.04575517028570175
188,1,32,8,0.43654200434684753,0.036947403103113174
188,1,32,9,0.5189842581748962,0.06267579644918442
188,1,32,10,0.32358700037002563,0.04008134827017784
188,1,32,11,0.6096295118331909,0.03486921638250351
188,1,32,12,0.5638237595558167,0.07573197036981583
188,1,32,13,0.419556587934494,0.043891411274671555
188,1,32,14,0.44241538643836975,0.04779000207781792
188,1,32,15,0.5832228064537048,0.073727086186409
188,1,32,16,0.4275626540184021,0.056712258607149124
188,1,32,17,0.4824329614639282,0.03621144965291023
188,1,32,18,0.5009527206420898,0.0273594968020916
188,1,32,19,0.45256754755973816,0.06449750810861588
188,1,32,20,0.5377525091171265,0.024471379816532135
188,1,32,21,0.48718973994255066,0.050550416111946106
188,1,32,22,0.4179108440876007,0.056766461580991745
188,1,32,23,0.4914206862449646,0.05271488055586815
188,1,32,24,0.43261006474494934,0.04133184999227524
188,1,32,25,0.5152289867401123,0.0676514059305191
188,1,32,26,0.3317570984363556,0.034879110753536224
188,1,32,27,0.5604749321937561,0.051267124712467194
188,1,32,28,0.361407607793808,0.07253561913967133
188,1,32,29,0.47012776136398315,0.0436488576233387
188,1,32,30,0.5924245715141296,0.047090038657188416
188,1,32,31,0.5227756500244141,0.0699804425239563
188,2,64,0,0.47385525703430176,0.05480315163731575
188,2,64,1,0.5251282453536987,0.06638558208942413
188,2,64,2,0.5411916971206665,0.057234153151512146
188,2,64,3,0.43652424216270447,0.05976639315485954
188,2,64,4,0.47124946117401123,0.07668756693601608
188,2,64,5,0.5080732107162476,0.04240388050675392
188,2,64,6,0.5943146347999573,0.06799548119306564
188,2,64,7,0.5101007223129272,0.054515425115823746
188,2,64,8,0.4658879339694977,0.038066454231739044
188,2,64,9,0.43205878138542175,0.029703089967370033
188,2,64,10,0.45623573660850525,0.06841415911912918
188,2,64,11,0.4282006025314331,0.049475766718387604
188,2,64,12,0.509057343006134,0.07263222336769104
188,2,64,13,0.5088832974433899,0.095744289457798
188,2,64,14,0.5950337052345276,0.09726392477750778
188,2,64,15,0.5815364718437195,0.053675588220357895
188,2,64,16,0.5340906977653503,0.07213404774665833
188,2,64,17,0.4054604172706604,0.0586857870221138
188,2,64,18,0.4955824315547943,0.08678101748228073
188,2,64,19,0.4554934799671173,0.05181056633591652
188,2,64,20,0.5236680507659912,0.03493119031190872
188,2,64,21,0.44991055130958557,0.058729998767375946
188,2,64,22,0.4675511121749878,0.07907930016517639
188,2,64,23,0.4071566164493561,0.11853593587875366
188,2,64,24,0.5744343400001526,0.05263977870345116
188,2,64,25,0.5659735798835754,0.041408661752939224
188,2,64,26,0.4770420789718628,0.05931747704744339
188,2,64,27,0.45971056818962097,0.04634333774447441
188,2,64,28,0.5465067028999329,0.08279390633106232
188,2,64,29,0.490341454744339,0.05373896658420563
188,2,64,30,0.5073108673095703,0.05471743643283844
188,2,64,31,0.5812530517578125,0.03338373079895973
188,2,64,32,0.4139919877052307,0.054613370448350906
188,2,64,33,0.5168395638465881,0.027851661667227745
188,2,64,34,0.5068337321281433,0.05714251846075058
188,2,64,35,0.5490971207618713,0.07871542870998383
188,2,64,36,0.5561419725418091,0.08172853291034698
188,2,64,37,0.40745705366134644,0.04519027844071388
188,2,64,38,0.5863813161849976,0.046828508377075195
188,2,64,39,0.5217090845108032,0.07315506041049957
188,2,64,40,0.4554274082183838,0.03337603434920311
188,2,64,41,0.4829406142234802,0.09323925524950027
188,2,64,42,0.550613522529602,0.09372927248477936
188,2,64,43,0.3912521302700043,0.08052226901054382
188,2,64,44,0.4380636215209961,0.06890103965997696
188,2,64,45,0.4735333025455475,0.06248827278614044
188,2,64,46,0.48212888836860657,0.06609412282705307
188,2,64,47,0.36539456248283386,0.09519052505493164
188,2,64,48,0.5402330756187439,0.04657142609357834
188,2,64,49,0.5738324522972107,0.07570696622133255
188,2,64,50,0.4220300614833832,0.08655204623937607
188,2,64,51,0.5262003540992737,0.10109712183475494
188,2,64,52,0.4680742919445038,0.04784988984465599
188,2,64,53,0.40401944518089294,0.07689354568719864
188,2,64,54,0.49269527196884155,0.04365508258342743
188,2,64,55,0.5297572016716003,0.0643203929066658
188,2,64,56,0.4268868863582611,0.06515660136938095
188,2,64,57,0.44895100593566895,0.0789506807923317
188,2,64,58,0.47851064801216125,0.055945366621017456
188,2,64,59,0.5289717316627502,0.09050539880990982
188,2,64,60,0.4700734317302704,0.08733522891998291
188,2,64,61,0.6060662269592285,0.054390717297792435
188,2,64,62,0.5727150440216064,0.0773676335811615
188,2,64,63,0.5213964581489563,0.0589386522769928
188,3,64,0,0.6280293464660645,0.07175935059785843
188,3,64,1,0.403287410736084,0.21732790768146515
188,3,64,2,0.40081948041915894,0.19585545361042023
188,3,64,3,0.49805766344070435,0.14167802035808563
188,3,64,4,0.2956653833389282,0.06789632141590118
188,3,64,5,0.5860084295272827,0.20632639527320862
188,3,64,6,0.5701808333396912,0.06813941895961761
188,3,64,7,0.4591046869754791,0.13787049055099487
188,3,64,8,0.5864583253860474,0.1469144970178604
188,3,64,9,0.629193127155304,0.09308062493801117
188,3,64,10,0.3796573579311371,0.147272989153862
188,3,64,11,0.6126003265380859,0.11870042979717255
188,3,64,12,0.6231020092964172,0.185618594288826
188,3,64,13,0.5109643936157227,0.06568128615617752
188,3,64,14,0.5396365523338318,0.10477945953607559
188,3,64,15,0.6157657504081726,0.19134151935577393
188,3,64,16,0.45781898498535156,0.07549326866865158
188,3,64,17,0.5887008905410767,0.049435798078775406
188,3,64,18,0.3801179528236389,0.18520835041999817
188,3,64,19,0.3927993178367615,0.06797267496585846
188,3,64,20,0.6346415281295776,0.24895332753658295
188,3,64,21,0.5750685334205627,0.09710364043712616
188,3,64,22,0.6828418970108032,0.0768260732293129
188,3,64,23,0.5357528328895569,0.07230555266141891
188,3,64,24,0.5294783115386963,0.18069995939731598
188,3,64,25,0.5482025742530823,0.04424639046192169
188,3,64,26,0.7326340675354004,0.18879106640815735
188,3,64,27,0.5386252403259277,0.11110242456197739
188,3,64,28,0.40246474742889404,0.10101869702339172
188,3,64,29,0.422090619802475,0.05049256980419159
188,3,64,30,0.3661368191242218,0.14009122550487518
188,3,64,31,0.5502200722694397,0.0847356915473938
188,3,64,32,0.3261431157588959,0.03871729597449303
188,3,64,33,0.6202690005302429,0.05947555974125862
188,3,64,34,0.6010802388191223,0.03992156684398651
188,3,64,35,0.6589460968971252,0.061733461916446686
188,3,64,36,0.6054255366325378,0.16898176074028015
188,3,64,37,0.3786538243293762,0.06966407597064972
188,3,64,38,0.45283979177474976,0.1705891340970993
188,3,64,39,0.34502217173576355,0.14023815095424652
188,3,64,40,0.4337194561958313,0.08408518135547638
188,3,64,41,0.5258930325508118,0.20117796957492828
188,3,64,42,0.6422214508056641,0.08364737033843994
188,3,64,43,0.3208062946796417,0.09805791825056076
188,3,64,44,0.559089720249176,0.05396536365151405
188,3,64,45,0.5391231179237366,0.06500296294689178
188,3,64,46,0.5908935070037842,0.20170360803604126
188,3,64,47,0.42756637930870056,0.11491841077804565
188,3,64,48,0.6080442667007446,0.0723002701997757
188,3,64,49,0.6062628626823425,0.19071754813194275
188,3,64,50,0.5288923382759094,0.10629674047231674
188,3,64,51,0.35047703981399536,0.14448997378349304
188,3,64,52,0.5112369060516357,0.07919203490018845
188,3,64,53,0.3270796537399292,0.07866605371236801
188,3,64,54,0.6581174731254578,0.1061144769191742
188,3,64,55,0.6493851542472839,0.1367206871509552
188,3,64,56,0.6027919054031372,0.222959965467453
188,3,64,57,0.5205675959587097,0.03382829204201698
188,3,64,58,0.5836208462715149,0.1456862837076187
188,3,64,59,0.6325251460075378,0.13503815233707428
188,3,64,60,0.631787896156311,0.05834115296602249
188,3,64,61,0.3994747996330261,0.10136553645133972
188,3,64,62,0.45721635222435,0.03925536572933197
188,3,64,63,0.4436666965484619,0.08657797425985336
188,4,128,0,0.6582834720611572,0.21069103479385376
188,4,128,1,0.46056193113327026,0.0817185491323471
188,4,128,2,0.7484943866729736,0.12105022370815277
188,4,128,3,0.5665531754493713,0.08632075041532516
188,4,128,4,0.45478206872940063,0.11921484023332596
188,4,128,5,0.7585894465446472,0.17596328258514404
188,4,128,6,0.5960267782211304,0.06788716465234756
188,4,128,7,0.5739192962646484,0.0906793475151062
188,4,128,8,0.6011346578598022,0.07277031242847443
188,4,128,9,0.4907636344432831,0.11037681251764297
188,4,128,10,0.4522828459739685,0.18454180657863617
188,4,128,11,0.6382930874824524,0.06984264403581619
188,4,128,12,0.3585650324821472,0.21358613669872284
188,4,128,13,0.7408940196037292,0.11671973764896393
188,4,128,14,0.6193651556968689,0.09390473365783691
188,4,128,15,0.702048659324646,0.16164059937000275
188,4,128,16,0.5855684280395508,0.043541986495256424
188,4,128,17,0.39689525961875916,0.09748774766921997
188,4,128,18,0.41991692781448364,0.07903619110584259
188,4,128,19,0.5945641398429871,0.09928490221500397
188,4,128,20,0.6879466772079468,0.11490041762590408
188,4,128,21,0.4653303027153015,0.09581173211336136
188,4,128,22,0.3411013185977936,0.1342172622680664
188,4,128,23,0.6196358799934387,0.10597969591617584
188,4,128,24,0.7059741616249084,0.19098997116088867
188,4,128,25,0.5861430168151855,0.07305258512496948
188,4,128,26,0.6881568431854248,0.15029940009117126
188,4,128,27,0.6071134805679321,0.09697806090116501
188,4,128,28,0.6581394076347351,0.09412925690412521
188,4,128,29,0.4391659200191498,0.10450755804777145
188,4,128,30,0.38466382026672363,0.04529295489192009
188,4,128,31,0.6506226658821106,0.11144013702869415
188,4,128,32,0.41163837909698486,0.08116350322961807
188,4,128,33,0.5321556329727173,0.090475894510746
188,4,128,34,0.7234433889389038,0.12150496989488602
188,4,128,35,0.6903942823410034,0.07185421884059906
188,4,128,36,0.5608375072479248,0.03901858627796173
188,4,128,37,0.6516972780227661,0.18947847187519073
188,4,128,38,0.5505251288414001,0.13894353806972504
188,4,128,39,0.5978133678436279,0.17484670877456665
188,4,128,40,0.7223873734474182,0.1379891037940979
188,4,128,41,0.6027769446372986,0.0754961371421814
188,4,128,42,0.5521583557128906,0.1819896399974823
188,4,128,43,0.7384411692619324,0.1519792675971985
188,4,128,44,0.4544302225112915,0.12303481251001358
188,4,128,45,0.6868705749511719,0.15701712667942047
188,4,128,46,0.7157229781150818,0.07343671470880508
188,4,128,47,0.634650468826294,0.14390671253204346
188,4,128,48,0.7130996584892273,0.11261842399835587
188,4,128,49,0.37436947226524353,0.14312581717967987
188,4,128,50,0.6645354628562927,0.1542115956544876
188,4,128,51,0.6790396571159363,0.08793310075998306
188,4,128,52,0.3753499984741211,0.14516745507717133
188,4,128,53,0.45765286684036255,0.09804189950227737
188,4,128,54,0.3630521297454834,0.1282258778810501
188,4,128,55,0.6519894003868103,0.18678969144821167
188,4,128,56,0.59642094373703,0.04682634398341179
188,4,128,57,0.5753088593482971,0.1686769425868988
188,4,128,58,0.4791181981563568,0.17847026884555817
188,4,128,59,0.3965764343738556,0.10653307288885117
188,4,128,60,0.5107960104942322,0.11853121221065521
188,4,128,61,0.42206236720085144,0.14290590584278107
188,4,128,62,0.48969408869743347,0.10631448775529861
188,4,128,63,0.6707023978233337,0.12556849420070648
188,4,128,64,0.7363322377204895,0.17407076060771942
188,4,128,65,0.5741302371025085,0.04615602269768715
188,4,128,66,0.4864744544029236,0.11285765469074249
188,4,128,67,0.489595890045166,0.07655694335699081
188,4,128,68,0.7031946182250977,0.17628738284111023
188,4,128,69,0.6810277104377747,0.10127872973680496
188,4,128,70,0.4890180826187134,0.1629917025566101
188,4,128,71,0.5195649266242981,0.07527748495340347
188,4,128,72,0.5455555319786072,0.11785649508237839
188,4,128,73,0.32280945777893066,0.1433565765619278
188,4,128,74,0.5016801953315735,0.08675900846719742
188,4,128,75,0.41346296668052673,0.1287093460559845
188,4,128,76,0.44273579120635986,0.13035200536251068
188,4,128,77,0.606778085231781,0.19984562695026398
188,4,128,78,0.7086160182952881,0.2040298581123352
188,4,128,79,0.45259690284729004,0.10301598906517029
188,4,128,80,0.337466835975647,0.11290676146745682
188,4,128,81,0.5408968925476074,0.12504258751869202
188,4,128,82,0.45683830976486206,0.1502360701560974
188,4,128,83,0.5035622119903564,0.08441136032342911
188,4,128,84,0.43223756551742554,0.20100709795951843
188,4,128,85,0.5028060078620911,0.06599286943674088
188,4,128,86,0.5224646329879761,0.12993742525577545
188,4,128,87,0.6242333650588989,0.19215674698352814
188,4,128,88,0.5772334337234497,0.10911453515291214
188,4,128,89,0.6048092246055603,0.07530681788921356
188,4,128,90,0.44429829716682434,0.09759962558746338
188,4,128,91,0.5398361086845398,0.10007752478122711
188,4,128,92,0.36156779527664185,0.2087332308292389
188,4,128,93,0.6872551441192627,0.1523417830467224
188,4,128,94,0.61567622423172,0.03867596760392189
188,4,128,95,0.394052118062973,0.08923264592885971
188,4,128,96,0.6351194381713867,0.13735610246658325
188,4,128,97,0.5067353248596191,0.0721457228064537
188,4,128,98,0.48766595125198364,0.11418075114488602
188,4,128,99,0.42734163999557495,0.07795702666044235
188,4,128,100,0.5634859204292297,0.1440841257572174
188,4,128,101,0.35409224033355713,0.10035087168216705
188,4,128,102,0.38861215114593506,0.09963254630565643
188,4,128,103,0.7170765995979309,0.12253349274396896
188,4,128,104,0.6721915602684021,0.17362704873085022
188,4,128,105,0.5041320323944092,0.10718533396720886
188,4,128,106,0.48284897208213806,0.14612556993961334
188,4,128,107,0.6820582747459412,0.14603421092033386
188,4,128,108,0.3059551417827606,0.13234812021255493
188,4,128,109,0.531509518623352,0.13256269693374634
188,4,128,110,0.3859579861164093,0.06399652361869812
188,4,128,111,0.4788115620613098,0.1105528324842453
188,4,128,112,0.4902831017971039,0.13652335107326508
188,4,128,113,0.4349333345890045,0.12315608561038971
188,4,128,114,0.35983121395111084,0.13511693477630615
188,4,128,115,0.5395404100418091,0.14486537873744965
188,4,128,116,0.3655289113521576,0.09968265146017075
188,4,128,117,0.6671308875083923,0.08475296944379807
188,4,128,118,0.6984540224075317,0.10643909871578217
188,4,128,119,0.7133053541183472,0.15147073566913605
188,4,128,120,0.4943861961364746,0.1271657794713974
188,4,128,121,0.4641548693180084,0.12618891894817352
188,4,128,122,0.591628909111023,0.05687186121940613
188,4,128,123,0.7020290493965149,0.194488987326622
188,4,128,124,0.5300655364990234,0.07282931357622147
188,4,128,125,0.5708720088005066,0.14984706044197083
188,4,128,126,0.6632851958274841,0.11515844613313675
188,4,128,127,0.5126392245292664,0.10106097161769867
188,5,128,0,0.6271607875823975,0.10385043174028397
188,5,128,1,0.5089593529701233,0.08307822793722153
188,5,128,2,0.692725658416748,0.13755165040493011
188,5,128,3,0.39850202202796936,0.09119443595409393
188,5,128,4,0.5990500450134277,0.12003128975629807
188,5,128,5,0.48094290494918823,0.059559572488069534
188,5,128,6,0.613551676273346,0.09176401793956757
188,5,128,7,0.4329121708869934,0.08700553327798843
188,5,128,8,0.6217799186706543,0.12915508449077606
188,5,128,9,0.6074608564376831,0.24021713435649872
188,5,128,10,0.5478866100311279,0.07580162584781647
188,5,128,11,0.7078410983085632,0.23105256259441376
188,5,128,12,0.5964879393577576,0.10187210887670517
188,5,128,13,0.6592369079589844,0.06680577248334885
188,5,128,14,0.5771105885505676,0.07668022066354752
188,5,128,15,0.41108277440071106,0.23862409591674805
188,5,128,16,0.5669943690299988,0.04994463548064232
188,5,128,17,0.7237465381622314,0.12895049154758453
188,5,128,18,0.6408989429473877,0.13233044743537903
188,5,128,19,0.7038819789886475,0.20523691177368164
188,5,128,20,0.6307942271232605,0.11181312054395676
188,5,128,21,0.45933887362480164,0.08876937627792358
188,5,128,22,0.5416663289070129,0.06820358335971832
188,5,128,23,0.4663180410861969,0.13547027111053467
188,5,128,24,0.4394613206386566,0.14395804703235626
188,5,128,25,0.5012128949165344,0.03425982594490051
188,5,128,26,0.675044059753418,0.16931340098381042
188,5,128,27,0.5203607678413391,0.18310263752937317
188,5,128,28,0.5696569085121155,0.11184637248516083
188,5,128,29,0.6079298257827759,0.17415690422058105
188,5,128,30,0.6674678921699524,0.12106579542160034
188,5,128,31,0.557802677154541,0.15033899247646332
188,5,128,32,0.6765950322151184,0.13965101540088654
188,5,128,33,0.7176349759101868,0.09336263686418533
188,5,128,34,0.6534014940261841,0.08568718284368515
188,5,128,35,0.6603608131408691,0.08426908403635025
188,5,128,36,0.4991968870162964,0.13012197613716125
188,5,128,37,0.6459683179855347,0.13320209085941315
188,5,128,38,0.6054084300994873,0.11377499252557755
188,5,128,39,0.5799006819725037,0.2004440575838089
188,5,128,40,0.4846241772174835,0.09482698142528534
188,5,128,41,0.7472899556159973,0.1130218580365181
188,5,128,42,0.4794009327888489,0.08900925517082214
188,5,128,43,0.6433491110801697,0.2357207089662552
188,5,128,44,0.44646182656288147,0.104884073138237
188,5,128,45,0.6563746929168701,0.21364173293113708
188,5,128,46,0.6083886623382568,0.1276136189699173
188,5,128,47,0.44405317306518555,0.06636163592338562
188,5,128,48,0.5028734803199768,0.08270282298326492
188,5,128,49,0.6220488548278809,0.07730470597743988
188,5,128,50,0.4675455093383789,0.04990408942103386
188,5,128,51,0.36683109402656555,0.1681455820798874
188,5,128,52,0.5622056126594543,0.1494029313325882
188,5,128,53,0.6023461818695068,0.1545030027627945
188,5,128,54,0.3641037046909332,0.10784225165843964
188,5,128,55,0.4989394545555115,0.04845797270536423
188,5,128,56,0.7537201642990112,0.13091005384922028
188,5,128,57,0.5403448343276978,0.05212936922907829
188,5,128,58,0.5044289827346802,0.0978928655385971
188,5,128,59,0.7258354425430298,0.10510369390249252
188,5,128,60,0.6006757020950317,0.14593152701854706
188,5,128,61,0.5357763767242432,0.06695491820573807
188,5,128,62,0.42556801438331604,0.08832498639822006
188,5,128,63,0.6453501582145691,0.1633736789226532
188,5,128,64,0.5692498087882996,0.09860504418611526
188,5,128,65,0.5011206269264221,0.0978141725063324
188,5,128,66,0.7097285389900208,0.13919532299041748
188,5,128,67,0.6090341210365295,0.1349928081035614
188,5,128,68,0.703682005405426,0.12220509350299835
188,5,128,69,0.526337742805481,0.08711444586515427
188,5,128,70,0.5942367315292358,0.18339164555072784
188,5,128,71,0.348667711019516,0.19211836159229279
188,5,128,72,0.4934214651584625,0.11924117803573608
188,5,128,73,0.5230926275253296,0.0733686089515686
188,5,128,74,0.6023156046867371,0.10603797435760498
188,5,128,75,0.44093337655067444,0.0786173939704895
188,5,128,76,0.49480196833610535,0.1122589036822319
188,5,128,77,0.4622649550437927,0.21664570271968842
188,5,128,78,0.652999222278595,0.18839046359062195
188,5,128,79,0.5769301652908325,0.04044709354639053
188,5,128,80,0.5315271019935608,0.09069659560918808
188,5,128,81,0.6246770620346069,0.12109943479299545
188,5,128,82,0.43200448155403137,0.07051081955432892
188,5,128,83,0.5452573895454407,0.13484521210193634
188,5,128,84,0.4490857720375061,0.10523898899555206
188,5,128,85,0.6334932446479797,0.08941726386547089
188,5,128,86,0.6183573603630066,0.09971484541893005
188,5,128,87,0.7166038751602173,0.08748560398817062
188,5,128,88,0.4351974427700043,0.10063925385475159
188,5,128,89,0.6668397784233093,0.09749124199151993
188,5,128,90,0.48022255301475525,0.16383564472198486
188,5,128,91,0.6080553531646729,0.13730303943157196
188,5,128,92,0.5708552598953247,0.11508629471063614
188,5,128,93,0.6931111812591553,0.09395158290863037
188,5,128,94,0.53475022315979,0.07119765877723694
188,5,128,95,0.6739730834960938,0.15508608520030975
188,5,128,96,0.51805180311203,0.10643774271011353
188,5,128,97,0.6118642687797546,0.21563225984573364
188,5,128,98,0.3191184997558594,0.09621962159872055
188,5,128,99,0.6465906500816345,0.0979401096701622
188,5,128,100,0.48655763268470764,0.17051702737808228
188,5,128,101,0.33102813363075256,0.10630639642477036
188,5,128,102,0.4398469626903534,0.06581620872020721
188,5,128,103,0.3840722143650055,0.10649710148572922
188,5,128,104,0.7021250128746033,0.17639663815498352
188,5,128,105,0.5399675965309143,0.08045560866594315
188,5,128,106,0.45136159658432007,0.1150563582777977
188,5,128,107,0.33569228649139404,0.11782769858837128
188,5,128,108,0.595390796661377,0.07282934337854385
188,5,128,109,0.37488043308258057,0.17021776735782623
188,5,128,110,0.43089622259140015,0.13382770121097565
188,5,128,111,0.4776787757873535,0.10024561733007431
188,5,128,112,0.5484221577644348,0.05453168600797653
188,5,128,113,0.7052451372146606,0.14982767403125763
188,5,128,114,0.6688147187232971,0.09545161575078964
188,5,128,115,0.43399760127067566,0.14734075963497162
188,5,128,116,0.6036008596420288,0.13736574351787567
188,5,128,117,0.6020400524139404,0.18886058032512665
188,5,128,118,0.38292285799980164,0.08886308968067169
188,5,128,119,0.5670453906059265,0.10313401371240616
188,5,128,120,0.6277094483375549,0.07821143418550491
188,5,128,121,0.6426350474357605,0.08242134749889374
188,5,128,122,0.7360654473304749,0.09140950441360474
188,5,128,123,0.732659101486206,0.09549164772033691
188,5,128,124,0.5926311016082764,0.14462412893772125
188,5,128,125,0.6682872772216797,0.2172369509935379
188,5,128,126,0.6028895974159241,0.14667469263076782
188,5,128,127,0.7116380333900452,0.10607687383890152
189,0,32,0,0.4773469865322113,0.04666472226381302
189,0,32,1,0.47326353192329407,0.1230863556265831
189,0,32,2,0.472265362739563,0.0963660329580307
189,0,32,3,0.6072441339492798,0.04438919574022293
189,0,32,4,0.38535764813423157,0.04052143171429634
189,0,32,5,0.48767244815826416,0.06250973790884018
189,0,32,6,0.6055730581283569,0.07878412306308746
189,0,32,7,0.5444839596748352,0.08682658523321152
189,0,32,8,0.5949048399925232,0.05620997026562691
189,0,32,9,0.4161280691623688,0.01123989000916481
189,0,32,10,0.46268630027770996,0.0400332547724247
189,0,32,11,0.57924485206604,0.05864432826638222
189,0,32,12,0.5645827054977417,0.04520992562174797
189,0,32,13,0.5590525269508362,0.058440495282411575
189,0,32,14,0.4365030825138092,0.06413000822067261
189,0,32,15,0.5549718737602234,0.05267619714140892
189,0,32,16,0.5064147710800171,0.05825798586010933
189,0,32,17,0.4126128852367401,0.06057431921362877
189,0,32,18,0.5487738251686096,0.06264005601406097
189,0,32,19,0.45648449659347534,0.07106920331716537
189,0,32,20,0.457945317029953,0.0527728796005249
189,0,32,21,0.550628125667572,0.06445526331663132
189,0,32,22,0.460402250289917,0.03799095004796982
189,0,32,23,0.6191638112068176,0.06275852024555206
189,0,32,24,0.49451684951782227,0.05492178350687027
189,0,32,25,0.37710022926330566,0.04135909676551819
189,0,32,26,0.5765714049339294,0.08448760956525803
189,0,32,27,0.4357147216796875,0.0898648127913475
189,0,32,28,0.5553324222564697,0.05683116614818573
189,0,32,29,0.6140408515930176,0.060393817722797394
189,0,32,30,0.517661452293396,0.022126805037260056
189,0,32,31,0.43000730872154236,0.05695200711488724
189,1,32,0,0.46525102853775024,0.03202144801616669
189,1,32,1,0.3623146712779999,0.037654612213373184
189,1,32,2,0.5591887831687927,0.03382246941328049
189,1,32,3,0.6083419919013977,0.035812169313430786
189,1,32,4,0.3818112015724182,0.041519489139318466
189,1,32,5,0.5807296633720398,0.025666866451501846
189,1,32,6,0.6416077017784119,0.05123496800661087
189,1,32,7,0.6377332210540771,0.03164321184158325
189,1,32,8,0.5137581825256348,0.029885372146964073
189,1,32,9,0.6001154780387878,0.03414876386523247
189,1,32,10,0.4336053133010864,0.041747577488422394
189,1,32,11,0.5493820905685425,0.04511815309524536
189,1,32,12,0.3798687160015106,0.039655957370996475
189,1,32,13,0.375100314617157,0.02832738682627678
189,1,32,14,0.37811318039894104,0.05152042582631111
189,1,32,15,0.5691297650337219,0.040995460003614426
189,1,32,16,0.4195898175239563,0.03071492724120617
189,1,32,17,0.61778324842453,0.055219922214746475
189,1,32,18,0.5442712903022766,0.03890394791960716
189,1,32,19,0.4458186626434326,0.015195595100522041
189,1,32,20,0.4233105480670929,0.02379744127392769
189,1,32,21,0.5292511582374573,0.04142436012625694
189,1,32,22,0.37253502011299133,0.028193047270178795
189,1,32,23,0.48363107442855835,0.04409521818161011
189,1,32,24,0.519747793674469,0.04706630855798721
189,1,32,25,0.4805266261100769,0.02698664553463459
189,1,32,26,0.4936831295490265,0.0420818030834198
189,1,32,27,0.4659941494464874,0.04830349609255791
189,1,32,28,0.39704999327659607,0.03162968531250954
189,1,32,29,0.43466201424598694,0.042985547333955765
189,1,32,30,0.3565802276134491,0.04142467677593231
189,1,32,31,0.5052981972694397,0.04837935045361519
189,2,64,0,0.6592344045639038,0.05506473779678345
189,2,64,1,0.5307541489601135,0.0981154590845108
189,2,64,2,0.41383132338523865,0.1223914623260498
189,2,64,3,0.5802634358406067,0.06665259599685669
189,2,64,4,0.45774510502815247,0.06452132761478424
189,2,64,5,0.3926998972892761,0.10856229811906815
189,2,64,6,0.44441118836402893,0.01658369041979313
189,2,64,7,0.4573892652988434,0.08521181344985962
189,2,64,8,0.4836551249027252,0.0954580307006836
189,2,64,9,0.43991991877555847,0.04800407588481903
189,2,64,10,0.45464593172073364,0.04624023288488388
189,2,64,11,0.5523471236228943,0.07052042335271835
189,2,64,12,0.5723447203636169,0.06646031141281128
189,2,64,13,0.4465826451778412,0.11891096085309982
189,2,64,14,0.35404762625694275,0.07097551971673965
189,2,64,15,0.4355289936065674,0.08319511264562607
189,2,64,16,0.43315058946609497,0.07583194226026535
189,2,64,17,0.4026809334754944,0.028639694675803185
189,2,64,18,0.5295541286468506,0.08470725268125534
189,2,64,19,0.5590213537216187,0.042954590171575546
189,2,64,20,0.5973842144012451,0.05785258859395981
189,2,64,21,0.5982128381729126,0.09692636877298355
189,2,64,22,0.5062206387519836,0.10880036652088165
189,2,64,23,0.3224383294582367,0.08308091014623642
189,2,64,24,0.42499423027038574,0.06585127115249634
189,2,64,25,0.48584863543510437,0.04934794828295708
189,2,64,26,0.47599315643310547,0.05859290435910225
189,2,64,27,0.4890079200267792,0.04906906932592392
189,2,64,28,0.590951144695282,0.0932575911283493
189,2,64,29,0.6095802783966064,0.0850190669298172
189,2,64,30,0.54279625415802,0.05821557715535164
189,2,64,31,0.5926720499992371,0.06233730539679527
189,2,64,32,0.41739746928215027,0.046065762639045715
189,2,64,33,0.42047548294067383,0.09522532671689987
189,2,64,34,0.4606108069419861,0.05035296455025673
189,2,64,35,0.44638606905937195,0.06687168031930923
189,2,64,36,0.4879406690597534,0.05690905451774597
189,2,64,37,0.6136044859886169,0.04405331611633301
189,2,64,38,0.4444418251514435,0.07222127914428711
189,2,64,39,0.5290301442146301,0.0492735430598259
189,2,64,40,0.5811535120010376,0.048178236931562424
189,2,64,41,0.5963930487632751,0.05508355051279068
189,2,64,42,0.6359243392944336,0.10816971212625504
189,2,64,43,0.3887157440185547,0.08115316927433014
189,2,64,44,0.5041884183883667,0.03461913764476776
189,2,64,45,0.42098239064216614,0.12095029652118683
189,2,64,46,0.4068949222564697,0.036586351692676544
189,2,64,47,0.40269890427589417,0.06936438381671906
189,2,64,48,0.45825156569480896,0.1094876304268837
189,2,64,49,0.44631993770599365,0.05725058540701866
189,2,64,50,0.4337197542190552,0.10334625840187073
189,2,64,51,0.4131186604499817,0.034577563405036926
189,2,64,52,0.4390234649181366,0.13201287388801575
189,2,64,53,0.4493306875228882,0.04604646563529968
189,2,64,54,0.4884841740131378,0.056329768151044846
189,2,64,55,0.5925595760345459,0.08274609595537186
189,2,64,56,0.3956814706325531,0.07940185070037842
189,2,64,57,0.49193140864372253,0.0860278308391571
189,2,64,58,0.47078737616539,0.06467133015394211
189,2,64,59,0.471395343542099,0.06147110462188721
189,2,64,60,0.5197816491127014,0.056351058185100555
189,2,64,61,0.47869810461997986,0.08593864738941193
189,2,64,62,0.4928608536720276,0.053729403764009476
189,2,64,63,0.43543541431427,0.10143691301345825
189,3,64,0,0.522088885307312,0.09012328833341599
189,3,64,1,0.5473352074623108,0.10536634922027588
189,3,64,2,0.5024023056030273,0.045532286167144775
189,3,64,3,0.5033524632453918,0.10077653080224991
189,3,64,4,0.5939396619796753,0.056727055460214615
189,3,64,5,0.37270137667655945,0.06161956489086151
189,3,64,6,0.4902009665966034,0.10354958474636078
189,3,64,7,0.533692479133606,0.07072536647319794
189,3,64,8,0.5106793642044067,0.09175562113523483
189,3,64,9,0.4450570344924927,0.12550058960914612
189,3,64,10,0.46959951519966125,0.09171465039253235
189,3,64,11,0.4491647481918335,0.12323033064603806
189,3,64,12,0.6533923745155334,0.08947572857141495
189,3,64,13,0.5752503871917725,0.08781233429908752
189,3,64,14,0.4943603277206421,0.1304342895746231
189,3,64,15,0.4914925694465637,0.06441456824541092
189,3,64,16,0.5589045286178589,0.13939762115478516
189,3,64,17,0.5033359527587891,0.08530593663454056
189,3,64,18,0.5473350286483765,0.07499724626541138
189,3,64,19,0.5424820780754089,0.09516214579343796
189,3,64,20,0.4152560532093048,0.09209484606981277
189,3,64,21,0.5060142874717712,0.08156046271324158
189,3,64,22,0.6211111545562744,0.1068340539932251
189,3,64,23,0.5685011744499207,0.10897279530763626
189,3,64,24,0.5093310475349426,0.11141178756952286
189,3,64,25,0.41508686542510986,0.024347294121980667
189,3,64,26,0.5198162198066711,0.05079645290970802
189,3,64,27,0.426575630903244,0.03102552704513073
189,3,64,28,0.5012585520744324,0.13760314881801605
189,3,64,29,0.34699931740760803,0.06469441205263138
189,3,64,30,0.5317986011505127,0.0920662134885788
189,3,64,31,0.5644346475601196,0.11334487050771713
189,3,64,32,0.5635777115821838,0.055223248898983
189,3,64,33,0.47331520915031433,0.08351463079452515
189,3,64,34,0.5466477870941162,0.09371428936719894
189,3,64,35,0.5415116548538208,0.05410351976752281
189,3,64,36,0.6602661609649658,0.15015274286270142
189,3,64,37,0.4672691822052002,0.0610935278236866
189,3,64,38,0.4181309938430786,0.08055495470762253
189,3,64,39,0.5051570534706116,0.11153446137905121
189,3,64,40,0.5990574359893799,0.05709494277834892
189,3,64,41,0.41686689853668213,0.0732141062617302
189,3,64,42,0.5458692908287048,0.04367377609014511
189,3,64,43,0.5203832387924194,0.0564873106777668
189,3,64,44,0.4678175151348114,0.07168027758598328
189,3,64,45,0.4919053316116333,0.06519708037376404
189,3,64,46,0.4861120283603668,0.13584955036640167
189,3,64,47,0.4400237202644348,0.10002361238002777
189,3,64,48,0.39716869592666626,0.051053233444690704
189,3,64,49,0.564124345779419,0.07456470280885696
189,3,64,50,0.4083605110645294,0.048605989664793015
189,3,64,51,0.4297811686992645,0.08195526152849197
189,3,64,52,0.5490131378173828,0.1489604115486145
189,3,64,53,0.42330867052078247,0.09316176921129227
189,3,64,54,0.46251463890075684,0.10716114193201065
189,3,64,55,0.609741747379303,0.09473209083080292
189,3,64,56,0.6630331873893738,0.057608526200056076
189,3,64,57,0.4764308035373688,0.10072245448827744
189,3,64,58,0.46047523617744446,0.09097954630851746
189,3,64,59,0.5267140865325928,0.10564286261796951
189,3,64,60,0.49900344014167786,0.16478712856769562
189,3,64,61,0.47982484102249146,0.07087072730064392
189,3,64,62,0.44841763377189636,0.1358714997768402
189,3,64,63,0.39027491211891174,0.11292824894189835
189,4,128,0,0.45513755083084106,0.10693617910146713
189,4,128,1,0.4721311330795288,0.14421875774860382
189,4,128,2,0.5420677661895752,0.12341643869876862
189,4,128,3,0.5001166462898254,0.13192354142665863
189,4,128,4,0.41905754804611206,0.15073543787002563
189,4,128,5,0.6291576623916626,0.205200657248497
189,4,128,6,0.48416396975517273,0.08077309280633926
189,4,128,7,0.47948622703552246,0.16322259604930878
189,4,128,8,0.6277350783348083,0.18745209276676178
189,4,128,9,0.6663698554039001,0.1400134116411209
189,4,128,10,0.5456016063690186,0.07528799772262573
189,4,128,11,0.6205370426177979,0.1344873458147049
189,4,128,12,0.5089594125747681,0.07468057423830032
189,4,128,13,0.5668221712112427,0.1807892769575119
189,4,128,14,0.47556304931640625,0.10842800885438919
189,4,128,15,0.6394163370132446,0.189070925116539
189,4,128,16,0.4539701044559479,0.08197110891342163
189,4,128,17,0.48768091201782227,0.13423240184783936
189,4,128,18,0.5687390565872192,0.1119813546538353
189,4,128,19,0.5508865714073181,0.08108934760093689
189,4,128,20,0.6006485819816589,0.13196243345737457
189,4,128,21,0.5358173847198486,0.09416655451059341
189,4,128,22,0.5577875971794128,0.09091052412986755
189,4,128,23,0.589625895023346,0.1357148140668869
189,4,128,24,0.6719728112220764,0.12528561055660248
189,4,128,25,0.6996991634368896,0.15845993161201477
189,4,128,26,0.4415643513202667,0.14525039494037628
189,4,128,27,0.48555946350097656,0.06508336216211319
189,4,128,28,0.4246349632740021,0.09432552009820938
189,4,128,29,0.3865875005722046,0.1451411247253418
189,4,128,30,0.5389335751533508,0.1136898472905159
189,4,128,31,0.5993740558624268,0.0753994807600975
189,4,128,32,0.5401097536087036,0.08334747701883316
189,4,128,33,0.5504540205001831,0.07456254214048386
189,4,128,34,0.7147315144538879,0.10804782062768936
189,4,128,35,0.6606534719467163,0.11999683827161789
189,4,128,36,0.4736441373825073,0.13717897236347198
189,4,128,37,0.45232152938842773,0.08599585294723511
189,4,128,38,0.6050328612327576,0.12455916404724121
189,4,128,39,0.5354066491127014,0.20374555885791779
189,4,128,40,0.6170032024383545,0.1274218112230301
189,4,128,41,0.6430285573005676,0.12370524555444717
189,4,128,42,0.4337258040904999,0.05092436075210571
189,4,128,43,0.615139365196228,0.13615629076957703
189,4,128,44,0.6017352342605591,0.04797773435711861
189,4,128,45,0.5335230231285095,0.06342484802007675
189,4,128,46,0.5567958950996399,0.15372510254383087
189,4,128,47,0.5596031546592712,0.17919254302978516
189,4,128,48,0.544641375541687,0.11808706074953079
189,4,128,49,0.6107856631278992,0.09659828990697861
189,4,128,50,0.5443735122680664,0.049680210649967194
189,4,128,51,0.6572607755661011,0.13779808580875397
189,4,128,52,0.5536959171295166,0.10123253613710403
189,4,128,53,0.5025047659873962,0.1185140386223793
189,4,128,54,0.5244718194007874,0.1045011505484581
189,4,128,55,0.5392774939537048,0.10335692018270493
189,4,128,56,0.5314422845840454,0.1517786979675293
189,4,128,57,0.5719432234764099,0.053659480065107346
189,4,128,58,0.5494213700294495,0.10328748822212219
189,4,128,59,0.4875800907611847,0.06957913935184479
189,4,128,60,0.42221182584762573,0.04051506891846657
189,4,128,61,0.4501717686653137,0.1342671811580658
189,4,128,62,0.47846847772598267,0.12143903970718384
189,4,128,63,0.5010539293289185,0.16409878432750702
189,4,128,64,0.6834757924079895,0.12137158215045929
189,4,128,65,0.4862268567085266,0.12221718579530716
189,4,128,66,0.5949896574020386,0.15748649835586548
189,4,128,67,0.552105188369751,0.1469217836856842
189,4,128,68,0.6250540614128113,0.18451429903507233
189,4,128,69,0.6529788970947266,0.17624086141586304
189,4,128,70,0.6036576628684998,0.046673957258462906
189,4,128,71,0.5086025595664978,0.100655697286129
189,4,128,72,0.5350959300994873,0.13742735981941223
189,4,128,73,0.4477320611476898,0.1443825215101242
189,4,128,74,0.5733290910720825,0.13589324057102203
189,4,128,75,0.5269405245780945,0.14315654337406158
189,4,128,76,0.5519006848335266,0.07696495950222015
189,4,128,77,0.4864742159843445,0.0807664766907692
189,4,128,78,0.5229366421699524,0.09694229066371918
189,4,128,79,0.484968364238739,0.19183892011642456
189,4,128,80,0.44695279002189636,0.12251992523670197
189,4,128,81,0.5692678093910217,0.06155820190906525
189,4,128,82,0.47647523880004883,0.0993872806429863
189,4,128,83,0.5038048624992371,0.08521300554275513
189,4,128,84,0.6345430016517639,0.20397356152534485
189,4,128,85,0.3727184236049652,0.10907071828842163
189,4,128,86,0.538560688495636,0.15584784746170044
189,4,128,87,0.4397139847278595,0.07106739282608032
189,4,128,88,0.5164999961853027,0.07987489551305771
189,4,128,89,0.5531026124954224,0.07951244711875916
189,4,128,90,0.3915766179561615,0.09427845478057861
189,4,128,91,0.4435402750968933,0.12381038069725037
189,4,128,92,0.4132001996040344,0.1129259243607521
189,4,128,93,0.588851273059845,0.13767698407173157
189,4,128,94,0.5039575099945068,0.13441452383995056
189,4,128,95,0.43599438667297363,0.1829340159893036
189,4,128,96,0.469711035490036,0.1440437287092209
189,4,128,97,0.503751814365387,0.07039476186037064
189,4,128,98,0.5027090311050415,0.06701153516769409
189,4,128,99,0.5709061026573181,0.1387249082326889
189,4,128,100,0.4965423047542572,0.10261230915784836
189,4,128,101,0.5037766098976135,0.06203939765691757
189,4,128,102,0.6479107737541199,0.08655749261379242
189,4,128,103,0.6026521325111389,0.15988008677959442
189,4,128,104,0.497386634349823,0.06470523029565811
189,4,128,105,0.3520216643810272,0.08851832151412964
189,4,128,106,0.5375585556030273,0.08878900855779648
189,4,128,107,0.5269635319709778,0.1350550651550293
189,4,128,108,0.4805760383605957,0.06733708828687668
189,4,128,109,0.5416193008422852,0.09688190370798111
189,4,128,110,0.6059721112251282,0.15571147203445435
189,4,128,111,0.33577048778533936,0.11173836141824722
189,4,128,112,0.503571093082428,0.0712711438536644
189,4,128,113,0.5168769955635071,0.07097675651311874
189,4,128,114,0.3812004029750824,0.1457793414592743
189,4,128,115,0.5923474431037903,0.13419200479984283
189,4,128,116,0.4059028625488281,0.15589971840381622
189,4,128,117,0.6591073870658875,0.16337449848651886
189,4,128,118,0.632861316204071,0.14955934882164001
189,4,128,119,0.5882724523544312,0.0635397657752037
189,4,128,120,0.6039116978645325,0.12570025026798248
189,4,128,121,0.5072751045227051,0.06830646097660065
189,4,128,122,0.5510456562042236,0.1709481030702591
189,4,128,123,0.5354723930358887,0.05843651294708252
189,4,128,124,0.4405491352081299,0.10403437167406082
189,4,128,125,0.3975527584552765,0.08598499745130539
189,4,128,126,0.5071368217468262,0.07290499657392502
189,4,128,127,0.3654523193836212,0.06306014955043793
189,5,128,0,0.5135079026222229,0.0810379609465599
189,5,128,1,0.4361209273338318,0.0517231747508049
189,5,128,2,0.5785462856292725,0.06716691702604294
189,5,128,3,0.5672953724861145,0.06306067854166031
189,5,128,4,0.45673444867134094,0.09703639894723892
189,5,128,5,0.5293605923652649,0.07073450833559036
189,5,128,6,0.5449532866477966,0.06496001780033112
189,5,128,7,0.5275108814239502,0.0915970429778099
189,5,128,8,0.5386292934417725,0.09949696809053421
189,5,128,9,0.533894956111908,0.06646383553743362
189,5,128,10,0.45846647024154663,0.05174298211932182
189,5,128,11,0.5587964653968811,0.054001033306121826
189,5,128,12,0.5966188311576843,0.057219699025154114
189,5,128,13,0.45529109239578247,0.09987770766019821
189,5,128,14,0.5118104815483093,0.07002651691436768
189,5,128,15,0.3896320164203644,0.055801764130592346
189,5,128,16,0.5099315047264099,0.10664647072553635
189,5,128,17,0.6134725213050842,0.07963483780622482
189,5,128,18,0.5936509370803833,0.07022818922996521
189,5,128,19,0.6197007894515991,0.04599178582429886
189,5,128,20,0.4969766438007355,0.05801818147301674
189,5,128,21,0.5626034736633301,0.0555478110909462
189,5,128,22,0.6388176083564758,0.10136202722787857
189,5,128,23,0.4775732755661011,0.07148559391498566
189,5,128,24,0.5404446125030518,0.07447592169046402
189,5,128,25,0.5954879522323608,0.11099263280630112
189,5,128,26,0.46132516860961914,0.06226051226258278
189,5,128,27,0.45089974999427795,0.03862840682268143
189,5,128,28,0.511242151260376,0.08748073875904083
189,5,128,29,0.43629735708236694,0.11862677335739136
189,5,128,30,0.5340988636016846,0.06685088574886322
189,5,128,31,0.5935419201850891,0.07673154771327972
189,5,128,32,0.6354454159736633,0.08211757242679596
189,5,128,33,0.6466931700706482,0.13634179532527924
189,5,128,34,0.5337468385696411,0.061178192496299744
189,5,128,35,0.5865485072135925,0.041417837142944336
189,5,128,36,0.5125063061714172,0.03581105172634125
189,5,128,37,0.49316996335983276,0.1362386792898178
189,5,128,38,0.6020494699478149,0.10730268806219101
189,5,128,39,0.530276358127594,0.08883025497198105
189,5,128,40,0.5518523454666138,0.09012998640537262
189,5,128,41,0.5524485111236572,0.0810670331120491
189,5,128,42,0.43604856729507446,0.07188717275857925
189,5,128,43,0.5902059674263,0.07802841812372208
189,5,128,44,0.5643237233161926,0.1135113537311554
189,5,128,45,0.49304547905921936,0.08176645636558533
189,5,128,46,0.3761845529079437,0.05651416257023811
189,5,128,47,0.5792392492294312,0.04081840068101883
189,5,128,48,0.5152866244316101,0.10616929829120636
189,5,128,49,0.46721363067626953,0.07050054520368576
189,5,128,50,0.6326023936271667,0.10850504040718079
189,5,128,51,0.4653371572494507,0.04969283938407898
189,5,128,52,0.5713552832603455,0.07259903848171234
189,5,128,53,0.5306166410446167,0.040255576372146606
189,5,128,54,0.46061649918556213,0.07621535658836365
189,5,128,55,0.4844561219215393,0.05378201976418495
189,5,128,56,0.5246910452842712,0.05074138939380646
189,5,128,57,0.6221278309822083,0.1047479584813118
189,5,128,58,0.4790657162666321,0.07919575273990631
189,5,128,59,0.5706871747970581,0.0846543163061142
189,5,128,60,0.5960719585418701,0.07143182307481766
189,5,128,61,0.5426467061042786,0.10870975255966187
189,5,128,62,0.47003373503685,0.06186138093471527
189,5,128,63,0.41695982217788696,0.06103942543268204
189,5,128,64,0.5270788669586182,0.024744361639022827
189,5,128,65,0.5666220784187317,0.08398079872131348
189,5,128,66,0.4666811525821686,0.11894072592258453
189,5,128,67,0.5303518176078796,0.06740754097700119
189,5,128,68,0.5210424661636353,0.0487327016890049
189,5,128,69,0.6274371147155762,0.06615000218153
189,5,128,70,0.5398153066635132,0.05873928591609001
189,5,128,71,0.45457521080970764,0.04850703850388527
189,5,128,72,0.534980297088623,0.057122841477394104
189,5,128,73,0.5132226347923279,0.10428101569414139
189,5,128,74,0.5220340490341187,0.06956914067268372
189,5,128,75,0.6105397343635559,0.10764069855213165
189,5,128,76,0.4689430594444275,0.06243482232093811
189,5,128,77,0.4463827311992645,0.04608011990785599
189,5,128,78,0.6188337802886963,0.11396022140979767
189,5,128,79,0.4824715554714203,0.06848592311143875
189,5,128,80,0.41726720333099365,0.05629349127411842
189,5,128,81,0.44142547249794006,0.06320053339004517
189,5,128,82,0.4843997657299042,0.1022903099656105
189,5,128,83,0.5226944088935852,0.056376636028289795
189,5,128,84,0.5526547431945801,0.0813053548336029
189,5,128,85,0.45383960008621216,0.11397162079811096
189,5,128,86,0.6088940501213074,0.0695074275135994
189,5,128,87,0.42446085810661316,0.10329080373048782
189,5,128,88,0.4841045141220093,0.09371232986450195
189,5,128,89,0.5325498580932617,0.0714435800909996
189,5,128,90,0.380578875541687,0.058814797550439835
189,5,128,91,0.5686905384063721,0.059429895132780075
189,5,128,92,0.5357486009597778,0.06910209357738495
189,5,128,93,0.5441929697990417,0.09606925398111343
189,5,128,94,0.5228403210639954,0.07367900013923645
189,5,128,95,0.5695705413818359,0.04663834348320961
189,5,128,96,0.41755905747413635,0.07441961765289307
189,5,128,97,0.47437185049057007,0.11507651209831238
189,5,128,98,0.44828739762306213,0.08698344230651855
189,5,128,99,0.564284086227417,0.053676947951316833
189,5,128,100,0.5064826011657715,0.10608355700969696
189,5,128,101,0.46021464467048645,0.08763810992240906
189,5,128,102,0.4738757014274597,0.12423663586378098
189,5,128,103,0.4899355173110962,0.0951574295759201
189,5,128,104,0.3995532989501953,0.08255058526992798
189,5,128,105,0.6079896092414856,0.10663077235221863
189,5,128,106,0.5932559370994568,0.06816831976175308
189,5,128,107,0.40026789903640747,0.07107889652252197
189,5,128,108,0.4185335338115692,0.12276878952980042
189,5,128,109,0.479793518781662,0.03524192422628403
189,5,128,110,0.48552656173706055,0.09323827922344208
189,5,128,111,0.4130040407180786,0.08385425806045532
189,5,128,112,0.4516703188419342,0.07863467186689377
189,5,128,113,0.5544766187667847,0.03813377767801285
189,5,128,114,0.5193798542022705,0.060915663838386536
189,5,128,115,0.5176266431808472,0.06671398133039474
189,5,128,116,0.4672164022922516,0.09573645889759064
189,5,128,117,0.5202243328094482,0.1014353483915329
189,5,128,118,0.556256890296936,0.07059700042009354
189,5,128,119,0.36618223786354065,0.0872185081243515
189,5,128,120,0.444886177778244,0.11634965986013412
189,5,128,121,0.5044954419136047,0.08445662260055542
189,5,128,122,0.5807961225509644,0.08850930631160736
189,5,128,123,0.5510751008987427,0.10402791202068329
189,5,128,124,0.5212064981460571,0.07842171937227249
189,5,128,125,0.5872526168823242,0.044101327657699585
189,5,128,126,0.6340252757072449,0.08623164147138596
189,5,128,127,0.512703001499176,0.04616047069430351
190,0,32,0,0.40880224108695984,0.05161977931857109
190,0,32,1,0.5630384087562561,0.06916043907403946
190,0,32,2,0.3287128210067749,0.051127299666404724
190,0,32,3,0.5660329461097717,0.043837547302246094
190,0,32,4,0.5050331950187683,0.08884470909833908
190,0,32,5,0.38756728172302246,0.12597964704036713
190,0,32,6,0.5795897245407104,0.034163981676101685
190,0,32,7,0.3887731432914734,0.1067081019282341
190,0,32,8,0.48721736669540405,0.09383808076381683
190,0,32,9,0.560280442237854,0.12589290738105774
190,0,32,10,0.5463798642158508,0.07570384442806244
190,0,32,11,0.48122695088386536,0.06885195523500443
190,0,32,12,0.5298140645027161,0.044066447764635086
190,0,32,13,0.34226030111312866,0.09605848789215088
190,0,32,14,0.5515999794006348,0.04367828741669655
190,0,32,15,0.6398882269859314,0.06164763867855072
190,0,32,16,0.5305424928665161,0.10855580121278763
190,0,32,17,0.4670431315898895,0.05184772610664368
190,0,32,18,0.5392309427261353,0.03982996568083763
190,0,32,19,0.6165140271186829,0.07490060478448868
190,0,32,20,0.5870936512947083,0.04142535477876663
190,0,32,21,0.4247676432132721,0.05851196497678757
190,0,32,22,0.3906128406524658,0.11044323444366455
190,0,32,23,0.48527154326438904,0.09516214579343796
190,0,32,24,0.5210611820220947,0.032185375690460205
190,0,32,25,0.5915017127990723,0.10405165702104568
190,0,32,26,0.5011665225028992,0.05803757160902023
190,0,32,27,0.5265976786613464,0.06513527780771255
190,0,32,28,0.35892242193222046,0.09769129753112793
190,0,32,29,0.4470852315425873,0.08006726205348969
190,0,32,30,0.5433883666992188,0.037290338426828384
190,0,32,31,0.4308563768863678,0.06433352828025818
190,1,32,0,0.36108019948005676,0.04609043896198273
190,1,32,1,0.46212682127952576,0.09811268746852875
190,1,32,2,0.4643760919570923,0.12396221607923508
190,1,32,3,0.6112430095672607,0.09164967387914658
190,1,32,4,0.31888243556022644,0.074490025639534
190,1,32,5,0.3496871590614319,0.06048935279250145
190,1,32,6,0.512267529964447,0.06979788094758987
190,1,32,7,0.4647713899612427,0.08805684745311737
190,1,32,8,0.42285147309303284,0.04510562866926193
190,1,32,9,0.435306578874588,0.05604574829339981
190,1,32,10,0.628677248954773,0.08702972531318665
190,1,32,11,0.5664618611335754,0.09916197508573532
190,1,32,12,0.48711705207824707,0.07918240875005722
190,1,32,13,0.4709043800830841,0.04830353334546089
190,1,32,14,0.5034868717193604,0.12341814488172531
190,1,32,15,0.5270184278488159,0.06925208121538162
190,1,32,16,0.37587928771972656,0.07997727394104004
190,1,32,17,0.48400619626045227,0.13171792030334473
190,1,32,18,0.6867836713790894,0.06886886060237885
190,1,32,19,0.6468076705932617,0.05730004608631134
190,1,32,20,0.5635766983032227,0.0963541567325592
190,1,32,21,0.5730512142181396,0.02227012999355793
190,1,32,22,0.43060117959976196,0.08231241255998611
190,1,32,23,0.6370753645896912,0.04714635759592056
190,1,32,24,0.35415080189704895,0.0814843624830246
190,1,32,25,0.3358181118965149,0.07961631566286087
190,1,32,26,0.393591046333313,0.06727471947669983
190,1,32,27,0.5988832712173462,0.048720117658376694
190,1,32,28,0.3431266248226166,0.09785730391740799
190,1,32,29,0.561071515083313,0.06085579842329025
190,1,32,30,0.5123546123504639,0.07815547287464142
190,1,32,31,0.4081646800041199,0.09785158932209015
190,2,64,0,0.43574047088623047,0.10973483324050903
190,2,64,1,0.4416810870170593,0.22619977593421936
190,2,64,2,0.5015197992324829,0.12635906040668488
190,2,64,3,0.5949812531471252,0.12043062597513199
190,2,64,4,0.5293752551078796,0.15323203802108765
190,2,64,5,0.6332006454467773,0.0680549219250679
190,2,64,6,0.3575495183467865,0.0931759774684906
190,2,64,7,0.5164966583251953,0.12504492700099945
190,2,64,8,0.5661439895629883,0.07906188815832138
190,2,64,9,0.5261403918266296,0.05656357854604721
190,2,64,10,0.5221164226531982,0.16126619279384613
190,2,64,11,0.4434758424758911,0.08788419514894485
190,2,64,12,0.5122761130332947,0.15782803297042847
190,2,64,13,0.7324340343475342,0.10767077654600143
190,2,64,14,0.39430058002471924,0.08357622474431992
190,2,64,15,0.3706909120082855,0.09370943903923035
190,2,64,16,0.5334230661392212,0.1909368634223938
190,2,64,17,0.43432873487472534,0.09557401388883591
190,2,64,18,0.3043767213821411,0.12047795951366425
190,2,64,19,0.49666544795036316,0.09198255091905594
190,2,64,20,0.3898128569126129,0.09754788130521774
190,2,64,21,0.5148489475250244,0.10612475872039795
190,2,64,22,0.6933157444000244,0.11962421983480453
190,2,64,23,0.43823865056037903,0.12271783500909805
190,2,64,24,0.5416703224182129,0.17008861899375916
190,2,64,25,0.29391562938690186,0.10970144718885422
190,2,64,26,0.49021753668785095,0.09303972870111465
190,2,64,27,0.5336390733718872,0.08773145079612732
