epoch,train_ce,train_coral,val_loss,best,subject,coral_lambda
1,0.9296168011777541,0.0008042389098965727,0.6388188848327826,1,1,0.1
2,0.8162356909583597,0.0007059055931783994,0.5318899334031769,1,1,0.1
3,0.77807676932391,0.0005928463764790007,0.591412382757035,0,1,0.1
4,0.7436282382291906,0.0005503395158003139,0.576894672358295,0,1,0.1
5,0.716133786650265,0.0006161119768341236,0.5149028711752907,1,1,0.1
6,0.7004768715185278,0.0007324953679926693,0.5470092186883415,0,1,0.1
7,0.6790020178346073,0.0009488368749289828,0.47963420028153964,1,1,0.1
8,0.6578820789561552,0.0009196693625520257,0.5287098409964356,0,1,0.1
9,0.6523363092366387,0.00095795258975533,0.4920281367809844,0,1,0.1
10,0.62832152001998,0.0009462827227680998,0.5080285597488577,0,1,0.1
11,0.6199759094154134,0.0009629932780037908,0.49452540891740043,0,1,0.1
12,0.608761676269419,0.0008045820810366422,0.4744792899276749,1,1,0.1
13,0.5982364153160769,0.0008747696404016632,0.5089159411259743,0,1,0.1
14,0.5852276518064387,0.0008662237641949425,0.43345164346596327,1,1,0.1
15,0.575925658380284,0.0007966386708978783,0.4852410929649298,0,1,0.1
16,0.5614870611359092,0.0007520707382354886,0.4550371639731012,0,1,0.1
17,0.5506639988983378,0.0007946604174589191,0.4336055597326995,0,1,0.1
18,0.5404596903744866,0.0007840011963922092,0.44856836260782773,0,1,0.1
19,0.5308088772437152,0.0006890361611594392,0.4669333247635456,0,1,0.1
20,0.5130573882776148,0.0007245880038039211,0.39030978542819017,1,1,0.1
21,0.5041995693655575,0.0006894451661911957,0.4283600616603011,0,1,0.1
22,0.4948645696920507,0.000708397536415278,0.42103665358278103,0,1,0.1
23,0.49947018483105826,0.0006743869097109007,0.4001233592521565,0,1,0.1
24,0.480872499592164,0.0006900703822098235,0.40350008035519747,0,1,0.1
25,0.4677647250540116,0.0007130278668174629,0.3604286239706866,1,1,0.1
26,0.4581019012367024,0.0006613796570009607,0.3864360093577325,0,1,0.1
27,0.4501499789602616,0.0007238472599590965,0.38213299952963636,0,1,0.1
28,0.44039270807715025,0.000736062040360754,0.4004978737885358,0,1,0.1
29,0.4348094396731433,0.0007233767852406291,0.35699877941127645,1,1,0.1
30,0.4335810836623697,0.000713708986843224,0.3827168768909379,0,1,0.1
31,0.4260038326768314,0.0006997716681593481,0.3546960176331797,1,1,0.1
32,0.4101837322992437,0.0007264286063967602,0.3642403014320129,0,1,0.1
33,0.40690171122550967,0.0007440183352788581,0.3638363539124719,0,1,0.1
34,0.4085502200266894,0.0007421437240041354,0.34227878052544813,1,1,0.1
35,0.39387405164101547,0.00070496050928555,0.3571571789705026,0,1,0.1
36,0.3953596805824953,0.0007201568990507546,0.3626964805414659,0,1,0.1
37,0.39592303212951213,0.0007282011772451155,0.362594859491583,0,1,0.1
38,0.39317549852763906,0.0007175624014481026,0.3516051871576871,0,1,0.1
39,0.38462280911557817,0.000714731083580238,0.34966743738229666,0,1,0.1
40,0.3962606023339664,0.000706015041043215,0.35435260741392605,0,1,0.1
1,0.9264537404565251,0.0004110788780963048,0.5862130512435529,1,2,0.1
2,0.8265796591253841,0.00038208281535737434,0.5602416441275293,1,2,0.1
3,0.7794667601585388,0.00036479367528740756,0.6756744888713824,0,2,0.1
4,0.755888020992279,0.000408113729688065,0.5361401831922278,1,2,0.1
5,0.7330033414504107,0.00042349487895776026,0.4940108958909078,1,2,0.1
6,0.7102165123995613,0.00040804018910207295,0.5284911706971219,0,2,0.1
7,0.6901098118108862,0.0004767500185955535,0.48959107003032964,1,2,0.1
8,0.6716060603366178,0.00040631491129341374,0.47845578312313475,1,2,0.1
9,0.6637439790894003,0.00040625327725566046,0.45103652616898465,1,2,0.1
10,0.6494522767908433,0.00042664171658757634,0.5335076175044948,0,2,0.1
11,0.6332232201800627,0.000421817389981109,0.4849186483537123,0,2,0.1
12,0.6221289711840012,0.0003775431000737145,0.42545783617427724,1,2,0.1
13,0.619343797599568,0.00036079738484284677,0.4572418405080915,0,2,0.1
14,0.5852773056310766,0.0003603819596772904,0.41820682434664874,1,2,0.1
15,0.5843993649763219,0.0003483647764797377,0.42313874283332326,0,2,0.1
16,0.5550412682925954,0.0003284193910932278,0.3947736790632921,1,2,0.1
17,0.5525484316489275,0.00033273673599229796,0.3894475123524117,1,2,0.1
18,0.5379923199906068,0.0003637661325389191,0.38229863250322677,1,2,0.1
19,0.5255867200739244,0.0003797641270520056,0.3744536469673586,1,2,0.1
20,0.5183215751367457,0.00038262587725458776,0.383919596649186,0,2,0.1
21,0.5035983748295728,0.000356774267685764,0.41533852304360785,0,2,0.1
22,0.4923631110612084,0.00036439493757343906,0.35625367945960246,1,2,0.1
23,0.48599229174501757,0.00037235953803995954,0.3480574440041423,1,2,0.1
24,0.4722614158602322,0.00036315257089239927,0.33175291286828607,1,2,0.1
25,0.469482766530093,0.00037646762947962783,0.36995995228637907,0,2,0.1
26,0.4588185646954705,0.00036230781629188535,0.3416059240050772,0,2,0.1
27,0.4519785299020655,0.0003606123103321913,0.33546593904363725,0,2,0.1
28,0.44628126551123226,0.000368615473374067,0.33822827186339205,0,2,0.1
29,0.4344391314422383,0.00036004325717358906,0.3168450351018267,1,2,0.1
30,0.42422775205443886,0.00035116216527325485,0.32212602730719414,0,2,0.1
31,0.42312119252541486,0.0003932541876565665,0.32070224383551926,0,2,0.1
32,0.40641457368345824,0.00039295113238040357,0.315679544857428,1,2,0.1
33,0.4105629142592935,0.00037904691005892613,0.31295916679450836,1,2,0.1
34,0.40337893962860105,0.0003525871538680375,0.310781943916047,1,2,0.1
35,0.3971264232607449,0.00036969984614509434,0.3156520427440775,0,2,0.1
36,0.39316227926927455,0.0003913601483766209,0.31424465208238356,0,2,0.1
37,0.38909833290997675,0.00035726493138902107,0.31459342029653764,0,2,0.1
38,0.3826893320854972,0.00036429418233798486,0.308390157540746,1,2,0.1
39,0.39281513059840484,0.00034726396689246247,0.30928236903967254,0,2,0.1
40,0.3934653548633351,0.00034657234791666267,0.309755498764955,0,2,0.1
1,0.9337920298178991,0.0007153204288832578,0.5696079990436338,1,3,0.1
2,0.8073210368553797,0.0008041956389206462,0.6166456775777291,0,3,0.1
3,0.76824418703715,0.0007626128828546609,0.5471972130517603,1,3,0.1
4,0.7400232886984235,0.0008190187765562552,0.5199192646080101,1,3,0.1
5,0.7265252116180602,0.0007090527312053988,0.5830261617870367,0,3,0.1
6,0.7058469844715936,0.0006422542466593551,0.5750472369895799,0,3,0.1
7,0.6877504324629193,0.0006359825021631661,0.5115588422961111,1,3,0.1
8,0.6682572996332532,0.0005847686257939564,0.49311864713237247,1,3,0.1
9,0.6559371607644218,0.0005643208312990499,0.4478020564164548,1,3,0.1
10,0.6339983195066452,0.0005692797404619688,0.4894875682040349,0,3,0.1
11,0.6246630606197175,0.0005119907322555914,0.47653012814880674,0,3,0.1
12,0.6088445803948811,0.0004830273735154021,0.4721774548463602,0,3,0.1
13,0.5993616233269373,0.0004067088299225794,0.4554047780406098,0,3,0.1
14,0.5704666113569623,0.0004056324223278179,0.45255678697834767,0,3,0.1
15,0.5663848842183749,0.000424402151977466,0.42632557264567567,1,3,0.1
16,0.5518769873749643,0.00040572808852413713,0.43510071130349787,0,3,0.1
17,0.5293877295085362,0.0004646155944750977,0.43232768976905545,0,3,0.1
18,0.5260556024454889,0.0004231814787739755,0.45787378192690853,0,3,0.1
19,0.5056587347672099,0.0003839321486468959,0.45957280898311337,0,3,0.1
20,0.49621460941575823,0.00038108724800709056,0.4371051916054317,0,3,0.1
21,0.4894088850844474,0.000428007713275119,0.43257885048396294,0,3,0.1
22,0.4749633009944643,0.0004530474450023446,0.38291744996408716,1,3,0.1
23,0.47712119065579917,0.00046578037948901986,0.4009686502862868,0,3,0.1
24,0.46103027072690783,0.0004404016491164276,0.37189375724168433,1,3,0.1
25,0.44976511207364855,0.0003816522051541445,0.40396144218235663,0,3,0.1
26,0.45090755607400623,0.0004488983397008962,0.3859185653159168,0,3,0.1
27,0.4267446466145061,0.0004247994514852984,0.3567747557580414,1,3,0.1
28,0.42463745673497516,0.0004295485947902004,0.3652054316802656,0,3,0.1
29,0.4160062706186658,0.00042688742178143,0.4119479811803035,0,3,0.1
30,0.4151712074166253,0.00042688459957606115,0.39589997078091166,0,3,0.1
31,0.40701137021893546,0.0004154536301419804,0.3612333247411285,0,3,0.1
32,0.3970373421907425,0.00043141061420707655,0.34497484310475657,1,3,0.1
33,0.39648861970220295,0.0004286736343818207,0.3826036387884834,0,3,0.1
34,0.38741888850927353,0.00040875876826855045,0.3637439870380029,0,3,0.1
35,0.3858441508242062,0.00045055867494305684,0.3612722620039407,0,3,0.1
36,0.38305815238328206,0.0004502461202459277,0.3740775152783723,0,3,0.1
37,0.3806832028286798,0.0004579942327663524,0.3679153307172276,0,3,0.1
38,0.38255610033160165,0.0004500313090310166,0.35953583426180646,0,3,0.1
39,0.3824996769073464,0.00046846313108246597,0.3663195269262688,0,3,0.1
1,0.9427619962131276,0.0005467511391650667,0.5782412439272829,1,4,0.1
2,0.8274098220993491,0.00048115657255573964,0.5331621850538104,1,4,0.1
3,0.7882685689365163,0.00045322798096629626,0.5305618895271385,1,4,0.1
4,0.7646417449502384,0.0004382814159137471,0.5135578810700816,1,4,0.1
5,0.7352987815352047,0.0005244138152407044,0.5250695150351412,0,4,0.1
6,0.7191453162361594,0.000686863182208446,0.4883551281013768,1,4,0.1
7,0.7022828578948974,0.0005862325049854596,0.46794584653550325,1,4,0.1
8,0.6982664872618283,0.0005012978248380344,0.479429887433223,0,4,0.1
9,0.6689394586226519,0.0004632282007471932,0.4255498900058256,1,4,0.1
10,0.6620421044966753,0.0003976565849049674,0.4471562939600006,0,4,0.1
11,0.6460206827696632,0.0004252451441168566,0.4428134790925316,0,4,0.1
12,0.6307335432837992,0.0003604488111758495,0.40616499813890533,1,4,0.1
13,0.6153531628496507,0.0003447498277048854,0.41173927106395997,0,4,0.1
14,0.5963432403171763,0.0003255309465149527,0.3893099022490201,1,4,0.1
15,0.5763989266227273,0.0002725968839299372,0.4090948543140459,0,4,0.1
16,0.5591614162220674,0.000295381951967583,0.3849140645079373,1,4,0.1
17,0.5461108526762795,0.0002668495134190273,0.38275570719108604,1,4,0.1
18,0.5349618157919716,0.0002649560596396708,0.3842770439723223,0,4,0.1
19,0.5242999970912934,0.0002609690002453349,0.35283505704111606,1,4,0.1
20,0.5163566417553845,0.0002713170287760851,0.3766853472306615,0,4,0.1
21,0.49101321136250214,0.0002940880593515056,0.3635456182163994,0,4,0.1
22,0.49208050580585705,0.00026556964987642406,0.32961095869736107,1,4,0.1
23,0.4848650707918055,0.00024505072523264544,0.36123881521203455,0,4,0.1
24,0.4674806437071632,0.00027263708830372815,0.3406802055950816,0,4,0.1
25,0.45801794248468736,0.0002886064679307096,0.33497443507473734,0,4,0.1
26,0.4480134981520036,0.0003158927581834552,0.3319412592285781,0,4,0.1
27,0.4482031247195076,0.0002998452411060605,0.3700125590142219,0,4,0.1
28,0.43489662093274734,0.0002852859995875727,0.34762895198890764,0,4,0.1
29,0.4292431196745704,0.0003237727762419073,0.3497118064495265,0,4,0.1
1,0.9298983461716596,0.0006914507696980282,0.491725251265259,1,5,0.1
2,0.8254685373867259,0.0007554823484764817,0.46618081868814776,1,5,0.1
3,0.7887302994728088,0.0007454905842143275,0.4456009746904413,1,5,0.1
4,0.7493806817952324,0.0006767529329997213,0.41477303842319824,1,5,0.1
5,0.7347032504923203,0.0006095857953529476,0.4048889076068904,1,5,0.1
6,0.7086353365112753,0.0005179415987667573,0.4006374736232897,1,5,0.1
7,0.692598392682917,0.0004610971682910424,0.3831110572236316,1,5,0.1
8,0.665884103494532,0.00047614623926004726,0.4214935299545713,0,5,0.1
9,0.656172733447131,0.0005286478153292966,0.3902740671546325,0,5,0.1
10,0.6322395352756276,0.0005058395972489105,0.3783188807721676,1,5,0.1
11,0.6187570736688726,0.00048360303335357455,0.36974368676823216,1,5,0.1
12,0.6018165192183327,0.00043260494798339687,0.3542659561575579,1,5,0.1
13,0.5891669410116532,0.00047151537831215297,0.37365629693536023,0,5,0.1
14,0.5827280240900377,0.0004657845776391161,0.3534215009753789,1,5,0.1
15,0.5676147860639236,0.0004325884015997872,0.3424361657607904,1,5,0.1
16,0.5577549015774447,0.00043522790399626554,0.3350461055612141,1,5,0.1
17,0.5471707989187802,0.00045297712580684354,0.3290853204053976,1,5,0.1
18,0.5328861141906065,0.0004521160420742543,0.3248031939105724,1,5,0.1
19,0.522418880112031,0.00045954954591305815,0.317306876073675,1,5,0.1
20,0.5098212673383601,0.00046870902194367614,0.3262188802930159,0,5,0.1
21,0.4899867155972649,0.0004659880394362571,0.30736376062066667,1,5,0.1
22,0.482117421837414,0.000450789910631583,0.32963764948268776,0,5,0.1
23,0.4733195473166073,0.0004404112039243474,0.3014953067771204,1,5,0.1
24,0.4649398446083069,0.0004654523844638949,0.29088319875377705,1,5,0.1
25,0.4568686579956728,0.0004431039009325425,0.30805889473516407,0,5,0.1
26,0.4423932299894445,0.0004909834434168742,0.29118938241659476,0,5,0.1
27,0.4342979234807632,0.0004657926594304359,0.28732502113615543,1,5,0.1
28,0.4193963447037865,0.0004523097725776846,0.2949573087791809,0,5,0.1
29,0.4185242344351376,0.00046139851705554656,0.29033922082073754,0,5,0.1
30,0.41736999609891107,0.00048145058270379463,0.28854018002592946,0,5,0.1
31,0.4054879458511577,0.0004516828996951089,0.2912537606903556,0,5,0.1
32,0.3994079309351304,0.00047376574674511655,0.28599427313794673,1,5,0.1
33,0.39499348752638874,0.0004814279971041662,0.2852379092188369,1,5,0.1
34,0.3877200508818907,0.0005015452556750353,0.2890995876991923,0,5,0.1
35,0.38711012181113746,0.0005198085516252938,0.2849420552338339,1,5,0.1
36,0.3815996517153347,0.0004980228478362893,0.2880058808637188,0,5,0.1
37,0.38017268601585835,0.0004954840121653807,0.2837750093937542,1,5,0.1
38,0.3779484345632441,0.0004900657458860865,0.2830243400125016,1,5,0.1
39,0.3769733351819656,0.0004980725434827893,0.28016321095861574,1,5,0.1
40,0.37398819397477545,0.0004995972685077611,0.27867297788533635,1,5,0.1
1,0.934904735712778,0.0006733690877029273,0.7724777830647981,1,6,0.1
2,0.8183785329262415,0.00047408507799402634,0.6309477430079409,1,6,0.1
3,0.7675910258576983,0.000577434687112968,0.6835142339318955,0,6,0.1
4,0.7415266732374827,0.0005583179365549725,0.6135920647980272,1,6,0.1
5,0.7128806327070508,0.0005125116974037761,0.6329159101173045,0,6,0.1
6,0.6894005934397379,0.0005862979128973425,0.5698738273967702,1,6,0.1
7,0.6688364935772759,0.0006393541209815469,0.593994503315559,0,6,0.1
8,0.6501413931449255,0.0005662421875361664,0.5408777377132146,1,6,0.1
9,0.6406820423546291,0.0005089413203850633,0.5690477628716184,0,6,0.1
10,0.6261478098375457,0.0005989813402092771,0.4966262952936893,1,6,0.1
11,0.6064461118408612,0.0005704510573802205,0.5243087530648188,0,6,0.1
12,0.5969276335977373,0.0004844892277365683,0.5155816521743449,0,6,0.1
13,0.5824514159134456,0.0005430004377904836,0.5197286710666065,0,6,0.1
14,0.5749380137948763,0.0004948391021268131,0.4934501869360209,1,6,0.1
15,0.5577513032725879,0.0004932402951540315,0.4995182818153661,0,6,0.1
16,0.5468521898701078,0.0004277884105422778,0.4635429601615162,1,6,0.1
17,0.5382074617913791,0.00048645074708647806,0.41984265330110254,1,6,0.1
18,0.5189612199153218,0.0005036915276182949,0.40674111829598936,1,6,0.1
19,0.5042585617020017,0.00043812964871730876,0.42959453484185117,0,6,0.1
20,0.5011158840996879,0.00042614270136081834,0.43203454070672115,0,6,0.1
21,0.504291414859749,0.0003793060397064047,0.4178106453966112,0,6,0.1
22,0.4713229320588566,0.0004125380868832248,0.4063297112704108,1,6,0.1
23,0.4725112702165331,0.0004395423969808256,0.42412062645738874,0,6,0.1
24,0.46254910564138774,0.00044672763345131116,0.3936740388025108,1,6,0.1
25,0.4515992080171903,0.00044299836493640515,0.3969538000293345,0,6,0.1
26,0.45050656156880514,0.0004912370388324018,0.3991198846409808,0,6,0.1
27,0.4332531832513355,0.0004726230271487674,0.40502326792619475,0,6,0.1
28,0.4387184700795582,0.0004807418646080242,0.3975486897436941,0,6,0.1
29,0.41778014813150677,0.0005018836305853689,0.39650558282889276,0,6,0.1
30,0.4126467193875994,0.00049124929951393,0.3720747494889419,1,6,0.1
31,0.41202268146333243,0.0004982737473688931,0.38463795326206157,0,6,0.1
32,0.3989821420538993,0.000529069198819343,0.38859205642434086,0,6,0.1
33,0.3953218020143963,0.0005016523791709915,0.3649193442124958,1,6,0.1
34,0.3944693392231351,0.0005004611763676318,0.373621301339631,0,6,0.1
35,0.38824221456334707,0.0005247584454731882,0.3767660965458877,0,6,0.1
36,0.38696409619989847,0.0005661373555388612,0.37494965033869454,0,6,0.1
37,0.38342190427439554,0.0005418939849949398,0.36841981969692056,0,6,0.1
38,0.37630649585099446,0.0005567801448965579,0.3736537241892421,0,6,0.1
39,0.38674909869829815,0.0005333944832922757,0.37269463182102175,0,6,0.1
40,0.38025123306683134,0.0005368781269117747,0.37107194061889287,0,6,0.1
1,0.9254868172463917,0.0010780023031180636,0.5263895806919211,1,7,0.1
2,0.8263865240982601,0.0010652968634357897,0.46612738138961607,1,7,0.1
3,0.7691539440836225,0.0010440262814795243,0.46992039588832063,0,7,0.1
4,0.7424432386954626,0.0010024755056725727,0.5046250971763983,0,7,0.1
5,0.7233372536443529,0.0008814863142019714,0.4502324713113348,1,7,0.1
6,0.6892124222857612,0.0009430567498341025,0.45219705558909823,0,7,0.1
7,0.6675634589933214,0.0008576219067132721,0.4308837605396108,1,7,0.1
8,0.6359755432321912,0.000747049302541806,0.40812488348642945,1,7,0.1
9,0.6180224063850585,0.0007231587993114122,0.4078718175989715,1,7,0.1
10,0.6056426323595501,0.0006749121069636507,0.40197893323938627,1,7,0.1
11,0.5883610582067853,0.0006341324440741335,0.39874376753138374,1,7,0.1
12,0.578422887694268,0.0005972552161048432,0.38124255527836,1,7,0.1
13,0.5554708341757456,0.0005070003050301845,0.36440966172607997,1,7,0.1
14,0.5490308545884632,0.0004926232854597315,0.36429531253733727,1,7,0.1
15,0.5415645216902097,0.00047224338015352954,0.35468675808502276,1,7,0.1
16,0.5181861902986254,0.000552611514909326,0.3840918354735717,0,7,0.1
17,0.5219311597091811,0.0005134703612947348,0.3466404959344011,1,7,0.1
18,0.5058806403761819,0.0004565213717536868,0.35855985117203987,0,7,0.1
19,0.494075127300762,0.00042055562066490806,0.36103283347554194,0,7,0.1
20,0.4670610690400714,0.0004933090915853557,0.3673595272021035,0,7,0.1
21,0.47707284419309526,0.0004657908880506598,0.33101449177286196,1,7,0.1
22,0.4602572712160292,0.0003953279928758829,0.3239538094553256,1,7,0.1
23,0.4625293875024432,0.0004329259806711759,0.31530372997806577,1,7,0.1
24,0.4391155420314698,0.0004257068637040599,0.33656905303396334,0,7,0.1
25,0.43618184399037135,0.00042689551559132744,0.32380780623210204,0,7,0.1
26,0.4225930337394987,0.0004157953893203133,0.3308139690119272,0,7,0.1
27,0.4192000176934969,0.0004392249308390698,0.33247619902925496,0,7,0.1
28,0.41559352690265294,0.0003792201347269362,0.3111295514329045,1,7,0.1
29,0.40533828025772456,0.000406687058698264,0.31427015495983823,0,7,0.1
30,0.40626562528667,0.0003997760144383868,0.32004461592646155,0,7,0.1
31,0.39145198961098987,0.00044532976902527955,0.33944825927027006,0,7,0.1
32,0.3949898066265242,0.00042227190611551383,0.30927677274013204,1,7,0.1
33,0.38352265173480626,0.0003982405580158922,0.31236253405312525,0,7,0.1
34,0.3799765212904839,0.0004427387681235338,0.320103431948915,0,7,0.1
35,0.3725138413054602,0.0004245534808086675,0.3168395826028451,0,7,0.1
36,0.37395571704421726,0.00043902369465545883,0.3198138689724977,0,7,0.1
37,0.37802671268582344,0.00042100535280215333,0.3203251923561549,0,7,0.1
38,0.36385678056450116,0.0004132492814235212,0.32210748900011954,0,7,0.1
39,0.3680166641161555,0.00042242442577844486,0.3192162112750732,0,7,0.1
1,0.9349088576577959,0.001155838019691319,0.556897857023893,1,8,0.1
2,0.8109034562394732,0.00086949900841795,0.5777684486942527,0,8,0.1
3,0.7840374360481898,0.0008395073171067495,0.5066914562585234,1,8,0.1
4,0.7502414016496568,0.0008268580824646744,0.5289430102193684,0,8,0.1
5,0.7247931481826873,0.0009570338529773012,0.5128997734129599,0,8,0.1
6,0.7066278677611124,0.0011765430203273094,0.5019322913016236,1,8,0.1
7,0.6968516899006707,0.0009758138985489495,0.4868901233982157,1,8,0.1
8,0.6679560549202419,0.0009238347868501608,0.5209470943875915,0,8,0.1
9,0.6662481817461195,0.0007799362640417669,0.5096013711133913,0,8,0.1
10,0.6495654391390937,0.00071467857508521,0.4421518730655921,1,8,0.1
11,0.6411142384722119,0.0007176438441439089,0.4603623546737778,0,8,0.1
12,0.6175903273480279,0.0006448814296856567,0.45005384842880203,0,8,0.1
13,0.6084664967798051,0.0006441905743919225,0.4574942918810976,0,8,0.1
14,0.6056942833321435,0.0006234369693196467,0.4054705945302618,1,8,0.1
15,0.57965899258852,0.000614567061434389,0.4208453555059852,0,8,0.1
16,0.5666555496198791,0.0005713368698793818,0.44593989847675464,0,8,0.1
17,0.551106795668602,0.0005876849399577449,0.3954450121080434,1,8,0.1
18,0.5516410991549492,0.0005470568337061975,0.37008581343058283,1,8,0.1
19,0.5313175246119499,0.0005518589172251744,0.37682722893818604,0,8,0.1
20,0.5141561293885821,0.0004983690856274084,0.3976112698016428,0,8,0.1
21,0.5056721390712828,0.0004894064512059447,0.3998880279192954,0,8,0.1
22,0.49641309607596623,0.0004798455982901422,0.3827343223703157,0,8,0.1
23,0.48706585204317454,0.0005011952368173903,0.3656091452713309,1,8,0.1
24,0.47152727168230785,0.00046999138326750005,0.3719172958825898,0,8,0.1
25,0.46556796027081354,0.0004912828593487142,0.3702471133317986,0,8,0.1
26,0.4471742141814459,0.00047960553257282647,0.36594479938602853,0,8,0.1
27,0.4456768915766761,0.000488487682430007,0.3780456820409126,0,8,0.1
28,0.4414742525134768,0.0005022347284552996,0.35976125895340216,1,8,0.1
29,0.43132580710308893,0.00047477928005502603,0.3464797394436847,1,8,0.1
30,0.42814488744451884,0.0004852926124710523,0.36564203430628733,0,8,0.1
31,0.41424874358233954,0.00048218277862317684,0.34722210242565993,0,8,0.1
32,0.4032103940844536,0.0005122087310328858,0.35400072853845976,0,8,0.1
33,0.39840995981579735,0.0004772623575436661,0.3524038268276203,0,8,0.1
34,0.39388205607732135,0.0005094695315208463,0.35013079937947217,0,8,0.1
35,0.4056065589899108,0.0004750365073310344,0.34700208721578063,0,8,0.1
36,0.3875372871046975,0.0004754970539666136,0.34687230099215466,0,8,0.1
1,0.9294117965868541,0.0008183619987297183,0.5365933154034503,1,9,0.1
2,0.8190142675524666,0.0006051742329007192,0.5392006533594592,0,9,0.1
3,0.7763246354602632,0.0006847704037985144,0.49018294642439963,1,9,0.1
4,0.7404841929674149,0.0006471135600891319,0.49450074969833346,0,9,0.1
5,0.7198484192291895,0.0005430196082064261,0.48433227569327614,1,9,0.1
6,0.6880931634278524,0.0005721069187746339,0.4510088993141385,1,9,0.1
7,0.6618938041584832,0.0005707288108256069,0.4292669524373255,1,9,0.1
8,0.6481005946795145,0.000496455337270163,0.40344823389283124,1,9,0.1
9,0.6232233427110172,0.0004582791807479225,0.42354964949181434,0,9,0.1
10,0.6170664188407716,0.0005022935819440699,0.4434563228509272,0,9,0.1
11,0.607178828545979,0.00047319302151057247,0.42640698892687645,0,9,0.1
12,0.5833963517631803,0.0004488242370176262,0.36626792386530477,1,9,0.1
13,0.5591770023817108,0.00047713301249868457,0.4244626851461778,0,9,0.1
14,0.5574073266415369,0.0004511632547031955,0.3821017242892787,0,9,0.1
15,0.5406303263845897,0.00042491555775216384,0.37841740424868975,0,9,0.1
16,0.5199235816087041,0.00038776306090377536,0.3710569694458278,0,9,0.1
17,0.5135994134914308,0.0004054735990870367,0.38441800825446587,0,9,0.1
18,0.5021189944375128,0.00038276791885783455,0.38891177105292446,0,9,0.1
19,0.4906162310923849,0.00037864117881066965,0.3444299314419918,1,9,0.1
20,0.47315221350817455,0.00036958061883481043,0.3817722052849952,0,9,0.1
21,0.4643364591257913,0.00033640219407971017,0.37002326629639026,0,9,0.1
22,0.4618426188826561,0.00034064081462150043,0.368218839811315,0,9,0.1
23,0.44998284926017124,0.0003356467088798083,0.324590756568212,1,9,0.1
24,0.44035303841034573,0.0003282104936217712,0.34854147542660124,0,9,0.1
25,0.4333568765293984,0.0003430315427110708,0.3412012665883526,0,9,0.1
26,0.43442303793770926,0.0003338391023654757,0.37809997056912753,0,9,0.1
27,0.4117378741502762,0.00033281341269944927,0.35325502140168813,0,9,0.1
28,0.41349021806603387,0.00032787384372481724,0.38866510209718125,0,9,0.1
29,0.406251392194203,0.0003224649226467591,0.34857587330456524,0,9,0.1
30,0.39279154652640935,0.0003244492874641548,0.34512932867450846,0,9,0.1
1,0.9160799124661614,0.0011147854555233875,0.6687111958556785,1,10,0.1
2,0.8144898814313551,0.0008035927456255783,0.6314231090373593,1,10,0.1
3,0.7574141418232637,0.0008222858911133645,0.6270895523387857,1,10,0.1
4,0.7358844315304476,0.0007468093135257197,0.6536473091687033,0,10,0.1
5,0.7164689239333658,0.0006512082335950039,0.5988934393779455,1,10,0.1
6,0.6955356969552882,0.0006015818343525205,0.6124625698938955,0,10,0.1
7,0.6678898155689239,0.0005639797388165093,0.5858113181251123,1,10,0.1
8,0.6543730118695428,0.0006462285866933492,0.5200317649087565,1,10,0.1
9,0.6295770978226382,0.0005447922185446848,0.5446780320015364,0,10,0.1
10,0.6136781419024748,0.0004917377489618957,0.5821686247864246,0,10,0.1
11,0.601845545277876,0.0005042248295948786,0.5082039527356279,1,10,0.1
12,0.5874955201850218,0.0005249789232894888,0.5583357679804046,0,10,0.1
13,0.5704049040289486,0.000478877973578432,0.5116821714695012,0,10,0.1
14,0.5598906853619744,0.00046842168153756684,0.4877983974483228,1,10,0.1
15,0.535339230298996,0.00047938715570661075,0.5358005689060842,0,10,0.1
16,0.5325983990641201,0.0004936413969570661,0.5013772994044857,0,10,0.1
17,0.5168435117777657,0.0004933178507010727,0.534008906707224,0,10,0.1
18,0.4968138796441695,0.0004169575791285538,0.4839157454496512,1,10,0.1
19,0.49562546610832214,0.00038924929566051374,0.49144046994477486,0,10,0.1
20,0.486721094566233,0.0004632074077723219,0.4853084096762603,0,10,0.1
21,0.47785524550606223,0.000467784349423121,0.5182221918732282,0,10,0.1
22,0.47129873773630926,0.00044871011837933434,0.5267856143059647,0,10,0.1
23,0.45774986147880553,0.0004380789403940606,0.46330007054560296,1,10,0.1
24,0.45406530639704534,0.0004232890178065966,0.43745026418127525,1,10,0.1
25,0.4408451704417958,0.0004077851587413427,0.528132017318337,0,10,0.1
26,0.42975301391938153,0.00040628906846156015,0.4573383578232088,0,10,0.1
27,0.4252037398955401,0.00043166894123286884,0.4783200653264717,0,10,0.1
28,0.4088604681632098,0.0003953689365195768,0.47295996198750734,0,10,0.1
29,0.4073407762190875,0.00039111448653891465,0.45948766407594666,0,10,0.1
30,0.4073404396281523,0.0003833534594912849,0.48085539431083,0,10,0.1
31,0.3949277842746061,0.0003729210310506032,0.47934305191476206,0,10,0.1
1,0.9236517124865429,0.0009862402368460345,0.6884809972286005,1,11,0.1
2,0.8131779410752905,0.000699279097179568,0.672894670995469,1,11,0.1
3,0.76481854053865,0.0005834023285859141,0.60624255409123,1,11,0.1
4,0.7409230614282999,0.0005718788022669144,0.5894203792602498,1,11,0.1
5,0.7083304007369352,0.0005554514314701602,0.5052977962050643,1,11,0.1
6,0.6930557266775385,0.000509605661815829,0.5563770588702274,0,11,0.1
7,0.6699154894035982,0.0004793764042937343,0.5197778598512435,0,11,0.1
8,0.6532750273325357,0.00044869219008356287,0.5192403225327039,0,11,0.1
9,0.625178331352142,0.00044988041637740266,0.5276581165417307,0,11,0.1
10,0.6082737560731819,0.00040835247435382603,0.49444369240103087,1,11,0.1
11,0.5965529080614986,0.00036889375892260214,0.534089209055455,0,11,0.1
12,0.5870614507830286,0.00032616295944338283,0.46358397864853945,1,11,0.1
13,0.5719492198473,0.0003923721517175324,0.5460074049247455,0,11,0.1
14,0.5610039334699332,0.0004004456515912056,0.47913153075630704,0,11,0.1
15,0.550472180886441,0.0003899926663704598,0.5151294598112637,0,11,0.1
16,0.5290736965386265,0.0003635145130171721,0.5132041869046408,0,11,0.1
17,0.5190420387739159,0.00035551011247465005,0.4729064872026801,0,11,0.1
18,0.5179988063243498,0.00033455903740762453,0.5000849405710165,0,11,0.1
19,0.49369360416768543,0.000307584731069573,0.5055875924631203,0,11,0.1
1,0.9293759964233221,0.0006038523800292074,0.6596197327547588,1,12,0.1
2,0.81708275024281,0.0007056877593006289,0.6377032659742509,1,12,0.1
3,0.7793990879557854,0.0008493025535392727,0.5681323777995141,1,12,0.1
4,0.7587441711924797,0.000856008376928891,0.5126583229754502,1,12,0.1
5,0.734762977029002,0.0008312355057569221,0.5808679025205388,0,12,0.1
6,0.7174909198006918,0.0006861406991658949,0.5481837485498998,0,12,0.1
7,0.6879977722500645,0.0007451236607414822,0.50037978554623,1,12,0.1
8,0.6626672460589298,0.0007093103195074946,0.5007616586309612,0,12,0.1
9,0.6404152900673622,0.000743899796277198,0.4593211870472118,1,12,0.1
10,0.6258923730184865,0.0007566355475424897,0.4508332759080313,1,12,0.1
11,0.6042197873426038,0.0006439178504542512,0.4867378203845208,0,12,0.1
12,0.5908199274955794,0.0005667791133313331,0.44194405736625525,1,12,0.1
13,0.5676484814910001,0.0006646194774792855,0.4775428830675756,0,12,0.1
14,0.5518456607363945,0.000553699369341958,0.4192713884844177,1,12,0.1
15,0.5348353212655976,0.0005912073640163641,0.4098947356868835,1,12,0.1
16,0.5178392380475998,0.0004993283388145312,0.4083412603619935,1,12,0.1
17,0.5047644220812376,0.0005437083522718789,0.37913746558552835,1,12,0.1
18,0.49488199623518214,0.0005354677319532087,0.419159999426327,0,12,0.1
19,0.49185663496339044,0.0005441713860924464,0.3968358285778511,0,12,0.1
20,0.4683974447638489,0.0005204254736972236,0.3576340815175608,1,12,0.1
21,0.4657256523537081,0.0005025350465709994,0.38914973417948007,0,12,0.1
22,0.46027579626371695,0.0005168681927052391,0.378425545389266,0,12,0.1
23,0.45470140458539476,0.0004560051639537262,0.3622222124319626,0,12,0.1
24,0.44676361839438594,0.00047347151036753295,0.3502354638557573,1,12,0.1
25,0.42607106164444325,0.0004979038203600794,0.32415764939241204,1,12,0.1
26,0.4224987286467885,0.0004689348790507634,0.3373110616002581,0,12,0.1
27,0.4093292066177657,0.0005324601265466447,0.30820486688875526,1,12,0.1
28,0.4096022861641507,0.0004712930257123527,0.3325701131045925,0,12,0.1
29,0.40915076434612274,0.0005228915691733101,0.3487660279677197,0,12,0.1
30,0.39380846120590385,0.0004931835993734556,0.3401809465283859,0,12,0.1
31,0.3873154451680738,0.0004589145207509593,0.33907473305098573,0,12,0.1
32,0.38160550386406655,0.00046393675269385757,0.32306081036982653,0,12,0.1
33,0.3804735056189604,0.00043229800297033997,0.31120576779127057,0,12,0.1
34,0.3728079529002655,0.0004639208599719284,0.32640917735665115,0,12,0.1
1,0.9400999751828966,0.0005832907391734244,0.6243031997680664,1,13,0.1
2,0.8234240852651142,0.0006536939098233623,0.7166376380920411,0,13,0.1
3,0.7753029848848071,0.0006067918660673534,0.705022644996643,0,13,0.1
4,0.7553825399705342,0.0005090869881747668,0.5899857536554337,1,13,0.1
5,0.7311488794428962,0.0005260256723323394,0.5999865915775299,0,13,0.1
6,0.7202504731359936,0.000482999982133541,0.47124884188175203,1,13,0.1
7,0.6886515631562188,0.00045729330165721917,0.5012430137395859,0,13,0.1
8,0.6826276055404118,0.00043898186101744486,0.4566076271533966,1,13,0.1
9,0.6616367300351461,0.0004348738116927312,0.47444751501083376,0,13,0.1
10,0.6422235185191745,0.0004006779272458516,0.4218791912794113,1,13,0.1
11,0.6292192325705573,0.0003541448833337719,0.45552088677883146,0,13,0.1
12,0.616990032295386,0.00041922114022392113,0.4301113994717598,0,13,0.1
13,0.6026792703639894,0.0003508332611956922,0.4068772653341293,1,13,0.1
14,0.5928310971884501,0.00035489107817522294,0.42056341660022734,0,13,0.1
15,0.5900877132302239,0.0003519110299142388,0.38400284069776536,1,13,0.1
16,0.5670844383892559,0.0003865858951550243,0.39353166669607165,0,13,0.1
17,0.5624027798573176,0.0003802856077700632,0.3897426378428936,0,13,0.1
18,0.5618634869654974,0.0003519442425819025,0.34919745498895643,1,13,0.1
19,0.5359962901898793,0.0003965534352963524,0.3979550849199295,0,13,0.1
20,0.5285627799374717,0.0004342669985600791,0.36429165080189707,0,13,0.1
21,0.5181384870693797,0.0003662824208385289,0.370740656375885,0,13,0.1
22,0.5009783797320866,0.0004170467502609383,0.40201716947555544,0,13,0.1
23,0.5090259320679165,0.00044765348260019283,0.3511986288130283,0,13,0.1
24,0.48688587227037977,0.00036678367766961896,0.35913302850723267,0,13,0.1
25,0.47502657026052475,0.0004585428016850658,0.3576842868924141,0,13,0.1
1,0.9264372465122177,0.00042581943309787345,0.5938617365445574,1,14,0.1
2,0.8105612203299281,0.0005033319933109928,0.5860571596533695,1,14,0.1
3,0.7747199966246823,0.0004884432287710011,0.5156349424539383,1,14,0.1
4,0.7474983980856746,0.00044717110573532935,0.52443778135848,0,14,0.1
5,0.7323295222707542,0.0004396661164039881,0.4771606319329955,1,14,0.1
6,0.7120342671153057,0.0005302453709553074,0.5229975554652555,0,14,0.1
7,0.702217130057783,0.000521498252230932,0.4782343776302135,0,14,0.1
8,0.6720210263528019,0.0006311527219831001,0.46251495589269775,1,14,0.1
9,0.6668673804007381,0.0005452066925718976,0.46740050082107576,0,14,0.1
10,0.6554658262126417,0.0005572517178055033,0.46135407082405033,1,14,0.1
11,0.6241882762995111,0.0006254692842443306,0.4560475351227667,1,14,0.1
12,0.6227372224072376,0.00047262973104412835,0.4283964907177643,1,14,0.1
13,0.6036396382084812,0.0005466810084671814,0.4013186475798862,1,14,0.1
14,0.5798245840762035,0.0006284794464415634,0.39271677605361033,1,14,0.1
15,0.5690141715199114,0.0006253022654262562,0.38817424325693967,1,14,0.1
16,0.5536101887743157,0.0005100596824475754,0.38289270348256055,1,14,0.1
17,0.5414604243025722,0.000616091149943286,0.3907443682592888,0,14,0.1
18,0.5333666607558009,0.0005295959954200514,0.36931946548152306,1,14,0.1
19,0.5132148901382124,0.0005663430608573358,0.358208418966089,1,14,0.1
20,0.4974636765847723,0.0006161467866489597,0.4029012875454915,0,14,0.1
21,0.4966011923479747,0.0005850342834502997,0.3779401920836714,0,14,0.1
22,0.4812896951853511,0.0005917109195591815,0.3373232995875079,1,14,0.1
23,0.4731209001627313,0.0005540737401166683,0.36835914705402617,0,14,0.1
24,0.458828662892422,0.0005063899001667658,0.43165271056949284,0,14,0.1
25,0.4415339662368039,0.0005415133579286287,0.3422936942622901,0,14,0.1
26,0.4401623667722725,0.0005510802175961884,0.3715625249202466,0,14,0.1
27,0.43701782750796125,0.0004961279978981264,0.3389145507922169,0,14,0.1
28,0.42311127106827423,0.00047791694678052003,0.34752803825101375,0,14,0.1
29,0.4150166385863201,0.0005128591258993305,0.3496237848732239,0,14,0.1
1,0.9174439325219109,0.000692355505764551,0.7299537092390078,1,15,0.1
2,0.8015720418521336,0.0005432213881812501,0.6584130923715983,1,15,0.1
3,0.767760102947553,0.0005684673122318816,0.6057422613571335,1,15,0.1
4,0.7420223355293274,0.0005427203948437679,0.6189601302947741,0,15,0.1
5,0.7183085332314173,0.0004986214844393544,0.579804641271507,1,15,0.1
6,0.6876363775559834,0.00046360286484871594,0.5785738595845374,1,15,0.1
7,0.6714646858828408,0.0003799802947296051,0.582726044784123,0,15,0.1
8,0.6530336929219109,0.00041342530572105067,0.5554811374468447,1,15,0.1
9,0.6453529865968795,0.0003584755539209471,0.5782010506073482,0,15,0.1
10,0.6278819633381707,0.0003586566706958582,0.5350689871983885,1,15,0.1
11,0.6203457244804927,0.00035800783578971665,0.5074667824779042,1,15,0.1
12,0.5955729392312822,0.0003226342010921577,0.49772982808427024,1,15,0.1
13,0.5793496565449805,0.00036582036548116735,0.4839746655177704,1,15,0.1
14,0.579316553970178,0.0003268079786461645,0.5115068530567319,0,15,0.1
15,0.5391984390360969,0.00034384706928644197,0.47093286904400916,1,15,0.1
16,0.5434478524894941,0.00032618366562279074,0.514953733777588,0,15,0.1
17,0.532940108861242,0.00032418481212170304,0.5041129089133982,0,15,0.1
18,0.5264364204236439,0.00031788913457560177,0.45792032775402985,1,15,0.1
19,0.5140667387417385,0.00028997257686569355,0.43477182796729047,1,15,0.1
20,0.4914823511526698,0.0002996061933420909,0.48552067002957244,0,15,0.1
21,0.4977107927912757,0.00030045802677271976,0.4510012238416928,0,15,0.1
22,0.4787664030279432,0.00031502582195181664,0.4705893697642548,0,15,0.1
23,0.4734913685492107,0.0003058605500319529,0.45207289278850443,0,15,0.1
24,0.4641567472191084,0.00030282021699739356,0.43675687182658923,0,15,0.1
25,0.4561523213273003,0.00030853299627086104,0.47421478192659805,0,15,0.1
26,0.4431794292870022,0.00033119206186494834,0.44617427914133456,0,15,0.1
1,0.91644105981378,0.0005252863004844746,0.8485945653004251,1,16,0.1
2,0.8141903533655055,0.00040619186817339675,0.8075157491264829,1,16,0.1
3,0.7813709076713113,0.0003869476538110415,0.7880614461919052,1,16,0.1
4,0.7462591024006114,0.00035986592154265107,0.7059904176211914,1,16,0.1
5,0.7216170619515812,0.00036853478437371773,0.6856364654634156,1,16,0.1
6,0.7123763000263887,0.0003063861655605519,0.7108651932384304,0,16,0.1
7,0.6874207903357114,0.00035927483096362693,0.6964797292798441,0,16,0.1
8,0.6696185841279871,0.00035470279450665283,0.5857558274471583,1,16,0.1
9,0.6566508594681235,0.0003161020797800601,0.565367937341111,1,16,0.1
10,0.6379443890908185,0.000294392993194325,0.6401984419539223,0,16,0.1
11,0.6188347816467286,0.00029618875517318133,0.5971708657761795,0,16,0.1
12,0.6002458596930784,0.00029089246544411734,0.6060944467846249,0,16,0.1
13,0.5894459191490622,0.00029750429556075044,0.5213494229025648,1,16,0.1
14,0.5741336254512562,0.00029936555023168157,0.552178144328407,0,16,0.1
15,0.5654634384547963,0.000293297361692085,0.486127846654813,1,16,0.1
16,0.5435163617134094,0.0002544002729016082,0.4525367366407074,1,16,0.1
17,0.5333699710228864,0.000261720347985187,0.5070460254282961,0,16,0.1
18,0.520974648700041,0.0002612392291399267,0.5340637003097312,0,16,0.1
19,0.5045473992824554,0.00024626010152346947,0.44708800980239916,1,16,0.1
20,0.4995068322209751,0.00025463501463972906,0.44341907202564734,1,16,0.1
21,0.48943361008868497,0.0002840158110142083,0.4297649281736139,1,16,0.1
22,0.47453728107845083,0.00026009217442205066,0.49049267255070356,0,16,0.1
23,0.474428955597036,0.0002762370532282683,0.41919625760896445,1,16,0.1
24,0.4517993232783149,0.00024202358926071182,0.4073373932557501,1,16,0.1
25,0.44601525594206415,0.00026836204359663977,0.4499520635086007,0,16,0.1
26,0.42732292904573327,0.00024938896086121743,0.42302546376508765,0,16,0.1
27,0.42540546760839576,0.0002721502916435437,0.43721662407974277,0,16,0.1
28,0.4330730445244733,0.0002824563474860042,0.47231448462308084,0,16,0.1
29,0.41302453419741464,0.00023310126425177955,0.4369557100623023,0,16,0.1
30,0.41345007489709296,0.0002586911535164451,0.43099913113372845,0,16,0.1
31,0.4017570436000824,0.00026302137360771134,0.4360192554296961,0,16,0.1
1,0.9227875542927937,0.0008748097878920071,0.7879597500053559,1,17,0.1
2,0.8111781226583274,0.0006854274220405573,0.8150192375708906,0,17,0.1
3,0.7618695296436907,0.0006702022878761707,0.7391806663230253,1,17,0.1
4,0.7333030391888447,0.0006842208897880088,0.7217885146158788,1,17,0.1
5,0.7148468580590673,0.0006527194640380386,0.6831507694910747,1,17,0.1
6,0.6817310883338192,0.0005867332465531506,0.665027991498852,1,17,0.1
7,0.663855541901416,0.0005617408339265196,0.6155772036769566,1,17,0.1
8,0.6414228092475109,0.0005351248237932751,0.5500406347806354,1,17,0.1
9,0.6259046046130629,0.0004892157764505057,0.6184534911496636,0,17,0.1
10,0.6242132265883756,0.0004898832643864654,0.5649951692631462,0,17,0.1
11,0.6031310554728451,0.0004916422634318201,0.6339104469622134,0,17,0.1
12,0.5943851862327162,0.00047882724867527745,0.6496214505037251,0,17,0.1
13,0.5679791698972863,0.00046806804048940987,0.5836331626454688,0,17,0.1
14,0.5664591196789799,0.0004755623637928616,0.6345164469596489,0,17,0.1
15,0.5426075343626091,0.0004381776949690924,0.601254406755262,0,17,0.1
1,0.937448302673739,0.0008664456765346099,0.5712259027502972,1,18,0.1
2,0.8202460810195568,0.0005738101852245542,0.616502051681836,0,18,0.1
3,0.7746496630269427,0.00044040428457624645,0.5234400326928587,1,18,0.1
4,0.7448755038339038,0.00043682387703758945,0.580672443306429,0,18,0.1
5,0.7298534138258114,0.0003968743552578353,0.4878839793215523,1,18,0.1
6,0.7074529209802317,0.00040290552478413597,0.4740602987140973,1,18,0.1
7,0.6862358922182128,0.0004162923561484921,0.5219762745512438,0,18,0.1
8,0.676310213499291,0.0004127679516555915,0.4160019255436989,1,18,0.1
9,0.653821291618569,0.00043308257015671063,0.43464064852065987,0,18,0.1
10,0.6412311965642974,0.00040276561285704807,0.408657623089882,1,18,0.1
11,0.6275604630625525,0.00034092697413058866,0.39292628144260117,1,18,0.1
12,0.6102164321860601,0.0003661240632429199,0.39513495828705164,0,18,0.1
13,0.6057774972083957,0.0004124979435758622,0.3770685159150976,1,18,0.1
14,0.5884563721889673,0.0003748137829080766,0.3559541676530195,1,18,0.1
15,0.5738040811793749,0.00037982132790750976,0.365577582803313,0,18,0.1
16,0.563802741641222,0.00035471651028993345,0.3414150166417468,1,18,0.1
17,0.5467585553956587,0.0003206787005183287,0.33679739571199185,1,18,0.1
18,0.5319844993741013,0.00033662927629382806,0.3903442409365215,0,18,0.1
19,0.5389016984507095,0.0003165535361108067,0.3381559744156587,0,18,0.1
20,0.5188169403131618,0.0003343643243275691,0.35369476576361114,0,18,0.1
21,0.505634761480398,0.00028374885462040386,0.3479789714260799,0,18,0.1
22,0.502029076218605,0.0002824491992129858,0.3321728915275426,1,18,0.1
23,0.4925245330777279,0.00028571045905389543,0.31136973297151294,1,18,0.1
24,0.47070445328257804,0.00028733769871651865,0.30548284593194597,1,18,0.1
25,0.47157319791095204,0.00030552446832041104,0.33273591505232636,0,18,0.1
26,0.46019569351229556,0.0002956329557237887,0.31666513385954,0,18,0.1
27,0.4550482842118241,0.0003020938089574947,0.2987154175232096,1,18,0.1
28,0.4382559615512227,0.0003102622025370121,0.2785450773353727,1,18,0.1
29,0.42844036706658295,0.0003127961023236885,0.30291624983807375,0,18,0.1
30,0.43484417158503863,0.000319308799124312,0.29064791390894135,0,18,0.1
31,0.42294915990774024,0.0003126077800664271,0.2750135651684047,1,18,0.1
32,0.4213548874439195,0.00031807714989300556,0.3039344022935056,0,18,0.1
33,0.40896961786026176,0.0003039388542420902,0.2921949461850751,0,18,0.1
34,0.4126874035181001,0.0003099707495028608,0.2755117631304897,0,18,0.1
35,0.4014145600241284,0.0003081201574004385,0.28107343816132935,0,18,0.1
36,0.403587801165359,0.0003059286425204211,0.27959507814096757,0,18,0.1
37,0.3894869733688443,0.00031775248803463655,0.28232182991000127,0,18,0.1
38,0.394167942709701,0.0003158164601150337,0.2790431269186641,0,18,0.1
1,0.9499028906935737,0.0007767250166840053,0.5767683652597383,1,19,0.1
2,0.8095367160581407,0.000549274796087827,0.5606673922421431,1,19,0.1
3,0.781798814024244,0.0004716395712984238,0.5282467466042369,1,19,0.1
4,0.7441001229342961,0.0005214297433710835,0.4858357296421454,1,19,0.1
5,0.7277648668913614,0.0005242720411236709,0.5039383908215443,0,19,0.1
6,0.6955988506476084,0.0005487132899967643,0.49181495492017285,0,19,0.1
7,0.6788340977260044,0.0005639217779389583,0.5042838920926266,0,19,0.1
8,0.6712257024787721,0.0005429419037509,0.4774071344487903,1,19,0.1
9,0.6623189733141944,0.0005527420885517218,0.4574506436380697,1,19,0.1
10,0.6377340569382622,0.0005990821044265647,0.46468533379221527,0,19,0.1
11,0.6269340557711465,0.000561414465621402,0.490037623568713,0,19,0.1
12,0.6167132939611163,0.0005368798138945186,0.44009064927760555,1,19,0.1
13,0.5944246976148515,0.0005449346426757984,0.4711841836851769,0,19,0.1
14,0.5892778007047517,0.0005219738827907436,0.4554991269467188,0,19,0.1
15,0.5724095805060296,0.0005112240701453716,0.430281474335823,1,19,0.1
16,0.566021116006942,0.00046669613844382444,0.4550485295293353,0,19,0.1
17,0.5451972303645951,0.0004801848599094055,0.4472950681343557,0,19,0.1
18,0.5361312787447657,0.0005026963096627567,0.448294696649412,0,19,0.1
19,0.5258094072341919,0.000550133019541612,0.4550596766333398,0,19,0.1
20,0.5095138787513688,0.0004982382566335478,0.3972800367301328,1,19,0.1
21,0.5064806941719282,0.00045445721791890847,0.38195583647714515,1,19,0.1
22,0.4732175079129991,0.0004725954301344852,0.3921331260325036,0,19,0.1
23,0.4733826266158195,0.0005543170329820853,0.4007348311141604,0,19,0.1
24,0.47101788825932,0.0005355207824669335,0.3736080976729287,1,19,0.1
25,0.4580532802002771,0.0005724041239729905,0.3890067947105044,0,19,0.1
26,0.4498729720002129,0.000544693017478234,0.3670155435834501,1,19,0.1
27,0.44203793576785494,0.0005527265148841599,0.35275976250292157,1,19,0.1
28,0.4315411608133997,0.0005556231366686656,0.3704499135278211,0,19,0.1
29,0.42418554567155387,0.0005332816643723552,0.3616714213167929,0,19,0.1
30,0.420908669985476,0.0005765127751233411,0.3951000917285346,0,19,0.1
31,0.4045445262676194,0.0005918438272644943,0.39357407741533773,0,19,0.1
32,0.4101829582027027,0.0005596079964085394,0.3749097149910231,0,19,0.1
33,0.40872822737409953,0.0005903651686995069,0.36805756998289135,0,19,0.1
34,0.39125878186452956,0.0005635074176964173,0.35457993264215004,0,19,0.1
1,0.9350818125974565,0.0008328146359417588,0.5757530578085472,1,20,0.1
2,0.8245025291329339,0.0005519272038197544,0.5414880131930291,1,20,0.1
3,0.7803367489860171,0.0005660394157790247,0.5211872644713543,1,20,0.1
4,0.7458687169211251,0.0005157079011994591,0.4941402323221173,1,20,0.1
5,0.7205551685321898,0.0005304202648057114,0.5623256324123531,0,20,0.1
6,0.7086636331819353,0.0005137980603779267,0.5100883492905185,0,20,0.1
7,0.6814924776554108,0.000504981690721165,0.45511220927469065,1,20,0.1
8,0.6719170631397338,0.00045261358536663465,0.43739162633311013,1,20,0.1
9,0.6423503593319938,0.0004408874090239849,0.44438968276525187,0,20,0.1
10,0.6298136072499412,0.00045987521506114196,0.4096877630144493,1,20,0.1
11,0.6214305648491496,0.00046014963092082847,0.43310044816458143,0,20,0.1
12,0.6114859793867383,0.0003756487669653281,0.42166419620056,0,20,0.1
13,0.5917922137748628,0.00037861847487788295,0.42626097786931694,0,20,0.1
14,0.5887461269185656,0.0003595909389938849,0.42271354331137506,0,20,0.1
15,0.5715587210087549,0.0003652722996429518,0.41304306531008816,0,20,0.1
16,0.5448731659423738,0.00036086526199055483,0.37183223534014226,1,20,0.1
17,0.5478067571918169,0.0003306673016119194,0.4121266498096842,0,20,0.1
18,0.5303003557381176,0.00032336530299896066,0.41080734886270065,0,20,0.1
19,0.526566761235396,0.0003363286445424559,0.3958261939635652,0,20,0.1
20,0.5105792759429841,0.0003405915723262643,0.40731756284258597,0,20,0.1
21,0.5079814507847741,0.00033664677539491095,0.34903966498097216,1,20,0.1
22,0.4861778226636705,0.0003369156954812795,0.35027649143239387,0,20,0.1
23,0.49137549350659054,0.0003737957723344499,0.3661541073982842,0,20,0.1
24,0.46834895121199743,0.0003370037832480323,0.38462504476147397,0,20,0.1
25,0.47169570482912515,0.0003360010008951316,0.3389200139264577,1,20,0.1
26,0.44945594136204037,0.0003375591191538011,0.33368597904910074,1,20,0.1
27,0.4463116540795281,0.0003420368723579616,0.3620184071608171,0,20,0.1
28,0.44526156038045883,0.0003423981929483402,0.33751076396919477,0,20,0.1
29,0.4305872821382114,0.00036649211411020674,0.33642896208024736,0,20,0.1
30,0.42954763557229725,0.00038219675964986283,0.3250241862234956,1,20,0.1
31,0.41212570454393116,0.0003821201613131312,0.3415990276594381,0,20,0.1
32,0.40937707927964984,0.0003808741615406082,0.3229012018433503,1,20,0.1
33,0.4000367749304998,0.00035216239813875986,0.3202342036054669,1,20,0.1
34,0.4017341732978821,0.00035598112524548055,0.33995820181602593,0,20,0.1
35,0.39365896511645543,0.0003481175211033717,0.3254738807556038,0,20,0.1
36,0.3884077182128316,0.0003461335190444342,0.3403674357405491,0,20,0.1
37,0.3978464865968341,0.0003497783906087058,0.33849428053824904,0,20,0.1
38,0.38615093167339054,0.00034215025481812303,0.3386295336595856,0,20,0.1
39,0.3938344617684682,0.00033425820965064866,0.3336472859472814,0,20,0.1
40,0.39338881770769757,0.0003499168318133646,0.3385621165869651,0,20,0.1
1,0.9164805632262003,0.000898214954456004,0.5910207219596328,1,21,0.1
2,0.8121280897231329,0.000726509744708892,0.6246342177178903,0,21,0.1
3,0.7632489048299336,0.000623884855442503,0.5439782181131684,1,21,0.1
4,0.7343941636028744,0.0006204896289134576,0.5677095158275842,0,21,0.1
5,0.7135887827192035,0.0006140241984255789,0.5598226651229793,0,21,0.1
6,0.6859751883007231,0.0005415165384571689,0.483427267078111,1,21,0.1
7,0.6639362871646881,0.000578118203737263,0.47394627898321795,1,21,0.1
8,0.6448938144104821,0.0005180979566094244,0.49712098713267283,0,21,0.1
9,0.6303044649816695,0.000514235900828637,0.4668064286828129,1,21,0.1
10,0.6083084728036608,0.000575372951667911,0.42824413502322123,1,21,0.1
11,0.5997031941300347,0.0005686444970446505,0.441999011129207,0,21,0.1
12,0.5877839738414401,0.000490618145184791,0.4627636749300135,0,21,0.1
13,0.5725880726462319,0.0004544930876969981,0.4644071470935973,0,21,0.1
14,0.5542160237119311,0.0004865063650261921,0.4016870019384902,1,21,0.1
15,0.5337847464141392,0.0004893052149175977,0.4522065174037493,0,21,0.1
16,0.5318631380796432,0.0004544555517246148,0.42769155068984605,0,21,0.1
17,0.5177276099012011,0.00041857064380088733,0.41155992952626064,0,21,0.1
18,0.5082555870924678,0.00041853359185292253,0.41697561395985167,0,21,0.1
19,0.4958112846527781,0.00041195005455630876,0.4183499425418247,0,21,0.1
20,0.4864186963864735,0.00046279371218545186,0.40142111595015767,1,21,0.1
21,0.48325493399585995,0.00043982664335219724,0.37970114455806053,1,21,0.1
22,0.4612863663406599,0.0004661846698062228,0.40172615337318934,0,21,0.1
23,0.46256528936681296,0.00041197556579607495,0.38105807329064556,0,21,0.1
24,0.4477740682306744,0.00043252475803629275,0.36943948153376077,1,21,0.1
25,0.43889941026767093,0.00043545077157129225,0.3628833107255438,1,21,0.1
26,0.42227697940099806,0.0004480450134862968,0.3640257943644734,0,21,0.1
27,0.41352420548597973,0.0004395830598826121,0.360778316938072,1,21,0.1
28,0.42377508112362455,0.0004560081225853147,0.3679922454174822,0,21,0.1
29,0.4145234383287884,0.00048310093760457154,0.38317455654003835,0,21,0.1
30,0.40872310243901755,0.0004374141128556359,0.36051395491393645,1,21,0.1
31,0.3901072694432168,0.0004632311905706523,0.3812790779143917,0,21,0.1
32,0.38936005532741547,0.00043544174072199633,0.3648074906551694,0,21,0.1
33,0.3763913758808658,0.0004337043161892022,0.3709404718462311,0,21,0.1
34,0.36926889419555664,0.0004579772316252014,0.3763806079852925,0,21,0.1
35,0.37813377415850047,0.00042428810653897625,0.36701451419006287,0,21,0.1
36,0.3757387530945596,0.00041456149933981665,0.36064982049337946,0,21,0.1
37,0.36784561297723223,0.0004530991535007377,0.36560182742791014,0,21,0.1
1,0.9022573339087623,0.0010673020813209448,0.6768257159701327,1,22,0.1
2,0.7951479937349047,0.000552276493787455,0.636330159031546,1,22,0.1
3,0.7543848213695344,0.000527266942559176,0.6238620402963505,1,22,0.1
4,0.7279493397190457,0.000546220162158577,0.6159485950912397,1,22,0.1
5,0.703348213718051,0.00047245969264102835,0.6073626722295566,1,22,0.1
6,0.6853911514793124,0.00047719424695796554,0.6299504568262659,0,22,0.1
7,0.6689264121509734,0.0004635395156843255,0.6107188618482695,0,22,0.1
8,0.6430756981883731,0.00041648888786550655,0.6699023111905787,0,22,0.1
9,0.6290988255114782,0.0004382447739425559,0.5931600472755423,1,22,0.1
10,0.6146344134495372,0.00045988623813692745,0.5753963762164577,1,22,0.1
11,0.6072758109796614,0.0005014871771674647,0.585670545900759,0,22,0.1
12,0.5937593235146432,0.0004332541495733451,0.6033136313829148,0,22,0.1
13,0.5727936025886309,0.0004066600422014571,0.5558992889421733,1,22,0.1
14,0.5465210481058984,0.0003561260103500293,0.5694040109629062,0,22,0.1
15,0.5396343767642975,0.0004218955263717189,0.5187394835760567,1,22,0.1
16,0.5304770618677139,0.0003660705312670741,0.5318827648683134,0,22,0.1
17,0.5223962462374142,0.00039553163636204164,0.5113912217904689,1,22,0.1
18,0.5065626973907152,0.0003826867567633079,0.5394223999414478,0,22,0.1
19,0.4919364257227807,0.00042274458211891,0.5017530567120742,1,22,0.1
20,0.4772828295826912,0.0004066191177116707,0.5703437353738766,0,22,0.1
21,0.46542182919524966,0.00040622343190729486,0.5050587913309483,0,22,0.1
22,0.47029289319401696,0.00039166881054240676,0.4737349192268628,1,22,0.1
23,0.4533769420924641,0.000402521144202356,0.47561972272299113,0,22,0.1
24,0.4432370385953358,0.0003920226627087686,0.475814311177657,0,22,0.1
25,0.4283977072863352,0.0003666276225842358,0.44807156747412275,1,22,0.1
26,0.42854318554912296,0.000382219446258941,0.47677412742590436,0,22,0.1
27,0.423808821610042,0.00038544811381836466,0.4400188807907548,1,22,0.1
28,0.41350598101105007,0.0003853281783189492,0.4459647406519093,0,22,0.1
29,0.4087864359219869,0.00039556666680644933,0.47942077640585656,0,22,0.1
30,0.4043854113136019,0.0003876910950999618,0.43547166796147907,1,22,0.1
31,0.3937126933818772,0.00041315068284304636,0.4620941170847725,0,22,0.1
32,0.38957595222053076,0.00040368257863779685,0.434861711661761,1,22,0.1
33,0.38028549935136524,0.00037326788428583226,0.4574677561366566,0,22,0.1
34,0.3816010355949402,0.00037183963892554556,0.43332408164656655,1,22,0.1
35,0.3622298595451173,0.00036332175416949514,0.4555701705743559,0,22,0.1
36,0.36552419797295616,0.0003961424413968676,0.4630814537787018,0,22,0.1
37,0.36556248065261615,0.0003910447102541747,0.43872243306346326,0,22,0.1
38,0.35195933814559666,0.0003872485297809665,0.43967322713615054,0,22,0.1
39,0.3674111045187428,0.00040078868741624145,0.4450302582013315,0,22,0.1
40,0.36254829327975,0.000411255759813468,0.4443472212728967,0,22,0.1
1,0.9273477439270463,0.0008163737606251785,0.5378024641680065,1,23,0.1
2,0.8275422855865123,0.0007553672198704336,0.5070358379450736,1,23,0.1
3,0.7798864390960959,0.0007277425638464994,0.5179674770915552,0,23,0.1
4,0.7525684126587802,0.0006281183853198579,0.4824355688767728,1,23,0.1
5,0.7327295153640038,0.0005435495824163216,0.5128081774045034,0,23,0.1
6,0.7232868913994279,0.0005049179176133949,0.44697509785554934,1,23,0.1
7,0.6968410590360331,0.0004811777180293575,0.44069565566658,1,23,0.1
8,0.6719969115978064,0.0004502466551859343,0.4560382519105638,0,23,0.1
9,0.6634571912676789,0.000432149859566274,0.4179271628579929,1,23,0.1
10,0.6460669241672339,0.0004271707694834033,0.43644111666200325,0,23,0.1
11,0.6260609460431475,0.00046250568418546993,0.4188907729076215,0,23,0.1
12,0.6114846717479617,0.00041931245251298815,0.42128386064644285,0,23,0.1
13,0.5978751432063968,0.00039332269722742004,0.40051384682803126,1,23,0.1
14,0.5856589290291764,0.0003609815597206592,0.38499820423863496,1,23,0.1
15,0.573365340052649,0.00039942509144122256,0.39410984374328173,0,23,0.1
16,0.5572389121665511,0.0003758662175197631,0.4128675952246552,0,23,0.1
17,0.5491045055001281,0.00037994559331076914,0.3696321330773093,1,23,0.1
18,0.532917549790338,0.0003621292682594706,0.37117140777819374,0,23,0.1
19,0.5190080199823823,0.00036212912849340113,0.3867626769273034,0,23,0.1
20,0.5166267277889474,0.0003409900005059425,0.35611986625172665,1,23,0.1
21,0.49421558615773226,0.00033455659370723205,0.34359712052887287,1,23,0.1
22,0.49379916003970215,0.00034482357735870144,0.3578803887923738,0,23,0.1
23,0.4827473704205003,0.0003541434685588641,0.35975191822557995,0,23,0.1
24,0.4731207029070965,0.0003206441894669064,0.4040280380042991,0,23,0.1
25,0.46117736364519873,0.0003339100593895933,0.3310960999457757,1,23,0.1
26,0.4597174778234127,0.0003494785817375212,0.34263115552556744,0,23,0.1
27,0.45317275094431503,0.0003288030224381188,0.33853926254182304,0,23,0.1
28,0.4491685497206311,0.0003139567752653018,0.3427669069935157,0,23,0.1
29,0.4348534342161445,0.0003377966346560306,0.32879249975442953,1,23,0.1
30,0.4274736199268075,0.00033274396535193243,0.3390837098011288,0,23,0.1
31,0.41668106407620187,0.00033683288990666134,0.3504826675377738,0,23,0.1
32,0.4150223468625268,0.00033870395113914383,0.32853648252943013,1,23,0.1
33,0.4161723692749822,0.0003358968078405163,0.32022315157281245,1,23,0.1
34,0.40613529432651607,0.000328013259879595,0.3164818187140873,1,23,0.1
35,0.3988339474727941,0.00034258912756042774,0.3199388648019575,0,23,0.1
36,0.3943382910517759,0.000353731339199057,0.3251317719329518,0,23,0.1
37,0.3978837205227031,0.0003446800486038461,0.32913345005073913,0,23,0.1
38,0.39215013402145965,0.00034350101639067236,0.32582812424064256,0,23,0.1
39,0.38866268964700923,0.0003446153384365336,0.3236731167854276,0,23,0.1
40,0.38121633266293725,0.00034851699287131386,0.32387049961177616,0,23,0.1
1,0.9123543351888657,0.0006317548662385283,0.7689919736281581,1,24,0.1
2,0.8029704214561553,0.0006032352061343513,0.7885970640248856,0,24,0.1
3,0.7618767285630816,0.0006219051377099406,0.7919404645740744,0,24,0.1
4,0.7415419426702318,0.0006476446162975792,0.7860182565052499,0,24,0.1
5,0.7144196665003186,0.0005679101058852947,0.6818591969065096,1,24,0.1
6,0.7004885616756621,0.0006941026097462912,0.727202980684848,0,24,0.1
7,0.6915473526432401,0.0006829394056001634,0.6368058322351954,1,24,0.1
8,0.6716698890640622,0.0007455211203445547,0.652500650072508,0,24,0.1
9,0.6479574449005581,0.0007517183385927984,0.6584846574345581,0,24,0.1
10,0.6393671277023497,0.0007296652880281077,0.5684932900615308,1,24,0.1
11,0.6250460083995547,0.0007408700624918787,0.6544179978520281,0,24,0.1
12,0.6041089030248779,0.0007187558387938355,0.6321368632227303,0,24,0.1
13,0.5872005862849099,0.0007141777248415608,0.5984759778085991,0,24,0.1
14,0.5893714296675864,0.0006893442412200827,0.5868258715158532,0,24,0.1
15,0.5592382660224324,0.0006797066768437313,0.5810016352336417,0,24,0.1
16,0.5514723736615408,0.0007515058400929861,0.6202597552344866,0,24,0.1
17,0.5440843665883655,0.0007255007304982948,0.61169289871447,0,24,0.1
1,0.9182432599010921,0.00040997260397749154,0.5918961144549026,1,25,0.1
2,0.8127026962382453,0.0004170637526147489,0.59401943512126,0,25,0.1
3,0.763728854911668,0.00042011791447293945,0.5271117362218124,1,25,0.1
4,0.7420334333465213,0.00041797992300763285,0.54260947625387,0,25,0.1
5,0.7185085756438119,0.0003858643245794589,0.4994276225701784,1,25,0.1
6,0.6965503224304744,0.00046260206588721344,0.48483799284012985,1,25,0.1
7,0.6715446717682338,0.00043400364839250134,0.5241801954461055,0,25,0.1
8,0.6630864107892627,0.0004492229007675113,0.5043543112020138,0,25,0.1
9,0.6412030749377751,0.00043900614469921927,0.45195132004513106,1,25,0.1
10,0.6167727605927558,0.00043120739601796405,0.4369481326468754,1,25,0.1
11,0.6040447925527891,0.0004560924460834247,0.41788060280683653,1,25,0.1
12,0.5903021544218063,0.0004814938019124037,0.43394639205479885,0,25,0.1
13,0.5687740998608726,0.000413642269579993,0.44819669895458747,0,25,0.1
14,0.5679646361441839,0.0004064740571179538,0.39424977777619474,1,25,0.1
15,0.5445884182339623,0.00044501686594837037,0.40208996176135015,0,25,0.1
16,0.546235950929778,0.00039438139338883395,0.39433784013467893,0,25,0.1
17,0.5155197782885461,0.0004152741932470928,0.42382371986296097,0,25,0.1
18,0.5077717091356005,0.00039848344715123643,0.4089530812580161,0,25,0.1
19,0.5081368439963886,0.00042258482928792505,0.3748121241077601,1,25,0.1
20,0.4965376325306438,0.0003851376183904774,0.399719641691962,0,25,0.1
21,0.48488425676311764,0.00037740383153764663,0.38193284097864055,0,25,0.1
22,0.4684009367511386,0.0004038146355361234,0.37316351061428277,1,25,0.1
23,0.46262281246128534,0.0003896273308436364,0.36784417797592084,1,25,0.1
24,0.45831242487544105,0.0004326446348083361,0.3728329312577244,0,25,0.1
25,0.44687849070344654,0.0003866872728048336,0.3718244513436792,0,25,0.1
26,0.43775469348544166,0.00043241229667771784,0.3662572544296712,1,25,0.1
27,0.437354407849766,0.0004142233660136948,0.3742559353110776,0,25,0.1
28,0.42599927563042866,0.00042834669563619954,0.3661739348810563,1,25,0.1
29,0.41169041643540066,0.0004626654044841416,0.3698995907957735,0,25,0.1
30,0.4166631918577921,0.0004319368596216442,0.3608347780897584,1,25,0.1
31,0.39464920723722097,0.00042803857719437,0.36752175856044356,0,25,0.1
32,0.39490109717562083,0.00039781914373244423,0.3519809090708508,1,25,0.1
33,0.3929746651223728,0.00039518639511827914,0.36449150649654555,0,25,0.1
34,0.3852041143746603,0.00038245844604846625,0.3515366945505682,1,25,0.1
35,0.37535213714554194,0.0003891936948570046,0.35958485943649404,0,25,0.1
36,0.37888510294613387,0.0003868968813635764,0.3531177613070943,0,25,0.1
37,0.3756694197654724,0.00040316347544181293,0.3550199530128637,0,25,0.1
38,0.37246091273568926,0.0003993972275652812,0.3533157012865727,0,25,0.1
39,0.36898718845276607,0.00039585181764864716,0.3535774824447495,0,25,0.1
40,0.3659342867987497,0.0004090638434544893,0.3544325202504844,0,25,0.1
1,0.9172706334363847,0.0006618935693127458,0.5748956836409763,1,26,0.1
2,0.821936866357213,0.0005983675948213897,0.5456310878033256,1,26,0.1
3,0.7683350344498953,0.0005789738721172658,0.4842443141049624,1,26,0.1
4,0.7418700513385591,0.0006196735377584229,0.45070432675517197,1,26,0.1
5,0.724519200977825,0.0005808868667199498,0.46896031615827255,0,26,0.1
6,0.6950726885171163,0.0006266624876020831,0.430711224804404,1,26,0.1
7,0.678204741861139,0.0006106775371812372,0.4373447398616065,0,26,0.1
8,0.6485709782157626,0.0005948527070272359,0.422366793484698,1,26,0.1
9,0.6494724310579754,0.0005287034594706105,0.3978174276962365,1,26,0.1
10,0.6157123496135076,0.0005706696860475599,0.39953010607217326,0,26,0.1
11,0.6105602993851617,0.0005369727292591484,0.3969545473857029,1,26,0.1
12,0.5961985006218865,0.0005721627451185625,0.37215662483585077,1,26,0.1
13,0.5697129081402507,0.0004917493403939131,0.3921582893985578,0,26,0.1
14,0.5600181370973587,0.00048319730523785223,0.3608408234180383,1,26,0.1
15,0.5445256385774839,0.0005128433958383365,0.3706618324793127,0,26,0.1
16,0.5336700017963137,0.0004994924226290701,0.3580763421548007,1,26,0.1
17,0.5263309241050765,0.00048702326915060567,0.3702067218273594,0,26,0.1
18,0.5019447179067702,0.0004946611914506537,0.35820801063373287,0,26,0.1
19,0.485059977996917,0.0004420061779369245,0.349840407845892,1,26,0.1
20,0.4763316913020043,0.00043416443735449795,0.3589418779192386,0,26,0.1
21,0.4761229267432576,0.000542303059081037,0.34770706460090517,1,26,0.1
22,0.46408347962867647,0.00048357379342806305,0.3439835766184805,1,26,0.1
23,0.4493954838031814,0.0004765127987844781,0.3330650953002028,1,26,0.1
24,0.45194423518010546,0.0005147790638840801,0.3462171989383017,0,26,0.1
25,0.4383368296992211,0.00045639041075316655,0.3508028175032152,0,26,0.1
26,0.4394803937701952,0.00046207149404965876,0.32542817383812883,1,26,0.1
27,0.4267131530103229,0.0004431012930581346,0.326478027972704,0,26,0.1
28,0.4230623585837228,0.00043414634378028234,0.30065475467609043,1,26,0.1
29,0.41659947697605404,0.0004499170092804845,0.3224843576998986,0,26,0.1
30,0.40668886793511255,0.00046054679668963044,0.316412727504003,0,26,0.1
31,0.400512111328897,0.000473831182586894,0.32850385138030097,0,26,0.1
32,0.3861283397390729,0.00045363252225104675,0.31061173693408295,0,26,0.1
33,0.3867474357996668,0.00045563628026727763,0.3160588269934929,0,26,0.1
34,0.37815799031938824,0.0004529329567698629,0.30783710369403594,0,26,0.1
35,0.3793259213368098,0.00046369465451876054,0.3046121970352183,0,26,0.1
1,0.9220490384669531,0.0005589259223294599,0.6218922617223098,1,27,0.1
2,0.8195667955137435,0.0005273861890947003,0.6294866867876245,0,27,0.1
3,0.7681293409495127,0.000495727051678668,0.7016031686593647,0,27,0.1
4,0.7305666768834704,0.0005094785814262217,0.685994314158011,0,27,0.1
5,0.7178189399696532,0.0005343947871421863,0.6430835637003787,0,27,0.1
6,0.7026907397168023,0.0005791691461733232,0.6156274625043637,1,27,0.1
7,0.6617532748551596,0.0005200434406149379,0.5717015084226121,1,27,0.1
8,0.6551305275587809,0.0005094974639221272,0.5966277149645424,0,27,0.1
9,0.638315811043694,0.00048281269222830554,0.5400886594766547,1,27,0.1
10,0.6185185118090539,0.00045792648286026506,0.5728971523794568,0,27,0.1
11,0.5977602657817659,0.00043858729623025283,0.5889628358818741,0,27,0.1
12,0.5878600151765914,0.0004738126950715447,0.5427746526625475,0,27,0.1
13,0.5754599638638043,0.00038923678948776796,0.531970085101089,1,27,0.1
14,0.5560037177943048,0.0004176936038545266,0.4833955616060539,1,27,0.1
15,0.5505906059628441,0.0004406886179086065,0.5043246004021602,0,27,0.1
16,0.5281645208597183,0.00038063689637402563,0.5143949557774463,0,27,0.1
17,0.520814814737865,0.0003521220753013733,0.49267727154710517,0,27,0.1
18,0.5120559306371779,0.0003107177033685037,0.4885325803146189,0,27,0.1
19,0.4937186454023634,0.0003064318176863405,0.4789487086688941,1,27,0.1
20,0.49478426291829064,0.00031733969150255214,0.5259714175453071,0,27,0.1
21,0.4765083346338499,0.0003044856790178788,0.4763574002363421,1,27,0.1
22,0.47054118095409303,0.00031239347455474283,0.5009042180863469,0,27,0.1
23,0.44868386004652294,0.0003246035606328708,0.4816223037568664,0,27,0.1
24,0.4499797352722713,0.00033082206712043403,0.47117428001966555,1,27,0.1
25,0.448620621292364,0.0003157678462836581,0.4967776029578105,0,27,0.1
26,0.42800724293504444,0.0003303457120810414,0.491655861408363,0,27,0.1
27,0.4289452185233434,0.000294730500519065,0.507926679031569,0,27,0.1
28,0.42453812559445697,0.00027937095555465757,0.5241224998645937,0,27,0.1
29,0.40067040565468015,0.00028848245624214455,0.49828096065926647,0,27,0.1
30,0.39391468252454487,0.0003050367254001598,0.48711691000442275,0,27,0.1
31,0.39833177342301324,0.000287244542137376,0.47586352007109145,0,27,0.1
1,0.9190774744465238,0.0007203565546660684,0.5344943556194572,1,28,0.1
2,0.8074739873409271,0.000582369444254298,0.5169592478260624,1,28,0.1
3,0.7681625634431839,0.0005136610655296993,0.537719996883879,0,28,0.1
4,0.7391784553016935,0.0004526559600240684,0.48891820708407085,1,28,0.1
5,0.7166513601938883,0.0004820016543990711,0.4960954766500235,0,28,0.1
6,0.7039899088087536,0.0004935528339133487,0.4516760145419466,1,28,0.1
7,0.6757896329675402,0.0004588799333543561,0.4923781227646834,0,28,0.1
8,0.6682214311191014,0.0004893435827744682,0.44270173902640214,1,28,0.1
9,0.6529378302040554,0.00041494716251257895,0.4939419347347771,0,28,0.1
10,0.6339881129208065,0.00046198820269810747,0.43607209737864694,1,28,0.1
11,0.6299561723357155,0.00041944443191390573,0.4188348106345764,1,28,0.1
12,0.5960654517014822,0.00040348769834963605,0.4311016011536265,0,28,0.1
13,0.6002996620677766,0.0004207241903973876,0.4115223694559445,1,28,0.1
14,0.5853811750809351,0.0003742864629159504,0.3942368286606729,1,28,0.1
15,0.5628162970145544,0.00032244639286156077,0.4192155199766073,0,28,0.1
16,0.5596711341114271,0.0003402664771697129,0.388760402744702,1,28,0.1
17,0.5401090333859125,0.0003488593524490993,0.3853877643988727,1,28,0.1
18,0.5364069860605967,0.0003200784804426976,0.3743430173247981,1,28,0.1
19,0.5224475935101509,0.00032991082497617406,0.37736506064562025,0,28,0.1
20,0.5059682467863673,0.0003438117131563125,0.40631077708008817,0,28,0.1
21,0.5001928976603917,0.0003233977859920179,0.4041310559927648,0,28,0.1
22,0.494171910342716,0.00032163201969870857,0.3590324103163257,1,28,0.1
23,0.47789682554347174,0.00032368593608788656,0.361807191468849,0,28,0.1
24,0.47355224901721593,0.00032841283297914615,0.34749325741942944,1,28,0.1
25,0.4644565660329092,0.00032861893054186587,0.34369482571538335,1,28,0.1
26,0.45484770373219535,0.0003392265448166567,0.369466622596759,0,28,0.1
27,0.4454307204910687,0.00032519330142392953,0.3370888943943768,1,28,0.1
28,0.43809219094968976,0.0003298240867263216,0.36775024438282733,0,28,0.1
29,0.4383593818971089,0.00034639356159632805,0.3444272335688421,0,28,0.1
30,0.42631496701921734,0.0003334266820318243,0.366879679866885,0,28,0.1
31,0.4241472241424379,0.00032931952418515547,0.34626625406962935,0,28,0.1
32,0.41096658827293486,0.0003153787301492966,0.3470869122247045,0,28,0.1
33,0.41056818124793826,0.0003266014204460329,0.3390968081181913,0,28,0.1
34,0.4035988371996653,0.00032953349190869457,0.32610885340800444,1,28,0.1
35,0.4015744278828303,0.00033456541582598307,0.3365732937562971,0,28,0.1
36,0.39901553839445114,0.00035000363364122764,0.3398231553485212,0,28,0.1
37,0.40241330507255735,0.00033373369279572564,0.33882082218896387,0,28,0.1
38,0.38754343383368994,0.00033572769704430055,0.33842334260023466,0,28,0.1
39,0.3895548174069041,0.0003476417122805114,0.3390098816705964,0,28,0.1
40,0.39225651785021737,0.0003440329351828301,0.33676658668237236,0,28,0.1
1,0.9235618675038928,0.0007481287040198887,0.5637375740664784,1,29,0.1
2,0.8188206390255973,0.0006165407480910376,0.5509399506917037,1,29,0.1
3,0.7739184527170091,0.0005024742068988937,0.518438738370003,1,29,0.1
4,0.7413454807939983,0.00047163281401264525,0.512007552032912,1,29,0.1
5,0.7245600741534006,0.00046834713430143893,0.5228610525554127,0,29,0.1
6,0.7027273142621631,0.00042268566106767614,0.47863005908412004,1,29,0.1
7,0.672041084085192,0.00042824216888264,0.5213421863271522,0,29,0.1
8,0.6625873432272956,0.00039013901394875053,0.45308539446031526,1,29,0.1
9,0.6401431312163671,0.0004192605303528364,0.4529127062056549,1,29,0.1
10,0.6205983080324673,0.0004560138771748392,0.46424297681198023,0,29,0.1
11,0.6121328831428573,0.0004402221858895029,0.4090745850516469,1,29,0.1
12,0.6033506893685886,0.0004096796203936849,0.43569145191910946,0,29,0.1
13,0.5854812626327787,0.00045350834781337265,0.42426687095955895,0,29,0.1
14,0.5730677871477037,0.00040121704885331423,0.448836172531074,0,29,0.1
15,0.5604399094978968,0.00039504923846661334,0.39956498130734597,1,29,0.1
16,0.555360461984362,0.0004322955778445161,0.41161611899925077,0,29,0.1
17,0.537276834604286,0.00038796524538719536,0.39561936547333293,1,29,0.1
18,0.5231455841234752,0.00036063915675705563,0.4376666665536885,0,29,0.1
19,0.5224172178478468,0.0003837786886530618,0.4104463273271497,0,29,0.1
20,0.501689344999336,0.00035288148882543845,0.39717197379906566,0,29,0.1
21,0.48978989181064425,0.0003214594301728842,0.3763194846310162,1,29,0.1
22,0.4687640184447879,0.0003563037755070365,0.43105378703317176,0,29,0.1
23,0.4710983807841937,0.0003407237497976028,0.3736818208179621,1,29,0.1
24,0.46408770481745404,0.00031800104590642845,0.3762870593058726,0,29,0.1
25,0.45899298999990734,0.00030279863945214034,0.3716592173649903,1,29,0.1
26,0.44385362487463725,0.00029108366392652636,0.338525449195374,1,29,0.1
27,0.41593569552614573,0.0003065438805996174,0.35883753399309587,0,29,0.1
28,0.4285459238148871,0.0003030308528520566,0.33692215166239015,1,29,0.1
29,0.4190605885925747,0.00031758396237689467,0.3634567959602817,0,29,0.1
30,0.4069821313023567,0.00030092820556352047,0.32327320191118586,1,29,0.1
31,0.4021513717515128,0.0003136189429607752,0.3710315522620488,0,29,0.1
32,0.39409563903297695,0.0002944760405322692,0.3434347095097245,0,29,0.1
33,0.39317640307403745,0.00033039368437519964,0.33998720817516886,0,29,0.1
34,0.3916785039362453,0.000300374178810411,0.3458850396859309,0,29,0.1
35,0.38283650044884,0.0003248476492617989,0.33907750988987234,0,29,0.1
36,0.38321447443394435,0.0003193716294758598,0.3334545223449374,0,29,0.1
37,0.3779062673094727,0.00029731666152310067,0.34084042301521206,0,29,0.1
1,0.9170031421324786,0.0008373240854673307,0.7170615051890843,1,30,0.1
2,0.7899562758557936,0.0009497950736926321,0.6911131802702157,1,30,0.1
3,0.7490308845744413,0.0009094049513805657,0.6919697735784492,0,30,0.1
4,0.726909022471484,0.0008557633832370972,0.6531635052169412,1,30,0.1
5,0.699399202711442,0.0008604978471446563,0.6469458764653157,1,30,0.1
6,0.6817099571228027,0.000754852032439564,0.6895005782133643,0,30,0.1
7,0.6526518898851731,0.0008190473541617394,0.6113805787861575,1,30,0.1
8,0.6395925514838274,0.000706891214255901,0.661490237152689,0,30,0.1
9,0.6252111329751856,0.0005860118958962095,0.5934385675894184,1,30,0.1
10,0.6192157668225905,0.0006569651523878907,0.5696490465629408,1,30,0.1
11,0.5992911966408,0.0005990909258424141,0.5869435867414855,0,30,0.1
12,0.5816339036997626,0.0006630554000901825,0.5395556802053106,1,30,0.1
13,0.5678285556681016,0.0006324984263354803,0.5741022591519739,0,30,0.1
14,0.5589442635283751,0.0006204107447582133,0.5681713258800565,0,30,0.1
15,0.534710614120259,0.0005899497198269647,0.5372231655588596,1,30,0.1
16,0.5293200969696045,0.0006182971547412522,0.5614577758619294,0,30,0.1
17,0.5170468716060415,0.0006305043417823447,0.5068314292811824,1,30,0.1
18,0.49784536116263445,0.0006209767457809956,0.5118861369592929,0,30,0.1
19,0.4794480341322282,0.0006005351623410688,0.5350162781199245,0,30,0.1
20,0.47196995475712944,0.0005887974642545861,0.5193314535623604,0,30,0.1
21,0.4604161052142873,0.0006439613842624514,0.5143463602006907,0,30,0.1
22,0.4465100316440358,0.0006007301936145215,0.5362422985272486,0,30,0.1
23,0.44640899335636813,0.000632583353024743,0.5582589031983565,0,30,0.1
24,0.4362255706506617,0.0005915880158735329,0.5273080309513302,0,30,0.1
1,0.9309105774935554,0.0004981551209793371,0.6392094623117412,1,31,0.1
2,0.8136984011706184,0.00033169921148595784,0.55889344842962,1,31,0.1
3,0.7728823367287131,0.0003088858964688638,0.5400590214017214,1,31,0.1
4,0.7591323487898882,0.0003071715521133121,0.5066268420769213,1,31,0.1
5,0.7185888809316299,0.000283880003125352,0.48538907077621274,1,31,0.1
6,0.701808554985944,0.0003226815541411805,0.5128251145357455,0,31,0.1
7,0.6710215842022615,0.00031174760318689927,0.45190441156476446,1,31,0.1
8,0.6506589153233696,0.00028993572409757797,0.4696661768117454,0,31,0.1
9,0.6421976327896118,0.00028424290238249607,0.4598594304566158,0,31,0.1
10,0.6200735260458553,0.0002659412256702233,0.4436661617980086,1,31,0.1
11,0.6087367759031408,0.00026223846670130594,0.42344537500402146,1,31,0.1
12,0.589389947232078,0.00023681503439815167,0.4132495512602014,1,31,0.1
13,0.5836558359510758,0.00025779107013744685,0.41973400012469364,0,31,0.1
14,0.5659819168203017,0.0002560495424618506,0.40432084659389683,1,31,0.1
15,0.555763541950899,0.00025309787392068433,0.41992520983543097,0,31,0.1
16,0.5485048676238341,0.00024023983603589893,0.4107119988025601,0,31,0.1
17,0.5222136094289668,0.0002660704230519888,0.36618086580033793,1,31,0.1
18,0.5080717100816614,0.00023648012018598178,0.37409663761281003,0,31,0.1
19,0.5095789520179524,0.00023587351469733916,0.37288104931756266,0,31,0.1
20,0.48455698455081264,0.00024451710718601725,0.3588249382352803,1,31,0.1
21,0.486542876327739,0.0002794185220195419,0.36051390758743607,0,31,0.1
22,0.47692146827192866,0.0003064467417596675,0.4000563202119769,0,31,0.1
23,0.46836002714493696,0.0002845669363844482,0.3473407759906524,1,31,0.1
24,0.44993700700647693,0.00027721776568796487,0.34685176995409783,1,31,0.1
25,0.44939862104023204,0.0002621525621233398,0.35914718401786766,0,31,0.1
26,0.43944853824727675,0.00028943813864744323,0.36045475472850186,0,31,0.1
27,0.43661382584010855,0.00027944310294354663,0.32277419642581034,1,31,0.1
28,0.42417020832791047,0.00027576412762487856,0.32206907306865445,1,31,0.1
29,0.4247024087344899,0.00025639936279998546,0.3367670950899299,0,31,0.1
30,0.41575912412475136,0.00027237090621116185,0.3319165420715147,0,31,0.1
31,0.4076472306952757,0.0002660063044887091,0.33868230743710753,0,31,0.1
32,0.40197992535198435,0.0002720165511538439,0.3298554248543026,0,31,0.1
33,0.3949907849816715,0.0002761168328374076,0.3319994300826088,0,31,0.1
34,0.39464189971194547,0.00030015404010876355,0.31366639636257376,1,31,0.1
35,0.39250889034832226,0.0002773795694605831,0.31051794387754056,1,31,0.1
36,0.38403793345479403,0.000282140594551011,0.31841211389257446,0,31,0.1
37,0.3817689688766704,0.00027487178124240876,0.32991841291605983,0,31,0.1
38,0.37712159226922426,0.0002798024462262059,0.3134003016718084,0,31,0.1
39,0.38562120269326605,0.00028114417389802195,0.3231496352746618,0,31,0.1
40,0.3878298002130845,0.0002798728064483251,0.3127108121646254,0,31,0.1
1,0.9240638929677297,0.0005605173655238608,0.5672662536076784,1,32,0.1
2,0.8156160424990826,0.0005635259166662862,0.5349029390475689,1,32,0.1
3,0.7728964506861675,0.0005969518104130514,0.5329617878310701,1,32,0.1
4,0.7519002808145729,0.0005463370713208948,0.5392148333114324,0,32,0.1
5,0.7174625877874443,0.000535065044525517,0.4762708835961812,1,32,0.1
6,0.7088446466319532,0.0005248957345155573,0.49001773437600077,0,32,0.1
7,0.6845559456262243,0.0004526836627881121,0.4824651922793583,0,32,0.1
8,0.6695237885038536,0.00043738577483328487,0.4971584797273447,0,32,0.1
9,0.6529937321881214,0.0004708156987592713,0.530521703694734,0,32,0.1
10,0.6323027122451599,0.0005164037722286331,0.47394639795605387,1,32,0.1
11,0.6119398284389312,0.00044292024163534885,0.4755246645018303,0,32,0.1
12,0.6069388820464352,0.0004644730547022254,0.457754607575062,1,32,0.1
13,0.5926796219435083,0.00043870367201645467,0.4628403089438182,0,32,0.1
14,0.5693309299917106,0.0004010528351631891,0.43839000664998096,1,32,0.1
15,0.5665243171065687,0.00043325827415634216,0.4489403445439914,0,32,0.1
16,0.5503976750804718,0.0003617145010643268,0.4495775210551726,0,32,0.1
17,0.5366002224295973,0.00038523833721129967,0.47176761879936807,0,32,0.1
18,0.5180860334132091,0.00039356601486229394,0.44677271923547346,0,32,0.1
19,0.5137804383973041,0.00035360833056304736,0.4028111501417325,1,32,0.1
20,0.4994404840182109,0.0003520564364791141,0.4556957837919451,0,32,0.1
21,0.49096100265721243,0.000360036639465827,0.4918466663378992,0,32,0.1
22,0.48156274262681065,0.0003815451808728233,0.41355094719759533,0,32,0.1
23,0.47141545077404345,0.00035259130667524794,0.41964470716113716,0,32,0.1
24,0.4573711979101939,0.00036158138365030335,0.4463400307331669,0,32,0.1
25,0.4480269335838686,0.0003270218965838697,0.4240356629461418,0,32,0.1
26,0.4311500726694084,0.00037360581599529385,0.43700590990448385,0,32,0.1
1,0.9171149751969746,0.0006539026187619172,0.7780306166398593,1,33,0.1
2,0.8173337557486126,0.0007602562123100229,0.6982718056154406,1,33,0.1
3,0.7733081664357867,0.0008471205798005464,0.6331094260235612,1,33,0.1
4,0.7572798402536483,0.0008079251073511495,0.625800043696377,1,33,0.1
5,0.7245501024382455,0.0007586397186969407,0.6177665880818051,1,33,0.1
6,0.7192804997875577,0.0006874216432195334,0.6057704606964136,1,33,0.1
7,0.6907965235766911,0.0006950880824227906,0.5873114461333426,1,33,0.1
8,0.6691116264888218,0.0007821658003931155,0.6236505073277832,0,33,0.1
9,0.6542000642844609,0.0007526090194005519,0.6256375266875671,0,33,0.1
10,0.6425275724558603,0.0006396486694159519,0.5360333266214977,1,33,0.1
11,0.6307387678396135,0.0006341264594257588,0.4981164810167389,1,33,0.1
12,0.6064466681508791,0.0005974062840409932,0.6162372418275793,0,33,0.1
13,0.6031449121378717,0.000609607682798967,0.4837327377285911,1,33,0.1
14,0.5691331408563114,0.0005579962228131037,0.4996568095601082,0,33,0.1
15,0.5668938802111716,0.000546334918735305,0.47298875532205387,1,33,0.1
16,0.5566310903855732,0.0005637472194004138,0.4570795813181375,1,33,0.1
17,0.5415454552996726,0.00045833162688982805,0.4666641082835974,0,33,0.1
18,0.5280297643371991,0.0005189860561845957,0.4820717194284517,0,33,0.1
19,0.5090189228455225,0.0004995032476948662,0.4351477546998437,1,33,0.1
20,0.4947311764671689,0.0004957074356969402,0.41786707812152096,1,33,0.1
21,0.4951231692518507,0.0004666035879164978,0.42402327302570164,0,33,0.1
22,0.47323605240810485,0.000428136858058029,0.42571569100603845,0,33,0.1
23,0.4804109111428261,0.0004528383873375354,0.41315839416480554,1,33,0.1
24,0.45675400821935563,0.0004999817264476968,0.4009758047342834,1,33,0.1
25,0.4469957369424048,0.0005193656595240879,0.3998587801348739,1,33,0.1
26,0.4461824287261282,0.00048556204308711345,0.3915758304836855,1,33,0.1
27,0.43126383636678967,0.00046121255235491497,0.3690442355035284,1,33,0.1
28,0.41799068521885646,0.00038533032489968243,0.3887149350425511,0,33,0.1
29,0.41522918073903947,0.0003973462941454879,0.38998001778145025,0,33,0.1
30,0.4172516997371401,0.000404084538050007,0.38905341382824365,0,33,0.1
31,0.40420478617861155,0.00044405971337775033,0.3813291553490321,0,33,0.1
32,0.393361339256877,0.00040258268199977465,0.3828342245447674,0,33,0.1
33,0.3949045943362372,0.0004288361870705904,0.3822844108516175,0,33,0.1
34,0.38735423875706537,0.00047452733581719386,0.3828747535641591,0,33,0.1
1,0.9266716859170369,0.0005257311834914921,0.762957511055598,1,34,0.1
2,0.8168920803637731,0.00044910023401219706,0.5788340790965298,1,34,0.1
3,0.7873579653955641,0.00040889279660491626,0.4914689528720269,1,34,0.1
4,0.7516447717235202,0.00041235715668465545,0.4943499169900765,0,34,0.1
5,0.7388834399836404,0.00044748597030688656,0.5096117805664032,0,34,0.1
6,0.7225237928685688,0.0005073456822650595,0.450183825383107,1,34,0.1
7,0.6958571722110113,0.0006003472683784951,0.4252092710146124,1,34,0.1
8,0.6890936458394641,0.0005395807782492955,0.455460545540323,0,34,0.1
9,0.6808001739638192,0.0005256969026439558,0.4552528876865996,0,34,0.1
10,0.6582117896704447,0.0005236957655315997,0.40664153292877314,1,34,0.1
11,0.6450365015438625,0.000470826280001174,0.4260099546274172,0,34,0.1
12,0.628020221278781,0.00048096499536075585,0.3930861938682756,1,34,0.1
13,0.6156882916887602,0.0005170071353426291,0.36844415631397,1,34,0.1
14,0.595106476474376,0.0005005123686195086,0.4209627819107982,0,34,0.1
15,0.5845628391419139,0.0004942333384644284,0.42055835452999824,0,34,0.1
16,0.5673857153881163,0.0004729130672612449,0.36813465604352436,1,34,0.1
17,0.5560091130790257,0.0004475804959102312,0.3491074078142585,1,34,0.1
18,0.5469331851317769,0.00048166179684423175,0.3469772084336089,1,34,0.1
19,0.5402831502613568,0.0004587438393389762,0.36212932908803547,0,34,0.1
20,0.5254059171392804,0.0005203622588721503,0.3409334493839309,1,34,0.1
21,0.507346796137946,0.000467898359125857,0.3361990922636897,1,34,0.1
22,0.5042741419303984,0.00040992090587332354,0.3213300584404055,1,34,0.1
23,0.4877990789356686,0.0004488206142836827,0.3053970438930827,1,34,0.1
24,0.48005169523613794,0.00039981966879817525,0.2884987224619489,1,34,0.1
25,0.46070679348139537,0.00043367759714047204,0.32588923108799567,0,34,0.1
26,0.45685157073395594,0.00043165506351561776,0.28711730754048537,1,34,0.1
27,0.44899017576660427,0.00042457841482246295,0.315046000696653,0,34,0.1
28,0.4410856195858547,0.0004178494176206489,0.2883921252466906,0,34,0.1
29,0.4373062852592695,0.0004273569880058945,0.29260379875792114,0,34,0.1
30,0.4227580829035668,0.00042153531900285523,0.28858494927904166,0,34,0.1
31,0.4218704214408284,0.00043161390030512674,0.2869851020886312,1,34,0.1
32,0.41580680048181895,0.0004427473055936086,0.2869212720378956,1,34,0.1
33,0.4110003241470882,0.0004439653161430864,0.28248660229912703,1,34,0.1
34,0.4089635454473041,0.00045636631278154837,0.2690001518395342,1,34,0.1
35,0.402684856738363,0.00043368028578004756,0.27498484736383255,0,34,0.1
36,0.3963417609532674,0.0004333240829596651,0.27214639761597353,0,34,0.1
37,0.3949492116059576,0.00043296641767180216,0.26516018101505856,1,34,0.1
38,0.39196699680317015,0.0004585024587521773,0.2714977163701053,0,34,0.1
39,0.38835863520701724,0.0004436385612020136,0.28555100643961717,0,34,0.1
40,0.387462039788564,0.00045178356231190264,0.277227992788468,0,34,0.1
1,0.8993821704671496,0.0010968572370031672,0.7061039033261213,1,35,0.1
2,0.7967270477896645,0.0009949545145943937,0.7798954208096689,0,35,0.1
3,0.7492880665120625,0.0007538084187434011,0.6834891827638484,1,35,0.1
4,0.7136980635779244,0.0006128340173745528,0.7401818559189474,0,35,0.1
5,0.6804501506544295,0.000663977919127016,0.6615984511276907,1,35,0.1
6,0.6624827693615641,0.0006155861206241839,0.7040277920848081,0,35,0.1
7,0.6394156253054029,0.0005733872960609872,0.6299557553465701,1,35,0.1
8,0.6179895826748439,0.0006041341299091332,0.5978396320022827,1,35,0.1
9,0.5949552591357913,0.0005359216170507439,0.5916617312584042,1,35,0.1
10,0.5770775562240964,0.0005006018653234822,0.6139262300446506,0,35,0.1
11,0.5625552570536023,0.0005044626242514434,0.5973031488824482,0,35,0.1
12,0.5358280365665754,0.0005907055476979752,0.6159863074825815,0,35,0.1
13,0.5361505981002536,0.0005403442541830286,0.5806173674362011,1,35,0.1
14,0.5174677364882969,0.0005142399188896109,0.5070710226985787,1,35,0.1
15,0.5036112595172155,0.0005580227398673916,0.552896045702548,0,35,0.1
16,0.4913631049650056,0.0004937581002845296,0.55473185857096,0,35,0.1
17,0.4931108681928544,0.0005197980090521188,0.4912795051932335,1,35,0.1
18,0.47273127273434684,0.0005018103696611,0.525749892304259,0,35,0.1
19,0.4646749162957782,0.0004683765842595936,0.5373725790130205,0,35,0.1
20,0.45298232173635844,0.0005008295660705439,0.537657990651436,0,35,0.1
21,0.45619006561381475,0.0005695913988304147,0.5085734811819289,0,35,0.1
22,0.43515279924585704,0.0005542978646449878,0.5317225254425579,0,35,0.1
23,0.43116350063965436,0.0005439956411941065,0.49056409849700605,1,35,0.1
24,0.4244069325782004,0.0005556986950631696,0.5253557600234905,0,35,0.1
25,0.410218504567941,0.000550927284556175,0.5473024069046801,0,35,0.1
26,0.4020758939995652,0.0005894180094834329,0.4390043921630121,1,35,0.1
27,0.3889368573824565,0.0005861148387165962,0.48538923575273474,0,35,0.1
28,0.3909724196862607,0.0005699837534588628,0.5027232592432829,0,35,0.1
29,0.3800333206142698,0.0005877767169814822,0.4980732086922758,0,35,0.1
30,0.3817680251030695,0.0005479180974708427,0.5052000592993803,0,35,0.1
31,0.37503951291243237,0.0005551281671311396,0.4911938543346795,0,35,0.1
32,0.3675630823487327,0.0005776497072518049,0.4821411679260248,0,35,0.1
33,0.36151770573286784,0.0006061137585978335,0.47074938159867014,0,35,0.1
1,0.9297970799838795,0.0005285766283871935,0.7044771274161319,1,36,0.1
2,0.8258500744314755,0.0005806012678316192,0.6606000528188082,1,36,0.1
3,0.7749241948127746,0.0006421629760606105,0.6130283286939566,1,36,0.1
4,0.7612178893650279,0.0006348485229810809,0.5306812007267216,1,36,0.1
5,0.7345901215777678,0.0005366526992635472,0.5179929972122927,1,36,0.1
6,0.711251547757317,0.0005932769053341711,0.5638939626998448,0,36,0.1
7,0.6919272359679727,0.0005439577843336498,0.5136313785574311,1,36,0.1
8,0.6726818428320043,0.0005415798692197046,0.5087386689292104,1,36,0.1
9,0.6530157089233398,0.0004960202718126204,0.46409863363606796,1,36,0.1
10,0.6381652747883516,0.0005130594664746348,0.5399889285081791,0,36,0.1
11,0.6203108997905955,0.0005340297922135933,0.5190905827953814,0,36,0.1
12,0.6123798436978284,0.0005289260660955573,0.4936029812358618,0,36,0.1
13,0.6024373720673953,0.0005455400900887873,0.4262278238051638,1,36,0.1
14,0.5674910464707543,0.0005609780108309625,0.4244803227185874,1,36,0.1
15,0.5747023463249207,0.0004967578798053129,0.40761143805341343,1,36,0.1
16,0.5469946040826685,0.00040250866680734734,0.4634202728199715,0,36,0.1
17,0.5412501128280864,0.0004744652535437661,0.41063703581365685,0,36,0.1
18,0.5393792201490963,0.00047988928340868476,0.43086158593890744,0,36,0.1
19,0.5117920998264761,0.0004664861566304941,0.42231089269314903,0,36,0.1
20,0.5058275257839876,0.0005306291914380649,0.4366992400582078,0,36,0.1
21,0.4970785999999327,0.0005602058043758221,0.42318078975129675,0,36,0.1
22,0.4819584334597868,0.0005169237333842937,0.39023115495165817,1,36,0.1
23,0.4730778760769788,0.0004973581779802985,0.4126917260501701,0,36,0.1
24,0.4687751657822553,0.0005352911104530315,0.38977732414107596,1,36,0.1
25,0.4581908755442675,0.0005680201284121722,0.3831824155859248,1,36,0.1
26,0.4477564664448009,0.0005302941546474091,0.4115305594468242,0,36,0.1
27,0.435101092562956,0.00048811230774256675,0.399425965774721,0,36,0.1
28,0.43208614728030037,0.0005095041836338008,0.39078431918258266,0,36,0.1
29,0.4167756950154024,0.0005030049589763889,0.39852061829030994,0,36,0.1
30,0.4176910516093759,0.0004964906955137848,0.38169692773181607,1,36,0.1
31,0.41524843783939586,0.00046623534290120007,0.3901577506299771,0,36,0.1
32,0.41353058359202216,0.0005005681900964941,0.3940121990249684,0,36,0.1
33,0.3951561976881588,0.0005072192710084731,0.3990683660952303,0,36,0.1
34,0.40174544067943796,0.0005222926714101478,0.3989772847000982,0,36,0.1
35,0.391833423165714,0.0004973649095250842,0.3825807690916717,0,36,0.1
36,0.38393504829967723,0.0005014702780446147,0.39812410042385343,0,36,0.1
37,0.38798280568683846,0.0004855361458955004,0.3929217154645222,0,36,0.1
1,0.9229837038937737,0.001026972768116085,0.5878987464850878,1,37,0.1
2,0.8202695040141835,0.0012202969485181658,0.5364978881007231,1,37,0.1
3,0.777231515155119,0.0010153351468034089,0.5104380384133507,1,37,0.1
4,0.7445091577137217,0.0011198553379953783,0.4883985155839224,1,37,0.1
5,0.7289308071136474,0.0009669646993964253,0.4561348073835363,1,37,0.1
6,0.7123675234177533,0.0008676867976592964,0.48474157848926636,0,37,0.1
7,0.6875098305590013,0.0008148667844258906,0.5387912075756021,0,37,0.1
8,0.6638890441726236,0.0007015550714533995,0.5309505747039663,0,37,0.1
9,0.6604312090312734,0.0006546839760095977,0.5033551798817555,0,37,0.1
10,0.6378325076664195,0.0006585513898993239,0.42623476947505573,1,37,0.1
11,0.6334711793590995,0.0005754047083695803,0.4288154160268873,0,37,0.1
12,0.6180084179429447,0.0006070346996078596,0.45246012389414847,0,37,0.1
13,0.602068073609296,0.0006473567843546762,0.4557503936592133,0,37,0.1
14,0.5989389324889464,0.000598514816888115,0.4411391317384951,0,37,0.1
15,0.572592236364589,0.0005970472449382,0.4303813700134438,0,37,0.1
16,0.5712227989645565,0.000587668558856582,0.3797593052821561,1,37,0.1
17,0.5556412503999822,0.000607725274269743,0.35326131962369917,1,37,0.1
18,0.538389466790592,0.000604667524149751,0.4057833807196426,0,37,0.1
19,0.5351882503313177,0.0005487676911905189,0.41973228622438485,0,37,0.1
20,0.5344368331572589,0.0005448800501386251,0.370389380763148,0,37,0.1
21,0.5139550507068634,0.0004966993658693836,0.35356410678173633,0,37,0.1
22,0.5057738521519829,0.0005300065502524375,0.4163600887188196,0,37,0.1
23,0.5016463086885564,0.0005564894544316784,0.3914873289271714,0,37,0.1
24,0.4826448430033291,0.0005198548979345052,0.3869927567788778,0,37,0.1
1,0.9166810775086993,0.0008265342905707214,0.7188781863094257,1,38,0.1
2,0.8122134173200244,0.0010367230771364468,0.7314477884662668,0,38,0.1
3,0.7728306204080582,0.0009883375439260686,0.7675970968943882,0,38,0.1
4,0.7421807313249225,0.0010170183273398184,0.6674956880470174,1,38,0.1
5,0.721812312801679,0.0009018428896697948,0.6016853163444918,1,38,0.1
6,0.6989766905705134,0.0008957407214135552,0.7794017008760743,0,38,0.1
7,0.6765097379684448,0.0010707933951856657,0.6600783078883252,0,38,0.1
8,0.6611658128954115,0.0009521604480964708,0.5726351926639348,1,38,0.1
9,0.6372711889090992,0.000854417015770672,0.5686283253658139,1,38,0.1
10,0.6235556928884416,0.0009779879453292648,0.5184586196844752,1,38,0.1
11,0.6216707726319631,0.0008549217555333772,0.5375872420995194,0,38,0.1
12,0.5954041871286574,0.0007752609069159787,0.5138664755855712,1,38,0.1
13,0.5890271511106264,0.000785423600020641,0.48412084405061784,1,38,0.1
14,0.5809088179043361,0.0007840415938907037,0.5047989279240067,0,38,0.1
15,0.563779985620862,0.0006702567604536723,0.48661246777565564,0,38,0.1
16,0.5446329350982394,0.0007329088136126908,0.47469282063245916,1,38,0.1
17,0.5301284616192182,0.0006523511644142369,0.4573238850730155,1,38,0.1
18,0.5246077992376827,0.000688766249194963,0.43411769396218525,1,38,0.1
19,0.5037865063973835,0.0006690958814163293,0.44499364067243263,0,38,0.1
20,0.49654743926865713,0.0005981517045126696,0.4422124340472853,0,38,0.1
21,0.48853067805369693,0.0006246473875805913,0.47506901586242967,0,38,0.1
22,0.46984737260001047,0.0005864152041058766,0.4920808052731156,0,38,0.1
23,0.4666950095977102,0.0006206627967046751,0.4507105839173836,0,38,0.1
24,0.45320096895808265,0.0005756105009433148,0.41014587238008937,1,38,0.1
25,0.4482605318937983,0.0006470559511355878,0.48798663995725367,0,38,0.1
26,0.44345732565437046,0.0006902729520723889,0.4331526847719006,0,38,0.1
27,0.4215704844821067,0.0006133703964657062,0.43539888065563537,0,38,0.1
28,0.416528181660743,0.0005878567098989151,0.3872974568453111,1,38,0.1
29,0.41340149761665435,0.0006023191284233084,0.45988911807562327,0,38,0.1
30,0.4031261418546949,0.0006236137789008873,0.42666787067006645,0,38,0.1
31,0.3953090114962487,0.0006054350357901837,0.4201899717328112,0,38,0.1
32,0.4008090655718531,0.0005991568368266425,0.4481874152290254,0,38,0.1
33,0.3771327386299769,0.0006268120986143393,0.43531134986428893,0,38,0.1
34,0.3825635172071911,0.0006235456832135762,0.4345336786625288,0,38,0.1
35,0.3829331075151761,0.0006017128866265661,0.41728569466383514,0,38,0.1
1,0.9258522166925318,0.0008255837490330176,0.6457632145758747,1,39,0.1
2,0.8188528846291935,0.0008225994239396909,0.7465265163084951,0,39,0.1
3,0.772272777557373,0.00087949287296985,0.6258170987819286,1,39,0.1
4,0.7610079821418313,0.0006947100491208188,0.6416884790261798,0,39,0.1
5,0.736797504565295,0.000776405307902571,0.6364570869640871,0,39,0.1
6,0.7177622374366311,0.0007595393104780027,0.6714494931320281,0,39,0.1
7,0.694613156599157,0.000664205031866646,0.6477900470777055,0,39,0.1
8,0.6762037382406347,0.0006111568096778629,0.6212595592746835,1,39,0.1
9,0.6628970903508803,0.0007489514098886181,0.5706202460044643,1,39,0.1
10,0.6505487960927626,0.0007706975917030564,0.5064441156646411,1,39,0.1
11,0.6170441017431372,0.000712280157227617,0.5988745071781809,0,39,0.1
12,0.6207828006323646,0.0006282187669592746,0.5355290412456548,0,39,0.1
13,0.6016541614251978,0.0006454776287736261,0.5675384443151581,0,39,0.1
14,0.586213981404024,0.0006398735420696218,0.5204237353263026,0,39,0.1
15,0.5703483336112078,0.0006899874421137878,0.5089900474565875,0,39,0.1
16,0.5622584388536566,0.0005765315340420998,0.48736093826187155,1,39,0.1
17,0.535574237388723,0.0005437306778998497,0.5081930991184197,0,39,0.1
18,0.5226446646101335,0.0005768230924492374,0.46484781840207434,1,39,0.1
19,0.5112527307342081,0.000565606852144222,0.43646315402893626,1,39,0.1
20,0.49812268229091866,0.000550363482291098,0.47854115343397186,0,39,0.1
21,0.4898814674685983,0.0005822286270010998,0.4379810251566102,0,39,0.1
22,0.4768570528310888,0.0006535790463471238,0.4099200854584942,1,39,0.1
23,0.4799173018511604,0.0005682297831620364,0.39254805326793546,1,39,0.1
24,0.46116885472746455,0.0007094897117520518,0.4246835179869831,0,39,0.1
25,0.4573577014838948,0.0006574438518488451,0.44232948884770784,0,39,0.1
26,0.44160757660865785,0.0006430143962942941,0.3974132674501598,0,39,0.1
27,0.43698307521202984,0.0006658198921393384,0.429822421527307,0,39,0.1
28,0.43309761846766753,0.0006171535392401411,0.39459291679783176,0,39,0.1
29,0.41295505621853995,0.0005917200671426733,0.44631222543881044,0,39,0.1
30,0.41247269651469065,0.0005857843926231213,0.4323466467359339,0,39,0.1
1,0.9137138951392401,0.0009666814016998701,0.7680565415262195,1,40,0.1
2,0.8057752954108375,0.0010986854142088088,0.6687645899584482,1,40,0.1
3,0.766491616765658,0.0012926931002376868,0.7115691916463538,0,40,0.1
4,0.7363046428986958,0.0010689375215276545,0.6299744087856511,1,40,0.1
5,0.7128668569383168,0.001152980690156775,0.6251245092705167,1,40,0.1
6,0.6918335613750276,0.0010045703404882392,0.6363199447396158,0,40,0.1
7,0.6721686231238502,0.0009046672092240659,0.6137049210294793,1,40,0.1
8,0.6518447001775106,0.000916100432126162,0.5805130569536567,1,40,0.1
9,0.6357718911908922,0.0008171389320826469,0.6026934671634042,0,40,0.1
10,0.6264891588971728,0.0007633498400017354,0.6228531026511317,0,40,0.1
11,0.6107161506300881,0.0007265308896811413,0.6189205588381611,0,40,0.1
12,0.5978911203287897,0.0006855048878129483,0.5603383656840011,1,40,0.1
13,0.5736289024353027,0.0006832673905245472,0.6292568750148467,0,40,0.1
14,0.5647203727137475,0.0006640561824453817,0.6201627723014366,0,40,0.1
15,0.5616050007797423,0.0006787385032761709,0.563245262672975,0,40,0.1
16,0.5299538065280233,0.0006446974266076549,0.6217502518868054,0,40,0.1
17,0.5261202280720075,0.000542198718730582,0.5655102367365926,0,40,0.1
18,0.5100547273953756,0.0005773463718859213,0.5970673754176581,0,40,0.1
19,0.5044763953912825,0.0006021905847730869,0.5449496470716316,1,40,0.1
20,0.4850073509982654,0.0006494159727784184,0.5395633348147497,1,40,0.1
21,0.482696224181425,0.0006018703473576655,0.5067483359607007,1,40,0.1
22,0.4762353850972085,0.0006344662501110829,0.5559925052796248,0,40,0.1
23,0.47667460569313597,0.0006767525018880232,0.5292483238793643,0,40,0.1
24,0.44492304750851225,0.0005783875240013003,0.509347454860215,0,40,0.1
25,0.45337763570603873,0.0004973339347911644,0.5433244317452651,0,40,0.1
26,0.43724547929707025,0.0005429150800669699,0.5119297046210736,0,40,0.1
27,0.4391360470936412,0.0005651782640987742,0.5336349277080028,0,40,0.1
28,0.4254497903443518,0.0005870408716700261,0.5536861605545558,0,40,0.1
