subject,channel,alpha,f1,drop_pp
156,0,1.0,0.6879444973929788,0.0
156,0,0.75,0.7053112631791476,-1.7366765786168803
156,0,0.5,0.7209353046890206,-3.2990807296041758
156,0,0.25,0.7196361037233862,-3.169160633040735
156,0,0.0,0.6950196467772976,-0.7075149384318746
156,1,1.0,0.6879444973929788,0.0
156,1,0.75,0.6774439258306701,1.0500571562308658
156,1,0.5,0.6686567005790861,1.92877968138927
156,1,0.25,0.6488274703407009,3.911702705227793
156,1,0.0,0.5957630533515932,9.218144404138561
156,2,1.0,0.6879444973929788,0.0
156,2,0.75,0.6991092653704968,-1.1164767977517975
156,2,0.5,0.7081773457713026,-2.023284837832384
156,2,0.25,0.7029232990832202,-1.497880169024135
156,2,0.0,0.6769153732688218,1.102912412415702
156,3,1.0,0.6879444973929788,0.0
156,3,0.75,0.6799834075453464,0.7961089847632441
156,3,0.5,0.6713275220069829,1.6616975385995936
156,3,0.25,0.662374742911587,2.556975448139176
156,3,0.0,0.651324245094633,3.6620252298345757
156,4,1.0,0.6879444973929788,0.0
156,4,0.75,0.687020581022707,0.09239163702717823
156,4,0.5,0.6825030438564038,0.5441453536574992
156,4,0.25,0.6721033571968378,1.5841140196141024
156,4,0.0,0.6447240386340733,4.322045875890545
156,5,1.0,0.6879444973929788,0.0
156,5,0.75,0.6881622639938304,-0.021776660085159882
156,5,0.5,0.6800982882733707,0.7846209119608094
156,5,0.25,0.6616777329027352,2.6266764490243566
156,5,0.0,0.5218716072199847,16.607289017299408
156,6,1.0,0.6879444973929788,0.0
156,6,0.75,0.6819524895534789,0.5992007839499935
156,6,0.5,0.6782356402004905,0.9708857192488263
156,6,0.25,0.6734293510850473,1.4515146307931492
156,6,0.0,0.6656176157300578,2.232688166292096
185,0,1.0,0.7122620923400254,0.0
185,0,0.75,0.7126508409262379,-0.03887485862125173
185,0,0.5,0.7116413397863292,0.06207525536962022
185,0,0.25,0.6970528977636143,1.5209194576411011
185,0,0.0,0.6658589985756094,4.640309376441598
185,1,1.0,0.7122620923400254,0.0
185,1,0.75,0.7083681455342983,0.38939468057270776
185,1,0.5,0.7077310438631088,0.4531048476916544
185,1,0.25,0.6932792724310237,1.8982819909001636
185,1,0.0,0.6370717169694582,7.519037537056716
185,2,1.0,0.7122620923400254,0.0
185,2,0.75,0.7041651590242481,0.809693331577721
185,2,0.5,0.6912563143623993,2.100577797762604
185,2,0.25,0.669186319725126,4.307577261489937
185,2,0.0,0.6104080092010998,10.185408313892552
185,3,1.0,0.7122620923400254,0.0
185,3,0.75,0.7105179900381483,0.17441023018770485
185,3,0.5,0.7107284293376048,0.15336630024205267
185,3,0.25,0.7052462622927138,0.7015830047311544
185,3,0.0,0.6908795295793482,2.138256276067718
185,4,1.0,0.7122620923400254,0.0
185,4,0.75,0.7029647337968425,0.929735854318281
185,4,0.5,0.6896999923850675,2.2562099954957837
185,4,0.25,0.6621874318109603,5.007466052906507
185,4,0.0,0.6216533414407608,9.060875089926457
185,5,1.0,0.7122620923400254,0.0
185,5,0.75,0.7175687490511989,-0.5306656711173585
185,5,0.5,0.7233758051166136,-1.1113712776588236
185,5,0.25,0.7097052989417947,0.25567933982306723
185,5,0.0,0.6048997968808993,10.7362295459126
185,6,1.0,0.7122620923400254,0.0
185,6,0.75,0.7108741094491168,0.1387982890908579
185,6,0.5,0.7053511316900167,0.6910960650008624
185,6,0.25,0.7029488487933244,0.9313243546700933
185,6,0.0,0.6920903839861742,2.017170835385118
186,0,1.0,0.7736923789618139,0.0
186,0,0.75,0.7554820088276946,1.8210370134119302
186,0,0.5,0.7345314842267899,3.9160894735023932
186,0,0.25,0.6941788737836927,7.951350517812116
186,0,0.0,0.6608829210809803,11.280945788083352
186,1,1.0,0.7736923789618139,0.0
186,1,0.75,0.7671788355874128,0.6513543374401021
186,1,0.5,0.763029372622932,1.0663006338881842
186,1,0.25,0.7457633910213717,2.7928987940442185
186,1,0.0,0.6697290412796801,10.396333768213372
186,2,1.0,0.7736923789618139,0.0
186,2,0.75,0.7712070606346162,0.2485318327197672
186,2,0.5,0.7712722713911423,0.24201075706715702
186,2,0.25,0.756524086346706,1.7168292615107883
186,2,0.0,0.7064612517099097,6.723112725190417
186,3,1.0,0.7736923789618139,0.0
186,3,0.75,0.7738394896705464,-0.014711070873252297
186,3,0.5,0.7774943061916723,-0.3801927229858393
186,3,0.25,0.7735731732059817,0.011920575583213022
186,3,0.0,0.7646379376033385,0.9054441358475329
186,4,1.0,0.7736923789618139,0.0
186,4,0.75,0.7675983922556443,0.6093986706169563
186,4,0.5,0.7609127119608998,1.2779667000914041
186,4,0.25,0.7333872822019682,4.030509675984561
186,4,0.0,0.684649618644404,8.904276031740988
186,5,1.0,0.7736923789618139,0.0
186,5,0.75,0.7660418034441133,0.7650575517700542
186,5,0.5,0.7557640680546271,1.7928310907186717
186,5,0.25,0.7143461553574841,5.934622360432973
186,5,0.0,0.6071338052146549,16.6558573747159
186,6,1.0,0.7736923789618139,0.0
186,6,0.75,0.7710517931878856,0.2640585773928228
186,6,0.5,0.7708044080317292,0.2887970930084638
186,6,0.25,0.7655893846980821,0.8102994263731733
186,6,0.0,0.7577588666165538,1.5933512345260081
188,0,1.0,0.6270164535521077,0.0
188,0,0.75,0.6193943174413921,0.7622136110715605
188,0,0.5,0.6133811563351279,1.3635297216979758
188,0,0.25,0.6012001882469108,2.5816265305196873
188,0,0.0,0.5848354708138882,4.218098273821946
188,1,1.0,0.6270164535521077,0.0
188,1,0.75,0.6222552928871481,0.4761160664959574
188,1,0.5,0.6159181515237311,1.1098302028376583
188,1,0.25,0.5916736301904292,3.534282336167849
188,1,0.0,0.5284099634501996,9.860649010190803
188,2,1.0,0.6270164535521077,0.0
188,2,0.75,0.6211020360164752,0.5914417535632488
188,2,0.5,0.6064593495927534,2.0557103959354284
188,2,0.25,0.5747737170133189,5.224273653878875
188,2,0.0,0.49902467511682214,12.799177843528554
188,3,1.0,0.6270164535521077,0.0
188,3,0.75,0.6190938988057446,0.7922554746363053
188,3,0.5,0.6058125619349285,2.120389161717917
188,3,0.25,0.5941464054486038,3.2870048103503913
188,3,0.0,0.583785650046589,4.323080350551867
188,4,1.0,0.6270164535521077,0.0
188,4,0.75,0.6200977410574693,0.6918712494638379
188,4,0.5,0.6071098486292045,1.9906604922903193
188,4,0.25,0.5835607138928673,4.345573965924032
188,4,0.0,0.5577494575103178,6.926699604178987
188,5,1.0,0.6270164535521077,0.0
188,5,0.75,0.6320175380666208,-0.5001084514513088
188,5,0.5,0.6301287999797174,-0.31123464276097135
188,5,0.25,0.6095291289832879,1.748732456881974
188,5,0.0,0.5046051477877949,12.241130576431281
188,6,1.0,0.6270164535521077,0.0
188,6,0.75,0.6171161024799963,0.9900351072111402
188,6,0.5,0.6170997572031224,0.9916696348985288
188,6,0.25,0.6089783328375071,1.8038120714600536
188,6,0.0,0.5977266188382667,2.9289834713840945
189,0,1.0,0.7045921911330719,0.0
189,0,0.75,0.701210311470328,0.33818796627439474
189,0,0.5,0.7004277297036516,0.41644614294202853
189,0,0.25,0.6977672424765667,0.6824948656505181
189,0,0.0,0.6588679255582134,4.572426557485853
189,1,1.0,0.7045921911330719,0.0
189,1,0.75,0.7052272944396478,-0.06351033065759015
189,1,0.5,0.7038270150286341,0.07651761044378258
189,1,0.25,0.6847405481266884,1.9851643006383535
189,1,0.0,0.6071183486348953,9.747384249817658
189,2,1.0,0.7045921911330719,0.0
189,2,0.75,0.717263794781775,-1.2671603648703123
189,2,0.5,0.7341905522043611,-2.9598361071289214
189,2,0.25,0.7433766043076397,-3.8784413174567822
189,2,0.0,0.6797565875780202,2.4835603555051766
189,3,1.0,0.7045921911330719,0.0
189,3,0.75,0.6971307955486308,0.7461395584441144
189,3,0.5,0.6849850369156423,1.9607154217429645
189,3,0.25,0.6695687464121007,3.5023444720971186
189,3,0.0,0.6517869941495027,5.2805196983569225
189,4,1.0,0.7045921911330719,0.0
189,4,0.75,0.7004966633714154,0.4095527761656559
189,4,0.5,0.6912746643135012,1.3317526819570769
189,4,0.25,0.6766091326032733,2.7983058529798654
189,4,0.0,0.6451191200465767,5.947307108649524
189,5,1.0,0.7045921911330719,0.0
189,5,0.75,0.7003942768078059,0.4197914325266061
189,5,0.5,0.6843857745635674,2.0206416569504504
189,5,0.25,0.6267007738477787,7.789141728529325
189,5,0.0,0.4683757073131527,23.62164838199192
189,6,1.0,0.7045921911330719,0.0
189,6,0.75,0.7093932171182799,-0.48010259852079296
189,6,0.5,0.7208370914840698,-1.6244900350997904
189,6,0.25,0.7294351603098445,-2.4842969176772534
189,6,0.0,0.7382096366945384,-3.361744556146651
190,0,1.0,0.6585112670498292,0.0
190,0,0.75,0.6593076972130738,-0.07964301632445991
190,0,0.5,0.6478672044998044,1.0644062550024813
190,0,0.25,0.619440236189851,3.9071030859978206
190,0,0.0,0.5853617334149738,7.314953363485543
190,1,1.0,0.6585112670498292,0.0
190,1,0.75,0.6569089589779238,0.16023080719054228
190,1,0.5,0.6423669024022123,1.6144364647616927
190,1,0.25,0.6113973732582083,4.71138937916209
190,1,0.0,0.5331874392129485,12.532382783688067
190,2,1.0,0.6585112670498292,0.0
190,2,0.75,0.6468936468623294,1.1617620187499789
190,2,0.5,0.6209586020159734,3.755266503385579
190,2,0.25,0.5711545999525736,8.735666709725564
190,2,0.0,0.47267660985416915,18.583465719566007
190,3,1.0,0.6585112670498292,0.0
190,3,0.75,0.6691248029073187,-1.0613535857489476
190,3,0.5,0.669464574409247,-1.0953307359417797
190,3,0.25,0.6662858125503349,-0.7774545500505714
190,3,0.0,0.6584048485534019,0.01064184964273407
190,4,1.0,0.6585112670498292,0.0
190,4,0.75,0.6509629791591007,0.7548287890728478
190,4,0.5,0.6379136150758461,2.059765197398311
190,4,0.25,0.6165488771451403,4.196238990468892
190,4,0.0,0.5760253608374769,8.24859062123523
190,5,1.0,0.6585112670498292,0.0
190,5,0.75,0.6699037286497831,-1.1392461599953885
190,5,0.5,0.6666103775833202,-0.8099110533490994
190,5,0.25,0.6425570673015288,1.5954199748300368
190,5,0.0,0.5499894172243405,10.852184982548874
190,6,1.0,0.6585112670498292,0.0
190,6,0.75,0.6651495303767825,-0.6638263326953275
190,6,0.5,0.660682577926289,-0.2171310876459831
190,6,0.25,0.6567524204474259,0.175884660240333
190,6,0.0,0.6410697588914245,1.7441508158404728
191,0,1.0,0.604939831213838,0.0
191,0,0.75,0.5979025941387961,0.7037237075041891
191,0,0.5,0.5818883795442866,2.305145166955136
191,0,0.25,0.5711844988323257,3.3755332381512293
191,0,0.0,0.5362667200411089,6.867311117272912
191,1,1.0,0.604939831213838,0.0
191,1,0.75,0.588617983375182,1.6321847838655978
191,1,0.5,0.5686826019385077,3.625722927533026
191,1,0.25,0.537775500501549,6.7164330712289
191,1,0.0,0.4652105763771325,13.97292548367055
191,2,1.0,0.604939831213838,0.0
191,2,0.75,0.615964665797997,-1.1024834584159038
191,2,0.5,0.6268890183026816,-2.1949187088843636
191,2,0.25,0.6344756573149547,-2.9535826101116713
191,2,0.0,0.5701809135385321,3.4758917675305923
191,3,1.0,0.604939831213838,0.0
191,3,0.75,0.6178545551929988,-1.2914723979160825
191,3,0.5,0.6309281253282641,-2.598829411442616
191,3,0.25,0.6475491452128046,-4.260931399896661
191,3,0.0,0.6619954536463997,-5.705562243256168
191,4,1.0,0.604939831213838,0.0
191,4,0.75,0.5999300624277528,0.5009768786085167
191,4,0.5,0.5875193655614219,1.7420465652416062
191,4,0.25,0.573806753107882,3.1133078105956002
191,4,0.0,0.5575396793104312,4.740015190340674
191,5,1.0,0.604939831213838,0.0
191,5,0.75,0.6102414413307048,-0.5301610116866806
191,5,0.5,0.6378016181676758,-3.286178695383779
191,5,0.25,0.6513381432453897,-4.639831203155175
191,5,0.0,0.5691342651167737,3.580556609706431
191,6,1.0,0.604939831213838,0.0
191,6,0.75,0.6067272300825162,-0.17873988686781805
191,6,0.5,0.6003785593619192,0.4561271851918791
191,6,0.25,0.5981009085708353,0.6838922643002676
191,6,0.0,0.5978292189238833,0.7110612289954688
192,0,1.0,0.45112583252269006,0.0
192,0,0.75,0.4525643718454989,-0.14385393228088517
192,0,0.5,0.45114201880901666,-0.0016186286326602684
192,0,0.25,0.4393056964894069,1.1820136033283135
192,0,0.0,0.4222135219476002,2.8912310575089863
192,1,1.0,0.45112583252269006,0.0
192,1,0.75,0.45457174874025985,-0.3445916217569789
192,1,0.5,0.44644634451846077,0.4679488004229293
192,1,0.25,0.4327914850677783,1.8334347454911748
192,1,0.0,0.4065068346962318,4.461899782645828
192,2,1.0,0.45112583252269006,0.0
192,2,0.75,0.4467145771598924,0.44112553627976836
192,2,0.5,0.4321932678181139,1.893256470457616
192,2,0.25,0.4175795671501318,3.354626537255828
192,2,0.0,0.38688187718206046,6.42439553406296
192,3,1.0,0.45112583252269006,0.0
192,3,0.75,0.44603785115478123,0.5087981367908834
192,3,0.5,0.444372920629645,0.6752911893045055
192,3,0.25,0.4379282820261111,1.3197550496578947
192,3,0.0,0.43170767714563285,1.9418155377057211
192,4,1.0,0.45112583252269006,0.0
192,4,0.75,0.4486353749916297,0.24904575310603638
192,4,0.5,0.4421388222321169,0.8987010290573139
192,4,0.25,0.42428305679387635,2.6842775728813715
192,4,0.0,0.39039054016494495,6.073529235774511
192,5,1.0,0.45112583252269006,0.0
192,5,0.75,0.44203087124597085,0.9094961276719216
192,5,0.5,0.43408627903682007,1.7039553485869996
192,5,0.25,0.417536248716983,3.3589583805707033
192,5,0.0,0.4122612511485141,3.8864581374175975
192,6,1.0,0.45112583252269006,0.0
192,6,0.75,0.4528100168217054,-0.16841842990153455
192,6,0.5,0.451261502758439,-0.013567023574895254
192,6,0.25,0.45090145691335115,0.022437560933891154
192,6,0.0,0.4462622295862845,0.48636029364055866
193,0,1.0,0.5663714795468321,0.0
193,0,0.75,0.5766227674676839,-1.0251287920851837
193,0,0.5,0.5694608276568709,-0.3089348110038803
193,0,0.25,0.5350954443185849,3.127603522824718
193,0,0.0,0.4925380309473679,7.383344859946417
193,1,1.0,0.5663714795468321,0.0
193,1,0.75,0.5522791362650927,1.4092343281739361
193,1,0.5,0.537575235115464,2.879624443136808
193,1,0.25,0.5090752108329482,5.729626871388394
193,1,0.0,0.47650468948477853,8.986679006205357
193,2,1.0,0.5663714795468321,0.0
193,2,0.75,0.5583458739606185,0.8025605586213569
193,2,0.5,0.539420886066118,2.6950593480714047
193,2,0.25,0.502337880896703,6.403359865012915
193,2,0.0,0.4694412369285069,9.693024261832516
193,3,1.0,0.5663714795468321,0.0
193,3,0.75,0.559291960387546,0.7079519159286063
193,3,0.5,0.5567623307151315,0.9609148831700609
193,3,0.25,0.5454680128731417,2.0903466673690363
193,3,0.0,0.5319938495510605,3.437762999577154
193,4,1.0,0.5663714795468321,0.0
193,4,0.75,0.585434423603871,-1.90629440570389
193,4,0.5,0.6121570900777085,-4.578561053087638
193,4,0.25,0.6302170132241239,-6.384553367729184
193,4,0.0,0.608833501289048,-4.246202174221592
193,5,1.0,0.5663714795468321,0.0
193,5,0.75,0.5620383602378032,0.433311930902891
193,5,0.5,0.5476724992953167,1.8698980251515396
193,5,0.25,0.5209382471911195,4.543323235571261
193,5,0.0,0.47285037935054985,9.352110019628224
193,6,1.0,0.5663714795468321,0.0
193,6,0.75,0.5706260211047816,-0.4254541557949465
193,6,0.5,0.57679001312879,-1.0418533581957878
193,6,0.25,0.5755145134202861,-0.9143033873454054
193,6,0.0,0.5705156608685731,-0.4144181321740992
194,0,1.0,0.7690138762433725,0.0
194,0,0.75,0.769749755969037,-0.07358797256645788
194,0,0.5,0.7671690319208782,0.18448443224943212
194,0,0.25,0.7434057182092852,2.5608158034087225
194,0,0.0,0.6892673325703064,7.974654367306611
194,1,1.0,0.7690138762433725,0.0
194,1,0.75,0.7733235766428062,-0.430970039943368
194,1,0.5,0.7768374599341861,-0.7823583690813596
194,1,0.25,0.7668745150198539,0.21393612235185433
194,1,0.0,0.680294275831373,8.871960041199944
194,2,1.0,0.7690138762433725,0.0
194,2,0.75,0.7728530440910129,-0.3839167847640379
194,2,0.5,0.7787519050127194,-0.9738028769346929
194,2,0.25,0.7742179941167624,-0.5204117873389924
194,2,0.0,0.693672875881014,7.534100036235847
194,3,1.0,0.7690138762433725,0.0
194,3,0.75,0.7672326844391507,0.178119180422176
194,3,0.5,0.7669852888990769,0.20285873442955626
194,3,0.25,0.7628293770401046,0.6184499203267912
194,3,0.0,0.7682640235600533,0.07498526833191743
194,4,1.0,0.7690138762433725,0.0
194,4,0.75,0.7681073754870623,0.09065007563101579
194,4,0.5,0.7609885743224589,0.8025301920913552
194,4,0.25,0.7488307457374486,2.0183130505923907
194,4,0.0,0.698180721287266,7.083315495610643
194,5,1.0,0.7690138762433725,0.0
194,5,0.75,0.7772860152947954,-0.8272139051422878
194,5,0.5,0.7745157758794001,-0.5501899636027652
194,5,0.25,0.76000901469003,0.9004861553342458
194,5,0.0,0.676503503347659,9.25103728957135
194,6,1.0,0.7690138762433725,0.0
194,6,0.75,0.7703728759299513,-0.13589996865788212
194,6,0.5,0.7744782440124677,-0.5464367769095202
194,6,0.25,0.7820894730334003,-1.3075596790027788
194,6,0.0,0.7849898785136895,-1.5976002270317036
