subject,block,block_width,feature_channel,gate_mean,gate_sd
156,0,32,0,0.6644652485847473,0.07391093671321869
156,0,32,1,0.5887787342071533,0.04023386165499687
156,0,32,2,0.4358866512775421,0.0841900110244751
156,0,32,3,0.5519701242446899,0.10748010873794556
156,0,32,4,0.4652872383594513,0.09492530673742294
156,0,32,5,0.5103698372840881,0.09721066057682037
156,0,32,6,0.38448894023895264,0.10712574422359467
156,0,32,7,0.4608902037143707,0.12140320241451263
156,0,32,8,0.6071194410324097,0.11503195762634277
156,0,32,9,0.4374068081378937,0.1109418272972107
156,0,32,10,0.686941921710968,0.060612622648477554
156,0,32,11,0.5428516864776611,0.13416534662246704
156,0,32,12,0.45050904154777527,0.14094993472099304
156,0,32,13,0.43978914618492126,0.06701943278312683
156,0,32,14,0.41844019293785095,0.09880062192678452
156,0,32,15,0.4491272568702698,0.1314534991979599
156,0,32,16,0.43573930859565735,0.09392621368169785
156,0,32,17,0.31484073400497437,0.11205263435840607
156,0,32,18,0.42248401045799255,0.03431771323084831
156,0,32,19,0.47361230850219727,0.12425607442855835
156,0,32,20,0.4051209092140198,0.017343126237392426
156,0,32,21,0.5888875722885132,0.07300455123186111
156,0,32,22,0.4509468376636505,0.11574093252420425
156,0,32,23,0.6398341655731201,0.08292508125305176
156,0,32,24,0.5515714883804321,0.04920301213860512
156,0,32,25,0.448415607213974,0.1206570491194725
156,0,32,26,0.5483058094978333,0.04737460985779762
156,0,32,27,0.3966476023197174,0.07972166687250137
156,0,32,28,0.4740566313266754,0.05588304623961449
156,0,32,29,0.3165637254714966,0.06713687628507614
156,0,32,30,0.5538878440856934,0.08137734979391098
156,0,32,31,0.30094295740127563,0.0533381849527359
156,1,32,0,0.632287859916687,0.09110207855701447
156,1,32,1,0.5897512435913086,0.08963196724653244
156,1,32,2,0.4632982611656189,0.08088032901287079
156,1,32,3,0.603247880935669,0.1453523337841034
156,1,32,4,0.38652342557907104,0.11568347364664078
156,1,32,5,0.5175479650497437,0.13376903533935547
156,1,32,6,0.39901039004325867,0.12225578725337982
156,1,32,7,0.45295220613479614,0.1168389543890953
156,1,32,8,0.4612354636192322,0.09592759609222412
156,1,32,9,0.6755219101905823,0.08293776959180832
156,1,32,10,0.5804687142372131,0.09002137929201126
156,1,32,11,0.6811212301254272,0.0648423284292221
156,1,32,12,0.5788146257400513,0.102501779794693
156,1,32,13,0.4816586673259735,0.1274930089712143
156,1,32,14,0.328490287065506,0.10000722855329514
156,1,32,15,0.43465539813041687,0.13216915726661682
156,1,32,16,0.4419132173061371,0.06567350775003433
156,1,32,17,0.507265031337738,0.11411533504724503
156,1,32,18,0.6599078178405762,0.07872538268566132
156,1,32,19,0.5156176686286926,0.06245463341474533
156,1,32,20,0.5833091735839844,0.15022514760494232
156,1,32,21,0.3391743302345276,0.11535211652517319
156,1,32,22,0.5366228818893433,0.11035796254873276
156,1,32,23,0.69251549243927,0.102337546646595
156,1,32,24,0.39965832233428955,0.06553495675325394
156,1,32,25,0.4296554625034332,0.035229820758104324
156,1,32,26,0.39969682693481445,0.101686030626297
156,1,32,27,0.30041998624801636,0.11745215952396393
156,1,32,28,0.5455920696258545,0.091246098279953
156,1,32,29,0.5217294692993164,0.11039773374795914
156,1,32,30,0.4834004342556,0.0666252002120018
156,1,32,31,0.46908271312713623,0.16067853569984436
156,2,64,0,0.5354502201080322,0.24979616701602936
156,2,64,1,0.39381739497184753,0.12635429203510284
156,2,64,2,0.28700658679008484,0.15110155940055847
156,2,64,3,0.27028149366378784,0.12885816395282745
156,2,64,4,0.5136514902114868,0.07037463784217834
156,2,64,5,0.4050978720188141,0.16421538591384888
156,2,64,6,0.4801691174507141,0.10958471894264221
156,2,64,7,0.5229324102401733,0.19167622923851013
156,2,64,8,0.4651283919811249,0.14579300582408905
156,2,64,9,0.5418838262557983,0.1752328723669052
156,2,64,10,0.3727329969406128,0.17984448373317719
156,2,64,11,0.5267347097396851,0.25108644366264343
156,2,64,12,0.5250169634819031,0.21207107603549957
156,2,64,13,0.42631790041923523,0.22077438235282898
156,2,64,14,0.4462325870990753,0.0803239569067955
156,2,64,15,0.5317406058311462,0.16879957914352417
156,2,64,16,0.6234646439552307,0.17374160885810852
156,2,64,17,0.6925905346870422,0.13719704747200012
156,2,64,18,0.5021647214889526,0.22927260398864746
156,2,64,19,0.5900951027870178,0.23566696047782898
156,2,64,20,0.5907424092292786,0.10426876693964005
156,2,64,21,0.6830244064331055,0.13943947851657867
156,2,64,22,0.6185650825500488,0.19060830771923065
156,2,64,23,0.34033000469207764,0.15427464246749878
156,2,64,24,0.43628033995628357,0.14898233115673065
156,2,64,25,0.5014695525169373,0.2349344938993454
156,2,64,26,0.4168052673339844,0.09318786859512329
156,2,64,27,0.4269479811191559,0.1933111697435379
156,2,64,28,0.3766957223415375,0.19077478349208832
156,2,64,29,0.3421815037727356,0.2067233771085739
156,2,64,30,0.7286308407783508,0.1282750964164734
156,2,64,31,0.28425297141075134,0.10481160134077072
156,2,64,32,0.6149964332580566,0.20585355162620544
156,2,64,33,0.5842448472976685,0.21078048646450043
156,2,64,34,0.5956970453262329,0.135074183344841
156,2,64,35,0.3301650583744049,0.1163773164153099
156,2,64,36,0.5021204948425293,0.2273404449224472
156,2,64,37,0.5056872963905334,0.13017535209655762
156,2,64,38,0.5892977118492126,0.2015586942434311
156,2,64,39,0.38301336765289307,0.1695692241191864
156,2,64,40,0.3842237889766693,0.17251834273338318
156,2,64,41,0.34866398572921753,0.22587230801582336
156,2,64,42,0.37990278005599976,0.2198045700788498
156,2,64,43,0.4048825204372406,0.1961389183998108
156,2,64,44,0.5106795430183411,0.12901200354099274
156,2,64,45,0.5235792994499207,0.15395748615264893
156,2,64,46,0.49325746297836304,0.25192633271217346
156,2,64,47,0.43454641103744507,0.15676258504390717
156,2,64,48,0.6082912087440491,0.16721951961517334
156,2,64,49,0.6160547137260437,0.13187411427497864
156,2,64,50,0.6448910236358643,0.17983506619930267
156,2,64,51,0.5801805257797241,0.14610080420970917
156,2,64,52,0.6059658527374268,0.16226792335510254
156,2,64,53,0.48311346769332886,0.16266342997550964
156,2,64,54,0.5578532814979553,0.17597705125808716
156,2,64,55,0.4800557792186737,0.24156682193279266
156,2,64,56,0.2767091393470764,0.13776898384094238
156,2,64,57,0.41333043575286865,0.15260262787342072
156,2,64,58,0.6022798418998718,0.11353449523448944
156,2,64,59,0.4778096079826355,0.2085191160440445
156,2,64,60,0.5453404188156128,0.18459153175354004
156,2,64,61,0.522392749786377,0.18992942571640015
156,2,64,62,0.4073050022125244,0.1255563497543335
156,2,64,63,0.4756135642528534,0.2531023919582367
156,3,64,0,0.6543145775794983,0.13298851251602173
156,3,64,1,0.4024175703525543,0.13113060593605042
156,3,64,2,0.41885390877723694,0.20185664296150208
156,3,64,3,0.5657933950424194,0.10014932602643967
156,3,64,4,0.5757413506507874,0.15942049026489258
156,3,64,5,0.5067911148071289,0.18078939616680145
156,3,64,6,0.45140892267227173,0.15203267335891724
156,3,64,7,0.5380913019180298,0.08588913083076477
156,3,64,8,0.3370199203491211,0.11842861771583557
156,3,64,9,0.48782721161842346,0.13491368293762207
156,3,64,10,0.3963961899280548,0.09990166127681732
156,3,64,11,0.3719831705093384,0.15720859169960022
156,3,64,12,0.3823505938053131,0.14544187486171722
156,3,64,13,0.3841593563556671,0.11400940269231796
156,3,64,14,0.4336034059524536,0.1500193029642105
156,3,64,15,0.504881739616394,0.08852041512727737
156,3,64,16,0.47016748785972595,0.13834066689014435
156,3,64,17,0.3217276632785797,0.08097175508737564
156,3,64,18,0.56400465965271,0.11743077635765076
156,3,64,19,0.4940875768661499,0.18740254640579224
156,3,64,20,0.5771233439445496,0.07929420471191406
156,3,64,21,0.5233917236328125,0.11704348027706146
156,3,64,22,0.5134133696556091,0.11399395763874054
156,3,64,23,0.43826866149902344,0.16416364908218384
156,3,64,24,0.5456753969192505,0.18765966594219208
156,3,64,25,0.5299639701843262,0.11298013478517532
156,3,64,26,0.247989684343338,0.10409881919622421
156,3,64,27,0.6316561102867126,0.1266193687915802
156,3,64,28,0.599316418170929,0.06156665086746216
156,3,64,29,0.4290865659713745,0.10889588296413422
156,3,64,30,0.5436959266662598,0.09671249240636826
156,3,64,31,0.5480698347091675,0.12466757744550705
156,3,64,32,0.5081679224967957,0.11015268415212631
156,3,64,33,0.5742844939231873,0.09136110544204712
156,3,64,34,0.44913288950920105,0.12762293219566345
156,3,64,35,0.4998028874397278,0.10579191893339157
156,3,64,36,0.5163251161575317,0.11699001491069794
156,3,64,37,0.44789427518844604,0.10245479643344879
156,3,64,38,0.3744208812713623,0.1476295292377472
156,3,64,39,0.6224422454833984,0.09743131697177887
156,3,64,40,0.6478270888328552,0.14280351996421814
156,3,64,41,0.3252376914024353,0.1421600729227066
156,3,64,42,0.4116741716861725,0.21747826039791107
156,3,64,43,0.45027628540992737,0.10052520781755447
156,3,64,44,0.4970821142196655,0.06235591694712639
156,3,64,45,0.6509068608283997,0.10503457486629486
156,3,64,46,0.520602822303772,0.13022729754447937
156,3,64,47,0.5179635286331177,0.16056349873542786
156,3,64,48,0.44146397709846497,0.060808926820755005
156,3,64,49,0.5593681335449219,0.05402673780918121
156,3,64,50,0.5166627168655396,0.1731008142232895
156,3,64,51,0.5900473594665527,0.09557356685400009
156,3,64,52,0.5586994290351868,0.1215558797121048
156,3,64,53,0.4936261475086212,0.14202024042606354
156,3,64,54,0.39464661478996277,0.07379260659217834
156,3,64,55,0.497645765542984,0.09834902733564377
156,3,64,56,0.4478015601634979,0.13242781162261963
156,3,64,57,0.5937612056732178,0.1425219625234604
156,3,64,58,0.5476745963096619,0.1334725320339203
156,3,64,59,0.5400509834289551,0.13587704300880432
156,3,64,60,0.3356853127479553,0.10825018584728241
156,3,64,61,0.36250460147857666,0.12462332099676132
156,3,64,62,0.46358931064605713,0.1408197581768036
156,3,64,63,0.5249539613723755,0.14250226318836212
156,4,128,0,0.6978461146354675,0.2688075006008148
156,4,128,1,0.6203798055648804,0.2979353070259094
156,4,128,2,0.5174678564071655,0.12417394667863846
156,4,128,3,0.5180153250694275,0.12748894095420837
156,4,128,4,0.3527429699897766,0.15777671337127686
156,4,128,5,0.478503555059433,0.19361558556556702
156,4,128,6,0.44468292593955994,0.25423958897590637
156,4,128,7,0.7832656502723694,0.1501176804304123
156,4,128,8,0.32961681485176086,0.13041681051254272
156,4,128,9,0.46498793363571167,0.28626567125320435
156,4,128,10,0.713377058506012,0.23537908494472504
156,4,128,11,0.48237597942352295,0.20729178190231323
156,4,128,12,0.5744813680648804,0.1740555614233017
156,4,128,13,0.5967496633529663,0.12271739542484283
156,4,128,14,0.5405891537666321,0.28705140948295593
156,4,128,15,0.5778434872627258,0.16639797389507294
156,4,128,16,0.42196983098983765,0.2237759381532669
156,4,128,17,0.4520263373851776,0.11421551555395126
156,4,128,18,0.44371694326400757,0.264394611120224
156,4,128,19,0.5253411531448364,0.11249806731939316
156,4,128,20,0.4136643409729004,0.22176456451416016
156,4,128,21,0.5509042739868164,0.1806354522705078
156,4,128,22,0.7295822501182556,0.22833724319934845
156,4,128,23,0.5417129993438721,0.3115333020687103
156,4,128,24,0.5595287680625916,0.27507439255714417
156,4,128,25,0.5951083302497864,0.26090872287750244
156,4,128,26,0.6215217709541321,0.15139277279376984
156,4,128,27,0.49744564294815063,0.1650778204202652
156,4,128,28,0.5542973279953003,0.2429995983839035
156,4,128,29,0.2948746383190155,0.1210288554430008
156,4,128,30,0.3705430328845978,0.20599861443042755
156,4,128,31,0.39527609944343567,0.13652634620666504
156,4,128,32,0.40467923879623413,0.13730016350746155
156,4,128,33,0.5720974802970886,0.1636638641357422
156,4,128,34,0.5068033933639526,0.2438676804304123
156,4,128,35,0.47542500495910645,0.23379626870155334
156,4,128,36,0.7525296211242676,0.1599501669406891
156,4,128,37,0.5099532604217529,0.08901264518499374
156,4,128,38,0.7147414684295654,0.11153093725442886
156,4,128,39,0.46421003341674805,0.195142924785614
156,4,128,40,0.7175503373146057,0.12291258573532104
156,4,128,41,0.4226800501346588,0.3388788104057312
156,4,128,42,0.49575597047805786,0.18949809670448303
156,4,128,43,0.6142064929008484,0.16989845037460327
156,4,128,44,0.6279094219207764,0.18786610662937164
156,4,128,45,0.6676567196846008,0.2854069471359253
156,4,128,46,0.603369951248169,0.15070834755897522
156,4,128,47,0.4423924684524536,0.33189380168914795
156,4,128,48,0.5517126321792603,0.07031320780515671
156,4,128,49,0.6011115312576294,0.162579745054245
156,4,128,50,0.7229666113853455,0.14287596940994263
156,4,128,51,0.48168015480041504,0.29493847489356995
156,4,128,52,0.5536519289016724,0.28199684619903564
156,4,128,53,0.3907872140407562,0.10414274781942368
156,4,128,54,0.38907912373542786,0.3063424527645111
156,4,128,55,0.39424023032188416,0.266278475522995
156,4,128,56,0.5854568481445312,0.20542962849140167
156,4,128,57,0.5866646766662598,0.24980279803276062
156,4,128,58,0.6180705428123474,0.1562151461839676
156,4,128,59,0.5963274836540222,0.18755322694778442
156,4,128,60,0.5539301633834839,0.15302298963069916
156,4,128,61,0.5861700177192688,0.3020218014717102
156,4,128,62,0.6108973622322083,0.2412649393081665
156,4,128,63,0.7574449181556702,0.1250467747449875
156,4,128,64,0.7386561632156372,0.13037210702896118
156,4,128,65,0.5971808433532715,0.3172753155231476
156,4,128,66,0.5874230861663818,0.125508114695549
156,4,128,67,0.7350413799285889,0.20133578777313232
156,4,128,68,0.3439236581325531,0.13165248930454254
156,4,128,69,0.5312654376029968,0.22925589978694916
156,4,128,70,0.6023799180984497,0.29684334993362427
156,4,128,71,0.5454727411270142,0.11996763944625854
156,4,128,72,0.5129894614219666,0.250225305557251
156,4,128,73,0.5187017321586609,0.17251095175743103
156,4,128,74,0.6658132672309875,0.11887522786855698
156,4,128,75,0.6729227900505066,0.2284223437309265
156,4,128,76,0.7526793479919434,0.10731310397386551
156,4,128,77,0.7771933674812317,0.09552733600139618
156,4,128,78,0.46916598081588745,0.12146445363759995
156,4,128,79,0.34776443243026733,0.09282717853784561
156,4,128,80,0.5641735196113586,0.2966153025627136
156,4,128,81,0.6856873631477356,0.17955100536346436
156,4,128,82,0.6209161281585693,0.18206456303596497
156,4,128,83,0.6083711981773376,0.1682380735874176
156,4,128,84,0.6301748156547546,0.22396226227283478
156,4,128,85,0.5293741226196289,0.11808712035417557
156,4,128,86,0.6994885206222534,0.15981605648994446
156,4,128,87,0.5148628950119019,0.17937885224819183
156,4,128,88,0.6010394096374512,0.10066269338130951
156,4,128,89,0.5268281698226929,0.2957518696784973
156,4,128,90,0.7329807877540588,0.18759137392044067
156,4,128,91,0.4757866859436035,0.23054960370063782
156,4,128,92,0.6726711392402649,0.28854620456695557
156,4,128,93,0.6685799956321716,0.1119300052523613
156,4,128,94,0.7320337891578674,0.11977113038301468
156,4,128,95,0.4912559390068054,0.2560175061225891
156,4,128,96,0.3938831388950348,0.19605602324008942
156,4,128,97,0.34957513213157654,0.11638157069683075
156,4,128,98,0.324039101600647,0.21951980888843536
156,4,128,99,0.5605135560035706,0.23825109004974365
156,4,128,100,0.6939155459403992,0.11628272384405136
156,4,128,101,0.7030563354492188,0.09483855217695236
156,4,128,102,0.3806304931640625,0.08850724995136261
156,4,128,103,0.7524239420890808,0.13739214837551117
156,4,128,104,0.6836397647857666,0.08526665717363358
156,4,128,105,0.428536593914032,0.32229945063591003
156,4,128,106,0.5324326157569885,0.17025689780712128
156,4,128,107,0.6365251541137695,0.2434476763010025
156,4,128,108,0.477158784866333,0.23382504284381866
156,4,128,109,0.5549145936965942,0.1938861608505249
156,4,128,110,0.5863120555877686,0.3185066878795624
156,4,128,111,0.7119073867797852,0.1730990707874298
156,4,128,112,0.7571673393249512,0.16172108054161072
156,4,128,113,0.46992695331573486,0.24745596945285797
156,4,128,114,0.4682314991950989,0.16544392704963684
156,4,128,115,0.5578528642654419,0.200051411986351
156,4,128,116,0.7082846760749817,0.12728501856327057
156,4,128,117,0.7284614443778992,0.1890924870967865
156,4,128,118,0.5398629307746887,0.2562776505947113
156,4,128,119,0.35500237345695496,0.2593238055706024
156,4,128,120,0.5061274766921997,0.22670063376426697
156,4,128,121,0.5199142098426819,0.131743386387825
156,4,128,122,0.44711315631866455,0.12051264941692352
156,4,128,123,0.7059064507484436,0.20798325538635254
156,4,128,124,0.5658504962921143,0.09612059593200684
156,4,128,125,0.466590940952301,0.1974087804555893
156,4,128,126,0.6423971652984619,0.15001927316188812
156,4,128,127,0.5894252061843872,0.2323160171508789
156,5,128,0,0.6462612748146057,0.23593507707118988
156,5,128,1,0.760165274143219,0.11214649677276611
156,5,128,2,0.5847555994987488,0.1198195219039917
156,5,128,3,0.7172572612762451,0.1104816123843193
156,5,128,4,0.7450087070465088,0.126408651471138
156,5,128,5,0.6441605091094971,0.13812990486621857
156,5,128,6,0.6936705112457275,0.10156484693288803
156,5,128,7,0.6185221672058105,0.1942431777715683
156,5,128,8,0.6113331913948059,0.06649245321750641
156,5,128,9,0.6251496076583862,0.07081380486488342
156,5,128,10,0.773423433303833,0.12765835225582123
156,5,128,11,0.7311034202575684,0.12737101316452026
156,5,128,12,0.5818752646446228,0.17086133360862732
156,5,128,13,0.6925346851348877,0.09791231900453568
156,5,128,14,0.6072613000869751,0.14719891548156738
156,5,128,15,0.5568268895149231,0.17491719126701355
156,5,128,16,0.5563542246818542,0.12402017414569855
156,5,128,17,0.4983874261379242,0.10891417413949966
156,5,128,18,0.6449329257011414,0.14558662474155426
156,5,128,19,0.6019186973571777,0.07766921818256378
156,5,128,20,0.3873850405216217,0.10138177871704102
156,5,128,21,0.43725040555000305,0.2323112189769745
156,5,128,22,0.6951029896736145,0.1732625514268875
156,5,128,23,0.6552297472953796,0.23731455206871033
156,5,128,24,0.7010762691497803,0.10763847827911377
156,5,128,25,0.6905849575996399,0.10457298904657364
156,5,128,26,0.4639471173286438,0.1764986366033554
156,5,128,27,0.6847503781318665,0.14627878367900848
156,5,128,28,0.5833026170730591,0.11227656155824661
156,5,128,29,0.5774115324020386,0.17138700187206268
156,5,128,30,0.5810145735740662,0.05076073855161667
156,5,128,31,0.5651037096977234,0.12854811549186707
156,5,128,32,0.6651554703712463,0.12270426005125046
156,5,128,33,0.5241084694862366,0.13722439110279083
156,5,128,34,0.5450395345687866,0.1559167355298996
156,5,128,35,0.5860796570777893,0.1343809813261032
156,5,128,36,0.680964469909668,0.09242738038301468
156,5,128,37,0.591180682182312,0.1096653938293457
156,5,128,38,0.4018395245075226,0.14764903485774994
156,5,128,39,0.6197517514228821,0.1509125679731369
156,5,128,40,0.5494926571846008,0.15141528844833374
156,5,128,41,0.5732210278511047,0.24509163200855255
156,5,128,42,0.5725412368774414,0.11464369297027588
156,5,128,43,0.5700724124908447,0.13484755158424377
156,5,128,44,0.6448767185211182,0.19963034987449646
156,5,128,45,0.7537068724632263,0.13902127742767334
156,5,128,46,0.6012065410614014,0.13527840375900269
156,5,128,47,0.6955822706222534,0.09648652374744415
156,5,128,48,0.6349843144416809,0.1914994865655899
156,5,128,49,0.7305803298950195,0.1266932636499405
156,5,128,50,0.5857304334640503,0.2386746108531952
156,5,128,51,0.6164448857307434,0.1219227984547615
156,5,128,52,0.5654040575027466,0.11582133173942566
156,5,128,53,0.5849288702011108,0.23718945682048798
156,5,128,54,0.6838291883468628,0.1491253525018692
156,5,128,55,0.704624593257904,0.1523592174053192
156,5,128,56,0.6133429408073425,0.11473390460014343
156,5,128,57,0.6081691384315491,0.17081411182880402
156,5,128,58,0.6295392513275146,0.1188126802444458
156,5,128,59,0.5956369042396545,0.0403471514582634
156,5,128,60,0.7511612176895142,0.12036571651697159
156,5,128,61,0.6006578207015991,0.09654830396175385
156,5,128,62,0.5817732214927673,0.15063919126987457
156,5,128,63,0.6264451742172241,0.2606736421585083
156,5,128,64,0.5460385680198669,0.09948409348726273
156,5,128,65,0.6754992604255676,0.1500314325094223
156,5,128,66,0.5538461804389954,0.16325625777244568
156,5,128,67,0.7110282182693481,0.1227768287062645
156,5,128,68,0.6460036635398865,0.13132239878177643
156,5,128,69,0.6692598462104797,0.13215847313404083
156,5,128,70,0.7766951322555542,0.09952116757631302
156,5,128,71,0.5469668507575989,0.17890560626983643
156,5,128,72,0.6044192910194397,0.20534776151180267
156,5,128,73,0.6854334473609924,0.09760057181119919
156,5,128,74,0.5161904692649841,0.09266097098588943
156,5,128,75,0.5229296684265137,0.1585865467786789
156,5,128,76,0.7217805981636047,0.11370576918125153
156,5,128,77,0.6320299506187439,0.1156349629163742
156,5,128,78,0.489336222410202,0.08498521894216537
156,5,128,79,0.6071891784667969,0.130048006772995
156,5,128,80,0.5933853387832642,0.24084007740020752
156,5,128,81,0.66151362657547,0.14860111474990845
156,5,128,82,0.6232550144195557,0.15063998103141785
156,5,128,83,0.5865676403045654,0.12427157908678055
156,5,128,84,0.33433401584625244,0.09131883084774017
156,5,128,85,0.5965594053268433,0.17388485372066498
156,5,128,86,0.6711129546165466,0.12597456574440002
156,5,128,87,0.48852989077568054,0.12447398155927658
156,5,128,88,0.6697985529899597,0.12726664543151855
156,5,128,89,0.5516952872276306,0.057224735617637634
156,5,128,90,0.6395400166511536,0.25125619769096375
156,5,128,91,0.6248008608818054,0.14193777740001678
156,5,128,92,0.5894867777824402,0.19978123903274536
156,5,128,93,0.46744304895401,0.19063149392604828
156,5,128,94,0.5992587208747864,0.14110693335533142
156,5,128,95,0.469723105430603,0.1896478831768036
156,5,128,96,0.6944879293441772,0.11240404844284058
156,5,128,97,0.5545754432678223,0.13723911345005035
156,5,128,98,0.5769894123077393,0.17417240142822266
156,5,128,99,0.504167377948761,0.1736898124217987
156,5,128,100,0.7079470157623291,0.11719608306884766
156,5,128,101,0.5665897727012634,0.15184421837329865
156,5,128,102,0.6009894013404846,0.09928134828805923
156,5,128,103,0.7425765991210938,0.14598798751831055
156,5,128,104,0.5549948215484619,0.20125307142734528
156,5,128,105,0.4862036406993866,0.11123945564031601
156,5,128,106,0.5191934704780579,0.19760146737098694
156,5,128,107,0.7046380043029785,0.13385792076587677
156,5,128,108,0.5932306051254272,0.09564915299415588
156,5,128,109,0.6417573094367981,0.10084304958581924
156,5,128,110,0.6701401472091675,0.11555001139640808
156,5,128,111,0.6987342238426208,0.1487433761358261
156,5,128,112,0.6366763710975647,0.1584359109401703
156,5,128,113,0.6429384350776672,0.11983171850442886
156,5,128,114,0.6689832210540771,0.12603329122066498
156,5,128,115,0.6669918894767761,0.15969373285770416
156,5,128,116,0.5695505738258362,0.19539369642734528
156,5,128,117,0.6400598287582397,0.1381310671567917
156,5,128,118,0.4991162121295929,0.2258785367012024
156,5,128,119,0.6816986799240112,0.13794337213039398
156,5,128,120,0.5989894270896912,0.09710618108510971
156,5,128,121,0.6468696594238281,0.12121119350194931
156,5,128,122,0.6712526679039001,0.13149574398994446
156,5,128,123,0.6599141955375671,0.18131497502326965
156,5,128,124,0.6515440940856934,0.1314544677734375
156,5,128,125,0.6519560813903809,0.06409011781215668
156,5,128,126,0.7106719613075256,0.1480357050895691
156,5,128,127,0.741932213306427,0.11978992074728012
185,0,32,0,0.5099442005157471,0.10027814656496048
185,0,32,1,0.4651665985584259,0.11046456545591354
185,0,32,2,0.4256401062011719,0.09279143810272217
185,0,32,3,0.38461214303970337,0.0913572907447815
185,0,32,4,0.3783428370952606,0.0880831852555275
185,0,32,5,0.42542368173599243,0.07473719120025635
185,0,32,6,0.4196336269378662,0.0750923752784729
185,0,32,7,0.43727678060531616,0.08586994558572769
185,0,32,8,0.46292054653167725,0.08251231908798218
185,0,32,9,0.4734514653682709,0.06962918490171432
185,0,32,10,0.3990119397640228,0.026442397385835648
185,0,32,11,0.6148584485054016,0.0558147206902504
185,0,32,12,0.39720866084098816,0.06331849843263626
185,0,32,13,0.586211621761322,0.1141560971736908
185,0,32,14,0.43634647130966187,0.06253038346767426
185,0,32,15,0.6308393478393555,0.09471068531274796
185,0,32,16,0.574496328830719,0.06854859739542007
185,0,32,17,0.4132941961288452,0.0371738001704216
185,0,32,18,0.41946861147880554,0.08211080729961395
185,0,32,19,0.5535395741462708,0.11176576465368271
185,0,32,20,0.5235149264335632,0.09382479637861252
185,0,32,21,0.5350958108901978,0.07002956420183182
185,0,32,22,0.40005671977996826,0.06792473793029785
185,0,32,23,0.48283830285072327,0.09109771251678467
185,0,32,24,0.5947719216346741,0.11061713844537735
185,0,32,25,0.37942802906036377,0.06191854178905487
185,0,32,26,0.5283986330032349,0.052378538995981216
185,0,32,27,0.5367778539657593,0.05444800853729248
185,0,32,28,0.6655555367469788,0.09772537648677826
185,0,32,29,0.41924598813056946,0.10058897733688354
185,0,32,30,0.4308806359767914,0.09734485298395157
185,0,32,31,0.4102347493171692,0.07230402529239655
185,1,32,0,0.49090996384620667,0.10695028305053711
185,1,32,1,0.5624371767044067,0.07804398238658905
185,1,32,2,0.40798863768577576,0.0662885457277298
185,1,32,3,0.5510126948356628,0.0664268359541893
185,1,32,4,0.5602124929428101,0.05215746536850929
185,1,32,5,0.2950064241886139,0.0876104012131691
185,1,32,6,0.5350128412246704,0.08069871366024017
185,1,32,7,0.4654088020324707,0.06899166852235794
185,1,32,8,0.3957921862602234,0.10047172755002975
185,1,32,9,0.357238233089447,0.088204026222229
185,1,32,10,0.46691393852233887,0.02765616402029991
185,1,32,11,0.5004779100418091,0.07359478622674942
185,1,32,12,0.5305194854736328,0.051187027245759964
185,1,32,13,0.4230518937110901,0.07962144911289215
185,1,32,14,0.547129213809967,0.0556965172290802
185,1,32,15,0.4703367054462433,0.04053191840648651
185,1,32,16,0.381668359041214,0.034652262926101685
185,1,32,17,0.5793031454086304,0.07561738044023514
185,1,32,18,0.476055383682251,0.10319627821445465
185,1,32,19,0.633229672908783,0.06978949159383774
185,1,32,20,0.3009847104549408,0.09117744863033295
185,1,32,21,0.3893360197544098,0.04135498031973839
185,1,32,22,0.3563601076602936,0.052218321710824966
185,1,32,23,0.5731945037841797,0.124169260263443
185,1,32,24,0.5041938424110413,0.05974442884325981
185,1,32,25,0.5808282494544983,0.08934229612350464
185,1,32,26,0.5796177387237549,0.05800404027104378
185,1,32,27,0.45954370498657227,0.1242242157459259
185,1,32,28,0.4986368417739868,0.10631418228149414
185,1,32,29,0.4505745470523834,0.06492763757705688
185,1,32,30,0.3555287718772888,0.0807967334985733
185,1,32,31,0.46188607811927795,0.09867345541715622
185,2,64,0,0.4715808629989624,0.1401914805173874
185,2,64,1,0.4558761715888977,0.04596966505050659
185,2,64,2,0.49954599142074585,0.13987796008586884
185,2,64,3,0.45517727732658386,0.14551261067390442
185,2,64,4,0.5836634039878845,0.1235557496547699
185,2,64,5,0.5217233896255493,0.15304693579673767
185,2,64,6,0.4701210856437683,0.1972496062517166
185,2,64,7,0.595498263835907,0.17150333523750305
185,2,64,8,0.5544795989990234,0.22435016930103302
185,2,64,9,0.4838341474533081,0.24223092198371887
185,2,64,10,0.5353204011917114,0.25776755809783936
185,2,64,11,0.3614031970500946,0.092840775847435
185,2,64,12,0.6579446792602539,0.11293499916791916
185,2,64,13,0.39623984694480896,0.1585416942834854
185,2,64,14,0.47561246156692505,0.2081817239522934
185,2,64,15,0.4717203378677368,0.1566702276468277
185,2,64,16,0.4752811789512634,0.13651643693447113
185,2,64,17,0.5705834627151489,0.15666264295578003
185,2,64,18,0.37635326385498047,0.13056474924087524
185,2,64,19,0.5354183912277222,0.14290165901184082
185,2,64,20,0.4946861267089844,0.176333487033844
185,2,64,21,0.45990097522735596,0.10650986433029175
185,2,64,22,0.35026535391807556,0.10947682708501816
185,2,64,23,0.4639754891395569,0.2460586577653885
185,2,64,24,0.5387125015258789,0.2312191277742386
185,2,64,25,0.2875828444957733,0.13636422157287598
185,2,64,26,0.5341579914093018,0.19594739377498627
185,2,64,27,0.601048469543457,0.08387643098831177
185,2,64,28,0.4484128952026367,0.1759571135044098
185,2,64,29,0.47820231318473816,0.23433935642242432
185,2,64,30,0.3432255983352661,0.11519544571638107
185,2,64,31,0.39074215292930603,0.08294401317834854
185,2,64,32,0.4050873816013336,0.25279125571250916
185,2,64,33,0.3655986189842224,0.1200340986251831
185,2,64,34,0.45856973528862,0.08495139330625534
185,2,64,35,0.32497379183769226,0.07324918359518051
185,2,64,36,0.5116608142852783,0.19344639778137207
185,2,64,37,0.46646201610565186,0.1642705798149109
185,2,64,38,0.313978910446167,0.15586751699447632
185,2,64,39,0.5057341456413269,0.19519254565238953
185,2,64,40,0.4444862902164459,0.25061821937561035
185,2,64,41,0.4003759026527405,0.17399200797080994
185,2,64,42,0.5313617587089539,0.22558501362800598
185,2,64,43,0.4604347050189972,0.27736696600914
185,2,64,44,0.46793705224990845,0.13449229300022125
185,2,64,45,0.3083544373512268,0.10213652998209
185,2,64,46,0.4482634961605072,0.18916796147823334
185,2,64,47,0.7171614170074463,0.11310867220163345
185,2,64,48,0.556205153465271,0.1306941956281662
185,2,64,49,0.558956503868103,0.13485483825206757
185,2,64,50,0.45292630791664124,0.09793100506067276
185,2,64,51,0.5557222962379456,0.16635891795158386
185,2,64,52,0.47318804264068604,0.11706314235925674
185,2,64,53,0.396270215511322,0.1188369169831276
185,2,64,54,0.5522426962852478,0.1288381665945053
185,2,64,55,0.492898166179657,0.11635784059762955
185,2,64,56,0.5582894682884216,0.09292828291654587
185,2,64,57,0.5454177260398865,0.13050788640975952
185,2,64,58,0.5436068177223206,0.0800621509552002
185,2,64,59,0.602411150932312,0.1561870276927948
185,2,64,60,0.5012775659561157,0.2022780030965805
185,2,64,61,0.5174024701118469,0.10063731670379639
185,2,64,62,0.5609756112098694,0.2921970784664154
185,2,64,63,0.41024646162986755,0.1039542555809021
185,3,64,0,0.35713231563568115,0.0835861936211586
185,3,64,1,0.5996065139770508,0.13722535967826843
185,3,64,2,0.47970542311668396,0.1847323477268219
185,3,64,3,0.39212512969970703,0.14475484192371368
185,3,64,4,0.48008599877357483,0.20184357464313507
185,3,64,5,0.5292869806289673,0.09712757915258408
185,3,64,6,0.47523075342178345,0.1295083910226822
185,3,64,7,0.5954076647758484,0.15943101048469543
185,3,64,8,0.579663872718811,0.14973190426826477
185,3,64,9,0.606049120426178,0.1525208055973053
185,3,64,10,0.6151518821716309,0.1027984768152237
185,3,64,11,0.605982780456543,0.14301519095897675
185,3,64,12,0.47348231077194214,0.17970900237560272
185,3,64,13,0.4267406761646271,0.1707266867160797
185,3,64,14,0.5757144689559937,0.11772026866674423
185,3,64,15,0.6574822068214417,0.07231761515140533
185,3,64,16,0.6151749491691589,0.13028676807880402
185,3,64,17,0.42336082458496094,0.17523281276226044
185,3,64,18,0.49195238947868347,0.17098388075828552
185,3,64,19,0.5946971774101257,0.07237537205219269
185,3,64,20,0.42645296454429626,0.14741070568561554
185,3,64,21,0.4269115924835205,0.13134680688381195
185,3,64,22,0.6301392912864685,0.14233222603797913
185,3,64,23,0.5196067094802856,0.13542823493480682
185,3,64,24,0.6239803433418274,0.08046755939722061
185,3,64,25,0.5820907950401306,0.20422828197479248
185,3,64,26,0.6015517115592957,0.11461539566516876
185,3,64,27,0.5664684772491455,0.11561424285173416
185,3,64,28,0.7136940360069275,0.1478547602891922
185,3,64,29,0.4142267107963562,0.11730718612670898
185,3,64,30,0.4761262834072113,0.08082862943410873
185,3,64,31,0.5038667917251587,0.2356882095336914
185,3,64,32,0.35702186822891235,0.12236854434013367
185,3,64,33,0.6030479073524475,0.10316991806030273
185,3,64,34,0.4554811120033264,0.07420939952135086
185,3,64,35,0.3519176244735718,0.11190160363912582
185,3,64,36,0.40857309103012085,0.23342831432819366
185,3,64,37,0.454673707485199,0.21947981417179108
185,3,64,38,0.4959001839160919,0.13522279262542725
185,3,64,39,0.5501726269721985,0.11256668716669083
185,3,64,40,0.456447571516037,0.14785346388816833
185,3,64,41,0.5587788820266724,0.23432578146457672
185,3,64,42,0.5016676187515259,0.1567019671201706
185,3,64,43,0.5165061950683594,0.13065238296985626
185,3,64,44,0.46509772539138794,0.18327416479587555
185,3,64,45,0.4473724365234375,0.09467048943042755
185,3,64,46,0.4299182891845703,0.14489036798477173
185,3,64,47,0.4202123284339905,0.1608206033706665
185,3,64,48,0.5527554154396057,0.22436712682247162
185,3,64,49,0.4759380519390106,0.1382143348455429
185,3,64,50,0.5773575305938721,0.15774720907211304
185,3,64,51,0.40732312202453613,0.2290247231721878
185,3,64,52,0.5227127075195312,0.1805606186389923
185,3,64,53,0.5488279461860657,0.07147221267223358
185,3,64,54,0.5748647451400757,0.07928576320409775
185,3,64,55,0.5543674826622009,0.12319507449865341
185,3,64,56,0.6240910887718201,0.07007594406604767
185,3,64,57,0.5124748349189758,0.08489742875099182
185,3,64,58,0.5005823969841003,0.13692311942577362
185,3,64,59,0.342488169670105,0.12813283503055573
185,3,64,60,0.5340812802314758,0.11532938480377197
185,3,64,61,0.5574768781661987,0.09993083775043488
185,3,64,62,0.5169269442558289,0.13101805746555328
185,3,64,63,0.5888199210166931,0.1488797515630722
185,4,128,0,0.593916118144989,0.23377716541290283
185,4,128,1,0.6886252760887146,0.1146225705742836
185,4,128,2,0.3137431740760803,0.13015803694725037
185,4,128,3,0.7022759914398193,0.13466320931911469
185,4,128,4,0.5731169581413269,0.2851279675960541
185,4,128,5,0.5128785371780396,0.2072306126356125
185,4,128,6,0.516085147857666,0.3081541657447815
185,4,128,7,0.5912431478500366,0.2875369191169739
185,4,128,8,0.35330551862716675,0.15411914885044098
185,4,128,9,0.6407296061515808,0.2740743160247803
185,4,128,10,0.4477100372314453,0.24499903619289398
185,4,128,11,0.5893517732620239,0.23283477127552032
185,4,128,12,0.5091068148612976,0.24634405970573425
185,4,128,13,0.48550835251808167,0.13309399783611298
185,4,128,14,0.5696216225624084,0.22191040217876434
185,4,128,15,0.6809427738189697,0.10499995201826096
185,4,128,16,0.4522280693054199,0.20159578323364258
185,4,128,17,0.5372713208198547,0.26775264739990234
185,4,128,18,0.6258957982063293,0.13857266306877136
185,4,128,19,0.5380211472511292,0.11552584916353226
185,4,128,20,0.370134562253952,0.18789270520210266
185,4,128,21,0.46047142148017883,0.17311520874500275
185,4,128,22,0.4216409921646118,0.2687011659145355
185,4,128,23,0.5442388653755188,0.11678322404623032
185,4,128,24,0.4975489675998688,0.17440448701381683
185,4,128,25,0.6742556691169739,0.17205867171287537
185,4,128,26,0.4380466043949127,0.17998728156089783
185,4,128,27,0.38135653734207153,0.10572503507137299
185,4,128,28,0.524237334728241,0.2697189152240753
185,4,128,29,0.5449584126472473,0.15321017801761627
185,4,128,30,0.6985944509506226,0.16640295088291168
185,4,128,31,0.4794834852218628,0.2284562736749649
185,4,128,32,0.5114556550979614,0.20241312682628632
185,4,128,33,0.6199573278427124,0.16289369761943817
185,4,128,34,0.37416672706604004,0.21728229522705078
185,4,128,35,0.570000410079956,0.13131532073020935
185,4,128,36,0.4552084505558014,0.18470406532287598
185,4,128,37,0.3826606571674347,0.1700897365808487
185,4,128,38,0.4136112928390503,0.1758972704410553
185,4,128,39,0.5113511681556702,0.18226408958435059
185,4,128,40,0.5681596398353577,0.11003954708576202
185,4,128,41,0.6209158897399902,0.19668173789978027
185,4,128,42,0.5458596348762512,0.33249759674072266
185,4,128,43,0.5339258313179016,0.11394011974334717
185,4,128,44,0.5396832823753357,0.2593003809452057
185,4,128,45,0.545193076133728,0.18996508419513702
185,4,128,46,0.5639740824699402,0.3066991865634918
185,4,128,47,0.5995363593101501,0.2770058512687683
185,4,128,48,0.5099393129348755,0.2320663332939148
185,4,128,49,0.5403069257736206,0.17962194979190826
185,4,128,50,0.381435751914978,0.15169177949428558
185,4,128,51,0.5190190672874451,0.1688673049211502
185,4,128,52,0.4638335406780243,0.25918155908584595
185,4,128,53,0.41488856077194214,0.20516261458396912
185,4,128,54,0.4815453290939331,0.21836413443088531
185,4,128,55,0.4616003632545471,0.28252750635147095
185,4,128,56,0.4033872187137604,0.22586075961589813
185,4,128,57,0.512000322341919,0.17278282344341278
185,4,128,58,0.5924461483955383,0.22229784727096558
185,4,128,59,0.6595321297645569,0.21071256697177887
185,4,128,60,0.45686402916908264,0.26465994119644165
185,4,128,61,0.6993244290351868,0.11113041639328003
185,4,128,62,0.4194091558456421,0.25996413826942444
185,4,128,63,0.5357516407966614,0.21484783291816711
185,4,128,64,0.4791165292263031,0.27579888701438904
185,4,128,65,0.3403094410896301,0.1486089527606964
185,4,128,66,0.4945216774940491,0.2985263764858246
185,4,128,67,0.47829797863960266,0.15975140035152435
185,4,128,68,0.3478298783302307,0.1864420622587204
185,4,128,69,0.395376056432724,0.2029181867837906
185,4,128,70,0.27344805002212524,0.10677125304937363
185,4,128,71,0.4842301607131958,0.19919300079345703
185,4,128,72,0.4728739559650421,0.2469414919614792
185,4,128,73,0.5433433651924133,0.12394940853118896
185,4,128,74,0.5573710203170776,0.35482752323150635
185,4,128,75,0.4274245500564575,0.2161659300327301
185,4,128,76,0.6288282871246338,0.22335335612297058
185,4,128,77,0.517967700958252,0.26853111386299133
185,4,128,78,0.5747122764587402,0.20277613401412964
185,4,128,79,0.4780037999153137,0.29874280095100403
185,4,128,80,0.4826122522354126,0.27266502380371094
185,4,128,81,0.3592202365398407,0.17364637553691864
185,4,128,82,0.4926396608352661,0.2547575533390045
185,4,128,83,0.45605459809303284,0.15318180620670319
185,4,128,84,0.5240718722343445,0.09219714254140854
185,4,128,85,0.44163867831230164,0.22182227671146393
185,4,128,86,0.4897056519985199,0.29033637046813965
185,4,128,87,0.6551103591918945,0.2174910306930542
185,4,128,88,0.5625850558280945,0.2489479035139084
185,4,128,89,0.49946197867393494,0.1827954649925232
185,4,128,90,0.49238723516464233,0.26108840107917786
185,4,128,91,0.5853763818740845,0.2838922441005707
185,4,128,92,0.5316668748855591,0.20115675032138824
185,4,128,93,0.4571138620376587,0.18542148172855377
185,4,128,94,0.6597651243209839,0.08553732931613922
185,4,128,95,0.5211096405982971,0.2423919290304184
185,4,128,96,0.574289083480835,0.290252149105072
185,4,128,97,0.4992213845252991,0.3263505697250366
185,4,128,98,0.6823145151138306,0.11847974359989166
185,4,128,99,0.3570384383201599,0.07748875766992569
185,4,128,100,0.6243279576301575,0.1830635964870453
185,4,128,101,0.6470265984535217,0.17795266211032867
185,4,128,102,0.5081011056900024,0.11840718984603882
185,4,128,103,0.5970679521560669,0.09555927664041519
185,4,128,104,0.45187199115753174,0.20021012425422668
185,4,128,105,0.7919465899467468,0.11112473905086517
185,4,128,106,0.5768972039222717,0.34247756004333496
185,4,128,107,0.413688063621521,0.20161664485931396
185,4,128,108,0.798026442527771,0.09456133097410202
185,4,128,109,0.6301572918891907,0.14040441811084747
185,4,128,110,0.356405645608902,0.16269220411777496
185,4,128,111,0.48498600721359253,0.18221120536327362
185,4,128,112,0.2621382474899292,0.12179985642433167
185,4,128,113,0.5373260974884033,0.1777501404285431
185,4,128,114,0.5647293329238892,0.15556778013706207
185,4,128,115,0.5594361424446106,0.1336430311203003
185,4,128,116,0.5490309000015259,0.24522152543067932
185,4,128,117,0.6051301956176758,0.1830875277519226
185,4,128,118,0.5300652384757996,0.1576225608587265
185,4,128,119,0.6756929159164429,0.1038675457239151
185,4,128,120,0.6065218448638916,0.155298113822937
185,4,128,121,0.495687335729599,0.2208675891160965
185,4,128,122,0.5753776431083679,0.20606601238250732
185,4,128,123,0.2923383116722107,0.1548585444688797
185,4,128,124,0.5609164237976074,0.1392671763896942
185,4,128,125,0.44560980796813965,0.2574365437030792
185,4,128,126,0.5605404376983643,0.2310238778591156
185,4,128,127,0.5579584836959839,0.23566637933254242
185,5,128,0,0.6615872383117676,0.10475299507379532
185,5,128,1,0.7283618450164795,0.15155549347400665
185,5,128,2,0.6506618857383728,0.1251661777496338
185,5,128,3,0.8125741481781006,0.11706620454788208
185,5,128,4,0.6464939713478088,0.16475160419940948
185,5,128,5,0.47237375378608704,0.10954120755195618
185,5,128,6,0.4227308928966522,0.06017617508769035
185,5,128,7,0.7174190878868103,0.2048775553703308
185,5,128,8,0.6965804696083069,0.12840700149536133
185,5,128,9,0.6519427299499512,0.09511937946081161
185,5,128,10,0.5908952355384827,0.14616559445858002
185,5,128,11,0.6778153777122498,0.15214629471302032
185,5,128,12,0.635948896408081,0.16690601408481598
185,5,128,13,0.5694246292114258,0.13796466588974
185,5,128,14,0.3876335024833679,0.28787001967430115
185,5,128,15,0.7607107162475586,0.10224054008722305
185,5,128,16,0.7015648484230042,0.14315730333328247
185,5,128,17,0.6268610954284668,0.18511854112148285
185,5,128,18,0.5702895522117615,0.050789572298526764
185,5,128,19,0.5036419630050659,0.19652585685253143
185,5,128,20,0.4739450216293335,0.12046254426240921
185,5,128,21,0.35035836696624756,0.12021706253290176
185,5,128,22,0.4807519018650055,0.21427921950817108
185,5,128,23,0.4568897485733032,0.1378535032272339
185,5,128,24,0.7030416131019592,0.13214145600795746
185,5,128,25,0.6395522952079773,0.15314547717571259
185,5,128,26,0.8018773198127747,0.1007416769862175
185,5,128,27,0.6968433856964111,0.16028735041618347
185,5,128,28,0.7488657236099243,0.1750602126121521
185,5,128,29,0.5071896314620972,0.23738853633403778
185,5,128,30,0.4520510733127594,0.15421895682811737
185,5,128,31,0.6772365570068359,0.1795029491186142
185,5,128,32,0.64438796043396,0.1967325657606125
185,5,128,33,0.7674121856689453,0.12571820616722107
185,5,128,34,0.594505786895752,0.16147558391094208
185,5,128,35,0.5051406025886536,0.17350588738918304
185,5,128,36,0.6087538003921509,0.20758838951587677
185,5,128,37,0.5443840622901917,0.12624864280223846
185,5,128,38,0.6392967104911804,0.20182782411575317
185,5,128,39,0.538174033164978,0.18443480134010315
185,5,128,40,0.7416489720344543,0.1372566670179367
185,5,128,41,0.726715087890625,0.08815663307905197
185,5,128,42,0.76155686378479,0.13877415657043457
185,5,128,43,0.48790156841278076,0.13555702567100525
185,5,128,44,0.6227449178695679,0.13529247045516968
185,5,128,45,0.6313555240631104,0.20903880894184113
185,5,128,46,0.5979185104370117,0.19822844862937927
185,5,128,47,0.7246130704879761,0.16829216480255127
185,5,128,48,0.3693247139453888,0.17734912037849426
185,5,128,49,0.6320627927780151,0.1687508523464203
185,5,128,50,0.5003260970115662,0.11242322623729706
185,5,128,51,0.6429550647735596,0.16581857204437256
185,5,128,52,0.6149308085441589,0.0916125699877739
185,5,128,53,0.6335301399230957,0.10975202918052673
185,5,128,54,0.7296294569969177,0.10885094106197357
185,5,128,55,0.6810299158096313,0.145664244890213
185,5,128,56,0.5199943780899048,0.16532644629478455
185,5,128,57,0.7284408807754517,0.0847088173031807
185,5,128,58,0.7612013816833496,0.1530866175889969
185,5,128,59,0.6500107049942017,0.17668713629245758
185,5,128,60,0.7466500997543335,0.1658736914396286
185,5,128,61,0.7386508584022522,0.13588249683380127
185,5,128,62,0.5651566386222839,0.15477627515792847
185,5,128,63,0.5132442712783813,0.13497735559940338
185,5,128,64,0.6773216128349304,0.11447840929031372
185,5,128,65,0.6182358860969543,0.21681810915470123
185,5,128,66,0.7006329894065857,0.12114255875349045
185,5,128,67,0.6472537517547607,0.2821078598499298
185,5,128,68,0.7003384232521057,0.17891615629196167
185,5,128,69,0.8628513813018799,0.07903464138507843
185,5,128,70,0.34535306692123413,0.14548157155513763
185,5,128,71,0.6723396182060242,0.1511934995651245
185,5,128,72,0.5220702886581421,0.18205487728118896
185,5,128,73,0.7989661693572998,0.0878312811255455
185,5,128,74,0.756593644618988,0.08979053050279617
185,5,128,75,0.6776392459869385,0.17045524716377258
185,5,128,76,0.7628312706947327,0.12781059741973877
185,5,128,77,0.5645435452461243,0.1343977004289627
185,5,128,78,0.6819789409637451,0.11958792805671692
185,5,128,79,0.33243635296821594,0.18532167375087738
185,5,128,80,0.7615996599197388,0.07965108007192612
185,5,128,81,0.4545529782772064,0.14804664254188538
185,5,128,82,0.30859804153442383,0.13809086382389069
185,5,128,83,0.5998833775520325,0.14451859891414642
185,5,128,84,0.6649150252342224,0.1400780826807022
185,5,128,85,0.6050378680229187,0.08182623237371445
185,5,128,86,0.515637218952179,0.17812488973140717
185,5,128,87,0.7908134460449219,0.1339559555053711
185,5,128,88,0.703407883644104,0.12370941787958145
185,5,128,89,0.5127773880958557,0.16484388709068298
185,5,128,90,0.5517284274101257,0.14784269034862518
185,5,128,91,0.7116787433624268,0.15722958743572235
185,5,128,92,0.6967088580131531,0.14659836888313293
185,5,128,93,0.6656795740127563,0.24197308719158173
185,5,128,94,0.6977555751800537,0.1410674899816513
185,5,128,95,0.6936851739883423,0.16741377115249634
185,5,128,96,0.543749988079071,0.20988324284553528
185,5,128,97,0.5736740231513977,0.2127499282360077
185,5,128,98,0.5081779360771179,0.25687044858932495
185,5,128,99,0.4374297559261322,0.14867091178894043
185,5,128,100,0.7993268370628357,0.1553400158882141
185,5,128,101,0.5161638855934143,0.14003467559814453
185,5,128,102,0.7012221813201904,0.1059148907661438
185,5,128,103,0.7285903692245483,0.2467188686132431
185,5,128,104,0.6914635300636292,0.11757196485996246
185,5,128,105,0.7403004765510559,0.10230462998151779
185,5,128,106,0.7068215012550354,0.14085239171981812
185,5,128,107,0.6812134385108948,0.0855063870549202
185,5,128,108,0.7436572909355164,0.1381780356168747
185,5,128,109,0.7761591076850891,0.1174447312951088
185,5,128,110,0.7181560397148132,0.13531732559204102
185,5,128,111,0.717969536781311,0.10011378675699234
185,5,128,112,0.6457986831665039,0.12849602103233337
185,5,128,113,0.6229053735733032,0.13082680106163025
185,5,128,114,0.6280382871627808,0.1967920958995819
185,5,128,115,0.5992852449417114,0.14545226097106934
185,5,128,116,0.6990699172019958,0.17307567596435547
185,5,128,117,0.3124208450317383,0.10702677071094513
185,5,128,118,0.6993981003761292,0.1863851398229599
185,5,128,119,0.5139300227165222,0.10551583021879196
185,5,128,120,0.403152734041214,0.1661977767944336
185,5,128,121,0.5347259044647217,0.12690791487693787
185,5,128,122,0.3886013627052307,0.0751258134841919
185,5,128,123,0.6390914916992188,0.18320561945438385
185,5,128,124,0.638154923915863,0.16626858711242676
185,5,128,125,0.6698429584503174,0.1957627832889557
185,5,128,126,0.6895458102226257,0.1570095270872116
185,5,128,127,0.8200467824935913,0.1283365935087204
186,0,32,0,0.47746214270591736,0.09797303378582001
186,0,32,1,0.5697531700134277,0.10696332901716232
186,0,32,2,0.4588000476360321,0.05503985285758972
186,0,32,3,0.42866405844688416,0.1176842674612999
186,0,32,4,0.3305357098579407,0.13316179811954498
186,0,32,5,0.6241183280944824,0.06753520667552948
186,0,32,6,0.4241916835308075,0.10155759751796722
186,0,32,7,0.46588894724845886,0.13427814841270447
186,0,32,8,0.4912808835506439,0.04730105400085449
186,0,32,9,0.3593856394290924,0.13475412130355835
186,0,32,10,0.3956071734428406,0.08345701545476913
186,0,32,11,0.6243880391120911,0.07919663935899734
186,0,32,12,0.4829545319080353,0.09522677212953568
186,0,32,13,0.5851014256477356,0.009254677221179008
186,0,32,14,0.45386621356010437,0.14541642367839813
186,0,32,15,0.3842674195766449,0.03970631584525108
186,0,32,16,0.512617290019989,0.09792832285165787
186,0,32,17,0.5535008311271667,0.03748141601681709
186,0,32,18,0.6096076965332031,0.11986429244279861
186,0,32,19,0.593754768371582,0.08242500573396683
186,0,32,20,0.4782924950122833,0.03205445036292076
186,0,32,21,0.4036966860294342,0.13028371334075928
186,0,32,22,0.549144983291626,0.10104264318943024
186,0,32,23,0.5012139081954956,0.10531148314476013
186,0,32,24,0.327558308839798,0.06047547608613968
186,0,32,25,0.5313259363174438,0.13242505490779877
186,0,32,26,0.4440484344959259,0.09618259221315384
186,0,32,27,0.6315776109695435,0.09296209365129471
186,0,32,28,0.6069002747535706,0.12653090059757233
186,0,32,29,0.4025983214378357,0.06568823754787445
186,0,32,30,0.5107220411300659,0.09039578586816788
186,0,32,31,0.5446051955223083,0.12395564466714859
186,1,32,0,0.4979776442050934,0.05609485134482384
186,1,32,1,0.32453909516334534,0.06691322475671768
186,1,32,2,0.5288922190666199,0.12750343978405
186,1,32,3,0.569342315196991,0.13514791429042816
186,1,32,4,0.5501616597175598,0.14269328117370605
186,1,32,5,0.31532973051071167,0.06542336195707321
186,1,32,6,0.3704671263694763,0.08937998116016388
186,1,32,7,0.3951619267463684,0.12091585248708725
186,1,32,8,0.35932332277297974,0.09194331616163254
186,1,32,9,0.6352078914642334,0.11469466239213943
186,1,32,10,0.44387030601501465,0.10219845175743103
186,1,32,11,0.4077891707420349,0.0845383033156395
186,1,32,12,0.4309459626674652,0.09571623802185059
186,1,32,13,0.644076406955719,0.07147160917520523
186,1,32,14,0.4067745506763458,0.08859275281429291
186,1,32,15,0.48994216322898865,0.12614963948726654
186,1,32,16,0.6042081117630005,0.08493003994226456
186,1,32,17,0.4714535176753998,0.1277521252632141
186,1,32,18,0.4825444221496582,0.06036883220076561
186,1,32,19,0.4929161071777344,0.0357237309217453
186,1,32,20,0.4439949691295624,0.09336365014314651
186,1,32,21,0.2917424440383911,0.1098099797964096
186,1,32,22,0.48754027485847473,0.06517455726861954
186,1,32,23,0.3864224851131439,0.09169331192970276
186,1,32,24,0.605936586856842,0.04542723670601845
186,1,32,25,0.3225003778934479,0.07120103389024734
186,1,32,26,0.5788010358810425,0.10365976393222809
186,1,32,27,0.41120651364326477,0.09240375459194183
186,1,32,28,0.464213490486145,0.05718710273504257
186,1,32,29,0.5642820000648499,0.08972474932670593
186,1,32,30,0.5272380113601685,0.07028569281101227
186,1,32,31,0.6611928343772888,0.09018369019031525
186,2,64,0,0.6147310137748718,0.16578717529773712
186,2,64,1,0.5882297158241272,0.09263016283512115
186,2,64,2,0.6295632719993591,0.1415998488664627
186,2,64,3,0.3299994170665741,0.15105491876602173
186,2,64,4,0.5019304156303406,0.17099624872207642
186,2,64,5,0.5019462704658508,0.21354201436042786
186,2,64,6,0.4980347454547882,0.16192759573459625
186,2,64,7,0.5325393676757812,0.0457218661904335
186,2,64,8,0.44955986738204956,0.2118517905473709
186,2,64,9,0.5695164799690247,0.11811898648738861
186,2,64,10,0.6554391384124756,0.12847885489463806
186,2,64,11,0.2939988970756531,0.13370390236377716
186,2,64,12,0.5364340543746948,0.2501133978366852
186,2,64,13,0.5324785709381104,0.13692161440849304
186,2,64,14,0.46762046217918396,0.20079630613327026
186,2,64,15,0.4645151197910309,0.22099855542182922
186,2,64,16,0.39354807138442993,0.20299798250198364
186,2,64,17,0.4709819555282593,0.11738154292106628
186,2,64,18,0.6396814584732056,0.16903521120548248
186,2,64,19,0.5449153780937195,0.12430258095264435
186,2,64,20,0.5812047719955444,0.12983261048793793
186,2,64,21,0.57918781042099,0.14324109256267548
186,2,64,22,0.5166968107223511,0.20888368785381317
186,2,64,23,0.4321410655975342,0.2062119096517563
186,2,64,24,0.38524532318115234,0.13571837544441223
186,2,64,25,0.3520488440990448,0.12858018279075623
186,2,64,26,0.39943888783454895,0.12973986566066742
186,2,64,27,0.4021141529083252,0.11885343492031097
186,2,64,28,0.40793856978416443,0.16359630227088928
186,2,64,29,0.4575449824333191,0.15063518285751343
186,2,64,30,0.4918612241744995,0.2476786971092224
186,2,64,31,0.5216488242149353,0.10319902747869492
186,2,64,32,0.3865050971508026,0.2101723998785019
186,2,64,33,0.36723119020462036,0.25032079219818115
186,2,64,34,0.45484453439712524,0.13197924196720123
186,2,64,35,0.5168765783309937,0.18058516085147858
186,2,64,36,0.481052041053772,0.11584530025720596
186,2,64,37,0.5358689427375793,0.2001720815896988
186,2,64,38,0.5578206777572632,0.07037954032421112
186,2,64,39,0.5583859086036682,0.21851642429828644
186,2,64,40,0.406867116689682,0.10290771722793579
186,2,64,41,0.4734989106655121,0.19708628952503204
186,2,64,42,0.4890125095844269,0.18479686975479126
186,2,64,43,0.38951727747917175,0.09232164174318314
186,2,64,44,0.5920494794845581,0.1379464566707611
186,2,64,45,0.5337159633636475,0.10995085537433624
186,2,64,46,0.5691978335380554,0.04805978387594223
186,2,64,47,0.3843427300453186,0.06360039114952087
186,2,64,48,0.4616251587867737,0.20475336909294128
186,2,64,49,0.6545923352241516,0.09084006398916245
186,2,64,50,0.5514529943466187,0.21726560592651367
186,2,64,51,0.4403640627861023,0.16113239526748657
186,2,64,52,0.4212809205055237,0.15822453796863556
186,2,64,53,0.6259498000144958,0.17572200298309326
186,2,64,54,0.5763944387435913,0.2227392941713333
186,2,64,55,0.44517782330513,0.2117486447095871
186,2,64,56,0.5312153697013855,0.19675731658935547
186,2,64,57,0.48263320326805115,0.14107926189899445
186,2,64,58,0.37427735328674316,0.16103483736515045
186,2,64,59,0.612538754940033,0.10190577805042267
186,2,64,60,0.4302188456058502,0.13242840766906738
186,2,64,61,0.5401344895362854,0.13709275424480438
186,2,64,62,0.4893755316734314,0.1926584541797638
186,2,64,63,0.6922643184661865,0.11269106715917587
186,3,64,0,0.4335061311721802,0.10187878459692001
186,3,64,1,0.48746928572654724,0.10208949446678162
186,3,64,2,0.43776020407676697,0.15739785134792328
186,3,64,3,0.5956951379776001,0.18105073273181915
186,3,64,4,0.6363641619682312,0.08734733611345291
186,3,64,5,0.3946095108985901,0.08099164068698883
186,3,64,6,0.4101805090904236,0.13052958250045776
186,3,64,7,0.6296336650848389,0.09686890989542007
186,3,64,8,0.5012872815132141,0.1689355969429016
186,3,64,9,0.7369964718818665,0.1185489073395729
186,3,64,10,0.5950697064399719,0.09046950191259384
186,3,64,11,0.5493879318237305,0.1806657463312149
186,3,64,12,0.5380651354789734,0.0748605951666832
186,3,64,13,0.3595738708972931,0.090866819024086
186,3,64,14,0.36296677589416504,0.21387127041816711
186,3,64,15,0.3909420669078827,0.16205891966819763
186,3,64,16,0.6063374280929565,0.10756847262382507
186,3,64,17,0.6734568476676941,0.09003231674432755
186,3,64,18,0.651573657989502,0.09268688410520554
186,3,64,19,0.5332431793212891,0.21283608675003052
186,3,64,20,0.4620806872844696,0.1788506656885147
186,3,64,21,0.5146225094795227,0.238078311085701
186,3,64,22,0.31151214241981506,0.12886787950992584
186,3,64,23,0.3089478015899658,0.10846056044101715
186,3,64,24,0.6052385568618774,0.08791378140449524
186,3,64,25,0.5089198350906372,0.28399965167045593
186,3,64,26,0.6441645622253418,0.08571146428585052
186,3,64,27,0.600341796875,0.19419017434120178
186,3,64,28,0.6381814479827881,0.12279051542282104
186,3,64,29,0.5851725339889526,0.0857386663556099
186,3,64,30,0.643419623374939,0.13527600467205048
186,3,64,31,0.5246608257293701,0.17308472096920013
186,3,64,32,0.43098998069763184,0.22162406146526337
186,3,64,33,0.45750635862350464,0.09578697383403778
186,3,64,34,0.6374139189720154,0.09223398566246033
186,3,64,35,0.4286692142486572,0.23081213235855103
186,3,64,36,0.44921475648880005,0.10333659499883652
186,3,64,37,0.45677340030670166,0.10932956635951996
186,3,64,38,0.4575132727622986,0.12298748642206192
186,3,64,39,0.4254685044288635,0.09633486717939377
186,3,64,40,0.6117680668830872,0.07300477474927902
186,3,64,41,0.5514505505561829,0.17826369404792786
186,3,64,42,0.5971682667732239,0.23333415389060974
186,3,64,43,0.3408937156200409,0.11605257540941238
186,3,64,44,0.36178022623062134,0.06851345300674438
186,3,64,45,0.5043559670448303,0.2262297421693802
186,3,64,46,0.37157708406448364,0.09577785432338715
186,3,64,47,0.5176720023155212,0.20727753639221191
186,3,64,48,0.5997242331504822,0.11656799167394638
186,3,64,49,0.4013970196247101,0.15226656198501587
186,3,64,50,0.4065146744251251,0.10587070137262344
186,3,64,51,0.589236319065094,0.13108782470226288
186,3,64,52,0.42581334710121155,0.1437782496213913
186,3,64,53,0.5041841864585876,0.17458906769752502
186,3,64,54,0.5328225493431091,0.12146279215812683
186,3,64,55,0.5360270142555237,0.20864875614643097
186,3,64,56,0.5115596652030945,0.12065120041370392
186,3,64,57,0.4609827995300293,0.12298807501792908
186,3,64,58,0.5091978311538696,0.17252007126808167
186,3,64,59,0.4570957124233246,0.19896146655082703
186,3,64,60,0.5072648525238037,0.09407681971788406
186,3,64,61,0.4739704728126526,0.04518173635005951
186,3,64,62,0.6781100034713745,0.17514066398143768
186,3,64,63,0.4346817135810852,0.16638009250164032
186,4,128,0,0.6064589023590088,0.06798452883958817
186,4,128,1,0.557214081287384,0.1161949411034584
186,4,128,2,0.690507709980011,0.10254325717687607
186,4,128,3,0.5209802985191345,0.31789684295654297
186,4,128,4,0.4279407858848572,0.19108891487121582
186,4,128,5,0.5184949040412903,0.31659945845603943
186,4,128,6,0.5825616121292114,0.18807196617126465
186,4,128,7,0.3243207633495331,0.08009783923625946
186,4,128,8,0.6556238532066345,0.11193767189979553
186,4,128,9,0.5947337746620178,0.16754914820194244
186,4,128,10,0.6419981122016907,0.22932061553001404
186,4,128,11,0.44743284583091736,0.10524062067270279
186,4,128,12,0.5194175243377686,0.24913562834262848
186,4,128,13,0.5216056108474731,0.13640530407428741
186,4,128,14,0.5603713393211365,0.24570772051811218
186,4,128,15,0.5200582146644592,0.14936167001724243
186,4,128,16,0.5999786257743835,0.26326313614845276
186,4,128,17,0.4413389265537262,0.20000779628753662
186,4,128,18,0.5405886173248291,0.19078809022903442
186,4,128,19,0.5829775333404541,0.23079392313957214
186,4,128,20,0.6516410708427429,0.10306500643491745
186,4,128,21,0.5704933404922485,0.23724286258220673
186,4,128,22,0.48530247807502747,0.1593025177717209
186,4,128,23,0.3948306739330292,0.12970910966396332
186,4,128,24,0.629607617855072,0.08161886036396027
186,4,128,25,0.6677672863006592,0.0884946808218956
186,4,128,26,0.5380976796150208,0.22368818521499634
186,4,128,27,0.541096568107605,0.1498989760875702
186,4,128,28,0.5091302394866943,0.24741850793361664
186,4,128,29,0.5468775629997253,0.25674375891685486
186,4,128,30,0.4473363161087036,0.14011557400226593
186,4,128,31,0.5697338581085205,0.15429027378559113
186,4,128,32,0.3996235132217407,0.15006913244724274
186,4,128,33,0.44618093967437744,0.15806090831756592
186,4,128,34,0.47608330845832825,0.14837442338466644
186,4,128,35,0.5393231511116028,0.22154869139194489
186,4,128,36,0.49421441555023193,0.21447427570819855
186,4,128,37,0.5300693511962891,0.21937808394432068
186,4,128,38,0.5926268696784973,0.17268645763397217
186,4,128,39,0.695798933506012,0.10730592906475067
186,4,128,40,0.5972993969917297,0.23871482908725739
186,4,128,41,0.5644188523292542,0.11220462620258331
186,4,128,42,0.5479992032051086,0.18502110242843628
186,4,128,43,0.5396856069564819,0.12217594683170319
186,4,128,44,0.555496871471405,0.2800932228565216
186,4,128,45,0.5103411674499512,0.13237018883228302
186,4,128,46,0.5892781019210815,0.07222675532102585
186,4,128,47,0.544852614402771,0.16802139580249786
186,4,128,48,0.6141372323036194,0.18196319043636322
186,4,128,49,0.4946567416191101,0.08372052013874054
186,4,128,50,0.5572553873062134,0.2844259440898895
186,4,128,51,0.446074903011322,0.3039276897907257
186,4,128,52,0.4889392852783203,0.1503705084323883
186,4,128,53,0.5538405776023865,0.2010054737329483
186,4,128,54,0.5288223624229431,0.2533228397369385
186,4,128,55,0.5535759329795837,0.11978878080844879
186,4,128,56,0.544596254825592,0.10169009119272232
186,4,128,57,0.5743280649185181,0.2630442976951599
186,4,128,58,0.586346447467804,0.10243496298789978
186,4,128,59,0.4919501543045044,0.19968391954898834
186,4,128,60,0.685847818851471,0.11350975930690765
186,4,128,61,0.5946927666664124,0.0867827832698822
186,4,128,62,0.5026028752326965,0.13833199441432953
186,4,128,63,0.6355026960372925,0.08880644291639328
186,4,128,64,0.5730183124542236,0.14184778928756714
186,4,128,65,0.48291951417922974,0.23070187866687775
186,4,128,66,0.5104686617851257,0.15910126268863678
186,4,128,67,0.49302321672439575,0.24263224005699158
186,4,128,68,0.4354228377342224,0.26580503582954407
186,4,128,69,0.5849456191062927,0.1427885890007019
186,4,128,70,0.43657198548316956,0.2790207862854004
186,4,128,71,0.46587902307510376,0.16525357961654663
186,4,128,72,0.5833251476287842,0.18769821524620056
186,4,128,73,0.4724029302597046,0.28602808713912964
186,4,128,74,0.4699358344078064,0.21498487889766693
186,4,128,75,0.32308119535446167,0.12362730503082275
186,4,128,76,0.4756622910499573,0.06379228830337524
186,4,128,77,0.5204755663871765,0.1576976478099823
186,4,128,78,0.5580617189407349,0.2733158469200134
186,4,128,79,0.5334204435348511,0.21722963452339172
186,4,128,80,0.4166974723339081,0.1545819789171219
186,4,128,81,0.6007924675941467,0.19162987172603607
186,4,128,82,0.5507011413574219,0.24631379544734955
186,4,128,83,0.6377865672111511,0.18655790388584137
186,4,128,84,0.5321506857872009,0.09004317224025726
186,4,128,85,0.6107316017150879,0.2257334291934967
186,4,128,86,0.659003496170044,0.09946250915527344
186,4,128,87,0.4496270716190338,0.25632229447364807
186,4,128,88,0.7790251970291138,0.08488090336322784
186,4,128,89,0.5251853466033936,0.11769788712263107
186,4,128,90,0.5898836255073547,0.21672259271144867
186,4,128,91,0.35527968406677246,0.18518613278865814
186,4,128,92,0.651436984539032,0.12787163257598877
186,4,128,93,0.42179641127586365,0.15858782827854156
186,4,128,94,0.4746519923210144,0.15578676760196686
186,4,128,95,0.5598833560943604,0.19606931507587433
186,4,128,96,0.4716832935810089,0.13905619084835052
186,4,128,97,0.6294737458229065,0.10307109355926514
186,4,128,98,0.48465585708618164,0.2549372613430023
186,4,128,99,0.6909352540969849,0.10383785516023636
186,4,128,100,0.4198194146156311,0.13134899735450745
186,4,128,101,0.5047715902328491,0.13221848011016846
186,4,128,102,0.6485093832015991,0.1826486885547638
186,4,128,103,0.6019583940505981,0.2414499670267105
186,4,128,104,0.5891208648681641,0.21000023186206818
186,4,128,105,0.6140649914741516,0.17939604818820953
186,4,128,106,0.7164521217346191,0.08089502155780792
186,4,128,107,0.5199715495109558,0.16611351072788239
186,4,128,108,0.40531933307647705,0.22223882377147675
186,4,128,109,0.5955910682678223,0.09897154569625854
186,4,128,110,0.33033910393714905,0.14063754677772522
186,4,128,111,0.4507782459259033,0.18298739194869995
186,4,128,112,0.5481646656990051,0.23640373349189758
186,4,128,113,0.6001420021057129,0.10972186923027039
186,4,128,114,0.5549629926681519,0.11293886601924896
186,4,128,115,0.5614761114120483,0.18346944451332092
186,4,128,116,0.3329308331012726,0.1071612536907196
186,4,128,117,0.5034036040306091,0.1600877195596695
186,4,128,118,0.5157479047775269,0.15149889886379242
186,4,128,119,0.5767289996147156,0.15574342012405396
186,4,128,120,0.7306023240089417,0.1115824356675148
186,4,128,121,0.7280153036117554,0.11374348402023315
186,4,128,122,0.45778053998947144,0.2194397747516632
186,4,128,123,0.6148459315299988,0.13984228670597076
186,4,128,124,0.3940666913986206,0.12463770061731339
186,4,128,125,0.577627420425415,0.19612841308116913
186,4,128,126,0.6155717372894287,0.06620008498430252
186,4,128,127,0.4832903742790222,0.08446981012821198
186,5,128,0,0.6154637336730957,0.21978119015693665
186,5,128,1,0.7105914950370789,0.2542625069618225
186,5,128,2,0.7342833876609802,0.1054716408252716
186,5,128,3,0.766628086566925,0.0923231765627861
186,5,128,4,0.469648152589798,0.18065384030342102
186,5,128,5,0.6393743753433228,0.2124878466129303
186,5,128,6,0.7882879972457886,0.11116586625576019
186,5,128,7,0.31003108620643616,0.1450033038854599
186,5,128,8,0.5615049600601196,0.08969999104738235
186,5,128,9,0.6719441413879395,0.19509577751159668
186,5,128,10,0.7146112322807312,0.15914927423000336
186,5,128,11,0.685116171836853,0.13515277206897736
186,5,128,12,0.6482692956924438,0.21849597990512848
186,5,128,13,0.6546197533607483,0.2691499888896942
186,5,128,14,0.7929503917694092,0.12134841084480286
186,5,128,15,0.7769980430603027,0.06762362271547318
186,5,128,16,0.785323977470398,0.1561528444290161
186,5,128,17,0.6213037371635437,0.08684967458248138
186,5,128,18,0.5992549657821655,0.18246331810951233
186,5,128,19,0.6890175342559814,0.2518109977245331
186,5,128,20,0.5735148191452026,0.14124470949172974
186,5,128,21,0.6008129715919495,0.17801670730113983
186,5,128,22,0.2945246994495392,0.10343216359615326
186,5,128,23,0.7709571123123169,0.11986162513494492
186,5,128,24,0.669705867767334,0.15229296684265137
186,5,128,25,0.6796900033950806,0.16477897763252258
186,5,128,26,0.7919711470603943,0.12224160134792328
186,5,128,27,0.4859903156757355,0.17926493287086487
186,5,128,28,0.7441599369049072,0.10363888740539551
186,5,128,29,0.7596442103385925,0.22663874924182892
186,5,128,30,0.42706024646759033,0.1900656521320343
186,5,128,31,0.6298500895500183,0.2004912942647934
186,5,128,32,0.5425204038619995,0.15080997347831726
186,5,128,33,0.4418507218360901,0.08888541162014008
186,5,128,34,0.6093560457229614,0.09536782652139664
186,5,128,35,0.6560044884681702,0.08799528330564499
186,5,128,36,0.6563073396682739,0.19274897873401642
186,5,128,37,0.6230775117874146,0.11918976157903671
186,5,128,38,0.6922405958175659,0.1430874913930893
186,5,128,39,0.6737813353538513,0.12295796722173691
186,5,128,40,0.7077718377113342,0.215214341878891
186,5,128,41,0.5337897539138794,0.14716051518917084
186,5,128,42,0.4450547993183136,0.25080445408821106
186,5,128,43,0.45580968260765076,0.15995566546916962
186,5,128,44,0.5070285797119141,0.2904062271118164
186,5,128,45,0.5338696241378784,0.18193060159683228
186,5,128,46,0.70847487449646,0.16316886246204376
186,5,128,47,0.6274737119674683,0.09149976074695587
186,5,128,48,0.6144099831581116,0.21842271089553833
186,5,128,49,0.6359162926673889,0.15278664231300354
186,5,128,50,0.7211537957191467,0.13102905452251434
186,5,128,51,0.42603397369384766,0.2450837343931198
186,5,128,52,0.6743324995040894,0.1253916174173355
186,5,128,53,0.5686485171318054,0.16265732049942017
186,5,128,54,0.48116159439086914,0.14785324037075043
186,5,128,55,0.716827929019928,0.11635633558034897
186,5,128,56,0.6940603256225586,0.11437922716140747
186,5,128,57,0.4992443025112152,0.24592919647693634
186,5,128,58,0.5954846143722534,0.20931145548820496
186,5,128,59,0.5132327079772949,0.25802353024482727
186,5,128,60,0.6173113584518433,0.16825516521930695
186,5,128,61,0.7484912276268005,0.12646625936031342
186,5,128,62,0.4705657362937927,0.21150393784046173
186,5,128,63,0.745288610458374,0.14499631524085999
186,5,128,64,0.6546818017959595,0.07625683397054672
186,5,128,65,0.729143500328064,0.16485708951950073
186,5,128,66,0.6562423706054688,0.06966321915388107
186,5,128,67,0.5467007756233215,0.09977679699659348
186,5,128,68,0.4746394753456116,0.27352985739707947
186,5,128,69,0.8445115089416504,0.10706105083227158
186,5,128,70,0.7679179906845093,0.10926806926727295
186,5,128,71,0.5437043309211731,0.20567961037158966
186,5,128,72,0.7542282342910767,0.10786596685647964
186,5,128,73,0.6086649894714355,0.14143986999988556
186,5,128,74,0.37412410974502563,0.1694147139787674
186,5,128,75,0.6950797438621521,0.14631050825119019
186,5,128,76,0.6319752335548401,0.17777389287948608
186,5,128,77,0.5257207155227661,0.2590373754501343
186,5,128,78,0.8225085735321045,0.13117533922195435
186,5,128,79,0.6950239539146423,0.22651445865631104
186,5,128,80,0.4231196939945221,0.12083279341459274
186,5,128,81,0.6930562257766724,0.11489002406597137
186,5,128,82,0.5616898536682129,0.07071142643690109
186,5,128,83,0.5157304406166077,0.2436767965555191
186,5,128,84,0.6737015247344971,0.11941903084516525
186,5,128,85,0.5306523442268372,0.126480370759964
186,5,128,86,0.6132577061653137,0.15099714696407318
186,5,128,87,0.5732242465019226,0.1360025405883789
186,5,128,88,0.7581415772438049,0.16448216140270233
186,5,128,89,0.5796657800674438,0.1357334703207016
186,5,128,90,0.5370333790779114,0.1442975103855133
186,5,128,91,0.45827966928482056,0.13376186788082123
186,5,128,92,0.6284899711608887,0.19918586313724518
186,5,128,93,0.5401032567024231,0.10949885845184326
186,5,128,94,0.4291774034500122,0.12123659998178482
186,5,128,95,0.7830238342285156,0.12540267407894135
186,5,128,96,0.4495445489883423,0.24009501934051514
186,5,128,97,0.6545029282569885,0.17065028846263885
186,5,128,98,0.4400091767311096,0.21915148198604584
186,5,128,99,0.8322708606719971,0.1324262022972107
186,5,128,100,0.6924750208854675,0.1369141787290573
186,5,128,101,0.6706217527389526,0.13469889760017395
186,5,128,102,0.6743035912513733,0.12054482102394104
186,5,128,103,0.7515245676040649,0.1407276690006256
186,5,128,104,0.7040759325027466,0.218036487698555
186,5,128,105,0.7251293063163757,0.23645013570785522
186,5,128,106,0.5580580830574036,0.22379900515079498
186,5,128,107,0.750840961933136,0.15539181232452393
186,5,128,108,0.5231128334999084,0.2189359962940216
186,5,128,109,0.5108340382575989,0.11861690878868103
186,5,128,110,0.6802117824554443,0.12600167095661163
186,5,128,111,0.6058909893035889,0.21515986323356628
186,5,128,112,0.6926210522651672,0.22320079803466797
186,5,128,113,0.5856614112854004,0.09963950514793396
186,5,128,114,0.3948149085044861,0.21996255218982697
186,5,128,115,0.7041376233100891,0.26116469502449036
186,5,128,116,0.5778391361236572,0.11348684132099152
186,5,128,117,0.7009477019309998,0.1460723727941513
186,5,128,118,0.5530759692192078,0.203476220369339
186,5,128,119,0.5132808685302734,0.16305753588676453
186,5,128,120,0.6967234015464783,0.08624660968780518
186,5,128,121,0.5675402283668518,0.08031336963176727
186,5,128,122,0.6331731677055359,0.15686194598674774
186,5,128,123,0.6966639161109924,0.1182323545217514
186,5,128,124,0.6639184951782227,0.12779855728149414
186,5,128,125,0.8022165894508362,0.10208094865083694
186,5,128,126,0.7363798022270203,0.14793314039707184
186,5,128,127,0.6065229177474976,0.2596755623817444
188,0,32,0,0.5361933708190918,0.14989319443702698
188,0,32,1,0.41460463404655457,0.10014630109071732
188,0,32,2,0.48141148686408997,0.13816608488559723
188,0,32,3,0.428335040807724,0.12841248512268066
188,0,32,4,0.4214611351490021,0.09599804878234863
188,0,32,5,0.3912653625011444,0.12457442283630371
188,0,32,6,0.45443102717399597,0.04836937412619591
188,0,32,7,0.4136390686035156,0.11710310727357864
188,0,32,8,0.4262773394584656,0.10303110629320145
188,0,32,9,0.5620265603065491,0.13153724372386932
188,0,32,10,0.35949501395225525,0.06914311647415161
188,0,32,11,0.5437583923339844,0.10696005821228027
188,0,32,12,0.46805065870285034,0.08423313498497009
188,0,32,13,0.5299155116081238,0.0791744515299797
188,0,32,14,0.41723084449768066,0.04152943566441536
188,0,32,15,0.6514722108840942,0.07967443764209747
188,0,32,16,0.5441874265670776,0.11718253046274185
188,0,32,17,0.4073704183101654,0.017057012766599655
188,0,32,18,0.4348534345626831,0.08414378762245178
188,0,32,19,0.604258120059967,0.1177072748541832
188,0,32,20,0.5338550209999084,0.06517216563224792
188,0,32,21,0.46219703555107117,0.13440710306167603
188,0,32,22,0.3872835636138916,0.06980361044406891
188,0,32,23,0.4677251875400543,0.14547456800937653
188,0,32,24,0.6579241156578064,0.08847005665302277
188,0,32,25,0.36059173941612244,0.08642997592687607
188,0,32,26,0.5259535908699036,0.05723729729652405
188,0,32,27,0.5020368695259094,0.07133960723876953
188,0,32,28,0.6800373792648315,0.07292942702770233
188,0,32,29,0.39723387360572815,0.08633123338222504
188,0,32,30,0.47324657440185547,0.14607805013656616
188,0,32,31,0.3832087814807892,0.11818364262580872
188,1,32,0,0.5430287718772888,0.07487636804580688
188,1,32,1,0.5735775828361511,0.03848552331328392
188,1,32,2,0.42184212803840637,0.03765066713094711
188,1,32,3,0.5972621440887451,0.05691537261009216
188,1,32,4,0.5639137625694275,0.05286506563425064
188,1,32,5,0.2992667257785797,0.0576343834400177
188,1,32,6,0.5409800410270691,0.07347921282052994
188,1,32,7,0.4410761892795563,0.024197878316044807
188,1,32,8,0.43264123797416687,0.056704532355070114
188,1,32,9,0.33960309624671936,0.06026449799537659
188,1,32,10,0.5154075622558594,0.0282791405916214
188,1,32,11,0.49274566769599915,0.03586766868829727
188,1,32,12,0.5253129601478577,0.050134386867284775
188,1,32,13,0.41075313091278076,0.04938197135925293
188,1,32,14,0.5732786059379578,0.05110611021518707
188,1,32,15,0.4996108412742615,0.030322881415486336
188,1,32,16,0.3948124349117279,0.011746504344046116
188,1,32,17,0.5618504881858826,0.04420704394578934
188,1,32,18,0.47308290004730225,0.07908130437135696
188,1,32,19,0.6283416152000427,0.025273045524954796
188,1,32,20,0.31996604800224304,0.05031871050596237
188,1,32,21,0.3737313151359558,0.02192951738834381
188,1,32,22,0.34975606203079224,0.04189031571149826
188,1,32,23,0.6523322463035583,0.06815167516469955
188,1,32,24,0.5204207897186279,0.03181440010666847
188,1,32,25,0.5536051392555237,0.045936986804008484
188,1,32,26,0.5835787057876587,0.024851413443684578
188,1,32,27,0.5021659731864929,0.07353846728801727
188,1,32,28,0.45945170521736145,0.05889220908284187
188,1,32,29,0.4278009831905365,0.03112170659005642
188,1,32,30,0.38925454020500183,0.04292355850338936
188,1,32,31,0.38697126507759094,0.08691652864217758
188,2,64,0,0.43385040760040283,0.07004828006029129
188,2,64,1,0.48398447036743164,0.15420836210250854
188,2,64,2,0.544729471206665,0.11825337260961533
188,2,64,3,0.4691448211669922,0.10893962532281876
188,2,64,4,0.5072874426841736,0.15993846952915192
188,2,64,5,0.4403986930847168,0.07565895467996597
188,2,64,6,0.473492830991745,0.10322357714176178
188,2,64,7,0.5295904874801636,0.1044342964887619
188,2,64,8,0.6118444800376892,0.07904474437236786
188,2,64,9,0.3632873594760895,0.11905094981193542
188,2,64,10,0.5398730039596558,0.188520610332489
188,2,64,11,0.41227439045906067,0.10257059335708618
188,2,64,12,0.5940638184547424,0.11627780646085739
188,2,64,13,0.3833589255809784,0.1706327497959137
188,2,64,14,0.47166696190834045,0.07083448022603989
188,2,64,15,0.49113139510154724,0.09581805765628815
188,2,64,16,0.42723509669303894,0.12274506688117981
188,2,64,17,0.584176778793335,0.15751762688159943
188,2,64,18,0.4472178518772125,0.12607209384441376
188,2,64,19,0.5442301034927368,0.15169763565063477
188,2,64,20,0.5477454662322998,0.16729606688022614
188,2,64,21,0.4266488552093506,0.17477259039878845
188,2,64,22,0.4652591943740845,0.10782637447118759
188,2,64,23,0.41977736353874207,0.1569075882434845
188,2,64,24,0.4701448380947113,0.1444694995880127
188,2,64,25,0.3987966775894165,0.11533095687627792
188,2,64,26,0.650839626789093,0.057849470525979996
188,2,64,27,0.5502121448516846,0.10841726511716843
188,2,64,28,0.43799757957458496,0.069777712225914
188,2,64,29,0.42676272988319397,0.1598244160413742
188,2,64,30,0.4264446198940277,0.13890017569065094
188,2,64,31,0.49170440435409546,0.14425382018089294
188,2,64,32,0.3954736888408661,0.125033438205719
188,2,64,33,0.4425289034843445,0.1346883773803711
188,2,64,34,0.5386728644371033,0.11915940046310425
188,2,64,35,0.3368133306503296,0.07809630036354065
188,2,64,36,0.521798849105835,0.15265130996704102
188,2,64,37,0.5142844319343567,0.047539278864860535
188,2,64,38,0.38006192445755005,0.06768811494112015
188,2,64,39,0.4680418074131012,0.08019768446683884
188,2,64,40,0.48415669798851013,0.12711624801158905
188,2,64,41,0.4533916711807251,0.16595536470413208
188,2,64,42,0.5106238722801208,0.10020861774682999
188,2,64,43,0.45182520151138306,0.19713637232780457
188,2,64,44,0.6444706916809082,0.07486610114574432
188,2,64,45,0.3519286811351776,0.11197543144226074
188,2,64,46,0.41927504539489746,0.08423610031604767
188,2,64,47,0.7038108110427856,0.09705148637294769
188,2,64,48,0.5293881893157959,0.08856385946273804
188,2,64,49,0.5480929613113403,0.060592781752347946
188,2,64,50,0.4383136034011841,0.07481193542480469
188,2,64,51,0.47426748275756836,0.13035351037979126
188,2,64,52,0.4627327024936676,0.1083737388253212
188,2,64,53,0.4953899085521698,0.18580467998981476
188,2,64,54,0.5193079113960266,0.16531318426132202
188,2,64,55,0.5160686373710632,0.10996165871620178
188,2,64,56,0.6150091886520386,0.0882842019200325
188,2,64,57,0.5246394872665405,0.10244191437959671
188,2,64,58,0.5264849662780762,0.10764378309249878
188,2,64,59,0.5321141481399536,0.06922410428524017
188,2,64,60,0.4634867310523987,0.11145658791065216
188,2,64,61,0.5404736399650574,0.11354303359985352
188,2,64,62,0.5454812049865723,0.1733260154724121
188,2,64,63,0.45969411730766296,0.15405000746250153
188,3,64,0,0.31340304017066956,0.09849917143583298
188,3,64,1,0.5079361200332642,0.11825806647539139
188,3,64,2,0.5350738763809204,0.17019164562225342
188,3,64,3,0.38176286220550537,0.10900860279798508
188,3,64,4,0.6334531903266907,0.1380632370710373
188,3,64,5,0.5353983044624329,0.1134302169084549
188,3,64,6,0.5791444778442383,0.2098338007926941
188,3,64,7,0.6332120895385742,0.14289981126785278
188,3,64,8,0.4937185049057007,0.1523454487323761
188,3,64,9,0.6800987720489502,0.08719637989997864
188,3,64,10,0.6349389553070068,0.05976586788892746
188,3,64,11,0.5630279779434204,0.18401093780994415
188,3,64,12,0.40791958570480347,0.10656992346048355
188,3,64,13,0.5781946778297424,0.22310003638267517
188,3,64,14,0.625516414642334,0.10484114289283752
188,3,64,15,0.5925275087356567,0.06490229815244675
188,3,64,16,0.49224793910980225,0.10108476877212524
188,3,64,17,0.5108049511909485,0.19865109026432037
188,3,64,18,0.474486380815506,0.04876023530960083
188,3,64,19,0.6396728754043579,0.06495016068220139
188,3,64,20,0.3247257173061371,0.08915280550718307
188,3,64,21,0.38472506403923035,0.08156183362007141
188,3,64,22,0.6136253476142883,0.10488208383321762
188,3,64,23,0.576531708240509,0.142599418759346
188,3,64,24,0.7021714448928833,0.14183717966079712
188,3,64,25,0.6725726127624512,0.11757846176624298
188,3,64,26,0.6346490979194641,0.10376816987991333
188,3,64,27,0.6664136648178101,0.12813754379749298
188,3,64,28,0.6778230667114258,0.09421663731336594
188,3,64,29,0.5522207021713257,0.1504879742860794
188,3,64,30,0.5112314820289612,0.08204881846904755
188,3,64,31,0.39137348532676697,0.2026219516992569
188,3,64,32,0.4815528392791748,0.09219232946634293
188,3,64,33,0.40942761301994324,0.25371232628822327
188,3,64,34,0.40575435757637024,0.0892249345779419
188,3,64,35,0.506759524345398,0.08035417646169662
188,3,64,36,0.5508142709732056,0.2056162804365158
188,3,64,37,0.4661392867565155,0.11029262840747833
188,3,64,38,0.5372397303581238,0.13864615559577942
188,3,64,39,0.4608827531337738,0.17155073583126068
188,3,64,40,0.6111646890640259,0.1866394430398941
188,3,64,41,0.4971005916595459,0.1425633728504181
188,3,64,42,0.6428601741790771,0.06298879534006119
188,3,64,43,0.7182714343070984,0.1309518665075302
188,3,64,44,0.4998660683631897,0.1389581263065338
188,3,64,45,0.37452447414398193,0.10465710610151291
188,3,64,46,0.40316373109817505,0.10522862523794174
188,3,64,47,0.5375528335571289,0.19151471555233002
188,3,64,48,0.47528141736984253,0.1797189861536026
188,3,64,49,0.4979901909828186,0.09856338053941727
188,3,64,50,0.6407163739204407,0.09250320494174957
188,3,64,51,0.36190903186798096,0.09722617268562317
188,3,64,52,0.6037825345993042,0.07856503874063492
188,3,64,53,0.6442307829856873,0.1197848841547966
188,3,64,54,0.6140367984771729,0.1397245228290558
188,3,64,55,0.36514586210250854,0.10587307810783386
188,3,64,56,0.5932981967926025,0.07272716611623764
188,3,64,57,0.44002801179885864,0.07787459343671799
188,3,64,58,0.5039798021316528,0.14709624648094177
188,3,64,59,0.4297536015510559,0.13307489454746246
188,3,64,60,0.3146279752254486,0.1664661318063736
188,3,64,61,0.49313652515411377,0.08273527771234512
188,3,64,62,0.4719027280807495,0.1008184403181076
188,3,64,63,0.406631737947464,0.2251540571451187
188,4,128,0,0.5933064222335815,0.17973025143146515
188,4,128,1,0.529449462890625,0.1401657909154892
188,4,128,2,0.44949835538864136,0.04421556368470192
188,4,128,3,0.4789247214794159,0.19375932216644287
188,4,128,4,0.42434364557266235,0.2370712161064148
188,4,128,5,0.4183178246021271,0.16433626413345337
188,4,128,6,0.5225826501846313,0.2500571310520172
188,4,128,7,0.5444568395614624,0.17954964935779572
188,4,128,8,0.37275564670562744,0.10416382551193237
188,4,128,9,0.526023268699646,0.23407500982284546
188,4,128,10,0.43352001905441284,0.1444590985774994
188,4,128,11,0.5361126065254211,0.2194555401802063
188,4,128,12,0.4305424690246582,0.25155630707740784
188,4,128,13,0.5078997611999512,0.1216123178601265
188,4,128,14,0.6391924023628235,0.10228757560253143
188,4,128,15,0.6251220703125,0.1760530322790146
188,4,128,16,0.4766320288181305,0.14588730037212372
188,4,128,17,0.5410512685775757,0.2353767305612564
188,4,128,18,0.49019187688827515,0.2500860393047333
188,4,128,19,0.6628305912017822,0.11680476367473602
188,4,128,20,0.5018612146377563,0.08170750737190247
188,4,128,21,0.474842369556427,0.1748831570148468
188,4,128,22,0.6469416618347168,0.22585327923297882
188,4,128,23,0.4478982985019684,0.13444364070892334
188,4,128,24,0.5022425055503845,0.19871297478675842
188,4,128,25,0.6038520932197571,0.2050832211971283
188,4,128,26,0.5805467963218689,0.16967380046844482
188,4,128,27,0.5879793167114258,0.1106426939368248
188,4,128,28,0.5088507533073425,0.29617077112197876
188,4,128,29,0.47601526975631714,0.13983730971813202
188,4,128,30,0.5418171882629395,0.20163699984550476
188,4,128,31,0.41810593008995056,0.1908089816570282
188,4,128,32,0.5219817161560059,0.23052072525024414
188,4,128,33,0.6011060476303101,0.09567440301179886
188,4,128,34,0.4854303002357483,0.19023051857948303
188,4,128,35,0.5905960202217102,0.12642532587051392
188,4,128,36,0.6146270632743835,0.18746475875377655
188,4,128,37,0.3174985647201538,0.14896447956562042
188,4,128,38,0.5526838302612305,0.18655388057231903
188,4,128,39,0.4863254427909851,0.21418434381484985
188,4,128,40,0.4167148470878601,0.16826820373535156
188,4,128,41,0.5295443534851074,0.1888599395751953
188,4,128,42,0.5155025124549866,0.28558021783828735
188,4,128,43,0.475751131772995,0.20500832796096802
188,4,128,44,0.6034616827964783,0.13540679216384888
188,4,128,45,0.5161173939704895,0.2254498302936554
188,4,128,46,0.5222373008728027,0.18918372690677643
188,4,128,47,0.6314901113510132,0.23383696377277374
188,4,128,48,0.38909104466438293,0.1830035001039505
188,4,128,49,0.5500155687332153,0.1845395714044571
188,4,128,50,0.429758757352829,0.0979352667927742
188,4,128,51,0.4690124988555908,0.1893940269947052
188,4,128,52,0.4219490885734558,0.11197525262832642
188,4,128,53,0.4439183473587036,0.21652226150035858
188,4,128,54,0.43312251567840576,0.14723239839076996
188,4,128,55,0.5617857575416565,0.29045820236206055
188,4,128,56,0.5215777158737183,0.2402215451002121
188,4,128,57,0.43986430764198303,0.13776373863220215
188,4,128,58,0.4528062641620636,0.21772606670856476
188,4,128,59,0.6612641215324402,0.0989886000752449
188,4,128,60,0.38328424096107483,0.11388009786605835
188,4,128,61,0.6194355487823486,0.14590689539909363
188,4,128,62,0.5585671663284302,0.2397255301475525
188,4,128,63,0.5121214389801025,0.16009540855884552
188,4,128,64,0.4728091359138489,0.2973138391971588
188,4,128,65,0.4343157708644867,0.14725913107395172
188,4,128,66,0.5350578427314758,0.2303348332643509
188,4,128,67,0.5906850695610046,0.21048590540885925
188,4,128,68,0.3388598561286926,0.2219592183828354
188,4,128,69,0.4722646176815033,0.2024436593055725
188,4,128,70,0.3394388258457184,0.1848876178264618
188,4,128,71,0.5564754009246826,0.19937095046043396
188,4,128,72,0.48596444725990295,0.18645858764648438
188,4,128,73,0.5769354104995728,0.08339747041463852
188,4,128,74,0.5144776701927185,0.3027534782886505
188,4,128,75,0.45968541502952576,0.24011585116386414
188,4,128,76,0.6446148753166199,0.13290385901927948
188,4,128,77,0.5768460631370544,0.14007270336151123
188,4,128,78,0.6658917665481567,0.15692183375358582
188,4,128,79,0.5126045346260071,0.22623030841350555
188,4,128,80,0.5299245119094849,0.28932473063468933
188,4,128,81,0.28299129009246826,0.10121139883995056
188,4,128,82,0.472423791885376,0.20244118571281433
188,4,128,83,0.6112351417541504,0.22909356653690338
188,4,128,84,0.4126988649368286,0.15413230657577515
188,4,128,85,0.6418344378471375,0.11866160482168198
188,4,128,86,0.5960074067115784,0.1764625459909439
188,4,128,87,0.6780160665512085,0.2263280153274536
188,4,128,88,0.5844123363494873,0.2489471286535263
188,4,128,89,0.49435287714004517,0.20772181451320648
188,4,128,90,0.5112066268920898,0.2791753113269806
188,4,128,91,0.6339054107666016,0.20727653801441193
188,4,128,92,0.5797852277755737,0.17296431958675385
188,4,128,93,0.6101263165473938,0.06163990870118141
188,4,128,94,0.5181093811988831,0.29028263688087463
188,4,128,95,0.4238666892051697,0.18385352194309235
188,4,128,96,0.6993478536605835,0.13266438245773315
188,4,128,97,0.5039177536964417,0.2637249827384949
188,4,128,98,0.5299504995346069,0.13458073139190674
188,4,128,99,0.47071173787117004,0.09932343661785126
188,4,128,100,0.5752312541007996,0.2624722123146057
188,4,128,101,0.5672110915184021,0.1446136087179184
188,4,128,102,0.4824504852294922,0.06496018916368484
188,4,128,103,0.5027691721916199,0.17301446199417114
188,4,128,104,0.47119346261024475,0.18170036375522614
188,4,128,105,0.7706695795059204,0.08727388828992844
188,4,128,106,0.5136332511901855,0.28854435682296753
188,4,128,107,0.3219890296459198,0.12712129950523376
188,4,128,108,0.7527787089347839,0.08865416049957275
188,4,128,109,0.6107696890830994,0.1401270180940628
188,4,128,110,0.4449745714664459,0.1854124665260315
188,4,128,111,0.5031180381774902,0.1615181565284729
188,4,128,112,0.4077523648738861,0.17174339294433594
188,4,128,113,0.4739711880683899,0.2671869397163391
188,4,128,114,0.6018632054328918,0.0890175998210907
188,4,128,115,0.49372297525405884,0.1438237428665161
188,4,128,116,0.601101815700531,0.1971404105424881
188,4,128,117,0.42530250549316406,0.17464762926101685
188,4,128,118,0.6209407448768616,0.19392184913158417
188,4,128,119,0.5835198760032654,0.13137535750865936
188,4,128,120,0.570253312587738,0.1317765861749649
188,4,128,121,0.5127553939819336,0.10536237806081772
188,4,128,122,0.587489128112793,0.1330091655254364
188,4,128,123,0.34715336561203003,0.20200325548648834
188,4,128,124,0.5287438631057739,0.1426701545715332
188,4,128,125,0.39944902062416077,0.18974502384662628
188,4,128,126,0.44737643003463745,0.13464689254760742
188,4,128,127,0.6026888489723206,0.11543658375740051
188,5,128,0,0.6976456046104431,0.19982032477855682
188,5,128,1,0.7576195001602173,0.1645151674747467
188,5,128,2,0.5018072724342346,0.21031446754932404
188,5,128,3,0.7475486397743225,0.1466447412967682
188,5,128,4,0.6910447478294373,0.1106082946062088
188,5,128,5,0.4026755094528198,0.10323413461446762
188,5,128,6,0.6400206089019775,0.25878193974494934
188,5,128,7,0.7043238878250122,0.28895407915115356
188,5,128,8,0.7951295971870422,0.12702138721942902
188,5,128,9,0.708473801612854,0.12320666760206223
188,5,128,10,0.6072429418563843,0.17115959525108337
188,5,128,11,0.7148553133010864,0.17947401106357574
188,5,128,12,0.6099905371665955,0.18221186101436615
188,5,128,13,0.6152737140655518,0.1644769310951233
188,5,128,14,0.6416119933128357,0.1487749069929123
188,5,128,15,0.7315722703933716,0.08271494507789612
188,5,128,16,0.7865933775901794,0.1276971399784088
188,5,128,17,0.5684515237808228,0.2097748965024948
188,5,128,18,0.6498815417289734,0.21220692992210388
188,5,128,19,0.6579926013946533,0.13820788264274597
188,5,128,20,0.37488314509391785,0.14733274281024933
188,5,128,21,0.4522136151790619,0.2263697236776352
188,5,128,22,0.4830001890659332,0.2871018350124359
188,5,128,23,0.6974538564682007,0.13873609900474548
188,5,128,24,0.7147653102874756,0.19711394608020782
188,5,128,25,0.6629989147186279,0.1377696543931961
188,5,128,26,0.7663761377334595,0.13478818535804749
188,5,128,27,0.7224082946777344,0.17899677157402039
188,5,128,28,0.7784696221351624,0.15369820594787598
188,5,128,29,0.601902186870575,0.23443536460399628
188,5,128,30,0.4814784526824951,0.21464720368385315
188,5,128,31,0.7795215845108032,0.1670655608177185
188,5,128,32,0.6835664510726929,0.2087869942188263
188,5,128,33,0.815447211265564,0.12827050685882568
188,5,128,34,0.5887514352798462,0.19813916087150574
188,5,128,35,0.4899371564388275,0.2511453628540039
188,5,128,36,0.6845094561576843,0.1986517757177353
188,5,128,37,0.634955883026123,0.2307017594575882
188,5,128,38,0.8135932683944702,0.11652739346027374
188,5,128,39,0.42314356565475464,0.14029669761657715
188,5,128,40,0.7987616062164307,0.11774328351020813
188,5,128,41,0.6369842886924744,0.1294490247964859
188,5,128,42,0.7676225900650024,0.19428302347660065
188,5,128,43,0.5785276889801025,0.15438152849674225
188,5,128,44,0.7319251298904419,0.14718428254127502
188,5,128,45,0.6439321041107178,0.2980816662311554
188,5,128,46,0.7586044073104858,0.13773857057094574
188,5,128,47,0.5680379271507263,0.19623638689517975
188,5,128,48,0.5050387978553772,0.2842371165752411
188,5,128,49,0.820175290107727,0.10366258770227432
188,5,128,50,0.48656535148620605,0.2390359789133072
188,5,128,51,0.8012959957122803,0.13082021474838257
188,5,128,52,0.6546950936317444,0.14191873371601105
188,5,128,53,0.7435469627380371,0.15068136155605316
188,5,128,54,0.7858841419219971,0.11074794828891754
188,5,128,55,0.5472947359085083,0.22331920266151428
188,5,128,56,0.7889368534088135,0.12155254185199738
188,5,128,57,0.635902464389801,0.23666155338287354
188,5,128,58,0.8200224041938782,0.17441080510616302
188,5,128,59,0.7124689817428589,0.1482672095298767
188,5,128,60,0.7789113521575928,0.1439199000597
188,5,128,61,0.6517753005027771,0.18659816682338715
188,5,128,62,0.5393341183662415,0.06465239077806473
188,5,128,63,0.5123634338378906,0.2029474675655365
188,5,128,64,0.7590755224227905,0.1460534632205963
188,5,128,65,0.5751175880432129,0.2209998518228531
188,5,128,66,0.6929360628128052,0.19511978328227997
188,5,128,67,0.621734619140625,0.3116496801376343
188,5,128,68,0.7748087644577026,0.12659645080566406
188,5,128,69,0.7986505627632141,0.12237314879894257
188,5,128,70,0.38729843497276306,0.08377549052238464
188,5,128,71,0.5523001551628113,0.271436482667923
188,5,128,72,0.7541103959083557,0.12125460058450699
188,5,128,73,0.7160496115684509,0.24946065247058868
188,5,128,74,0.8013889789581299,0.12926475703716278
188,5,128,75,0.6526604890823364,0.2072666734457016
188,5,128,76,0.7683395743370056,0.14700967073440552
188,5,128,77,0.5011029839515686,0.27840062975883484
188,5,128,78,0.6146572828292847,0.19573484361171722
188,5,128,79,0.39954298734664917,0.1798667162656784
188,5,128,80,0.8035417199134827,0.12834998965263367
188,5,128,81,0.6440874338150024,0.16399744153022766
188,5,128,82,0.4577755033969879,0.16695192456245422
188,5,128,83,0.6853511333465576,0.22195427119731903
188,5,128,84,0.7330529093742371,0.15835461020469666
188,5,128,85,0.7056180238723755,0.12392906099557877
188,5,128,86,0.5888748168945312,0.15460988879203796
188,5,128,87,0.8022333979606628,0.1378297507762909
188,5,128,88,0.7086319327354431,0.16552148759365082
188,5,128,89,0.42304110527038574,0.20157797634601593
188,5,128,90,0.6478409767150879,0.19787009060382843
188,5,128,91,0.7979987859725952,0.141143798828125
188,5,128,92,0.8259586095809937,0.12464359402656555
188,5,128,93,0.7180461287498474,0.22084175050258636
188,5,128,94,0.5154807567596436,0.30335766077041626
188,5,128,95,0.7672097682952881,0.17205381393432617
188,5,128,96,0.5818803906440735,0.1556582897901535
188,5,128,97,0.7072342038154602,0.11657239496707916
188,5,128,98,0.40250396728515625,0.1842414289712906
188,5,128,99,0.35098323225975037,0.1897791624069214
188,5,128,100,0.8333323001861572,0.161430224776268
188,5,128,101,0.6098918318748474,0.1583765298128128
188,5,128,102,0.6109419465065002,0.12977361679077148
188,5,128,103,0.6664612889289856,0.2872488498687744
188,5,128,104,0.5907320976257324,0.0993950292468071
188,5,128,105,0.8188262581825256,0.10154443979263306
188,5,128,106,0.7515706419944763,0.16316501796245575
188,5,128,107,0.7052337527275085,0.15568354725837708
188,5,128,108,0.790330708026886,0.1866600215435028
188,5,128,109,0.788825273513794,0.13586995005607605
188,5,128,110,0.7169968485832214,0.1980038285255432
188,5,128,111,0.5442830920219421,0.2177361100912094
188,5,128,112,0.7258318066596985,0.11166524887084961
188,5,128,113,0.7612419128417969,0.12010447680950165
188,5,128,114,0.6341503262519836,0.25553908944129944
188,5,128,115,0.6404155492782593,0.20169074833393097
188,5,128,116,0.6775732636451721,0.2694990634918213
188,5,128,117,0.34243708848953247,0.15713638067245483
188,5,128,118,0.7089303135871887,0.2328047752380371
188,5,128,119,0.6046139001846313,0.16872763633728027
188,5,128,120,0.4887647330760956,0.06023840606212616
188,5,128,121,0.49692317843437195,0.25941598415374756
188,5,128,122,0.42784786224365234,0.06203439086675644
188,5,128,123,0.7223372459411621,0.16387930512428284
188,5,128,124,0.689605712890625,0.19088153541088104
188,5,128,125,0.7277812361717224,0.16138209402561188
188,5,128,126,0.5931430459022522,0.23751738667488098
188,5,128,127,0.7831210494041443,0.15786990523338318
189,0,32,0,0.39875856041908264,0.09082090109586716
189,0,32,1,0.3068511188030243,0.10003842413425446
189,0,32,2,0.4887946546077728,0.06655584275722504
189,0,32,3,0.5424486994743347,0.10293444246053696
189,0,32,4,0.376751571893692,0.07033506035804749
189,0,32,5,0.4874744117259979,0.0762498751282692
189,0,32,6,0.527803361415863,0.04119586944580078
189,0,32,7,0.4120931327342987,0.09250718355178833
189,0,32,8,0.5112618803977966,0.06957390159368515
189,0,32,9,0.5655193328857422,0.09342599660158157
189,0,32,10,0.6012567281723022,0.07578261196613312
189,0,32,11,0.5598903298377991,0.13559508323669434
189,0,32,12,0.38492873311042786,0.07289008051156998
189,0,32,13,0.44036129117012024,0.08207081258296967
189,0,32,14,0.5053808689117432,0.13260814547538757
189,0,32,15,0.6474748253822327,0.07929298281669617
189,0,32,16,0.5494639277458191,0.02272937260568142
189,0,32,17,0.4474187195301056,0.15670232474803925
189,0,32,18,0.6327999234199524,0.10050184279680252
189,0,32,19,0.45560339093208313,0.14616280794143677
189,0,32,20,0.41425400972366333,0.06736984848976135
189,0,32,21,0.3447698652744293,0.04922995716333389
189,0,32,22,0.5168865919113159,0.056390486657619476
189,0,32,23,0.6279308795928955,0.0848691537976265
189,0,32,24,0.43686288595199585,0.12550705671310425
189,0,32,25,0.5167915225028992,0.08796657621860504
189,0,32,26,0.4309333860874176,0.07984080910682678
189,0,32,27,0.5654110312461853,0.054487891495227814
189,0,32,28,0.33178481459617615,0.1168859675526619
189,0,32,29,0.38800036907196045,0.058457814157009125
189,0,32,30,0.46945372223854065,0.08640573173761368
189,0,32,31,0.4271810054779053,0.08562968671321869
189,1,32,0,0.5584214925765991,0.10851308703422546
189,1,32,1,0.5567868947982788,0.11763516813516617
189,1,32,2,0.3736760914325714,0.04801836609840393
189,1,32,3,0.449300616979599,0.059178661555051804
189,1,32,4,0.35292118787765503,0.04393800348043442
189,1,32,5,0.4957174062728882,0.13885647058486938
189,1,32,6,0.5567017197608948,0.063175268471241
189,1,32,7,0.44594013690948486,0.113872230052948
189,1,32,8,0.6215724349021912,0.11105193197727203
189,1,32,9,0.6621190905570984,0.11832518130540848
189,1,32,10,0.4241427183151245,0.1101113110780716
189,1,32,11,0.45158088207244873,0.06371273845434189
189,1,32,12,0.5050445199012756,0.08714588731527328
189,1,32,13,0.3827473223209381,0.10622600466012955
189,1,32,14,0.374233216047287,0.14249011874198914
189,1,32,15,0.3658176362514496,0.09528664499521255
189,1,32,16,0.4023077189922333,0.11204192787408829
189,1,32,17,0.46677830815315247,0.167098730802536
189,1,32,18,0.5460099577903748,0.03052605502307415
189,1,32,19,0.4792006015777588,0.05809770151972771
189,1,32,20,0.5267342329025269,0.046940069645643234
189,1,32,21,0.6846871972084045,0.09207501262426376
189,1,32,22,0.4921157658100128,0.10863944888114929
189,1,32,23,0.49682775139808655,0.1575479358434677
189,1,32,24,0.593093991279602,0.09957238286733627
189,1,32,25,0.47491002082824707,0.11377377063035965
189,1,32,26,0.35378870368003845,0.08191243559122086
189,1,32,27,0.4901900887489319,0.07023999840021133
189,1,32,28,0.5180295705795288,0.0448489673435688
189,1,32,29,0.46649643778800964,0.10139275342226028
189,1,32,30,0.49923306703567505,0.046244241297245026
189,1,32,31,0.37258780002593994,0.08252470195293427
189,2,64,0,0.3304111957550049,0.2007155567407608
189,2,64,1,0.5032511949539185,0.1580224186182022
189,2,64,2,0.5490717887878418,0.1383102983236313
189,2,64,3,0.4133148491382599,0.1179090291261673
189,2,64,4,0.4504193365573883,0.2515658438205719
189,2,64,5,0.6060646772384644,0.16745105385780334
189,2,64,6,0.5892711877822876,0.1490415334701538
189,2,64,7,0.4632711708545685,0.1995789259672165
189,2,64,8,0.5790060758590698,0.20481576025485992
189,2,64,9,0.3250312805175781,0.14786399900913239
189,2,64,10,0.5626198649406433,0.1971583217382431
189,2,64,11,0.39729180932044983,0.1968860626220703
189,2,64,12,0.3670671284198761,0.14950083196163177
189,2,64,13,0.39323344826698303,0.24555976688861847
189,2,64,14,0.6058467626571655,0.23722144961357117
189,2,64,15,0.5772839188575745,0.15510205924510956
189,2,64,16,0.4472481608390808,0.16312368214130402
189,2,64,17,0.41814765334129333,0.06823137402534485
189,2,64,18,0.5662544965744019,0.25057053565979004
189,2,64,19,0.5826020240783691,0.20403555035591125
189,2,64,20,0.35418811440467834,0.10021504759788513
189,2,64,21,0.3369608223438263,0.14853766560554504
189,2,64,22,0.49810659885406494,0.162244513630867
189,2,64,23,0.2772916257381439,0.1054040715098381
189,2,64,24,0.5186251997947693,0.2047940045595169
189,2,64,25,0.5629051923751831,0.12682633101940155
189,2,64,26,0.4794389307498932,0.2013106793165207
189,2,64,27,0.39885053038597107,0.16352467238903046
189,2,64,28,0.31423383951187134,0.11087299883365631
189,2,64,29,0.3958936333656311,0.22850251197814941
189,2,64,30,0.4975090026855469,0.09799090772867203
189,2,64,31,0.3416086733341217,0.12607698142528534
189,2,64,32,0.35740917921066284,0.19500108063220978
189,2,64,33,0.5112637281417847,0.22879523038864136
189,2,64,34,0.4313078224658966,0.11238840222358704
189,2,64,35,0.4007441997528076,0.17720597982406616
189,2,64,36,0.4608072340488434,0.24562370777130127
189,2,64,37,0.5398090481758118,0.2071496546268463
189,2,64,38,0.5481927394866943,0.1888020932674408
189,2,64,39,0.4568948745727539,0.17465510964393616
189,2,64,40,0.44552934169769287,0.23562777042388916
189,2,64,41,0.48993974924087524,0.154023215174675
189,2,64,42,0.47592493891716003,0.20375624299049377
189,2,64,43,0.4244897961616516,0.2542068064212799
189,2,64,44,0.47855857014656067,0.20819655060768127
189,2,64,45,0.6426106691360474,0.20238955318927765
189,2,64,46,0.6674853563308716,0.07849223166704178
189,2,64,47,0.5501187443733215,0.2467266321182251
189,2,64,48,0.46247661113739014,0.22325092554092407
189,2,64,49,0.5761452913284302,0.1255365014076233
189,2,64,50,0.5401368737220764,0.1243428960442543
189,2,64,51,0.54367995262146,0.18847991526126862
189,2,64,52,0.48485103249549866,0.1849052757024765
189,2,64,53,0.4429484009742737,0.28769034147262573
189,2,64,54,0.6108208894729614,0.07721900939941406
189,2,64,55,0.3707140386104584,0.20743688941001892
189,2,64,56,0.5902089476585388,0.24990934133529663
189,2,64,57,0.5036332011222839,0.11755530536174774
189,2,64,58,0.455573707818985,0.2573325037956238
189,2,64,59,0.5499560832977295,0.13328973948955536
189,2,64,60,0.49770697951316833,0.20693230628967285
189,2,64,61,0.43925732374191284,0.1749657392501831
189,2,64,62,0.5472318530082703,0.19170692563056946
189,2,64,63,0.5698278546333313,0.19113212823867798
189,3,64,0,0.567504346370697,0.15082328021526337
189,3,64,1,0.4358261227607727,0.13608652353286743
189,3,64,2,0.5602920651435852,0.1366005837917328
189,3,64,3,0.5950072407722473,0.15792551636695862
189,3,64,4,0.4736287295818329,0.19213971495628357
189,3,64,5,0.6629058122634888,0.09619977325201035
189,3,64,6,0.6286153197288513,0.16541902720928192
189,3,64,7,0.5709893703460693,0.22475703060626984
189,3,64,8,0.5117471218109131,0.14266955852508545
189,3,64,9,0.3789020776748657,0.0896652564406395
189,3,64,10,0.33911868929862976,0.1203707829117775
189,3,64,11,0.31734225153923035,0.13557973504066467
189,3,64,12,0.6482242345809937,0.07082464545965195
189,3,64,13,0.644846498966217,0.1327216923236847
189,3,64,14,0.5131982564926147,0.14474549889564514
189,3,64,15,0.45931410789489746,0.1489214152097702
189,3,64,16,0.6045825481414795,0.13967597484588623
189,3,64,17,0.5196502804756165,0.08963501453399658
189,3,64,18,0.4007762670516968,0.23663458228111267
189,3,64,19,0.3482772409915924,0.2116437703371048
189,3,64,20,0.4358648359775543,0.1372043341398239
189,3,64,21,0.5753231644630432,0.13715828955173492
189,3,64,22,0.5838358402252197,0.1373102217912674
189,3,64,23,0.5435454845428467,0.14765530824661255
189,3,64,24,0.606365442276001,0.12621775269508362
189,3,64,25,0.5920626521110535,0.143923819065094
189,3,64,26,0.6378213167190552,0.09739390760660172
189,3,64,27,0.5085430145263672,0.19595345854759216
189,3,64,28,0.4483952820301056,0.14648348093032837
189,3,64,29,0.4494340419769287,0.14204926788806915
189,3,64,30,0.4958527386188507,0.1227208748459816
189,3,64,31,0.5388464331626892,0.18789546191692352
189,3,64,32,0.5416849255561829,0.20576904714107513
189,3,64,33,0.28067144751548767,0.12463100254535675
189,3,64,34,0.5752084851264954,0.1646287888288498
189,3,64,35,0.4369088113307953,0.1872926652431488
189,3,64,36,0.6506839394569397,0.08528534322977066
189,3,64,37,0.4994952380657196,0.2094644159078598
189,3,64,38,0.6630219221115112,0.05743270739912987
189,3,64,39,0.5096338391304016,0.19521746039390564
189,3,64,40,0.47276556491851807,0.24351003766059875
189,3,64,41,0.4061134457588196,0.2049991339445114
189,3,64,42,0.31586045026779175,0.13278456032276154
189,3,64,43,0.5312255024909973,0.19027242064476013
189,3,64,44,0.47705256938934326,0.14793534576892853
189,3,64,45,0.3774564564228058,0.13485658168792725
189,3,64,46,0.5405738949775696,0.22963306307792664
189,3,64,47,0.4832099974155426,0.209405317902565
189,3,64,48,0.4356919229030609,0.08848341554403305
189,3,64,49,0.5019758343696594,0.20233286917209625
189,3,64,50,0.5259426236152649,0.1326824128627777
189,3,64,51,0.4239669740200043,0.14151319861412048
189,3,64,52,0.5342727899551392,0.08762702345848083
189,3,64,53,0.5475049614906311,0.1471371352672577
189,3,64,54,0.5254085659980774,0.14910057187080383
189,3,64,55,0.3702351450920105,0.12222112715244293
189,3,64,56,0.4378364682197571,0.18947824835777283
189,3,64,57,0.3422136604785919,0.08057869225740433
189,3,64,58,0.45738106966018677,0.13211992383003235
189,3,64,59,0.5300492644309998,0.142565056681633
189,3,64,60,0.627064049243927,0.1046111062169075
189,3,64,61,0.514593243598938,0.08804081380367279
189,3,64,62,0.43066370487213135,0.1641189455986023
189,3,64,63,0.5803448557853699,0.2053782045841217
189,4,128,0,0.6463525295257568,0.16685694456100464
189,4,128,1,0.3785780966281891,0.09933270514011383
189,4,128,2,0.5163761377334595,0.19687342643737793
189,4,128,3,0.5353670716285706,0.2049865424633026
189,4,128,4,0.45020633935928345,0.20031893253326416
189,4,128,5,0.48047173023223877,0.2740897536277771
189,4,128,6,0.4602157473564148,0.21136967837810516
189,4,128,7,0.4214135706424713,0.15335260331630707
189,4,128,8,0.700690507888794,0.1764005422592163
189,4,128,9,0.4286966919898987,0.23339779675006866
189,4,128,10,0.5465995073318481,0.2423626333475113
189,4,128,11,0.3193940818309784,0.16261129081249237
189,4,128,12,0.4198765456676483,0.1958141177892685
189,4,128,13,0.4930229187011719,0.08695261925458908
189,4,128,14,0.5821805000305176,0.24022750556468964
189,4,128,15,0.5667931437492371,0.21250751614570618
189,4,128,16,0.5822886824607849,0.15367391705513
189,4,128,17,0.3826165795326233,0.2596192955970764
189,4,128,18,0.5817188024520874,0.1943490356206894
189,4,128,19,0.5399960279464722,0.15920324623584747
189,4,128,20,0.657389223575592,0.11661580950021744
189,4,128,21,0.4034673273563385,0.26144900918006897
189,4,128,22,0.6143358945846558,0.12024681270122528
189,4,128,23,0.7368043661117554,0.15088604390621185
189,4,128,24,0.46028009057044983,0.2962381839752197
189,4,128,25,0.534406304359436,0.1672130674123764
189,4,128,26,0.4985431432723999,0.23728030920028687
189,4,128,27,0.5428736805915833,0.27030590176582336
189,4,128,28,0.6137797236442566,0.1670263409614563
189,4,128,29,0.6803521513938904,0.17169630527496338
189,4,128,30,0.4405268430709839,0.10223820060491562
189,4,128,31,0.47900524735450745,0.1656491756439209
189,4,128,32,0.44929301738739014,0.22777318954467773
189,4,128,33,0.5210540890693665,0.18491406738758087
189,4,128,34,0.5614544749259949,0.1492905467748642
189,4,128,35,0.516482412815094,0.22765472531318665
189,4,128,36,0.5598520040512085,0.20097114145755768
189,4,128,37,0.561529815196991,0.2432815134525299
189,4,128,38,0.5909967422485352,0.23266039788722992
189,4,128,39,0.5833501815795898,0.17996260523796082
189,4,128,40,0.6796927452087402,0.17130258679389954
189,4,128,41,0.6187938451766968,0.17836253345012665
189,4,128,42,0.5276097059249878,0.18933704495429993
189,4,128,43,0.49669334292411804,0.30854547023773193
189,4,128,44,0.47990185022354126,0.20027536153793335
189,4,128,45,0.46301910281181335,0.17324915528297424
189,4,128,46,0.6232923269271851,0.08832909166812897
189,4,128,47,0.5408470630645752,0.22100450098514557
189,4,128,48,0.5804288387298584,0.11770781874656677
189,4,128,49,0.24831154942512512,0.12017129361629486
189,4,128,50,0.39976340532302856,0.240277498960495
189,4,128,51,0.4695819914340973,0.2660585641860962
189,4,128,52,0.4422552287578583,0.16630803048610687
189,4,128,53,0.5614069700241089,0.21303483843803406
189,4,128,54,0.5017488598823547,0.24660880863666534
189,4,128,55,0.3293102979660034,0.19778436422348022
189,4,128,56,0.49329718947410583,0.18933580815792084
189,4,128,57,0.49824345111846924,0.13820388913154602
189,4,128,58,0.5067655444145203,0.25466805696487427
189,4,128,59,0.5768640637397766,0.2559899389743805
189,4,128,60,0.6506983041763306,0.17562554776668549
189,4,128,61,0.3237757682800293,0.2410159409046173
189,4,128,62,0.6105985641479492,0.252550333738327
189,4,128,63,0.49414098262786865,0.05103398859500885
189,4,128,64,0.3751191198825836,0.25010260939598083
189,4,128,65,0.5876649022102356,0.18123933672904968
189,4,128,66,0.38575947284698486,0.12455891817808151
189,4,128,67,0.4073810875415802,0.08343619108200073
189,4,128,68,0.4365728795528412,0.19627909362316132
189,4,128,69,0.30509284138679504,0.08625389635562897
189,4,128,70,0.5448456406593323,0.25450581312179565
189,4,128,71,0.44639286398887634,0.13257282972335815
189,4,128,72,0.6399451494216919,0.2102067619562149
189,4,128,73,0.48104411363601685,0.23850849270820618
189,4,128,74,0.4484669268131256,0.31404149532318115
189,4,128,75,0.5806151032447815,0.23704421520233154
189,4,128,76,0.5283747315406799,0.1655886471271515
189,4,128,77,0.6467996835708618,0.14208079874515533
189,4,128,78,0.6146267652511597,0.1938699185848236
189,4,128,79,0.42248639464378357,0.1404617726802826
189,4,128,80,0.4833959639072418,0.23698705434799194
189,4,128,81,0.6005108952522278,0.18977759778499603
189,4,128,82,0.5185049772262573,0.22919847071170807
189,4,128,83,0.46972349286079407,0.18490096926689148
189,4,128,84,0.5364099740982056,0.14262792468070984
189,4,128,85,0.5214311480522156,0.2830006182193756
189,4,128,86,0.769257128238678,0.13513043522834778
189,4,128,87,0.6231831908226013,0.1596941351890564
189,4,128,88,0.6788443922996521,0.14461182057857513
189,4,128,89,0.5021241903305054,0.1916338950395584
189,4,128,90,0.6192288994789124,0.2376323938369751
189,4,128,91,0.5130082368850708,0.12468484789133072
189,4,128,92,0.4005544185638428,0.20571978390216827
189,4,128,93,0.6078581213951111,0.27535250782966614
189,4,128,94,0.5563948154449463,0.07548650354146957
189,4,128,95,0.5518298149108887,0.17934800684452057
189,4,128,96,0.7190486788749695,0.1004243865609169
189,4,128,97,0.5997404456138611,0.21517904102802277
189,4,128,98,0.547219455242157,0.24303768575191498
189,4,128,99,0.3898697793483734,0.14538778364658356
189,4,128,100,0.6116107106208801,0.1276359111070633
189,4,128,101,0.5718154907226562,0.2245083898305893
189,4,128,102,0.5023328065872192,0.2459855079650879
189,4,128,103,0.43077656626701355,0.2071869969367981
189,4,128,104,0.7304316163063049,0.10364746302366257
189,4,128,105,0.5913642644882202,0.24251237511634827
189,4,128,106,0.34487196803092957,0.13928446173667908
189,4,128,107,0.6632382273674011,0.13224977254867554
189,4,128,108,0.3661439120769501,0.13589182496070862
189,4,128,109,0.5061068534851074,0.19752153754234314
189,4,128,110,0.5259155035018921,0.285408079624176
189,4,128,111,0.46480894088745117,0.24137887358665466
189,4,128,112,0.4972016215324402,0.17861582338809967
189,4,128,113,0.5091767907142639,0.23056571185588837
189,4,128,114,0.5900367498397827,0.178078755736351
189,4,128,115,0.5598253011703491,0.22128614783287048
189,4,128,116,0.5408048629760742,0.18492816388607025
189,4,128,117,0.5873767137527466,0.10806818306446075
189,4,128,118,0.5912295579910278,0.2358608990907669
189,4,128,119,0.5697011947631836,0.11204913258552551
189,4,128,120,0.5773472785949707,0.29780566692352295
189,4,128,121,0.6106008887290955,0.20499145984649658
189,4,128,122,0.4037475287914276,0.1353376805782318
189,4,128,123,0.40651947259902954,0.16636894643306732
189,4,128,124,0.5373091101646423,0.2119857221841812
189,4,128,125,0.5086026787757874,0.23456574976444244
189,4,128,126,0.46359649300575256,0.11294176429510117
189,4,128,127,0.6507928371429443,0.24391283094882965
189,5,128,0,0.5361409783363342,0.0862816572189331
189,5,128,1,0.4790721535682678,0.25566619634628296
189,5,128,2,0.6208298206329346,0.2020212858915329
189,5,128,3,0.3122972846031189,0.21440601348876953
189,5,128,4,0.6633520126342773,0.1287006139755249
189,5,128,5,0.4813470244407654,0.2047426551580429
189,5,128,6,0.6593417525291443,0.21473486721515656
189,5,128,7,0.555495023727417,0.1465228945016861
189,5,128,8,0.6732999682426453,0.08507981151342392
189,5,128,9,0.5450727939605713,0.18556936085224152
189,5,128,10,0.7229814529418945,0.1477517932653427
189,5,128,11,0.572130024433136,0.16715897619724274
189,5,128,12,0.455147385597229,0.24520783126354218
189,5,128,13,0.6429933309555054,0.2625679075717926
189,5,128,14,0.754952609539032,0.10975292325019836
189,5,128,15,0.6198192834854126,0.17960892617702484
189,5,128,16,0.5391684770584106,0.2422189861536026
189,5,128,17,0.7252212166786194,0.14637814462184906
189,5,128,18,0.5876385569572449,0.23811422288417816
189,5,128,19,0.6238158345222473,0.16521866619586945
189,5,128,20,0.4888089597225189,0.2387225478887558
189,5,128,21,0.4932219386100769,0.2917933166027069
189,5,128,22,0.7253882884979248,0.10547897219657898
189,5,128,23,0.647172212600708,0.15982533991336823
189,5,128,24,0.6089196801185608,0.2810429334640503
189,5,128,25,0.6666719317436218,0.1399945616722107
189,5,128,26,0.7276360988616943,0.19598209857940674
189,5,128,27,0.8017244935035706,0.11443189531564713
189,5,128,28,0.6862215995788574,0.18418624997138977
189,5,128,29,0.5205246210098267,0.22464622557163239
189,5,128,30,0.6669681668281555,0.13595910370349884
189,5,128,31,0.6824139952659607,0.1673891693353653
189,5,128,32,0.428032785654068,0.2537297010421753
189,5,128,33,0.8228886127471924,0.11459176987409592
189,5,128,34,0.6164491176605225,0.21867576241493225
189,5,128,35,0.5813149213790894,0.2419191598892212
189,5,128,36,0.5767229795455933,0.16912662982940674
189,5,128,37,0.7430599331855774,0.10645603388547897
189,5,128,38,0.6037637591362,0.19033068418502808
189,5,128,39,0.7903876900672913,0.10668738186359406
189,5,128,40,0.8008180856704712,0.11414054036140442
189,5,128,41,0.654418408870697,0.2114454060792923
189,5,128,42,0.6143668293952942,0.08772595226764679
189,5,128,43,0.7589787840843201,0.1706824004650116
189,5,128,44,0.6248255372047424,0.26150351762771606
189,5,128,45,0.6496734023094177,0.1340009868144989
189,5,128,46,0.7344056963920593,0.16882795095443726
189,5,128,47,0.7201703786849976,0.158372163772583
189,5,128,48,0.7248225212097168,0.18631254136562347
189,5,128,49,0.6501476168632507,0.23534071445465088
189,5,128,50,0.7221106886863708,0.13994508981704712
189,5,128,51,0.6779555082321167,0.18644700944423676
189,5,128,52,0.49175572395324707,0.18084125220775604
189,5,128,53,0.6149078607559204,0.15089601278305054
189,5,128,54,0.5921032428741455,0.2090354561805725
189,5,128,55,0.6935870051383972,0.22106784582138062
189,5,128,56,0.6894190907478333,0.13196329772472382
189,5,128,57,0.6229872703552246,0.18647804856300354
189,5,128,58,0.5679358839988708,0.23821638524532318
189,5,128,59,0.7703526020050049,0.1477912962436676
189,5,128,60,0.7777565717697144,0.13740891218185425
189,5,128,61,0.6209250688552856,0.19965308904647827
189,5,128,62,0.7009658813476562,0.13125570118427277
189,5,128,63,0.5847511291503906,0.19318322837352753
189,5,128,64,0.6741477251052856,0.12419671565294266
189,5,128,65,0.7043653130531311,0.1631779968738556
189,5,128,66,0.510651171207428,0.2527879476547241
189,5,128,67,0.7239186763763428,0.09748968482017517
189,5,128,68,0.45752257108688354,0.26145443320274353
189,5,128,69,0.6573939919471741,0.19805823266506195
189,5,128,70,0.6694068908691406,0.18954436480998993
189,5,128,71,0.6747632026672363,0.18309403955936432
189,5,128,72,0.5956541895866394,0.23138581216335297
189,5,128,73,0.8175836801528931,0.1239960640668869
189,5,128,74,0.8040856719017029,0.12407251447439194
189,5,128,75,0.6360700726509094,0.12538759410381317
189,5,128,76,0.6728633046150208,0.24171508848667145
189,5,128,77,0.730021595954895,0.16965247690677643
189,5,128,78,0.5921977758407593,0.15010426938533783
189,5,128,79,0.6131507158279419,0.2309609055519104
189,5,128,80,0.6798534989356995,0.18024960160255432
189,5,128,81,0.4661586880683899,0.1747674196958542
189,5,128,82,0.6887757182121277,0.22862479090690613
189,5,128,83,0.5580315589904785,0.07643754780292511
189,5,128,84,0.570827066898346,0.24095897376537323
189,5,128,85,0.6460830569267273,0.13859952986240387
189,5,128,86,0.6263259649276733,0.20818646252155304
189,5,128,87,0.7646830081939697,0.10667478293180466
189,5,128,88,0.5868438482284546,0.20688782632350922
189,5,128,89,0.6186342239379883,0.305307000875473
189,5,128,90,0.800386369228363,0.09161332994699478
189,5,128,91,0.5997694730758667,0.19896025955677032
189,5,128,92,0.49358686804771423,0.20945613086223602
189,5,128,93,0.7474693655967712,0.1346653401851654
189,5,128,94,0.5879613757133484,0.18050123751163483
189,5,128,95,0.6323962211608887,0.2426326870918274
189,5,128,96,0.7477049231529236,0.135710671544075
189,5,128,97,0.7459683418273926,0.16430191695690155
189,5,128,98,0.7507293224334717,0.14968828856945038
189,5,128,99,0.5953107476234436,0.2727714478969574
189,5,128,100,0.539691686630249,0.17063584923744202
189,5,128,101,0.4916500747203827,0.26707351207733154
189,5,128,102,0.5480551719665527,0.21676816046237946
189,5,128,103,0.7405052185058594,0.167755126953125
189,5,128,104,0.6505404114723206,0.20911093056201935
189,5,128,105,0.7074790000915527,0.19075612723827362
189,5,128,106,0.6483318209648132,0.13688704371452332
189,5,128,107,0.5903511047363281,0.21931923925876617
189,5,128,108,0.746681809425354,0.1279464215040207
189,5,128,109,0.776888370513916,0.13519728183746338
189,5,128,110,0.690930962562561,0.14263413846492767
189,5,128,111,0.5612685084342957,0.19958233833312988
189,5,128,112,0.7148730158805847,0.1580645889043808
189,5,128,113,0.5669528841972351,0.21653251349925995
189,5,128,114,0.6692781448364258,0.1994098722934723
189,5,128,115,0.8038963079452515,0.1049552634358406
189,5,128,116,0.38123294711112976,0.21308740973472595
189,5,128,117,0.5570246577262878,0.21409519016742706
189,5,128,118,0.7203148007392883,0.1430431753396988
189,5,128,119,0.5557816624641418,0.265839159488678
189,5,128,120,0.7860833406448364,0.1299344301223755
189,5,128,121,0.7072923183441162,0.16547603905200958
189,5,128,122,0.5982139706611633,0.16040851175785065
189,5,128,123,0.7013134360313416,0.1503082513809204
189,5,128,124,0.6184508800506592,0.2684285342693329
189,5,128,125,0.5538473129272461,0.15927447378635406
189,5,128,126,0.7047176361083984,0.2099616825580597
189,5,128,127,0.6174065470695496,0.18759973347187042
190,0,32,0,0.43929922580718994,0.05082916468381882
190,0,32,1,0.49250832200050354,0.07587580382823944
190,0,32,2,0.4748886823654175,0.047525446861982346
190,0,32,3,0.5800099968910217,0.052702996879816055
190,0,32,4,0.4886108636856079,0.0468265525996685
190,0,32,5,0.41919073462486267,0.062454234808683395
190,0,32,6,0.4457666277885437,0.02994728833436966
190,0,32,7,0.4355134665966034,0.079628124833107
190,0,32,8,0.5825284123420715,0.06162319332361221
190,0,32,9,0.5770348310470581,0.07028897106647491
190,0,32,10,0.5183761715888977,0.06491853296756744
190,0,32,11,0.3385203182697296,0.111494280397892
190,0,32,12,0.4330921471118927,0.07360446453094482
190,0,32,13,0.37326011061668396,0.0746731385588646
190,0,32,14,0.5491925477981567,0.08444633334875107
190,0,32,15,0.3876572847366333,0.07490444928407669
190,0,32,16,0.4322216808795929,0.04130588471889496
190,0,32,17,0.4427904784679413,0.06814572215080261
190,0,32,18,0.5831568837165833,0.07115618884563446
190,0,32,19,0.4445645809173584,0.08064670860767365
190,0,32,20,0.5589184165000916,0.036757443100214005
190,0,32,21,0.5014441013336182,0.04425303637981415
190,0,32,22,0.40287354588508606,0.11492303013801575
190,0,32,23,0.5912194848060608,0.01761207915842533
190,0,32,24,0.515429675579071,0.07444356381893158
190,0,32,25,0.3904367983341217,0.061583004891872406
190,0,32,26,0.4651992619037628,0.058917026966810226
190,0,32,27,0.518210768699646,0.09398480504751205
190,0,32,28,0.4180736541748047,0.024893639609217644
190,0,32,29,0.4562542140483856,0.07169360667467117
190,0,32,30,0.5568961501121521,0.04913126304745674
190,0,32,31,0.3252456486225128,0.10183846205472946
190,1,32,0,0.5442557334899902,0.07404645532369614
190,1,32,1,0.4647955596446991,0.05205829441547394
190,1,32,2,0.4468122124671936,0.10041945427656174
190,1,32,3,0.4774358868598938,0.08733431994915009
190,1,32,4,0.4843124747276306,0.0745428055524826
190,1,32,5,0.6121780872344971,0.04504485800862312
190,1,32,6,0.526856541633606,0.03890633210539818
190,1,32,7,0.3315718472003937,0.05889436602592468
190,1,32,8,0.5169463157653809,0.03848705068230629
190,1,32,9,0.44092345237731934,0.10090363025665283
190,1,32,10,0.559371292591095,0.0764528140425682
190,1,32,11,0.3982204496860504,0.0672597587108612
190,1,32,12,0.42321354150772095,0.012242784723639488
190,1,32,13,0.4251815676689148,0.05090713128447533
190,1,32,14,0.6275391578674316,0.059312961995601654
190,1,32,15,0.5505425333976746,0.06622970849275589
190,1,32,16,0.33274105191230774,0.06572031229734421
190,1,32,17,0.5829029083251953,0.07847201824188232
190,1,32,18,0.5470324158668518,0.10306455940008163
190,1,32,19,0.4349623918533325,0.06562905013561249
190,1,32,20,0.5317361354827881,0.09757748246192932
190,1,32,21,0.6146377921104431,0.07819058746099472
190,1,32,22,0.4347449243068695,0.09573705494403839
190,1,32,23,0.4976823031902313,0.07375729084014893
190,1,32,24,0.4556776285171509,0.08174894750118256
190,1,32,25,0.48911023139953613,0.08163566142320633
190,1,32,26,0.4063214063644409,0.11134595423936844
190,1,32,27,0.4924231767654419,0.036552928388118744
190,1,32,28,0.3873707354068756,0.06270593404769897
190,1,32,29,0.41512495279312134,0.06291715800762177
190,1,32,30,0.5878530144691467,0.04469190910458565
190,1,32,31,0.561249852180481,0.03816813603043556
190,2,64,0,0.5340524315834045,0.029633456841111183
190,2,64,1,0.3207944929599762,0.09797520935535431
190,2,64,2,0.5195631384849548,0.09636308997869492
190,2,64,3,0.5373526215553284,0.086419478058815
190,2,64,4,0.34178709983825684,0.1003270223736763
190,2,64,5,0.5377965569496155,0.11274106055498123
190,2,64,6,0.43361639976501465,0.05107102170586586
190,2,64,7,0.49860912561416626,0.12398948520421982
190,2,64,8,0.376708984375,0.08391508460044861
190,2,64,9,0.5085521340370178,0.15058836340904236
190,2,64,10,0.432847797870636,0.18888966739177704
190,2,64,11,0.5626305341720581,0.14231270551681519
190,2,64,12,0.6504947543144226,0.20414584875106812
190,2,64,13,0.4943217933177948,0.06867039203643799
190,2,64,14,0.5556860566139221,0.16958950459957123
190,2,64,15,0.49998393654823303,0.08742041140794754
190,2,64,16,0.5847930312156677,0.09946107864379883
190,2,64,17,0.28966861963272095,0.10370492190122604
190,2,64,18,0.4250090718269348,0.17577920854091644
190,2,64,19,0.42837589979171753,0.15018343925476074
190,2,64,20,0.25370869040489197,0.0821925699710846
190,2,64,21,0.518412709236145,0.09813711792230606
190,2,64,22,0.5603542923927307,0.06508295983076096
190,2,64,23,0.5341471433639526,0.19727356731891632
190,2,64,24,0.5491511225700378,0.12643785774707794
190,2,64,25,0.4489630460739136,0.20208482444286346
190,2,64,26,0.27346375584602356,0.09249984472990036
190,2,64,27,0.43351662158966064,0.14173047244548798
190,2,64,28,0.3768365979194641,0.1956489086151123
190,2,64,29,0.47496727108955383,0.12629295885562897
190,2,64,30,0.35747140645980835,0.06692947447299957
190,2,64,31,0.5128173232078552,0.13511373102664948
