subject,channel,alpha,f1,drop_pp
1,0,1.0,0.6699238882756764,0.0
1,0,0.75,0.6679331648664144,0.19907234092619852
1,0,0.5,0.6634547374565701,0.6469150819106262
1,0,0.25,0.6648667770826788,0.5057111192997565
1,0,0.0,0.6577165306777344,1.2207357597942003
1,1,1.0,0.6699238882756764,0.0
1,1,0.75,0.6790068615311333,-0.9082973255456928
1,1,0.5,0.665488636185593,0.44352520900834413
1,1,0.25,0.6730589892869889,-0.31351010113125355
1,1,0.0,0.6711745897796375,-0.12507015039611158
1,2,1.0,0.6699238882756764,0.0
1,2,0.75,0.6659730665326278,0.3950821743048616
1,2,0.5,0.6538158852591625,1.6108003016513939
1,2,0.25,0.6610200444132772,0.8903843862399174
1,2,0.0,0.6584723877805486,1.1451500495127775
1,3,1.0,0.6699238882756764,0.0
1,3,0.75,0.6456929962151098,2.423089206056661
1,3,0.5,0.6447804615133843,2.5143426762292087
1,3,0.25,0.6358476630490288,3.407622522664755
1,3,0.0,0.5929582719859979,7.696561628967846
1,4,1.0,0.6699238882756764,0.0
1,4,0.75,0.6980108947691468,-2.80870064934704
1,4,0.5,0.7252553408752502,-5.533145259957384
1,4,0.25,0.7325401314371902,-6.261624316151382
1,4,0.0,0.7043953098050547,-3.447142152937832
1,5,1.0,0.6699238882756764,0.0
1,5,0.75,0.6385038824231176,3.1420005852558774
1,5,0.5,0.6058621205017317,6.406176777394467
1,5,0.25,0.5940385835348948,7.5885304740781585
1,5,0.0,0.5969039122232327,7.30199760524437
1,6,1.0,0.6699238882756764,0.0
1,6,0.75,0.6745533279062941,-0.4629439630617682
1,6,0.5,0.6725502754177677,-0.2626387142091291
1,6,0.25,0.6872489219310814,-1.7325033655405053
1,6,0.0,0.7022073778474647,-3.228348957178828
1,7,1.0,0.6699238882756764,0.0
1,7,0.75,0.6628685930968423,0.7055295178834076
1,7,0.5,0.6363091568490269,3.3614731426649502
1,7,0.25,0.6073993321238941,6.252455615178231
1,7,0.0,0.599130142591635,7.079374568404139
1,8,1.0,0.6699238882756764,0.0
1,8,0.75,0.6595504199600394,1.0373468315637013
1,8,0.5,0.6684958933347547,0.14279949409217174
1,8,0.25,0.6535458728471202,1.6378015428556214
1,8,0.0,0.6214449981822523,4.84788900934241
2,0,1.0,0.8654766787370674,0.0
2,0,0.75,0.8788154450686845,-1.3338766331617125
2,0,0.5,0.8761462696719311,-1.0669590934863749
2,0,0.25,0.8870274057964354,-2.1550727059368002
2,0,0.0,0.8640647022041932,0.14119765328741707
2,1,1.0,0.8654766787370674,0.0
2,1,0.75,0.8635514355558882,0.19252431811791482
2,1,0.5,0.8549245782630686,1.0552100473998793
2,1,0.25,0.8476726541734851,1.780402456358221
2,1,0.0,0.8343842723461146,3.1092406390952787
2,2,1.0,0.8654766787370674,0.0
2,2,0.75,0.8650761754295166,0.04005033075507036
2,2,0.5,0.854544060132377,1.0932618604690303
2,2,0.25,0.8498562374835632,1.5620441253504147
2,2,0.0,0.8435232165640016,2.1953462173065708
2,3,1.0,0.8654766787370674,0.0
2,3,0.75,0.870805775092922,-0.5329096355854657
2,3,0.5,0.8755474011008095,-1.007072236374218
2,3,0.25,0.8722560018966294,-0.677932315956209
2,3,0.0,0.8600053081399993,0.5471370597068037
2,4,1.0,0.8654766787370674,0.0
2,4,0.75,0.8670941263266587,-0.16174475895913698
2,4,0.5,0.8681378420474648,-0.2661163310397452
2,4,0.25,0.8862478420470118,-2.077116330994444
2,4,0.0,0.8746950192158598,-0.9218340478792442
2,5,1.0,0.8654766787370674,0.0
2,5,0.75,0.8681927827971068,-0.2716104060039415
2,5,0.5,0.8538863243926172,1.1590354344450104
2,5,0.25,0.8450442559982795,2.043242273878787
2,5,0.0,0.8533146124140374,1.2162066323029963
2,6,1.0,0.8654766787370674,0.0
2,6,0.75,0.8622599395222603,0.32167392148070295
2,6,0.5,0.8647686422620053,0.07080364750620127
2,6,0.25,0.8679872172436096,-0.2510538506542259
2,6,0.0,0.8613780766801934,0.4098602056873957
2,7,1.0,0.8654766787370674,0.0
2,7,0.75,0.8620030223468158,0.3473656390251545
2,7,0.5,0.8511713861449681,1.4305292592099228
2,7,0.25,0.8282236336240805,3.7253045112986882
2,7,0.0,0.8129302408536028,5.254643788346458
2,8,1.0,0.8654766787370674,0.0
2,8,0.75,0.8604661096683373,0.5010569068730097
2,8,0.5,0.8525814170797904,1.2895261657276946
2,8,0.25,0.8520499280361133,1.3426750700954004
2,8,0.0,0.8482684939581491,1.7208184778918278
3,0,1.0,0.8979978997293697,0.0
3,0,0.75,0.895527214719846,0.24706850095237431
3,0,0.5,0.8871304952390904,1.0867404490279342
3,0,0.25,0.8842883815127697,1.3709518216600047
3,0,0.0,0.8720545780900879,2.5943321639281813
3,1,1.0,0.8979978997293697,0.0
3,1,0.75,0.8846813020375008,1.331659769186888
3,1,0.5,0.868851951728542,2.9145948000827704
3,1,0.25,0.8473042053623201,5.069369436704962
3,1,0.0,0.816842188694366,8.115571103500374
3,2,1.0,0.8979978997293697,0.0
3,2,0.75,0.89626393333693,0.1733966392439723
3,2,0.5,0.8982369416854568,-0.023904195608703827
3,2,0.25,0.9011984561862969,-0.3200556456927184
3,2,0.0,0.8834121190223412,1.458578070702854
3,3,1.0,0.8979978997293697,0.0
3,3,0.75,0.8791419525111182,1.8855947218251567
3,3,0.5,0.8493611578274155,4.863674190195422
3,3,0.25,0.8282867594305192,6.971114029885051
3,3,0.0,0.7841158810766355,11.388201865273418
3,4,1.0,0.8979978997293697,0.0
3,4,0.75,0.8982727814800622,-0.027488175069245724
3,4,0.5,0.9022558549493231,-0.42579552199534243
3,4,0.25,0.8967268282507606,0.12710714786091648
3,4,0.0,0.893509468135983,0.44884315933867436
3,5,1.0,0.8979978997293697,0.0
3,5,0.75,0.8968246616651894,0.11732380641803486
3,5,0.5,0.8879830301474743,1.0014869581895458
3,5,0.25,0.8891966684219508,0.8801231307418944
3,5,0.0,0.892487125595953,0.5510774133416718
3,6,1.0,0.8979978997293697,0.0
3,6,0.75,0.8966051689273042,0.13927308020654783
3,6,0.5,0.8946205497261135,0.337735000325623
3,6,0.25,0.8888845976067288,0.9113302122640943
3,6,0.0,0.8958530341375835,0.21448655917861714
3,7,1.0,0.8979978997293697,0.0
3,7,0.75,0.8931089958405284,0.4888903888841334
3,7,0.5,0.8855633934410913,1.2434506288278468
3,7,0.25,0.8834941236448739,1.4503776084495823
3,7,0.0,0.8744911397068453,2.3506760022524387
3,8,1.0,0.8979978997293697,0.0
3,8,0.75,0.8978221961363998,0.017570359296992244
3,8,0.5,0.8949365557266303,0.30613440027393857
3,8,0.25,0.8929744999230534,0.5023399806316275
3,8,0.0,0.8912822631151146,0.6715636614255116
4,0,1.0,0.8797265269683212,0.0
4,0,0.75,0.8764753731079429,0.3251153860378331
4,0,0.5,0.9002716928454526,-2.05451658771314
4,0,0.25,0.8984006802767716,-1.8674153308450347
4,0,0.0,0.8781797170020309,0.1546809966290308
4,1,1.0,0.8797265269683212,0.0
4,1,0.75,0.8724032919272426,0.7323235041078568
4,1,0.5,0.8786960612266085,0.10304657417127272
4,1,0.25,0.8575158996038015,2.221062736451973
4,1,0.0,0.8452500859060265,3.447644106229475
4,2,1.0,0.8797265269683212,0.0
4,2,0.75,0.8665347369006859,1.3191790067635267
4,2,0.5,0.8601656126103103,1.9560914358010884
4,2,0.25,0.8306417135111624,4.908481345715876
4,2,0.0,0.8130358228885692,6.669070407975197
4,3,1.0,0.8797265269683212,0.0
4,3,0.75,0.8858623671791673,-0.6135840210846122
4,3,0.5,0.878303963152448,0.14225638158732457
4,3,0.25,0.8624286750964253,1.729785187189592
4,3,0.0,0.8605174719692393,1.9209054999081876
4,4,1.0,0.8797265269683212,0.0
4,4,0.75,0.8629569478987202,1.676957906960097
4,4,0.5,0.858715685046062,2.1010841922259216
4,4,0.25,0.8671530011263553,1.2573525841965916
4,4,0.0,0.8811048474991353,-0.13783205308141033
4,5,1.0,0.8797265269683212,0.0
4,5,0.75,0.8619119593518807,1.7814567616440513
4,5,0.5,0.8548674857019978,2.4859041266323434
4,5,0.25,0.8400295624753646,3.9696964492956566
4,5,0.0,0.8368535469211731,4.287298004714812
4,6,1.0,0.8797265269683212,0.0
4,6,0.75,0.8795229193917947,0.020360757652648775
4,6,0.5,0.8732463034663215,0.6480223501999727
4,6,0.25,0.8803714779040088,-0.0644950935687616
4,6,0.0,0.8710691916414331,0.865733532688806
4,7,1.0,0.8797265269683212,0.0
4,7,0.75,0.8786514809753058,0.10750459930154443
4,7,0.5,0.8747051231952614,0.5021403773059818
4,7,0.25,0.8679062271134642,1.1820299854856997
4,7,0.0,0.8546768358212314,2.504969114708977
4,8,1.0,0.8797265269683212,0.0
4,8,0.75,0.8760973689521178,0.36291580162034487
4,8,0.5,0.8641266551434456,1.5599871824875655
4,8,0.25,0.8653783749996471,1.4348151968674117
4,8,0.0,0.8610091821457149,1.871734482260634
5,0,1.0,0.6690133542449154,0.0
5,0,0.75,0.6710889819655801,-0.2075627720664719
5,0,0.5,0.6601227479137723,0.8890606331143025
5,0,0.25,0.6557677233205291,1.3245630924386242
5,0,0.0,0.6454358582790389,2.357749596587644
5,1,1.0,0.6690133542449154,0.0
5,1,0.75,0.6821508248492948,-1.313747060437942
5,1,0.5,0.6764411782999145,-0.7427824054999088
5,1,0.25,0.6785273044322936,-0.9513950187378217
5,1,0.0,0.6812397267401146,-1.22263724951992
5,2,1.0,0.6690133542449154,0.0
5,2,0.75,0.666295073941628,0.2718280303287357
5,2,0.5,0.6656924871078769,0.3320867137038497
5,2,0.25,0.6575310750072605,1.148227923765488
5,2,0.0,0.6497365259561004,1.927682828881494
5,3,1.0,0.6690133542449154,0.0
5,3,0.75,0.6808507713934882,-1.1837417148572782
5,3,0.5,0.6849751549685383,-1.5961800723622965
5,3,0.25,0.67784869938654,-0.8835345141624651
5,3,0.0,0.673145684500936,-0.41323302560206665
5,4,1.0,0.6690133542449154,0.0
5,4,0.75,0.6615067762513877,0.7506577993527719
5,4,0.5,0.6564740896372658,1.2539264607649536
5,4,0.25,0.6611561502237429,0.7857204021172515
5,4,0.0,0.6727874154582109,-0.37740612132954876
5,5,1.0,0.6690133542449154,0.0
5,5,0.75,0.6284510781023082,4.056227614260721
5,5,0.5,0.6319054386846242,3.710791556029114
5,5,0.25,0.6320531946882882,3.6960159556627126
5,5,0.0,0.6371112122253467,3.1902142019568647
5,6,1.0,0.6690133542449154,0.0
5,6,0.75,0.6683484852609818,0.06648689839335864
5,6,0.5,0.662465431020071,0.6547923224844321
5,6,0.25,0.6564342022225439,1.2579152022371476
5,6,0.0,0.6598189977575151,0.9194356487400301
5,7,1.0,0.6690133542449154,0.0
5,7,0.75,0.6767746618655313,-0.7761307620615887
5,7,0.5,0.6692608885519078,-0.024753430699242518
5,7,0.25,0.6659813635485958,0.3031990696319542
5,7,0.0,0.6601058781454376,0.8907476099477729
5,8,1.0,0.6690133542449154,0.0
5,8,0.75,0.6730089662011858,-0.3995611956270406
5,8,0.5,0.6799205603798749,-1.0907206134959546
5,8,0.25,0.6768372023138757,-0.7823848068960304
5,8,0.0,0.6649356255467046,0.40777286982107697
6,0,1.0,0.7465608220332024,0.0
6,0,0.75,0.7651646811198232,-1.8603859086620766
6,0,0.5,0.7546259627109106,-0.8065140677708249
6,0,0.25,0.7592566373740547,-1.269581534085229
6,0,0.0,0.756858041605093,-1.029721957189056
6,1,1.0,0.7465608220332024,0.0
6,1,0.75,0.7585289723836797,-1.196815035047727
6,1,0.5,0.758031255946536,-1.1470433913333578
6,1,0.25,0.7532693277218825,-0.6708505688680089
6,1,0.0,0.750211550807061,-0.3650728773858636
6,2,1.0,0.7465608220332024,0.0
6,2,0.75,0.7684849080690763,-2.1924086035873924
6,2,0.5,0.7659012745457119,-1.9340452512509487
6,2,0.25,0.7748838215741176,-2.8322999540915217
6,2,0.0,0.7721472368211498,-2.558641478794743
6,3,1.0,0.7465608220332024,0.0
6,3,0.75,0.7727044520482598,-2.6143630015057373
6,3,0.5,0.773421631970507,-2.6860809937304553
6,3,0.25,0.7885169778114345,-4.195615577823208
6,3,0.0,0.7901403949826766,-4.357957294947424
6,4,1.0,0.7465608220332024,0.0
6,4,0.75,0.7430471852307035,0.3513636802498943
6,4,0.5,0.7454494408317087,0.11113812014936775
6,4,0.25,0.7370465433225761,0.9514278710626267
6,4,0.0,0.7349568474585094,1.1603974574692977
6,5,1.0,0.7465608220332024,0.0
6,5,0.75,0.7428077599607215,0.37530620724809394
6,5,0.5,0.7473840220643955,-0.0823200031193072
6,5,0.25,0.7522021556794086,-0.5641333646206226
6,5,0.0,0.7630162694806575,-1.6455447447455085
6,6,1.0,0.7465608220332024,0.0
6,6,0.75,0.7474853794249099,-0.09245573917074923
6,6,0.5,0.7465685744639711,-0.0007752430768670493
6,6,0.25,0.7522468890556447,-0.5686067022442343
6,6,0.0,0.7497092782080498,-0.31484561748473805
6,7,1.0,0.7465608220332024,0.0
6,7,0.75,0.7463325625640722,0.022825946913018758
6,7,0.5,0.744178578582874,0.23822434503284473
6,7,0.25,0.725942384843311,2.0618437189891425
6,7,0.0,0.7091165814151748,3.7444240618027647
6,8,1.0,0.7465608220332024,0.0
6,8,0.75,0.7451631845110341,0.13976375221682602
6,8,0.5,0.741845428410132,0.4715393623070385
6,8,0.25,0.7236634921312842,2.2897329901918173
6,8,0.0,0.7169730002538273,2.9587821779375134
7,0,1.0,0.7764800375940925,0.0
7,0,0.75,0.7809402914440084,-0.4460253849915996
7,0,0.5,0.7721210184632303,0.43590191308621185
7,0,0.25,0.7707981446983362,0.5681892895756269
7,0,0.0,0.7589587150682526,1.7521322525839822
7,1,1.0,0.7764800375940925,0.0
7,1,0.75,0.7721581033378098,0.4321934256282689
7,1,0.5,0.7652401407216474,1.1239896872445088
7,1,0.25,0.7528508003153034,2.3629237278789073
7,1,0.0,0.7364281666400108,4.00518709540817
7,2,1.0,0.7764800375940925,0.0
7,2,0.75,0.7680944766774755,0.8385560916616908
7,2,0.5,0.7584373241471613,1.8042713446931202
7,2,0.25,0.7419531079276753,3.4526929666417128
7,2,0.0,0.7254719622962071,5.100807529788531
7,3,1.0,0.7764800375940925,0.0
7,3,0.75,0.7810548646354426,-0.4574827041350149
7,3,0.5,0.7872529413958346,-1.0772903801742117
7,3,0.25,0.7779160443116754,-0.14360067175829272
7,3,0.0,0.7652412684428398,1.1238769151252659
7,4,1.0,0.7764800375940925,0.0
7,4,0.75,0.762516135830053,1.39639017640395
7,4,0.5,0.7568666552090261,1.961338238506638
7,4,0.25,0.7623858910287302,1.409414656536223
7,4,0.0,0.7523833018286941,2.409673576539839
7,5,1.0,0.7764800375940925,0.0
7,5,0.75,0.7995926805079212,-2.311264291382875
7,5,0.5,0.7956425011865211,-1.916246359242868
7,5,0.25,0.7968106320941373,-2.033059450004482
7,5,0.0,0.8005369070427234,-2.4056869448630946
7,6,1.0,0.7764800375940925,0.0
7,6,0.75,0.7756007933649602,0.08792442291322144
7,6,0.5,0.749566800426535,2.6913237167557447
7,6,0.25,0.7342577406010242,4.222229699306823
7,6,0.0,0.7304311147672098,4.604892282688267
7,7,1.0,0.7764800375940925,0.0
7,7,0.75,0.782720415701458,-0.6240378107365552
7,7,0.5,0.7726805536194575,0.37994839746349207
7,7,0.25,0.7479117896492593,2.8568247944833147
7,7,0.0,0.7308500775845207,4.562996000957176
7,8,1.0,0.7764800375940925,0.0
7,8,0.75,0.7712093156894984,0.52707219045941
7,8,0.5,0.7670973366075544,0.938270098653804
7,8,0.25,0.752859309945773,2.362072764831946
7,8,0.0,0.7392714016330617,3.7208635961030745
8,0,1.0,0.7792193708460324,0.0
8,0,0.75,0.7816650997891188,-0.2445728943086367
8,0,0.5,0.7811681635404063,-0.19487926943738687
8,0,0.25,0.7601256169566526,1.9093753889379839
8,0,0.0,0.7465632457845568,3.265612506147564
8,1,1.0,0.7792193708460324,0.0
8,1,0.75,0.7843043667832532,-0.5084995937220782
8,1,0.5,0.7913137007629023,-1.2094329916869873
8,1,0.25,0.7799999905896232,-0.07806197435907825
8,1,0.0,0.7750452022787763,0.41741685672561646
8,2,1.0,0.7792193708460324,0.0
8,2,0.75,0.7900192203223648,-1.079984947633239
8,2,0.5,0.7981279111816277,-1.8908540335595303
8,2,0.25,0.8079767468989026,-2.875737605287021
8,2,0.0,0.8013955677104829,-2.2176196864450493
8,3,1.0,0.7792193708460324,0.0
8,3,0.75,0.7852490544840315,-0.602968363799905
8,3,0.5,0.7844402085986713,-0.5220837752638818
8,3,0.25,0.7759820862628275,0.3237284583204936
8,3,0.0,0.7631914047821392,1.6027966063893229
8,4,1.0,0.7792193708460324,0.0
8,4,0.75,0.785722547152775,-0.6503176306742575
8,4,0.5,0.777896976855422,0.13223939906104043
8,4,0.25,0.7730010021833279,0.6218368662704532
8,4,0.0,0.7621105893063327,1.7108781539699747
8,5,1.0,0.7792193708460324,0.0
8,5,0.75,0.7631213952072511,1.6097975638781348
8,5,0.5,0.7493789135945779,2.9840457251454566
8,5,0.25,0.7515291783848214,2.769019246121107
8,5,0.0,0.7338477375663646,4.537163327966787
8,6,1.0,0.7792193708460324,0.0
8,6,0.75,0.7751961647832681,0.4023206062764295
8,6,0.5,0.7694526511281127,0.9766719717919758
8,6,0.25,0.7661900725117605,1.302929833427191
8,6,0.0,0.7602782901067682,1.894108073926426
8,7,1.0,0.7792193708460324,0.0
8,7,0.75,0.7922093638555363,-1.2989993009503875
8,7,0.5,0.7932970834937472,-1.4077712647714735
8,7,0.25,0.7721011593043392,0.7118211541693231
8,7,0.0,0.7537771813008828,2.544218954514965
8,8,1.0,0.7792193708460324,0.0
8,8,0.75,0.787119595161648,-0.7900224315615545
8,8,0.5,0.7711497612525943,0.8069609593438165
8,8,0.25,0.7846287038121692,-0.5409332966136771
8,8,0.0,0.7721817719199394,0.7037598926093014
9,0,1.0,0.7340828164618519,0.0
9,0,0.75,0.7466385508409739,-1.2555734379121941
9,0,0.5,0.7578211201247851,-2.373830366293317
9,0,0.25,0.7579757982520173,-2.3892981790165413
9,0,0.0,0.7578377117218763,-2.375489526002439
9,1,1.0,0.7340828164618519,0.0
9,1,0.75,0.7329401412232548,0.1142675238597124
9,1,0.5,0.7273279700500931,0.675484641175883
9,1,0.25,0.7246633438140258,0.9419472647826166
9,1,0.0,0.713406942896965,2.067587356488687
9,2,1.0,0.7340828164618519,0.0
9,2,0.75,0.7371253604898932,-0.3042544028041272
9,2,0.5,0.7302723518874634,0.38104645743884946
9,2,0.25,0.709480898350054,2.4601918111797905
9,2,0.0,0.7109874819267819,2.3095334535070067
9,3,1.0,0.7340828164618519,0.0
9,3,0.75,0.7455376501313917,-1.145483366953981
9,3,0.5,0.755966174806559,-2.1883358344707116
9,3,0.25,0.7578432792637191,-2.3760462801867166
9,3,0.0,0.7662188585280374,-3.2136042066185477
9,4,1.0,0.7340828164618519,0.0
9,4,0.75,0.7251193792439626,0.8963437217889281
9,4,0.5,0.7166262133941359,1.7456603067716014
9,4,0.25,0.7299441636565434,0.41386528053085625
9,4,0.0,0.7345610041515124,-0.047818768966045866
9,5,1.0,0.7340828164618519,0.0
9,5,0.75,0.7420665094513916,-0.7983692989539715
9,5,0.5,0.7347519504690043,-0.06691340071524055
9,5,0.25,0.7339659145443878,0.011690191746416279
9,5,0.0,0.7429105206911526,-0.8827704229300681
9,6,1.0,0.7340828164618519,0.0
9,6,0.75,0.7352924446321589,-0.12096281703070089
9,6,0.5,0.7317389856313635,0.23438308304883915
9,6,0.25,0.7233661986771313,1.0716617784720661
9,6,0.0,0.7334144571235829,0.06683593382690312
9,7,1.0,0.7340828164618519,0.0
9,7,0.75,0.7516608763966985,-1.7578059934846624
9,7,0.5,0.7520860284535008,-1.8003211991648893
9,7,0.25,0.7531299706349227,-1.904715417307079
9,7,0.0,0.7452585402688461,-1.1175723806994164
9,8,1.0,0.7340828164618519,0.0
9,8,0.75,0.736556343312756,-0.2473526850904073
9,8,0.5,0.7391982303486728,-0.5115413886820908
9,8,0.25,0.7344597146798004,-0.0376898217948507
9,8,0.0,0.7308099649627118,0.3272851499140139
10,0,1.0,0.6999213295548196,0.0
10,0,0.75,0.6940919283202774,0.582940123454212
10,0,0.5,0.7098861950777539,-0.9964865522934296
10,0,0.25,0.7159672137096409,-1.6045884154821333
10,0,0.0,0.7206486975400828,-2.07273679852632
10,1,1.0,0.6999213295548196,0.0
10,1,0.75,0.7056834258726421,-0.576209631782254
10,1,0.5,0.7121167706078412,-1.2195441053021616
10,1,0.25,0.7309315867624564,-3.1010257207636838
10,1,0.0,0.7352074636979473,-3.5286134143127756
10,2,1.0,0.6999213295548196,0.0
10,2,0.75,0.7070344881154488,-0.7113158560629218
10,2,0.5,0.7112220980498574,-1.1300768495037805
10,2,0.25,0.7151682193420036,-1.5246889787184026
10,2,0.0,0.7110344671169645,-1.1113137562144937
10,3,1.0,0.6999213295548196,0.0
10,3,0.75,0.6931254063088238,0.6795923245995761
10,3,0.5,0.7012021786536062,-0.12808490987866739
10,3,0.25,0.6978619410677178,0.20593884871017432
10,3,0.0,0.6967498877456934,0.31714418091262075
10,4,1.0,0.6999213295548196,0.0
10,4,0.75,0.7133341146931781,-1.341278513835853
10,4,0.5,0.7054463969695389,-0.5525067414719365
10,4,0.25,0.7207957355402177,-2.0874405985398137
10,4,0.0,0.7299963504212557,-3.0075020866436097
10,5,1.0,0.6999213295548196,0.0
10,5,0.75,0.7234245170200917,-2.3503187465272135
10,5,0.5,0.7029606666786574,-0.30393371238378597
10,5,0.25,0.7032275238737771,-0.33061943189575116
10,5,0.0,0.7035613065022963,-0.3639976947476753
10,6,1.0,0.6999213295548196,0.0
10,6,0.75,0.6989797822831101,0.09415472717094753
10,6,0.5,0.6948285176724676,0.5092811882352
10,6,0.25,0.7045131625310634,-0.45918329762438814
10,6,0.0,0.704461749657026,-0.4540420102206455
10,7,1.0,0.6999213295548196,0.0
10,7,0.75,0.6767071634678361,2.3214166086983457
10,7,0.5,0.6751870708895236,2.4734258665295994
10,7,0.25,0.670367001731331,2.9554327823488546
10,7,0.0,0.657686755829729,4.2234573725090545
10,8,1.0,0.6999213295548196,0.0
10,8,0.75,0.7170253040876479,-1.7103974532828303
10,8,0.5,0.709608898185482,-0.9687568630662446
10,8,0.25,0.7080681532129789,-0.814682365815933
10,8,0.0,0.702676228494507,-0.2754898939687389
11,0,1.0,0.8917236124126133,0.0
11,0,0.75,0.9023798722898098,-1.0656259877196428
11,0,0.5,0.9066633159115587,-1.4939703498945356
11,0,0.25,0.9054187255487797,-1.3695113136166337
11,0,0.0,0.8986428502290963,-0.6919237816482959
11,1,1.0,0.8917236124126133,0.0
11,1,0.75,0.9015614869170056,-0.9837874504392219
11,1,0.5,0.9006706995892753,-0.8947087176661928
11,1,0.25,0.8907142124496619,0.10093999629514627
11,1,0.0,0.8748168011797252,1.6906811232888175
11,2,1.0,0.8917236124126133,0.0
11,2,0.75,0.8877134348230882,0.40101775895251546
11,2,0.5,0.880209073662863,1.151453874975028
11,2,0.25,0.8738500242434325,1.7873588169180832
11,2,0.0,0.8566147758900012,3.5108836522612097
11,3,1.0,0.8917236124126133,0.0
11,3,0.75,0.8857602877497655,0.596332466284788
11,3,0.5,0.8703449328449329,2.137867956768047
11,3,0.25,0.866547438676972,2.5176173735641294
11,3,0.0,0.8472831012912141,4.444051112139924
11,4,1.0,0.8917236124126133,0.0
11,4,0.75,0.8840925279918834,0.7631084420729906
11,4,0.5,0.8769003421394769,1.4823270273136457
11,4,0.25,0.8553940924554639,3.632951995714939
11,4,0.0,0.8723269695147057,1.9396642897907657
11,5,1.0,0.8917236124126133,0.0
11,5,0.75,0.8525184219880546,3.9205190424558722
11,5,0.5,0.854197344865898,3.7526267546715286
11,5,0.25,0.8657069780962753,2.601663431633805
11,5,0.0,0.8821933792497291,0.9530233162884261
11,6,1.0,0.8917236124126133,0.0
11,6,0.75,0.9036246950076066,-1.1901082594993229
11,6,0.5,0.917301661790639,-2.557804937802566
11,6,0.25,0.9252542915116604,-3.3530679099047056
11,6,0.0,0.9242488035285815,-3.252519111596819
11,7,1.0,0.8917236124126133,0.0
11,7,0.75,0.9163380464742866,-2.4614434061673296
11,7,0.5,0.9300402514507871,-3.8316639038173728
11,7,0.25,0.9174183380617262,-2.5694725649112904
11,7,0.0,0.8988536641115317,-0.7130051698918338
11,8,1.0,0.8917236124126133,0.0
11,8,0.75,0.9011973189875256,-0.9473706574912311
11,8,0.5,0.8995697831233083,-0.7846170710694933
11,8,0.25,0.8925036084734969,-0.07799960608835255
11,8,0.0,0.9059488360161194,-1.4225223603506087
12,0,1.0,0.8845209954267387,0.0
12,0,0.75,0.8812652888697028,0.3255706557035887
12,0,0.5,0.8983491668813779,-1.3828171454639215
12,0,0.25,0.8971993786282365,-1.2678383201497834
12,0,0.0,0.8874931884558747,-0.2972193029135983
12,1,1.0,0.8845209954267387,0.0
12,1,0.75,0.8913632901630395,-0.6842294736300825
12,1,0.5,0.8871503651026176,-0.2629369675878901
12,1,0.25,0.8842699224873789,0.025107293935977548
12,1,0.0,0.8736888260248294,1.083216940190923
12,2,1.0,0.8845209954267387,0.0
12,2,0.75,0.8891490398795174,-0.4628044452778757
12,2,0.5,0.8932486308890778,-0.8727635462339123
12,2,0.25,0.8777896325421505,0.6731362884588199
12,2,0.0,0.8655801562778307,1.8940839148907984
12,3,1.0,0.8845209954267387,0.0
12,3,0.75,0.8906372307981492,-0.6116235371410483
12,3,0.5,0.8841187099732778,0.04022854534608822
12,3,0.25,0.8807533842338034,0.37676111929352274
12,3,0.0,0.8644374689440135,2.0083526482725156
12,4,1.0,0.8845209954267387,0.0
12,4,0.75,0.8854387192305095,-0.09177238037708646
12,4,0.5,0.8860298758589201,-0.15088804321814475
12,4,0.25,0.8904467169221975,-0.592572149545878
12,4,0.0,0.8826208335207593,0.1900161905979414
12,5,1.0,0.8845209954267387,0.0
12,5,0.75,0.8861657289882059,-0.16447335614672154
12,5,0.5,0.8790041947235596,0.5516800703179059
12,5,0.25,0.8771553464744359,0.7365648952302739
12,5,0.0,0.8828305576262763,0.16904378004624077
12,6,1.0,0.8845209954267387,0.0
12,6,0.75,0.9018633642769587,-1.7342368850220002
12,6,0.5,0.8995988574356822,-1.5077862008943566
12,6,0.25,0.9085522441585414,-2.4031248731802735
12,6,0.0,0.9018339092445489,-1.7312913817810194
12,7,1.0,0.8845209954267387,0.0
12,7,0.75,0.8822277265157765,0.2293268910962154
12,7,0.5,0.8897004608701972,-0.5179465443458486
12,7,0.25,0.8742999098115833,1.0221085615155334
12,7,0.0,0.8814882718083938,0.3032723618344835
12,8,1.0,0.8845209954267387,0.0
12,8,0.75,0.8870165827548222,-0.2495587328083526
12,8,0.5,0.8788513102002042,0.5669685226534438
12,8,0.25,0.8849464390260418,-0.042544359930307696
12,8,0.0,0.8827603659904161,0.17606294363226027
13,0,1.0,0.8694128787878788,0.0
13,0,0.75,0.8792878816111585,-0.9875002823279688
13,0,0.5,0.8861481018309891,-1.673522304311037
13,0,0.25,0.8937069649580377,-2.4294086170158935
13,0,0.0,0.8926504830640213,-2.323760427614252
13,1,1.0,0.8694128787878788,0.0
13,1,0.75,0.8677478143887817,0.16650643990970826
13,1,0.5,0.8710564822234534,-0.1643603435574681
13,1,0.25,0.8716288444052047,-0.22159656173259545
13,1,0.0,0.868611939056956,0.08009397309227673
13,2,1.0,0.8694128787878788,0.0
13,2,0.75,0.8804382419214636,-1.102536313358482
13,2,0.5,0.8714308703246386,-0.20179915367598555
13,2,0.25,0.8609557755747193,0.8457103213159511
13,2,0.0,0.8555680101504289,1.3844868637449825
13,3,1.0,0.8694128787878788,0.0
13,3,0.75,0.8754654761216608,-0.605259733378205
13,3,0.5,0.881867904665759,-1.2455025877880277
13,3,0.25,0.8634484563055992,0.5964422482279574
13,3,0.0,0.8426304068794811,2.6782471908397665
13,4,1.0,0.8694128787878788,0.0
13,4,0.75,0.8727063837238717,-0.3293504935992897
13,4,0.5,0.8648441312475403,0.4568747540338425
13,4,0.25,0.8535453462526849,1.5867532535193907
13,4,0.0,0.8482295624318987,2.118331635598003
13,5,1.0,0.8694128787878788,0.0
13,5,0.75,0.8610614153346269,0.8351463453251884
13,5,0.5,0.8567758020657972,1.2637076722081586
13,5,0.25,0.854636339922652,1.4776538865226785
13,5,0.0,0.8557093061941933,1.3703572593685487
13,6,1.0,0.8694128787878788,0.0
13,6,0.75,0.8645638344329435,0.48490443549352724
13,6,0.5,0.8646473009081806,0.4765577879698113
13,6,0.25,0.8592489432020581,1.0163935585820627
13,6,0.0,0.8572891116139987,1.2123767173880085
13,7,1.0,0.8694128787878788,0.0
13,7,0.75,0.875747978313051,-0.6335099525172194
13,7,0.5,0.8699008067954841,-0.04879280076053316
13,7,0.25,0.8718601507721537,-0.2447271984274968
13,7,0.0,0.8773169209397239,-0.7904042151845148
13,8,1.0,0.8694128787878788,0.0
13,8,0.75,0.8790346585625287,-0.9621779774649952
13,8,0.5,0.8812232710469828,-1.1810392259104074
13,8,0.25,0.8667432262295689,0.2669652558309865
13,8,0.0,0.8662869231967059,0.3125955591172902
14,0,1.0,0.8479309458190865,0.0
14,0,0.75,0.8415106229006327,0.6420322918453736
14,0,0.5,0.8393058947895867,0.8625051029499731
14,0,0.25,0.8432473112303812,0.46836345887052433
14,0,0.0,0.818314879282122,2.961606653696447
14,1,1.0,0.8479309458190865,0.0
14,1,0.75,0.8399300299157645,0.800091590332197
14,1,0.5,0.8390421968797807,0.8888748939305802
14,1,0.25,0.83447114337716,1.345980244192646
14,1,0.0,0.833512061112484,1.4418884706602464
14,2,1.0,0.8479309458190865,0.0
14,2,0.75,0.8483607068722783,-0.04297610531918128
14,2,0.5,0.8433794761636157,0.4551469655470708
14,2,0.25,0.8473903504365211,0.054059538256534534
14,2,0.0,0.848369891417035,-0.04389455979485479
14,3,1.0,0.8479309458190865,0.0
14,3,0.75,0.838561352935324,0.936959288376249
14,3,0.5,0.8204041578307362,2.7526787988350288
14,3,0.25,0.7883696687333035,5.956127708578296
14,3,0.0,0.7661396932956283,8.17912525234582
14,4,1.0,0.8479309458190865,0.0
14,4,0.75,0.8415284984498037,0.6402447369282749
14,4,0.5,0.8312447803867538,1.66861654323327
14,4,0.25,0.8306810825288056,1.7249863290280887
14,4,0.0,0.8427532733523517,0.5177672466734728
14,5,1.0,0.8479309458190865,0.0
14,5,0.75,0.83726565856914,1.066528724994642
14,5,0.5,0.8449640720573383,0.2966873761748201
14,5,0.25,0.842363413096733,0.5567532722353441
14,5,0.0,0.8322634189738972,1.566752684518924
14,6,1.0,0.8479309458190865,0.0
14,6,0.75,0.848858827622877,-0.09278818037905534
14,6,0.5,0.8434269260601067,0.4504019758979738
14,6,0.25,0.8397214311935054,0.820951462558106
14,6,0.0,0.8356491946887719,1.22817511303146
14,7,1.0,0.8479309458190865,0.0
14,7,0.75,0.8388971338996003,0.9033811919486157
14,7,0.5,0.8218406142760821,2.609033154300433
14,7,0.25,0.8210585889985134,2.6872356820573096
14,7,0.0,0.8112910020739393,3.663994374514712
14,8,1.0,0.8479309458190865,0.0
14,8,0.75,0.8417430080884027,0.6187937730683712
14,8,0.5,0.8449990369276228,0.2931908891463664
14,8,0.25,0.8445308074990672,0.3400138320019286
14,8,0.0,0.8278104612263211,2.0120484592765386
15,0,1.0,0.8821767175913517,0.0
15,0,0.75,0.8791351497993866,0.3041567791965183
15,0,0.5,0.8661984642575338,1.597825333381797
15,0,0.25,0.865017788922203,1.7158928669148699
15,0,0.0,0.8465031836551021,3.5673533936249613
15,1,1.0,0.8821767175913517,0.0
15,1,0.75,0.898133708749208,-1.5956991157856204
15,1,0.5,0.9002656832800372,-1.8088965688685454
15,1,0.25,0.8930073421566501,-1.0830624565298375
15,1,0.0,0.8969763667944867,-1.4799649203134924
15,2,1.0,0.8821767175913517,0.0
15,2,0.75,0.8853875866450382,-0.3210869053686505
15,2,0.5,0.870597438244497,1.1579279346854765
15,2,0.25,0.8685792079528314,1.3597509638520355
15,2,0.0,0.8439584111569318,3.8218306434419924
15,3,1.0,0.8821767175913517,0.0
15,3,0.75,0.8714472998114395,1.072941777991221
15,3,0.5,0.8634700772045201,1.8706640386831674
15,3,0.25,0.8537001115469729,2.847660604437885
15,3,0.0,0.8427506169706065,3.9426100620745252
15,4,1.0,0.8821767175913517,0.0
15,4,0.75,0.882053170036848,0.012354755450372235
15,4,0.5,0.880451881689412,0.17248359019397252
15,4,0.25,0.8759398884244961,0.623682916685564
15,4,0.0,0.8662134224319082,1.5963295159443502
15,5,1.0,0.8821767175913517,0.0
15,5,0.75,0.8718657988371139,1.031091875423784
15,5,0.5,0.8664724246696536,1.570429292169817
15,5,0.25,0.87314110560888,0.9035611982471714
15,5,0.0,0.8717989670626235,1.0377750528728247
15,6,1.0,0.8821767175913517,0.0
15,6,0.75,0.869354585405717,1.2822132185634771
15,6,0.5,0.8814012918457166,0.0775425745635161
15,6,0.25,0.8799935462442788,0.21831713470729097
15,6,0.0,0.8725087894729214,0.9667928118430313
15,7,1.0,0.8821767175913517,0.0
15,7,0.75,0.8616219972324108,2.0554720358940903
15,7,0.5,0.8577006861920718,2.4476031399279896
15,7,0.25,0.8672546624072001,1.4922055184151684
15,7,0.0,0.8473267913908686,3.4849926200483106
15,8,1.0,0.8821767175913517,0.0
15,8,0.75,0.9035739373691337,-2.1397219777781973
15,8,0.5,0.9014452928723816,-1.9268575281029876
15,8,0.25,0.8863908629040658,-0.4214145312714024
15,8,0.0,0.8738249286413601,0.8351788949991668
16,0,1.0,0.8080997625907939,0.0
16,0,0.75,0.8034129019435311,0.46868606472627583
16,0,0.5,0.8035382889292252,0.45614736615686713
16,0,0.25,0.7987687438070263,0.933101878376752
16,0,0.0,0.7887625768639581,1.9337185726835737
16,1,1.0,0.8080997625907939,0.0
16,1,0.75,0.8097011053955042,-0.16013428047103595
16,1,0.5,0.8012500421166154,0.6849720474178422
16,1,0.25,0.804273178933152,0.382658365764188
16,1,0.0,0.8005863903133685,0.7513372277425323
16,2,1.0,0.8080997625907939,0.0
16,2,0.75,0.8028110654255606,0.528869716523328
16,2,0.5,0.801623210832049,0.6476551758744842
16,2,0.25,0.7965060380420186,1.1593724548775275
16,2,0.0,0.7951276426540012,1.2972119936792703
16,3,1.0,0.8080997625907939,0.0
16,3,0.75,0.8020824176717948,0.6017344918999079
16,3,0.5,0.8020588102338565,0.6040952356937357
16,3,0.25,0.796836090776556,1.126367181423782
16,3,0.0,0.7886633648008108,1.9436397789983073
16,4,1.0,0.8080997625907939,0.0
16,4,0.75,0.8077794743815686,0.032028820922525014
16,4,0.5,0.8063661393885274,0.17336232022664433
16,4,0.25,0.7974531014699551,1.0646661120838785
16,4,0.0,0.7974867707526326,1.0612991838161223
16,5,1.0,0.8080997625907939,0.0
16,5,0.75,0.7909884468381312,1.711131575266267
16,5,0.5,0.7827349692204518,2.536479337034203
16,5,0.25,0.7756605890990054,3.2439173491788487
16,5,0.0,0.7674604009761328,4.063936161466108
16,6,1.0,0.8080997625907939,0.0
16,6,0.75,0.8030888214859815,0.5010941104812372
16,6,0.5,0.8075890363151598,0.0510726275634088
16,6,0.25,0.8081537681278614,-0.005400553706758071
16,6,0.0,0.815821479396882,-0.772171680608813
16,7,1.0,0.8080997625907939,0.0
16,7,0.75,0.805611766082413,0.24879965083808298
16,7,0.5,0.7905736913458241,1.7526071244969743
16,7,0.25,0.7830225693057187,2.5077193285075183
16,7,0.0,0.7777718684751933,3.032789411560055
16,8,1.0,0.8080997625907939,0.0
16,8,0.75,0.8018587030668161,0.6241059523977799
16,8,0.5,0.7811370994258543,2.696266316493956
16,8,0.25,0.7838014313434662,2.429833124732761
16,8,0.0,0.7667010978276898,4.139866476310406
17,0,1.0,0.8632636708021676,0.0
17,0,0.75,0.8587857101262698,0.4477960675897785
17,0,0.5,0.8550455694715098,0.8218101330657812
17,0,0.25,0.8406356467120819,2.2628024090085685
17,0,0.0,0.8420464172974382,2.121725350472936
17,1,1.0,0.8632636708021676,0.0
17,1,0.75,0.8603801812258448,0.2883489576322784
17,1,0.5,0.8666559342425837,-0.3392263440416099
17,1,0.25,0.8617875449402762,0.14761258618913864
17,1,0.0,0.8547512976689784,0.8512373133189199
17,2,1.0,0.8632636708021676,0.0
17,2,0.75,0.8542273443320042,0.9036326470163392
17,2,0.5,0.8547793474426549,0.8484323359512658
17,2,0.25,0.8514084795377571,1.185519126441048
17,2,0.0,0.836071661389458,2.7192009412709606
17,3,1.0,0.8632636708021676,0.0
17,3,0.75,0.8562593907988644,0.700428000330322
17,3,0.5,0.8441617559307361,1.9101914871431536
17,3,0.25,0.8414992111173201,2.1764459684847526
17,3,0.0,0.8186618252201212,4.460184558204638
17,4,1.0,0.8632636708021676,0.0
17,4,0.75,0.8587365644789333,0.45271063232342756
17,4,0.5,0.8623791535265978,0.08845172755698183
17,4,0.25,0.8585047021289904,0.4758968673177155
17,4,0.0,0.8801702048080642,-1.690653400589659
17,5,1.0,0.8632636708021676,0.0
17,5,0.75,0.8531137371417503,1.0149933660417276
17,5,0.5,0.8476766102884133,1.5587060513754247
17,5,0.25,0.8405590041957911,2.270466660637649
17,5,0.0,0.8405763966626234,2.268727413954419
17,6,1.0,0.8632636708021676,0.0
17,6,0.75,0.8610739976049173,0.21896731972502748
17,6,0.5,0.8687190263452778,-0.5455355543110163
17,6,0.25,0.8693492134052957,-0.6085542603128102
17,6,0.0,0.8570388384970519,0.6224832305115724
17,7,1.0,0.8632636708021676,0.0
17,7,0.75,0.8654455030086674,-0.2181832206499812
17,7,0.5,0.8590243925096903,0.42392782924772776
17,7,0.25,0.8641723196966902,-0.0908648894522579
17,7,0.0,0.860525143549288,0.2738527252879597
17,8,1.0,0.8632636708021676,0.0
17,8,0.75,0.8582149609093732,0.5048709892794379
17,8,0.5,0.8550104748422799,0.8253195959887716
17,8,0.25,0.842223956222854,2.103971457931364
17,8,0.0,0.8120699670831955,5.1193703718972134
18,0,1.0,0.8364795881699183,0.0
18,0,0.75,0.825696677456728,1.0782910713190264
18,0,0.5,0.8169149664832404,1.956462168667794
18,0,0.25,0.8056390419504149,3.0840546219503384
18,0,0.0,0.8028928220875933,3.3586766082325026
18,1,1.0,0.8364795881699183,0.0
18,1,0.75,0.8534706412895233,-1.6991053119605026
18,1,0.5,0.8482554268246351,-1.1775838654716764
18,1,0.25,0.8396322465347169,-0.31526583647986106
18,1,0.0,0.8352052215161225,0.12743666537957665
18,2,1.0,0.8364795881699183,0.0
18,2,0.75,0.8476840343793532,-1.1204446209434948
18,2,0.5,0.849803423444546,-1.332383527462766
18,2,0.25,0.8546799147814693,-1.820032661155102
18,2,0.0,0.8603633730503943,-2.3883784880476044
18,3,1.0,0.8364795881699183,0.0
18,3,0.75,0.8349191765634176,0.15604116065006668
18,3,0.5,0.8101511784387075,2.6328409731210756
18,3,0.25,0.77449551025839,6.198407791152826
18,3,0.0,0.7294838551064806,10.699573306343769
18,4,1.0,0.8364795881699183,0.0
18,4,0.75,0.8338430485038975,0.2636539666020843
18,4,0.5,0.8372017627924263,-0.07221746225080095
18,4,0.25,0.8319042672452645,0.45753209246538473
18,4,0.0,0.8330247894984362,0.3454798671482129
18,5,1.0,0.8364795881699183,0.0
18,5,0.75,0.8525435578136461,-1.6063969643727805
18,5,0.5,0.8478781307636791,-1.139854259376083
18,5,0.25,0.8554575198886971,-1.8977931718778818
18,5,0.0,0.8571038289278682,-2.0624240757949885
18,6,1.0,0.8364795881699183,0.0
18,6,0.75,0.8625957487702808,-2.611616060036248
18,6,0.5,0.8701952478028602,-3.3715659632941875
18,6,0.25,0.8607613791857005,-2.4281791015782206
18,6,0.0,0.853222994480201,-1.6743406310282705
18,7,1.0,0.8364795881699183,0.0
18,7,0.75,0.8110618541091007,2.54177340608176
18,7,0.5,0.7862270335222679,5.025255464765044
18,7,0.25,0.7763370404594914,6.014254771042693
18,7,0.0,0.7839932424747202,5.248634569519806
18,8,1.0,0.8364795881699183,0.0
18,8,0.75,0.8378609646845947,-0.13813765146764023
18,8,0.5,0.8370972163087417,-0.06176281388233784
18,8,0.25,0.8342154270068292,0.226416116308914
18,8,0.0,0.8161920502846503,2.0287537885268048
19,0,1.0,0.7897282494581965,0.0
19,0,0.75,0.7819701274334601,0.7758122024736469
19,0,0.5,0.7802777398901439,0.9450509568052601
19,0,0.25,0.7840310948167489,0.5697154641447599
19,0,0.0,0.7712830036738322,1.844524578436435
19,1,1.0,0.7897282494581965,0.0
19,1,0.75,0.7898044928050362,-0.0076243346839643955
19,1,0.5,0.787674257597112,0.20539918610845698
19,1,0.25,0.7822353784411634,0.7492871017033109
19,1,0.0,0.7690421571033026,2.0686092354893937
19,2,1.0,0.7897282494581965,0.0
19,2,0.75,0.7839042418198154,0.582400763838109
19,2,0.5,0.7860725365577771,0.3655712900419439
19,2,0.25,0.783752148427659,0.5976101030537584
19,2,0.0,0.7879584950999794,0.1769754358217135
19,3,1.0,0.7897282494581965,0.0
19,3,0.75,0.7806396941993914,0.9088555258805142
19,3,0.5,0.7687235615691024,2.1004687889094154
19,3,0.25,0.7623920660733337,2.7336183384862878
19,3,0.0,0.7362957783217676,5.3432471136428905
19,4,1.0,0.7897282494581965,0.0
19,4,0.75,0.7927130348966595,-0.29847854384629224
19,4,0.5,0.7842845097740606,0.5443739684135918
19,4,0.25,0.7657906899453791,2.3937559512817397
19,4,0.0,0.7688462697112921,2.088197974690442
19,5,1.0,0.7897282494581965,0.0
19,5,0.75,0.7950290253324885,-0.5300775874292007
19,5,0.5,0.7798413528063106,0.9886896651885912
19,5,0.25,0.7705691587923895,1.915909066580701
19,5,0.0,0.7721915454617342,1.7536703996462344
19,6,1.0,0.7897282494581965,0.0
19,6,0.75,0.7917611227743653,-0.20328733161687484
19,6,0.5,0.796197734197555,-0.6469484739358489
19,6,0.25,0.8011835132930201,-1.1455263834823537
19,6,0.0,0.7947351684800763,-0.5006919021879774
19,7,1.0,0.7897282494581965,0.0
19,7,0.75,0.7952468370170855,-0.551858755888901
19,7,0.5,0.7807167086409258,0.9011540817270736
19,7,0.25,0.7794990336421643,1.02292158160322
19,7,0.0,0.7503004976406445,3.942775181755198
19,8,1.0,0.7897282494581965,0.0
19,8,0.75,0.778195950250538,1.1532299207658525
19,8,0.5,0.7719298318087746,1.7798417649421916
19,8,0.25,0.7691694805794371,2.0558768878759404
19,8,0.0,0.7301606495769688,5.956759988122773
20,0,1.0,0.780853684118406,0.0
20,0,0.75,0.7770174709773614,0.3836213141044653
20,0,0.5,0.7791856716413126,0.16680124770934723
20,0,0.25,0.7816744812656183,-0.08207971472122821
20,0,0.0,0.7858270187260896,-0.4973334607683566
20,1,1.0,0.780853684118406,0.0
20,1,0.75,0.7741868760744526,0.6666808043953476
20,1,0.5,0.7687710177457706,1.2082666372635442
20,1,0.25,0.7541147932259998,2.673889089240622
20,1,0.0,0.7607596345086053,2.009404960980077
20,2,1.0,0.780853684118406,0.0
20,2,0.75,0.7766581534188401,0.4195530699565908
20,2,0.5,0.7574682588902367,2.338542522816933
20,2,0.25,0.7686469598654171,1.2206724252988965
20,2,0.0,0.7727850797912206,0.806860432718548
20,3,1.0,0.780853684118406,0.0
20,3,0.75,0.7900733158413381,-0.9219631722932053
20,3,0.5,0.8049555226093401,-2.4101838490934058
20,3,0.25,0.8087081898643227,-2.7854505745916636
20,3,0.0,0.8246688034188034,-4.381511930039739
20,4,1.0,0.780853684118406,0.0
20,4,0.75,0.7878409916083963,-0.6987307489990213
20,4,0.5,0.7756818966307885,0.5171787487617596
20,4,0.25,0.7776970878845629,0.3156596233843123
20,4,0.0,0.7727644647754857,0.8089219342920395
20,5,1.0,0.780853684118406,0.0
20,5,0.75,0.7968428641266224,-1.5989180008216364
20,5,0.5,0.7953494198834962,-1.4495735765090112
20,5,0.25,0.8004235433858464,-1.956985926744037
20,5,0.0,0.7936356124758668,-1.2781928357460726
20,6,1.0,0.780853684118406,0.0
20,6,0.75,0.790487376730822,-0.9633692612415978
20,6,0.5,0.7798036811775282,0.105000294087787
20,6,0.25,0.763737031263925,1.7116652854481051
20,6,0.0,0.7540831049955277,2.677057912287839
20,7,1.0,0.780853684118406,0.0
20,7,0.75,0.780330047057415,0.052363706099101126
20,7,0.5,0.7545256452475803,2.63280388708258
20,7,0.25,0.746671247657005,3.4182436461401067
20,7,0.0,0.7767908026694605,0.406288144894551
20,8,1.0,0.780853684118406,0.0
20,8,0.75,0.7718507273436169,0.9002956774789128
20,8,0.5,0.7652214336697549,1.563225044865113
20,8,0.25,0.7570859187919576,2.376776532644842
20,8,0.0,0.7437231450687746,3.7130539049631484
21,0,1.0,0.8671829761036809,0.0
21,0,0.75,0.8655735374944565,0.16094386092243562
21,0,0.5,0.8514923285331448,1.5690647570536065
21,0,0.25,0.8483926468731601,1.879032923052082
21,0,0.0,0.8309503188866492,3.6232657217031727
21,1,1.0,0.8671829761036809,0.0
21,1,0.75,0.872272331193036,-0.5089355089355152
21,1,0.5,0.8726761206809757,-0.5493144577294773
21,1,0.25,0.8554689274568346,1.1714048646846331
21,1,0.0,0.8511373299319728,1.6045646171708117
21,2,1.0,0.8671829761036809,0.0
21,2,0.75,0.8730373270667277,-0.5854350963046762
21,2,0.5,0.8675295237679843,-0.03465476643034204
21,2,0.25,0.8537896025369929,1.3393373566688016
21,2,0.0,0.8571002089776969,1.0082767125983993
21,3,1.0,0.8671829761036809,0.0
21,3,0.75,0.8689909919573193,-0.1808015853638434
21,3,0.5,0.8574494069902449,0.9733569113436036
21,3,0.25,0.8304955630506513,3.6687413053029583
21,3,0.0,0.8271125116713351,4.007046443234574
21,4,1.0,0.8671829761036809,0.0
21,4,0.75,0.8599199116266225,0.7263064477058379
21,4,0.5,0.8475362072495137,1.9646768854167163
21,4,0.25,0.8381827081352915,2.9000267968389393
21,4,0.0,0.8409844597126152,2.619851639106574
21,5,1.0,0.8671829761036809,0.0
21,5,0.75,0.8751415312069857,-0.7958555103304787
21,5,0.5,0.8833739343865783,-1.6190958282897405
21,5,0.25,0.8908933878321587,-2.3710411728477765
21,5,0.0,0.885717321305849,-1.8534345202168123
21,6,1.0,0.8671829761036809,0.0
21,6,0.75,0.8711747344206082,-0.39917583169273296
21,6,0.5,0.868841875891966,-0.16588997882851508
21,6,0.25,0.8722159832311174,-0.5033007127436484
21,6,0.0,0.8668050983083349,0.03778777953460377
21,7,1.0,0.8671829761036809,0.0
21,7,0.75,0.8597457757919864,0.7437200311694481
21,7,0.5,0.8540711179459828,1.3111858157698109
21,7,0.25,0.8645798624396593,0.260311366402155
21,7,0.0,0.852265575748566,1.4917400355114907
21,8,1.0,0.8671829761036809,0.0
21,8,0.75,0.859162901291836,0.8020074811844857
21,8,0.5,0.8625156009526496,0.46673751510313277
21,8,0.25,0.8687009722230815,-0.1517996119400622
21,8,0.0,0.8524972410150015,1.468573508867943
22,0,1.0,0.8395997152750518,0.0
22,0,0.75,0.8389646658998249,0.06350493752269593
22,0,0.5,0.8308117681000058,0.8787947175046051
22,0,0.25,0.8289074175617412,1.0692297713310595
22,0,0.0,0.8250530295450609,1.454668572999096
22,1,1.0,0.8395997152750518,0.0
22,1,0.75,0.8563672331867792,-1.676751791172737
22,1,0.5,0.8433920741379164,-0.3792358862864553
22,1,0.25,0.8458713708653264,-0.6271655590274539
22,1,0.0,0.830244572854832,0.9355142420219842
22,2,1.0,0.8395997152750518,0.0
22,2,0.75,0.8358718719004625,0.37278433745893125
22,2,0.5,0.832396044617487,0.7203670657564887
22,2,0.25,0.8335800619670113,0.6019653308040551
22,2,0.0,0.8168453048679483,2.2754410407103576
22,3,1.0,0.8395997152750518,0.0
22,3,0.75,0.8282829306488236,1.1316784626228205
22,3,0.5,0.8275803379411281,1.2019377333923775
22,3,0.25,0.8226115166238758,1.6988198651176067
22,3,0.0,0.8048925083097946,3.47072069652572
22,4,1.0,0.8395997152750518,0.0
22,4,0.75,0.8362031803682588,0.3396534906793036
22,4,0.5,0.8289166097068152,1.0683105568236595
22,4,0.25,0.8141755737935772,2.542414148147465
22,4,0.0,0.7963879169212783,4.321179835377354
22,5,1.0,0.8395997152750518,0.0
22,5,0.75,0.8317234322231011,0.7876283051950761
22,5,0.5,0.8180201315552215,2.1579583719830375
22,5,0.25,0.8291610675688889,1.0438647706162985
22,5,0.0,0.8376135570407938,0.1986158234258073
22,6,1.0,0.8395997152750518,0.0
22,6,0.75,0.8322065801830278,0.7393135092023995
22,6,0.5,0.8226704839224461,1.6929231352605711
22,6,0.25,0.8139953844071108,2.5604330867941005
22,6,0.0,0.8118987080892284,2.7701007185823467
22,7,1.0,0.8395997152750518,0.0
22,7,0.75,0.8296593180391036,0.9940397235948195
22,7,0.5,0.8116434362366997,2.7956279038352183
22,7,0.25,0.7894846223884336,5.01150928866182
22,7,0.0,0.7619903282798337,7.760938699521813
22,8,1.0,0.8395997152750518,0.0
22,8,0.75,0.835852206736353,0.3747508538698874
22,8,0.5,0.8165694475668582,2.303026770819361
22,8,0.25,0.8277896973447035,1.1810017930348304
22,8,0.0,0.8190790000976823,2.052071517736953
23,0,1.0,0.8204824990190733,0.0
23,0,0.75,0.802170721925578,1.8311777093495296
23,0,0.5,0.7820585620735959,3.842393694547741
23,0,0.25,0.7662785368725408,5.420396214653255
23,0,0.0,0.7476038488625748,7.287865015649853
23,1,1.0,0.8204824990190733,0.0
23,1,0.75,0.8191933391527183,0.12891598663550274
23,1,0.5,0.8070744388205375,1.3408060198535798
23,1,0.25,0.8152108222199579,0.5271676799115443
23,1,0.0,0.814483015029231,0.5999483989842291
23,2,1.0,0.8204824990190733,0.0
23,2,0.75,0.8298174638103866,-0.9334964791313238
23,2,0.5,0.8359730941209718,-1.549059510189843
23,2,0.25,0.8382690375930659,-1.7786538573992594
23,2,0.0,0.8331254786943562,-1.2642979675282828
23,3,1.0,0.8204824990190733,0.0
23,3,0.75,0.8381168173039035,-1.7634318284830197
23,3,0.5,0.8381962028530656,-1.771370383399229
23,3,0.25,0.8200860394541579,0.03964595649154079
23,3,0.0,0.7798316342591182,4.065086475995516
23,4,1.0,0.8204824990190733,0.0
23,4,0.75,0.8106323933122039,0.9850105706869394
23,4,0.5,0.7963947903947903,2.4087708624283
23,4,0.25,0.7950137030436,2.5468795975473357
23,4,0.0,0.8042278278271946,1.6254671191878733
23,5,1.0,0.8204824990190733,0.0
23,5,0.75,0.819460618017583,0.10218810014903656
23,5,0.5,0.803154758211888,1.7327740807185354
23,5,0.25,0.8059309559997543,1.4551543019319046
23,5,0.0,0.805789425202653,1.4693073816420377
23,6,1.0,0.8204824990190733,0.0
23,6,0.75,0.8220858084637634,-0.16033094446901153
23,6,0.5,0.810133960773687,1.0348538245386285
23,6,0.25,0.8074879892311305,1.299450978794281
23,6,0.0,0.7855907885278798,3.489171049119355
23,7,1.0,0.8204824990190733,0.0
23,7,0.75,0.8250820605358204,-0.45995615167471193
23,7,0.5,0.8212216747554408,-0.07391757363675033
23,7,0.25,0.8109808544851748,0.9501644533898568
23,7,0.0,0.7823980964523973,3.8084402566676
23,8,1.0,0.8204824990190733,0.0
23,8,0.75,0.8030622351782231,1.742026384085027
23,8,0.5,0.7919053702612886,2.857712875778473
23,8,0.25,0.7885190598984785,3.196343912059485
23,8,0.0,0.7793878186590161,4.109468036005726
24,0,1.0,0.7783067584624648,0.0
24,0,0.75,0.762774609025501,1.5532149436963794
24,0,0.5,0.747346815775793,3.0959942686671793
24,0,0.25,0.7546596788016635,2.3647079660801262
24,0,0.0,0.7484011633688513,2.9905595093613457
24,1,1.0,0.7783067584624648,0.0
24,1,0.75,0.7806165844985283,-0.23098260360635559
24,1,0.5,0.7740475741700279,0.42591842924368795
24,1,0.25,0.7771126332819808,0.1194125180484007
24,1,0.0,0.7809456994806927,-0.2638941018227925
24,2,1.0,0.7783067584624648,0.0
24,2,0.75,0.7757568936321909,0.25498648302738625
24,2,0.5,0.7711493363124587,0.7157422150006032
24,2,0.25,0.7572062533867622,2.1100505075702602
24,2,0.0,0.7534445341730014,2.4862224289463386
24,3,1.0,0.7783067584624648,0.0
24,3,0.75,0.8035407416329297,-2.523398317046488
24,3,0.5,0.8166184669832606,-3.8311708520795795
24,3,0.25,0.8261410103903242,-4.7834251927859395
24,3,0.0,0.8215025026433767,-4.319574418091188
24,4,1.0,0.7783067584624648,0.0
24,4,0.75,0.7783557447289102,-0.00489862664454499
24,4,0.5,0.7641108220406037,1.4195936421861122
24,4,0.25,0.7519253132382167,2.6381445224248123
24,4,0.0,0.7355645185504686,4.274223991199621
24,5,1.0,0.7783067584624648,0.0
24,5,0.75,0.7469911417296995,3.1315616732765283
24,5,0.5,0.7235903759514021,5.4716382511062704
24,5,0.25,0.7310239775608683,4.728278090159643
24,5,0.0,0.7265841077217826,5.172265074068216
24,6,1.0,0.7783067584624648,0.0
24,6,0.75,0.7828903297491484,-0.458357128668363
24,6,0.5,0.7828227649582606,-0.45160064957958657
24,6,0.25,0.7738872293387999,0.4419529123664834
24,6,0.0,0.7620807459676311,1.6226012494833686
24,7,1.0,0.7783067584624648,0.0
24,7,0.75,0.7878165848056823,-0.9509826343217509
24,7,0.5,0.7730365789127773,0.5270179549687448
24,7,0.25,0.7436554617442535,3.465129671821132
24,7,0.0,0.7280920115654319,5.021474689703287
24,8,1.0,0.7783067584624648,0.0
24,8,0.75,0.7811976380947973,-0.2890879632332477
24,8,0.5,0.7737899928619631,0.45167656005016266
24,8,0.25,0.7625750417826005,1.5731716679864283
24,8,0.0,0.7430885492206246,3.521820924184016
25,0,1.0,0.8641911573065335,0.0
25,0,0.75,0.8702341168720091,-0.6042959565475625
25,0,0.5,0.8684987916885051,-0.430763438197157
25,0,0.25,0.8741863651539642,-0.9995207847430687
25,0,0.0,0.8660267102887117,-0.18355529821781902
25,1,1.0,0.8641911573065335,0.0
25,1,0.75,0.8728738358420008,-0.8682678535467336
25,1,0.5,0.8776909110383923,-1.3499753731858743
25,1,0.25,0.8631600917947513,0.10310655117822254
25,1,0.0,0.8498032253964254,1.438793191010812
25,2,1.0,0.8641911573065335,0.0
25,2,0.75,0.8565340909090909,0.7657066397442569
25,2,0.5,0.8528359366178402,1.1355220688693324
25,2,0.25,0.8550304016045382,0.916075570199526
25,2,0.0,0.836824855065537,2.7366302240996454
25,3,1.0,0.8641911573065335,0.0
25,3,0.75,0.8642482158791,-0.005705857256643743
25,3,0.5,0.8541410472176492,1.0050110088884345
25,3,0.25,0.8516336238934785,1.2557533413054989
25,3,0.0,0.8511465440623311,1.3044613244202363
25,4,1.0,0.8641911573065335,0.0
25,4,0.75,0.8605308600713013,0.36602972352322016
25,4,0.5,0.847080865453647,1.7110291852886483
25,4,0.25,0.8472000131855268,1.6991144121006663
25,4,0.0,0.8298302186034758,3.4360938703057675
25,5,1.0,0.8641911573065335,0.0
25,5,0.75,0.865791213875546,-0.160005656901252
25,5,0.5,0.8589979162493582,0.5193241057175335
25,5,0.25,0.8580855212791362,0.6105636027397332
25,5,0.0,0.8551961578812864,0.8994999425247063
25,6,1.0,0.8641911573065335,0.0
25,6,0.75,0.8667145088611441,-0.25233515546105867
25,6,0.5,0.8708007950394205,-0.660963773288703
25,6,0.25,0.8748616792189162,-1.0670521912382713
25,6,0.0,0.8825214751592181,-1.8330317852684574
25,7,1.0,0.8641911573065335,0.0
25,7,0.75,0.8674278079882984,-0.323665068176493
25,7,0.5,0.8477133284338065,1.6477828872726974
25,7,0.25,0.8463207210155206,1.7870436291012926
25,7,0.0,0.8266334097880407,3.7557747518492834
25,8,1.0,0.8641911573065335,0.0
25,8,0.75,0.8768132259779788,-1.262206867144533
25,8,0.5,0.8799082792940924,-1.5717121987558924
25,8,0.25,0.8907929431077918,-2.660178580125827
25,8,0.0,0.879751781122777,-1.5560623816243457
26,0,1.0,0.7859797343998292,0.0
26,0,0.75,0.7834576807010694,0.25220536987597963
26,0,0.5,0.7766594295098607,0.9320304889968489
26,0,0.25,0.7705465474153914,1.5433186984437741
26,0,0.0,0.7663242036293245,1.9655530770504637
26,1,1.0,0.7859797343998292,0.0
26,1,0.75,0.782263024801559,0.3716709598270196
26,1,0.5,0.7802879497860008,0.5691784613828355
26,1,0.25,0.7789689946351135,0.7010739764715668
26,1,0.0,0.773556651207963,1.2423083191866136
26,2,1.0,0.7859797343998292,0.0
26,2,0.75,0.7868220504762128,-0.08423160763836313
26,2,0.5,0.7778033461529341,0.8176388246895039
26,2,0.25,0.773216240501231,1.276349389859821
26,2,0.0,0.7547006189791596,3.1279115420669523
26,3,1.0,0.7859797343998292,0.0
26,3,0.75,0.7816325207588655,0.43472136409636875
26,3,0.5,0.7692166881010587,1.6763046298770456
26,3,0.25,0.7675985837871083,1.8381150612720831
26,3,0.0,0.7500860827001158,3.589365169971337
26,4,1.0,0.7859797343998292,0.0
26,4,0.75,0.7865536609154812,-0.057392651565202346
26,4,0.5,0.7678928039246371,1.8086930475192053
26,4,0.25,0.7535902577242088,3.238947667562031
26,4,0.0,0.7627367218169115,2.324301258291761
26,5,1.0,0.7859797343998292,0.0
26,5,0.75,0.7715963953277525,1.4383339072076673
26,5,0.5,0.7507943816608253,3.5185352739003806
26,5,0.25,0.7699258216696738,1.6053912730155329
26,5,0.0,0.7764441468266096,0.9535587573219595
26,6,1.0,0.7859797343998292,0.0
26,6,0.75,0.7904576905838959,-0.4477956184066767
26,6,0.5,0.7899404768394456,-0.3960742439616416
26,6,0.25,0.8016384284804807,-1.565869408065157
26,6,0.0,0.8061671056367774,-2.018737123694825
26,7,1.0,0.7859797343998292,0.0
26,7,0.75,0.7906680372405326,-0.4688302840703429
26,7,0.5,0.7748163621614936,1.1163372238335523
26,7,0.25,0.7653761985678327,2.060353583199648
26,7,0.0,0.7465332939125383,3.9446440487290846
26,8,1.0,0.7859797343998292,0.0
26,8,0.75,0.7708248923416154,1.5154842058213713
26,8,0.5,0.7616400708556272,2.4339663544201917
26,8,0.25,0.7702091091239058,1.5770625275923322
26,8,0.0,0.745307451785721,4.067228261410816
27,0,1.0,0.8594583242005308,0.0
27,0,0.75,0.85706098093705,0.23973432634808445
27,0,0.5,0.8522108828441358,0.724744135639499
27,0,0.25,0.8595926725025067,-0.013434830197589509
27,0,0.0,0.860269814435825,-0.08114902352941433
27,1,1.0,0.8594583242005308,0.0
27,1,0.75,0.8570352982269094,0.24230259736214288
27,1,0.5,0.8459213186059523,1.3537005594578488
27,1,0.25,0.8439427768717842,1.5515547328746604
27,1,0.0,0.8529627027030543,0.6495621497476511
27,2,1.0,0.8594583242005308,0.0
27,2,0.75,0.8550841494503467,0.437417475018409
27,2,0.5,0.8573913920947338,0.20669321057970036
27,2,0.25,0.8328896117964211,2.656871240410974
27,2,0.0,0.8007288089457074,5.872951525482339
27,3,1.0,0.8594583242005308,0.0
27,3,0.75,0.8626216025286042,-0.31632783280733934
27,3,0.5,0.8648557704534384,-0.5397446252907612
27,3,0.25,0.8643811823547874,-0.49228581542566374
27,3,0.0,0.8650831292337349,-0.5624805033204061
27,4,1.0,0.8594583242005308,0.0
27,4,0.75,0.8387137426097553,2.0744581590775524
27,4,0.5,0.8290941765666269,3.0364147633903937
27,4,0.25,0.823368018553363,3.6090305647167864
27,4,0.0,0.8328984481371094,2.655987606342136
27,5,1.0,0.8594583242005308,0.0
27,5,0.75,0.832699543976337,2.6758780224193757
27,5,0.5,0.8341367546174348,2.532156958309606
27,5,0.25,0.8444615875979271,1.49967366026037
27,5,0.0,0.8532551109363173,0.620321326421347
27,6,1.0,0.8594583242005308,0.0
27,6,0.75,0.8781950508673764,-1.873672666684556
27,6,0.5,0.8853456367201414,-2.588731251961063
27,6,0.25,0.8855455398165056,-2.6087215615974824
27,6,0.0,0.8977024441207756,-3.824411992024479
27,7,1.0,0.8594583242005308,0.0
27,7,0.75,0.8624692281751667,-0.3010903974635881
27,7,0.5,0.8595956665906368,-0.013734239010598781
27,7,0.25,0.8578148275610974,0.16434966394334172
27,7,0.0,0.8410902073487707,1.8368116851760097
27,8,1.0,0.8594583242005308,0.0
27,8,0.75,0.8490510523376986,1.040727186283219
27,8,0.5,0.8492540052234994,1.0204318977031446
27,8,0.25,0.8547641045754386,0.46942196250921997
27,8,0.0,0.8489057147266289,1.0552609473901908
28,0,1.0,0.7512575451228813,0.0
28,0,0.75,0.8108791096992631,-5.962156457638179
28,0,0.5,0.8448008690180799,-9.35433238951986
28,0,0.25,0.8641710612936653,-11.291351617078394
28,0,0.0,0.8706960452165056,-11.943850009362421
28,1,1.0,0.7512575451228813,0.0
28,1,0.75,0.7524071713363529,-0.11496262134715884
28,1,0.5,0.7615747211363122,-1.031717601343085
28,1,0.25,0.7605622992520953,-0.9304754129213944
28,1,0.0,0.7678026791899242,-1.6545134067042833
28,2,1.0,0.7512575451228813,0.0
28,2,0.75,0.7495199544927167,0.17375906301646538
28,2,0.5,0.743580643676661,0.7676901446220352
28,2,0.25,0.7540378039925935,-0.27802588697121156
28,2,0.0,0.7592156798269651,-0.7958134704083797
28,3,1.0,0.7512575451228813,0.0
28,3,0.75,0.7594938948721477,-0.8236349749266347
28,3,0.5,0.7515593833557476,-0.030183823286622502
28,3,0.25,0.7384548200337674,1.2802725089113953
28,3,0.0,0.7247053510564078,2.655219406647358
28,4,1.0,0.7512575451228813,0.0
28,4,0.75,0.7849174839484524,-3.3659938825571056
28,4,0.5,0.770918050984993,-1.9660505862111655
28,4,0.25,0.7664627871182345,-1.5205241995353114
28,4,0.0,0.7627248561299536,-1.1467311007072212
28,5,1.0,0.7512575451228813,0.0
28,5,0.75,0.7103711830750868,4.08863620477945
28,5,0.5,0.6955116746784267,5.574587044445467
28,5,0.25,0.7134111348897401,3.784641023314128
28,5,0.0,0.739098587072462,1.2158958050419333
28,6,1.0,0.7512575451228813,0.0
28,6,0.75,0.7529063355886078,-0.1648790465726413
28,6,0.5,0.7576651872015154,-0.640764207863409
28,6,0.25,0.764499661347799,-1.3242116224917666
28,6,0.0,0.7585718086235158,-0.7314263500634466
28,7,1.0,0.7512575451228813,0.0
28,7,0.75,0.7461609094066411,0.5096635716240194
28,7,0.5,0.7534618172707165,-0.220427214783514
28,7,0.25,0.7411575308351102,1.0100014287771186
28,7,0.0,0.7408699087037607,1.038763641912066
28,8,1.0,0.7512575451228813,0.0
28,8,0.75,0.7757867136781074,-2.452916855522602
28,8,0.5,0.8100109505832809,-5.875340546039953
28,8,0.25,0.8022591161709726,-5.1001571048091225
28,8,0.0,0.8104212941173573,-5.916374899447597
29,0,1.0,0.8438304436388456,0.0
29,0,0.75,0.8382411489350788,0.558929470376679
29,0,0.5,0.8229077555615725,2.0922688077273155
29,0,0.25,0.8176818274815343,2.6148616157311344
29,0,0.0,0.8175877674476328,2.624267619121279
29,1,1.0,0.8438304436388456,0.0
29,1,0.75,0.8482408647941434,-0.44104211552977723
29,1,0.5,0.843579364041144,0.025107959770165333
29,1,0.25,0.8478628514967466,-0.40324078579009326
29,1,0.0,0.84945475713994,-0.562431350109438
29,2,1.0,0.8438304436388456,0.0
29,2,0.75,0.8466384108036228,-0.28079671647771587
29,2,0.5,0.8309099176821326,1.2920525956713003
29,2,0.25,0.8298565804066848,1.3973863232160877
29,2,0.0,0.8247282749777058,1.9102168661139785
29,3,1.0,0.8438304436388456,0.0
29,3,0.75,0.839657701913284,0.41727417255615906
29,3,0.5,0.8296057429843111,1.4224700654534517
29,3,0.25,0.8389440035273368,0.48864401115088496
29,3,0.0,0.8358215587288815,0.8008884909964098
29,4,1.0,0.8438304436388456,0.0
29,4,0.75,0.8292709714586525,1.4559472180193156
29,4,0.5,0.8223298466258879,2.15005970129577
29,4,0.25,0.8055729802717853,3.8257463367060374
29,4,0.0,0.8001264491587844,4.370399448006124
29,5,1.0,0.8438304436388456,0.0
29,5,0.75,0.8334875204899904,1.034292314885521
29,5,0.5,0.8153141998922288,2.8516243746616876
29,5,0.25,0.807589837587667,3.6240606051178625
29,5,0.0,0.8216080744028108,2.2222369236034822
29,6,1.0,0.8438304436388456,0.0
29,6,0.75,0.8489324813868425,-0.510203774799689
29,6,0.5,0.8492012585550235,-0.5370814916177857
29,6,0.25,0.8453658016067831,-0.15353579679374674
29,6,0.0,0.8425374779541446,0.1292965684701053
29,7,1.0,0.8438304436388456,0.0
29,7,0.75,0.8447732696390768,-0.09428260002312117
29,7,0.5,0.8395725347674848,0.4257908871360794
29,7,0.25,0.8298495930136371,1.3980850625208485
29,7,0.0,0.8200103692470105,2.382007439183509
29,8,1.0,0.8438304436388456,0.0
29,8,0.75,0.8571282111409998,-1.3297767502154167
29,8,0.5,0.8564456991426052,-1.2615255503759526
29,8,0.25,0.8460050989542823,-0.2174655315436702
29,8,0.0,0.8252245009149097,1.8605942723935898
30,0,1.0,0.833755477932138,0.0
30,0,0.75,0.830662942288815,0.30925356433230133
30,0,0.5,0.8374893043862892,-0.37338264541512123
30,0,0.25,0.8463938414381914,-1.2638363506053407
30,0,0.0,0.8450220873383123,-1.12666094061743
30,1,1.0,0.833755477932138,0.0
30,1,0.75,0.8254134008493127,0.8342077082825305
30,1,0.5,0.8229453174064059,1.0810160525732138
30,1,0.25,0.8239221368499546,0.9833341082183367
30,1,0.0,0.81054916532533,2.3206312606808055
30,2,1.0,0.833755477932138,0.0
30,2,0.75,0.8355097580927895,-0.1754280160651489
30,2,0.5,0.8545561792308373,-2.0800701298699265
30,2,0.25,0.8525658229680988,-1.8810345035960796
30,2,0.0,0.8671099726639907,-3.33544947318527
30,3,1.0,0.833755477932138,0.0
30,3,0.75,0.8318293262592367,0.19261516729013328
30,3,0.5,0.8168649003420357,1.6890577590102263
30,3,0.25,0.8056902974081617,2.806518052397633
30,3,0.0,0.7894850683508352,4.427040958130279
30,4,1.0,0.833755477932138,0.0
30,4,0.75,0.8368603427954573,-0.310486486331929
30,4,0.5,0.8407126940991262,-0.6957216166988189
30,4,0.25,0.8294411722089969,0.43143057231410653
30,4,0.0,0.8133287177245655,2.0426760207572503
30,5,1.0,0.833755477932138,0.0
30,5,0.75,0.8417733291394213,-0.8017851207283266
30,5,0.5,0.8476536431810844,-1.3898165248946381
30,5,0.25,0.8415021358164101,-0.774665788427209
30,5,0.0,0.8444997055945571,-1.0744227662419115
30,6,1.0,0.833755477932138,0.0
30,6,0.75,0.8415095376608307,-0.7754059728692697
30,6,0.5,0.845193068696724,-1.1437590764585948
30,6,0.25,0.8547596532762801,-2.1004175344142118
30,6,0.0,0.8464355801872818,-1.2680102255143821
30,7,1.0,0.833755477932138,0.0
30,7,0.75,0.8336518066932372,0.010367123890075991
30,7,0.5,0.8221388388733522,1.161663905878585
30,7,0.25,0.8081595903239615,2.559588760817655
30,7,0.0,0.7912567162218892,4.24987617102488
30,8,1.0,0.833755477932138,0.0
30,8,0.75,0.8415982067211583,-0.7842728789020259
30,8,0.5,0.8407192373817058,-0.6963759449567841
30,8,0.25,0.8437712879515107,-1.0015810019372684
30,8,0.0,0.8440961453256536,-1.034066739351558
31,0,1.0,0.7770740437027084,0.0
31,0,0.75,0.7736995812276194,0.33744624750889907
31,0,0.5,0.7739479187156626,0.31261249870457863
31,0,0.25,0.7731616319033823,0.391241179932611
31,0,0.0,0.7583692830332884,1.870476066941995
31,1,1.0,0.7770740437027084,0.0
31,1,0.75,0.7812103928269962,-0.41363491242878414
31,1,0.5,0.7842598486956641,-0.7185804992955735
31,1,0.25,0.7744059025770629,0.2668141125645507
31,1,0.0,0.7813357229951765,-0.42616792924681235
31,2,1.0,0.7770740437027084,0.0
31,2,0.75,0.7779862971283735,-0.09122534256651438
31,2,0.5,0.7728007381518309,0.427330555087746
31,2,0.25,0.7687565167073365,0.8317526995371916
31,2,0.0,0.7580794256670741,1.8994618035634292
31,3,1.0,0.7770740437027084,0.0
31,3,0.75,0.7857877778586163,-0.8713734155907926
31,3,0.5,0.7791068358757679,-0.20327921730595166
31,3,0.25,0.7831339957535357,-0.6059952050827322
31,3,0.0,0.7656720841628162,1.1401959539892204
31,4,1.0,0.7770740437027084,0.0
31,4,0.75,0.7871968940287356,-1.0122850326027222
31,4,0.5,0.7891065925631344,-1.203254886042604
31,4,0.25,0.7640698007472904,1.3004242955418022
31,4,0.0,0.7766945343194609,0.03795093832474894
31,5,1.0,0.7770740437027084,0.0
31,5,0.75,0.7766850237324467,0.038901997026163926
31,5,0.5,0.771232889075584,0.5841154627124423
31,5,0.25,0.7695849102873409,0.7489133415367499
31,5,0.0,0.7750658499265425,0.20081937761659008
31,6,1.0,0.7770740437027084,0.0
31,6,0.75,0.7806068979255357,-0.3532854222827342
31,6,0.5,0.7776405654666524,-0.056652176394400566
31,6,0.25,0.7702150767368159,0.6858966965892499
31,6,0.0,0.7677544849143789,0.9319558788329463
31,7,1.0,0.7770740437027084,0.0
31,7,0.75,0.7751988300902309,0.18752136124774443
31,7,0.5,0.7681160693029202,0.8957974399788182
31,7,0.25,0.761937314581854,1.5136729120854397
31,7,0.0,0.7378913493151853,3.9182694387523087
31,8,1.0,0.7770740437027084,0.0
31,8,0.75,0.7749578358491249,0.21162078535834628
31,8,0.5,0.766006482901674,1.1067560801034437
31,8,0.25,0.7588255268492019,1.824851685350648
31,8,0.0,0.7353516402296889,4.172240347301948
32,0,1.0,0.8339868883105466,0.0
32,0,0.75,0.8254987073240194,0.848818098652715
32,0,0.5,0.8299167946426325,0.407009366791411
32,0,0.25,0.836239750594718,-0.22528622841714308
32,0,0.0,0.8151173258739699,1.886956243657667
32,1,1.0,0.8339868883105466,0.0
32,1,0.75,0.827892574652582,0.6094313657964534
32,1,0.5,0.818409138428265,1.5577749882281555
32,1,0.25,0.8254986444441255,0.8488243866421108
32,1,0.0,0.8237605608485099,1.0226327462036666
32,2,1.0,0.8339868883105466,0.0
32,2,0.75,0.8256746412581015,0.8312247052445043
32,2,0.5,0.8232664921286204,1.0720396181926217
32,2,0.25,0.8187609560917148,1.5225932218831728
32,2,0.0,0.8094988829100979,2.448800540044871
32,3,1.0,0.8339868883105466,0.0
32,3,0.75,0.8376301654119417,-0.3643277101395115
32,3,0.5,0.8325574087954792,0.14294795150673334
32,3,0.25,0.8266054033559871,0.7381484954559481
32,3,0.0,0.8160924358265591,1.7894452483987466
32,4,1.0,0.8339868883105466,0.0
32,4,0.75,0.824358775864301,0.9628112446245618
32,4,0.5,0.832096582213302,0.18903060972446095
32,4,0.25,0.8281441662253659,0.5842722085180663
32,4,0.0,0.8165526142805463,1.7434274030000307
32,5,1.0,0.8339868883105466,0.0
32,5,0.75,0.834330173260825,-0.03432849502784663
32,5,0.5,0.8237016145152585,1.0285273795288097
32,5,0.25,0.8223405905674246,1.164629774312198
32,5,0.0,0.8216077949050535,1.2379093405493036
32,6,1.0,0.8339868883105466,0.0
32,6,0.75,0.8366211430913384,-0.26342547807918226
32,6,0.5,0.8365212071346322,-0.2534318824085613
32,6,0.25,0.8387069861206112,-0.47200978100646607
32,6,0.0,0.8339329732482008,0.005391506234575516
32,7,1.0,0.8339868883105466,0.0
32,7,0.75,0.8379802835187039,-0.39933952081573354
32,7,0.5,0.8182294644558796,1.575742385466694
32,7,0.25,0.8098065745262008,2.418031378434582
32,7,0.0,0.7917564821224252,4.223040618812135
32,8,1.0,0.8339868883105466,0.0
32,8,0.75,0.833528770937046,0.04581173735005439
32,8,0.5,0.8373753358906266,-0.3388447580080056
32,8,0.25,0.8387030690044015,-0.4716180693854932
32,8,0.0,0.8362366035806579,-0.22497152701113077
33,0,1.0,0.8692555677746864,0.0
33,0,0.75,0.8639243451266028,0.5331222648083611
33,0,0.5,0.8595310445530215,0.9724523221664838
33,0,0.25,0.8645175817531879,0.47379860214984415
33,0,0.0,0.8632631365535113,0.5992431221175099
33,1,1.0,0.8692555677746864,0.0
33,1,0.75,0.8530597142412558,1.619585353343056
33,1,0.5,0.8470368905472375,2.2218677227448858
33,1,0.25,0.8195295080338122,4.9726059740874184
33,1,0.0,0.812800964698853,5.645460307583338
33,2,1.0,0.8692555677746864,0.0
33,2,0.75,0.8729452645337534,-0.36896967590670515
33,2,0.5,0.8728184261069164,-0.35628583322300234
33,2,0.25,0.8789950624069673,-0.9739494632280965
33,2,0.0,0.8778146542580634,-0.8559086483376999
33,3,1.0,0.8692555677746864,0.0
33,3,0.75,0.8584004671855603,1.0855100589126088
33,3,0.5,0.8398256385310539,2.9429929243632524
33,3,0.25,0.8259800226195745,4.327554515511189
33,3,0.0,0.8116114165596127,5.764415121507371
33,4,1.0,0.8692555677746864,0.0
33,4,0.75,0.8585251332107371,1.0730434563949287
33,4,0.5,0.8642428072364379,0.5012760538248506
33,4,0.25,0.8718629020786866,-0.2607334304000175
33,4,0.0,0.872761077577685,-0.35055098029985743
33,5,1.0,0.8692555677746864,0.0
33,5,0.75,0.8613004385607963,0.7955129213890078
33,5,0.5,0.8571837201699901,1.2071847604696262
33,5,0.25,0.8644604338668266,0.47951339078597943
33,5,0.0,0.848410088127566,2.0845479647120357
33,6,1.0,0.8692555677746864,0.0
33,6,0.75,0.8556152844630316,1.3640283311654788
33,6,0.5,0.8477357197213918,2.1519848053294544
33,6,0.25,0.8388625724908911,3.0392995283795243
33,6,0.0,0.8376568919649201,3.1598675809766275
33,7,1.0,0.8692555677746864,0.0
33,7,0.75,0.8577465262467091,1.150904152797727
33,7,0.5,0.8554186714706542,1.3836896304032176
33,7,0.25,0.834652010810252,3.46035569644344
33,7,0.0,0.8166383705644408,5.26171972102456
33,8,1.0,0.8692555677746864,0.0
33,8,0.75,0.872929880880692,-0.36743131060056333
33,8,0.5,0.8792819747706148,-1.0026406995928383
33,8,0.25,0.884675491818349,-1.5419924043662658
33,8,0.0,0.8678327579850479,0.14228097896384906
34,0,1.0,0.8853949201134252,0.0
34,0,0.75,0.8826796533308683,0.27152667825569576
34,0,0.5,0.8841180399434814,0.12768801699438725
34,0,0.25,0.8736368960996674,1.1758024013757806
34,0,0.0,0.8597356984696788,2.5659221643746455
34,1,1.0,0.8853949201134252,0.0
34,1,0.75,0.8940576252467258,-0.8662705133300586
34,1,0.5,0.8878955611646004,-0.2500641051175201
34,1,0.25,0.8874711156823721,-0.20761955689468925
34,1,0.0,0.8866210418593666,-0.12261217459413887
34,2,1.0,0.8853949201134252,0.0
34,2,0.75,0.8915236170864257,-0.6128696973000447
34,2,0.5,0.8876483602398716,-0.22534401264463488
34,2,0.25,0.8978463338019738,-1.2451413688548518
34,2,0.0,0.8975163572481316,-1.212143713470637
34,3,1.0,0.8853949201134252,0.0
34,3,0.75,0.8743692308522713,1.1025689261153993
34,3,0.5,0.8670459002760144,1.8349019837410885
34,3,0.25,0.8581832752545315,2.7211644858893713
34,3,0.0,0.8585681927192199,2.682672739420533
34,4,1.0,0.8853949201134252,0.0
34,4,0.75,0.8750310285184802,1.0363891594944996
34,4,0.5,0.8823645461700903,0.3030373943334941
34,4,0.25,0.870249605506533,1.514531460689228
34,4,0.0,0.8742554902435118,1.1139429869913453
34,5,1.0,0.8853949201134252,0.0
34,5,0.75,0.8805206330088644,0.4874287104560837
34,5,0.5,0.885592203308512,-0.01972831950867171
34,5,0.25,0.892499131191446,-0.7104211078020728
34,5,0.0,0.8916793487445247,-0.6284428631099459
34,6,1.0,0.8853949201134252,0.0
34,6,0.75,0.8834859514309665,0.19089686824587115
34,6,0.5,0.8880572905135136,-0.2662370400088321
34,6,0.25,0.8943611013357327,-0.8966181222307412
34,6,0.0,0.888709392522662,-0.33144724092367683
34,7,1.0,0.8853949201134252,0.0
34,7,0.75,0.8820424692896535,0.335245082377178
34,7,0.5,0.8834661001913079,0.1928819922117353
34,7,0.25,0.8891501557516471,-0.37552356382218877
34,7,0.0,0.879338961620753,0.6055958492672264
34,8,1.0,0.8853949201134252,0.0
34,8,0.75,0.8872246730586811,-0.18297529452558914
34,8,0.5,0.8912363059848548,-0.5841385871429572
34,8,0.25,0.8773300164240154,0.8064903689409819
34,8,0.0,0.8757383953449973,0.9656524768427932
35,0,1.0,0.7030898172597912,0.0
35,0,0.75,0.7032046493270263,-0.011483206723506001
35,0,0.5,0.7092916046762074,-0.6201787416416193
35,0,0.25,0.699322072491587,0.3767744768204295
35,0,0.0,0.670512740174214,3.257707708557722
35,1,1.0,0.7030898172597912,0.0
35,1,0.75,0.6975061602928185,0.5583656966972717
35,1,0.5,0.6994860203829897,0.3603796876801568
35,1,0.25,0.7113287426371776,-0.8238925377386352
35,1,0.0,0.7039009781986217,-0.08111609388304908
35,2,1.0,0.7030898172597912,0.0
35,2,0.75,0.7008473093950776,0.22425078647136942
35,2,0.5,0.6980007457243027,0.5089071535488543
35,2,0.25,0.7098962645616653,-0.6806447301874075
35,2,0.0,0.703507403656439,-0.04175863966477955
35,3,1.0,0.7030898172597912,0.0
35,3,0.75,0.6929346923126916,1.0155124947099692
35,3,0.5,0.6935095769179049,0.9580240341886315
35,3,0.25,0.684471313535923,1.8618503723868196
35,3,0.0,0.6854392848849198,1.7650532374871464
35,4,1.0,0.7030898172597912,0.0
35,4,0.75,0.6954399504629966,0.7649866796794691
35,4,0.5,0.6859532178333072,1.7136599426484045
35,4,0.25,0.6834380388550911,1.9651778404700115
35,4,0.0,0.6787197763357022,2.437004092408901
35,5,1.0,0.7030898172597912,0.0
35,5,0.75,0.683577155753823,1.9512661505968198
35,5,0.5,0.674272956530864,2.8816860728927196
35,5,0.25,0.6693860654505543,3.3703751809236904
35,5,0.0,0.6597787015416826,4.3311115718108635
35,6,1.0,0.7030898172597912,0.0
35,6,0.75,0.7039282379528146,-0.08384206930233118
35,6,0.5,0.7058499554242058,-0.27601381644145606
35,6,0.25,0.698506207881069,0.4583609378722264
35,6,0.0,0.6989541531624661,0.41356640973251313
35,7,1.0,0.7030898172597912,0.0
35,7,0.75,0.7034188845637253,-0.03290673039340053
35,7,0.5,0.7090276606086198,-0.593784334882852
35,7,0.25,0.7046914490864359,-0.1601631826644634
35,7,0.0,0.6997532209796269,0.3336596280164361
35,8,1.0,0.7030898172597912,0.0
35,8,0.75,0.7037616587938155,-0.06718415340242201
35,8,0.5,0.7001763434375563,0.29134738222349466
35,8,0.25,0.6951997701719725,0.7890047087818708
35,8,0.0,0.6968119751599513,0.6277842099839948
36,0,1.0,0.7640876055005208,0.0
36,0,0.75,0.7558979202341765,0.8189685266344338
36,0,0.5,0.7517134288515092,1.2374176649011637
36,0,0.25,0.7490988011489847,1.4988804351536045
36,0,0.0,0.7434139088629629,2.0673696637557915
36,1,1.0,0.7640876055005208,0.0
36,1,0.75,0.7655374649859945,-0.14498594854737146
36,1,0.5,0.743696216691419,2.039138880910174
36,1,0.25,0.7383222802310869,2.576532526943387
36,1,0.0,0.7147559028439632,4.933170265655762
36,2,1.0,0.7640876055005208,0.0
36,2,0.75,0.7500332554782131,1.4054350022307704
36,2,0.5,0.7427359740327826,2.135163146773822
36,2,0.25,0.727732792128154,3.635481337236679
36,2,0.0,0.7184577125400804,4.56298929604404
36,3,1.0,0.7640876055005208,0.0
36,3,0.75,0.7563781118934142,0.7709493607106599
36,3,0.5,0.7486149663494804,1.5472639151040357
36,3,0.25,0.7385825813245168,2.5505024176003976
36,3,0.0,0.7261499600443357,3.7937645456185054
36,4,1.0,0.7640876055005208,0.0
36,4,0.75,0.7601145987524383,0.39730067480825415
36,4,0.5,0.7610772964036552,0.30103090968656154
36,4,0.25,0.7593894336374271,0.46981718630937364
36,4,0.0,0.7761422575157001,-1.2054652015179301
36,5,1.0,0.7640876055005208,0.0
36,5,0.75,0.7752720832989085,-1.1184477798387715
36,5,0.5,0.782360860668325,-1.8273255167804203
36,5,0.25,0.7754787560889664,-1.1391150588445642
36,5,0.0,0.7719313772457945,-0.7843771745273731
36,6,1.0,0.7640876055005208,0.0
36,6,0.75,0.7561826921345658,0.7904913365955002
36,6,0.5,0.74391569620093,2.0171909299590784
36,6,0.25,0.7459186310865912,1.8168974413929617
36,6,0.0,0.7366257610764783,2.7461844424042536
36,7,1.0,0.7640876055005208,0.0
36,7,0.75,0.7410515588798812,2.3036046620639627
36,7,0.5,0.725843990942296,3.824361455822478
36,7,0.25,0.710275519421861,5.381208607865984
36,7,0.0,0.6740376869596774,9.004991854084343
36,8,1.0,0.7640876055005208,0.0
36,8,0.75,0.7380232504919806,2.6064355008540208
36,8,0.5,0.7107991012376027,5.328850426291809
36,8,0.25,0.7021190851915421,6.196852030897871
36,8,0.0,0.6933871220981117,7.070048340240909
37,0,1.0,0.8749749857061178,0.0
37,0,0.75,0.869448435204693,0.552655050142481
37,0,0.5,0.8613542964152412,1.3620689290876564
37,0,0.25,0.8618366151291668,1.3138370576950997
37,0,0.0,0.8540756567496717,2.0899328956446084
37,1,1.0,0.8749749857061178,0.0
37,1,0.75,0.866748612922783,0.8226372783334712
37,1,0.5,0.8665658326497129,0.8409153056404883
37,1,0.25,0.8598170484505386,1.5157937255579124
37,1,0.0,0.8337823082390253,4.119267746709243
37,2,1.0,0.8749749857061178,0.0
37,2,0.75,0.8634060459150977,1.1568939791020028
37,2,0.5,0.8699959202994113,0.4979065406706451
37,2,0.25,0.8519887910784985,2.2986194627619305
37,2,0.0,0.8327725355031109,4.220245020300684
37,3,1.0,0.8749749857061178,0.0
37,3,0.75,0.876425984088093,-0.1450998381975266
37,3,0.5,0.8729427327468091,0.20322529593086447
37,3,0.25,0.8670709628241224,0.7904022881995321
37,3,0.0,0.8532575074820581,2.171747822405967
37,4,1.0,0.8749749857061178,0.0
37,4,0.75,0.8679174581662753,0.7057527539842456
37,4,0.5,0.8613566058865537,1.3618379819564042
37,4,0.25,0.8453847281505427,2.9590257555575095
37,4,0.0,0.8682477423927047,0.6727243313413012
37,5,1.0,0.8749749857061178,0.0
37,5,0.75,0.8677229955103025,0.7251990195815239
37,5,0.5,0.8621673965354675,1.280758917065028
37,5,0.25,0.8459843344412503,2.899065126486744
37,5,0.0,0.8566175398393426,1.8357445866775124
37,6,1.0,0.8749749857061178,0.0
37,6,0.75,0.8726343304417068,0.23406552644109624
37,6,0.5,0.8706068223304958,0.43681633756219584
37,6,0.25,0.8561416452883392,1.883334041777851
37,6,0.0,0.858436697082182,1.6538288623935804
37,7,1.0,0.8749749857061178,0.0
37,7,0.75,0.8592006293062511,1.5774356399866685
37,7,0.5,0.848584275866638,2.6390709839479776
37,7,0.25,0.8305487379303298,4.442624777578796
37,7,0.0,0.8202639672336641,5.471101847245363
37,8,1.0,0.8749749857061178,0.0
37,8,0.75,0.8606114387290243,1.436354697709341
37,8,0.5,0.8525029271449728,2.247205856114498
37,8,0.25,0.8476751544933364,2.7299831212781345
37,8,0.0,0.8533430007063928,2.1631984999724962
38,0,1.0,0.8247359765608391,0.0
38,0,0.75,0.8088396708685236,1.5896305692315482
38,0,0.5,0.7975270313526635,2.720894520817563
38,0,0.25,0.7894207795745419,3.531519698629715
38,0,0.0,0.782155041903217,4.258093465762203
38,1,1.0,0.8247359765608391,0.0
38,1,0.75,0.8197043690963703,0.5031607464468735
38,1,0.5,0.823576816334213,0.11591602266260992
38,1,0.25,0.821737275422602,0.2998701138237081
38,1,0.0,0.8282228321387257,-0.34868555778866384
38,2,1.0,0.8247359765608391,0.0
38,2,0.75,0.8360326007207325,-1.129662415989341
38,2,0.5,0.8322150711102944,-0.7479094549455279
38,2,0.25,0.8209937286066266,0.37422479542125187
38,2,0.0,0.8092656125106338,1.5470364050205299
38,3,1.0,0.8247359765608391,0.0
38,3,0.75,0.8315991907360247,-0.686321417518565
38,3,0.5,0.8427927576488374,-1.8056781087998353
38,3,0.25,0.8411361872542129,-1.640021069337383
38,3,0.0,0.8257036132061979,-0.09676366453588159
38,4,1.0,0.8247359765608391,0.0
38,4,0.75,0.8161298969152099,0.8606079645629205
38,4,0.5,0.8071553903244457,1.7580586236393358
38,4,0.25,0.8031622202294363,2.1573756331402794
38,4,0.0,0.8001520505708936,2.458392598994552
38,5,1.0,0.8247359765608391,0.0
38,5,0.75,0.8176858325397419,0.705014402109716
38,5,0.5,0.8112631515091012,1.3472825051737858
38,5,0.25,0.8163690122058589,0.8366964354980189
38,5,0.0,0.8334152317323706,-0.8679255171531564
38,6,1.0,0.8247359765608391,0.0
38,6,0.75,0.8226513397943194,0.20846367665197096
38,6,0.5,0.8192165496292291,0.5519426931610005
38,6,0.25,0.8115908839953254,1.314509256551366
38,6,0.0,0.8015425767963349,2.3193399764504186
38,7,1.0,0.8247359765608391,0.0
38,7,0.75,0.8222557955695925,0.24801809912465833
38,7,0.5,0.8192803315485447,0.5455645012294341
38,7,0.25,0.809248005646466,1.548797091437304
38,7,0.0,0.7957222165552654,2.901376000557365
38,8,1.0,0.8247359765608391,0.0
38,8,0.75,0.8288164210598374,-0.4080444498998359
38,8,0.5,0.8262503017714554,-0.15143252106163407
38,8,0.25,0.8235732557240552,0.11627208367839259
38,8,0.0,0.8190348262965147,0.5701150264324384
39,0,1.0,0.8120685191779666,0.0
39,0,0.75,0.7945688574809571,1.749966169700956
39,0,0.5,0.7860493522610504,2.601916691691619
39,0,0.25,0.7780263700433145,3.404214913465209
39,0,0.0,0.7857813789512842,2.6287140226682437
39,1,1.0,0.8120685191779666,0.0
39,1,0.75,0.8042829665642504,0.7785552613716273
39,1,0.5,0.8045756381506389,0.7492881027327702
39,1,0.25,0.8005728689693303,1.1495650208636299
39,1,0.0,0.7919449847950539,2.01235343829127
39,2,1.0,0.8120685191779666,0.0
39,2,0.75,0.8046255641880887,0.7442954989877903
39,2,0.5,0.8159985900431773,-0.39300708652106886
39,2,0.25,0.8132516637430508,-0.1183144565084171
39,2,0.0,0.8161278947363425,-0.4059375558375877
39,3,1.0,0.8120685191779666,0.0
39,3,0.75,0.8063308894675496,0.5737629710417025
39,3,0.5,0.7821520761305456,2.9916443047421026
39,3,0.25,0.7445740206038358,6.749449857413081
39,3,0.0,0.6934247095531029,11.864380962486376
39,4,1.0,0.8120685191779666,0.0
39,4,0.75,0.8002797377915398,1.1788781386426805
39,4,0.5,0.7807692357359878,3.1299283441978853
39,4,0.25,0.7654089407283288,4.665957844963787
39,4,0.0,0.7608741121894883,5.119440698847832
39,5,1.0,0.8120685191779666,0.0
39,5,0.75,0.8111612401338701,0.09072790440964873
39,5,0.5,0.8225208005304017,-1.0452281352435033
39,5,0.25,0.8167630505108316,-0.4694531332865015
39,5,0.0,0.8033214825527385,0.8747036625228133
39,6,1.0,0.8120685191779666,0.0
39,6,0.75,0.8133738119422478,-0.13052927642811518
39,6,0.5,0.8158176505611384,-0.3749131383171789
39,6,0.25,0.8183914891349139,-0.6322969956947255
39,6,0.0,0.8294429890808396,-1.7374469902872947
39,7,1.0,0.8120685191779666,0.0
39,7,0.75,0.8167846983949429,-0.4716179216976313
39,7,0.5,0.8090605428741036,0.3007976303863069
39,7,0.25,0.8004054301037138,1.1663089074252841
39,7,0.0,0.7894985522872742,2.256996689069246
39,8,1.0,0.8120685191779666,0.0
39,8,0.75,0.8096078147822576,0.24607043957090013
39,8,0.5,0.8138864792131734,-0.18179600352067338
39,8,0.25,0.8243961903440026,-1.2327671166035947
39,8,0.0,0.8252867060072251,-1.321818682925846
40,0,1.0,0.8271478993263305,0.0
40,0,0.75,0.8108152489645026,1.633265036182785
40,0,0.5,0.7870623592570202,4.008554006931031
40,0,0.25,0.767338548419916,5.980935090641449
40,0,0.0,0.7522019246351681,7.494597469116238
40,1,1.0,0.8271478993263305,0.0
40,1,0.75,0.8189664282896718,0.8181471036658672
40,1,0.5,0.8071594654310759,1.998843389525462
40,1,0.25,0.8136036268199014,1.354427250642909
40,1,0.0,0.8239316836435695,0.3216215682760981
40,2,1.0,0.8271478993263305,0.0
40,2,0.75,0.8342610043336098,-0.7113105007279352
40,2,0.5,0.8380383379844403,-1.0890438658109791
40,2,0.25,0.8466956218450141,-1.9547722518683641
40,2,0.0,0.8404068257377321,-1.3258926411401584
40,3,1.0,0.8271478993263305,0.0
40,3,0.75,0.8234782981221831,0.3669601204147388
40,3,0.5,0.8146030880663564,1.2544811259974087
40,3,0.25,0.7977640638930962,2.9383835433234307
40,3,0.0,0.8049567496183847,2.219114970794578
40,4,1.0,0.8271478993263305,0.0
40,4,0.75,0.8120582257549156,1.5089673571414886
40,4,0.5,0.8056454766302268,2.1502422696103696
40,4,0.25,0.802509182822746,2.4638716503584512
40,4,0.0,0.8022627675968943,2.4885131729436183
40,5,1.0,0.8271478993263305,0.0
40,5,0.75,0.8144536120140571,1.26942873122734
40,5,0.5,0.8176106346211325,0.9537264705198001
40,5,0.25,0.8243191171699806,0.28287821563498516
40,5,0.0,0.8411508570074536,-1.400295768112314
40,6,1.0,0.8271478993263305,0.0
40,6,0.75,0.8250593387478042,0.2088560578526244
40,6,0.5,0.8196813373073031,0.7466562019027401
40,6,0.25,0.8039189142074323,2.322898511889815
40,6,0.0,0.7947003838233404,3.2447515502990076
40,7,1.0,0.8271478993263305,0.0
40,7,0.75,0.8191263053423149,0.8021593984015585
40,7,0.5,0.8121343052832123,1.5013594043118195
40,7,0.25,0.7957101349160903,3.1437764410240154
40,7,0.0,0.7851557296088133,4.199216971751718
40,8,1.0,0.8271478993263305,0.0
40,8,0.75,0.8176424763855927,0.9505422940737751
40,8,0.5,0.8215307575545662,0.5617141771764311
40,8,0.25,0.8146751139956583,1.2472785330672198
40,8,0.0,0.7817248189258775,4.542308040045295
