subject,channel,f1_full,f1_occluded,drop_pp
1,0,0.6699238882756764,0.6577165306777344,1.2207357597942003
1,1,0.6699238882756764,0.6711745897796375,-0.12507015039611158
1,2,0.6699238882756764,0.6584723877805486,1.1451500495127775
1,3,0.6699238882756764,0.5929582719859979,7.696561628967846
1,4,0.6699238882756764,0.7043953098050547,-3.447142152937832
1,5,0.6699238882756764,0.5969039122232327,7.30199760524437
1,6,0.6699238882756764,0.7022073778474647,-3.228348957178828
1,7,0.6699238882756764,0.599130142591635,7.079374568404139
1,8,0.6699238882756764,0.6214449981822523,4.84788900934241
2,0,0.8654766787370674,0.8640647022041932,0.14119765328741707
2,1,0.8654766787370674,0.8343842723461146,3.1092406390952787
2,2,0.8654766787370674,0.8435232165640016,2.1953462173065708
2,3,0.8654766787370674,0.8600053081399993,0.5471370597068037
2,4,0.8654766787370674,0.8746950192158598,-0.9218340478792442
2,5,0.8654766787370674,0.8533146124140374,1.2162066323029963
2,6,0.8654766787370674,0.8613780766801934,0.4098602056873957
2,7,0.8654766787370674,0.8129302408536028,5.254643788346458
2,8,0.8654766787370674,0.8482684939581491,1.7208184778918278
3,0,0.8979978997293697,0.8720545780900879,2.5943321639281813
3,1,0.8979978997293697,0.816842188694366,8.115571103500374
3,2,0.8979978997293697,0.8834121190223412,1.458578070702854
3,3,0.8979978997293697,0.7841158810766355,11.388201865273418
3,4,0.8979978997293697,0.893509468135983,0.44884315933867436
3,5,0.8979978997293697,0.892487125595953,0.5510774133416718
3,6,0.8979978997293697,0.8958530341375835,0.21448655917861714
3,7,0.8979978997293697,0.8744911397068453,2.3506760022524387
3,8,0.8979978997293697,0.8912822631151146,0.6715636614255116
4,0,0.8797265269683212,0.8781797170020309,0.1546809966290308
4,1,0.8797265269683212,0.8452500859060265,3.447644106229475
4,2,0.8797265269683212,0.8130358228885692,6.669070407975197
4,3,0.8797265269683212,0.8605174719692393,1.9209054999081876
4,4,0.8797265269683212,0.8811048474991353,-0.13783205308141033
4,5,0.8797265269683212,0.8368535469211731,4.287298004714812
4,6,0.8797265269683212,0.8710691916414331,0.865733532688806
4,7,0.8797265269683212,0.8546768358212314,2.504969114708977
4,8,0.8797265269683212,0.8610091821457149,1.871734482260634
5,0,0.6690133542449154,0.6454358582790389,2.357749596587644
5,1,0.6690133542449154,0.6812397267401146,-1.22263724951992
5,2,0.6690133542449154,0.6497365259561004,1.927682828881494
5,3,0.6690133542449154,0.673145684500936,-0.41323302560206665
5,4,0.6690133542449154,0.6727874154582109,-0.37740612132954876
5,5,0.6690133542449154,0.6371112122253467,3.1902142019568647
5,6,0.6690133542449154,0.6598189977575151,0.9194356487400301
5,7,0.6690133542449154,0.6601058781454376,0.8907476099477729
5,8,0.6690133542449154,0.6649356255467046,0.40777286982107697
6,0,0.7465608220332024,0.756858041605093,-1.029721957189056
6,1,0.7465608220332024,0.750211550807061,-0.3650728773858636
6,2,0.7465608220332024,0.7721472368211498,-2.558641478794743
6,3,0.7465608220332024,0.7901403949826766,-4.357957294947424
6,4,0.7465608220332024,0.7349568474585094,1.1603974574692977
6,5,0.7465608220332024,0.7630162694806575,-1.6455447447455085
6,6,0.7465608220332024,0.7497092782080498,-0.31484561748473805
6,7,0.7465608220332024,0.7091165814151748,3.7444240618027647
6,8,0.7465608220332024,0.7169730002538273,2.9587821779375134
7,0,0.7764800375940925,0.7589587150682526,1.7521322525839822
7,1,0.7764800375940925,0.7364281666400108,4.00518709540817
7,2,0.7764800375940925,0.7254719622962071,5.100807529788531
7,3,0.7764800375940925,0.7652412684428398,1.1238769151252659
7,4,0.7764800375940925,0.7523833018286941,2.409673576539839
7,5,0.7764800375940925,0.8005369070427234,-2.4056869448630946
7,6,0.7764800375940925,0.7304311147672098,4.604892282688267
7,7,0.7764800375940925,0.7308500775845207,4.562996000957176
7,8,0.7764800375940925,0.7392714016330617,3.7208635961030745
8,0,0.7792193708460324,0.7465632457845568,3.265612506147564
8,1,0.7792193708460324,0.7750452022787763,0.41741685672561646
8,2,0.7792193708460324,0.8013955677104829,-2.2176196864450493
8,3,0.7792193708460324,0.7631914047821392,1.6027966063893229
8,4,0.7792193708460324,0.7621105893063327,1.7108781539699747
8,5,0.7792193708460324,0.7338477375663646,4.537163327966787
8,6,0.7792193708460324,0.7602782901067682,1.894108073926426
8,7,0.7792193708460324,0.7537771813008828,2.544218954514965
8,8,0.7792193708460324,0.7721817719199394,0.7037598926093014
9,0,0.7340828164618519,0.7578377117218763,-2.375489526002439
9,1,0.7340828164618519,0.713406942896965,2.067587356488687
9,2,0.7340828164618519,0.7109874819267819,2.3095334535070067
9,3,0.7340828164618519,0.7662188585280374,-3.2136042066185477
9,4,0.7340828164618519,0.7345610041515124,-0.047818768966045866
9,5,0.7340828164618519,0.7429105206911526,-0.8827704229300681
9,6,0.7340828164618519,0.7334144571235829,0.06683593382690312
9,7,0.7340828164618519,0.7452585402688461,-1.1175723806994164
9,8,0.7340828164618519,0.7308099649627118,0.3272851499140139
10,0,0.6999213295548196,0.7206486975400828,-2.07273679852632
10,1,0.6999213295548196,0.7352074636979473,-3.5286134143127756
10,2,0.6999213295548196,0.7110344671169645,-1.1113137562144937
10,3,0.6999213295548196,0.6967498877456934,0.31714418091262075
10,4,0.6999213295548196,0.7299963504212557,-3.0075020866436097
10,5,0.6999213295548196,0.7035613065022963,-0.3639976947476753
10,6,0.6999213295548196,0.704461749657026,-0.4540420102206455
10,7,0.6999213295548196,0.657686755829729,4.2234573725090545
10,8,0.6999213295548196,0.702676228494507,-0.2754898939687389
11,0,0.8917236124126133,0.8986428502290963,-0.6919237816482959
11,1,0.8917236124126133,0.8748168011797252,1.6906811232888175
11,2,0.8917236124126133,0.8566147758900012,3.5108836522612097
11,3,0.8917236124126133,0.8472831012912141,4.444051112139924
11,4,0.8917236124126133,0.8723269695147057,1.9396642897907657
11,5,0.8917236124126133,0.8821933792497291,0.9530233162884261
11,6,0.8917236124126133,0.9242488035285815,-3.252519111596819
11,7,0.8917236124126133,0.8988536641115317,-0.7130051698918338
11,8,0.8917236124126133,0.9059488360161194,-1.4225223603506087
12,0,0.8845209954267387,0.8874931884558747,-0.2972193029135983
12,1,0.8845209954267387,0.8736888260248294,1.083216940190923
12,2,0.8845209954267387,0.8655801562778307,1.8940839148907984
12,3,0.8845209954267387,0.8644374689440135,2.0083526482725156
12,4,0.8845209954267387,0.8826208335207593,0.1900161905979414
12,5,0.8845209954267387,0.8828305576262763,0.16904378004624077
12,6,0.8845209954267387,0.9018339092445489,-1.7312913817810194
12,7,0.8845209954267387,0.8814882718083938,0.3032723618344835
12,8,0.8845209954267387,0.8827603659904161,0.17606294363226027
13,0,0.8694128787878788,0.8926504830640213,-2.323760427614252
13,1,0.8694128787878788,0.868611939056956,0.08009397309227673
13,2,0.8694128787878788,0.8555680101504289,1.3844868637449825
13,3,0.8694128787878788,0.8426304068794811,2.6782471908397665
13,4,0.8694128787878788,0.8482295624318987,2.118331635598003
13,5,0.8694128787878788,0.8557093061941933,1.3703572593685487
13,6,0.8694128787878788,0.8572891116139987,1.2123767173880085
13,7,0.8694128787878788,0.8773169209397239,-0.7904042151845148
13,8,0.8694128787878788,0.8662869231967059,0.3125955591172902
14,0,0.8479309458190865,0.818314879282122,2.961606653696447
14,1,0.8479309458190865,0.833512061112484,1.4418884706602464
14,2,0.8479309458190865,0.848369891417035,-0.04389455979485479
14,3,0.8479309458190865,0.7661396932956283,8.17912525234582
14,4,0.8479309458190865,0.8427532733523517,0.5177672466734728
14,5,0.8479309458190865,0.8322634189738972,1.566752684518924
14,6,0.8479309458190865,0.8356491946887719,1.22817511303146
14,7,0.8479309458190865,0.8112910020739393,3.663994374514712
14,8,0.8479309458190865,0.8278104612263211,2.0120484592765386
15,0,0.8821767175913517,0.8465031836551021,3.5673533936249613
15,1,0.8821767175913517,0.8969763667944867,-1.4799649203134924
15,2,0.8821767175913517,0.8439584111569318,3.8218306434419924
15,3,0.8821767175913517,0.8427506169706065,3.9426100620745252
15,4,0.8821767175913517,0.8662134224319082,1.5963295159443502
15,5,0.8821767175913517,0.8717989670626235,1.0377750528728247
15,6,0.8821767175913517,0.8725087894729214,0.9667928118430313
15,7,0.8821767175913517,0.8473267913908686,3.4849926200483106
15,8,0.8821767175913517,0.8738249286413601,0.8351788949991668
16,0,0.8080997625907939,0.7887625768639581,1.9337185726835737
16,1,0.8080997625907939,0.8005863903133685,0.7513372277425323
16,2,0.8080997625907939,0.7951276426540012,1.2972119936792703
16,3,0.8080997625907939,0.7886633648008108,1.9436397789983073
16,4,0.8080997625907939,0.7974867707526326,1.0612991838161223
16,5,0.8080997625907939,0.7674604009761328,4.063936161466108
16,6,0.8080997625907939,0.815821479396882,-0.772171680608813
16,7,0.8080997625907939,0.7777718684751933,3.032789411560055
16,8,0.8080997625907939,0.7667010978276898,4.139866476310406
17,0,0.8632636708021676,0.8420464172974382,2.121725350472936
17,1,0.8632636708021676,0.8547512976689784,0.8512373133189199
17,2,0.8632636708021676,0.836071661389458,2.7192009412709606
17,3,0.8632636708021676,0.8186618252201212,4.460184558204638
17,4,0.8632636708021676,0.8801702048080642,-1.690653400589659
17,5,0.8632636708021676,0.8405763966626234,2.268727413954419
17,6,0.8632636708021676,0.8570388384970519,0.6224832305115724
17,7,0.8632636708021676,0.860525143549288,0.2738527252879597
17,8,0.8632636708021676,0.8120699670831955,5.1193703718972134
18,0,0.8364795881699183,0.8028928220875933,3.3586766082325026
18,1,0.8364795881699183,0.8352052215161225,0.12743666537957665
18,2,0.8364795881699183,0.8603633730503943,-2.3883784880476044
18,3,0.8364795881699183,0.7294838551064806,10.699573306343769
18,4,0.8364795881699183,0.8330247894984362,0.3454798671482129
18,5,0.8364795881699183,0.8571038289278682,-2.0624240757949885
18,6,0.8364795881699183,0.853222994480201,-1.6743406310282705
18,7,0.8364795881699183,0.7839932424747202,5.248634569519806
18,8,0.8364795881699183,0.8161920502846503,2.0287537885268048
19,0,0.7897282494581965,0.7712830036738322,1.844524578436435
19,1,0.7897282494581965,0.7690421571033026,2.0686092354893937
19,2,0.7897282494581965,0.7879584950999794,0.1769754358217135
19,3,0.7897282494581965,0.7362957783217676,5.3432471136428905
19,4,0.7897282494581965,0.7688462697112921,2.088197974690442
19,5,0.7897282494581965,0.7721915454617342,1.7536703996462344
19,6,0.7897282494581965,0.7947351684800763,-0.5006919021879774
19,7,0.7897282494581965,0.7503004976406445,3.942775181755198
19,8,0.7897282494581965,0.7301606495769688,5.956759988122773
20,0,0.780853684118406,0.7858270187260896,-0.4973334607683566
20,1,0.780853684118406,0.7607596345086053,2.009404960980077
20,2,0.780853684118406,0.7727850797912206,0.806860432718548
20,3,0.780853684118406,0.8246688034188034,-4.381511930039739
20,4,0.780853684118406,0.7727644647754857,0.8089219342920395
20,5,0.780853684118406,0.7936356124758668,-1.2781928357460726
20,6,0.780853684118406,0.7540831049955277,2.677057912287839
20,7,0.780853684118406,0.7767908026694605,0.406288144894551
20,8,0.780853684118406,0.7437231450687746,3.7130539049631484
21,0,0.8671829761036809,0.8309503188866492,3.6232657217031727
21,1,0.8671829761036809,0.8511373299319728,1.6045646171708117
21,2,0.8671829761036809,0.8571002089776969,1.0082767125983993
21,3,0.8671829761036809,0.8271125116713351,4.007046443234574
21,4,0.8671829761036809,0.8409844597126152,2.619851639106574
21,5,0.8671829761036809,0.885717321305849,-1.8534345202168123
21,6,0.8671829761036809,0.8668050983083349,0.03778777953460377
21,7,0.8671829761036809,0.852265575748566,1.4917400355114907
21,8,0.8671829761036809,0.8524972410150015,1.468573508867943
22,0,0.8395997152750518,0.8250530295450609,1.454668572999096
22,1,0.8395997152750518,0.830244572854832,0.9355142420219842
22,2,0.8395997152750518,0.8168453048679483,2.2754410407103576
22,3,0.8395997152750518,0.8048925083097946,3.47072069652572
22,4,0.8395997152750518,0.7963879169212783,4.321179835377354
22,5,0.8395997152750518,0.8376135570407938,0.1986158234258073
22,6,0.8395997152750518,0.8118987080892284,2.7701007185823467
22,7,0.8395997152750518,0.7619903282798337,7.760938699521813
22,8,0.8395997152750518,0.8190790000976823,2.052071517736953
23,0,0.8204824990190733,0.7476038488625748,7.287865015649853
23,1,0.8204824990190733,0.814483015029231,0.5999483989842291
23,2,0.8204824990190733,0.8331254786943562,-1.2642979675282828
23,3,0.8204824990190733,0.7798316342591182,4.065086475995516
23,4,0.8204824990190733,0.8042278278271946,1.6254671191878733
23,5,0.8204824990190733,0.805789425202653,1.4693073816420377
23,6,0.8204824990190733,0.7855907885278798,3.489171049119355
23,7,0.8204824990190733,0.7823980964523973,3.8084402566676
23,8,0.8204824990190733,0.7793878186590161,4.109468036005726
24,0,0.7783067584624648,0.7484011633688513,2.9905595093613457
24,1,0.7783067584624648,0.7809456994806927,-0.2638941018227925
24,2,0.7783067584624648,0.7534445341730014,2.4862224289463386
24,3,0.7783067584624648,0.8215025026433767,-4.319574418091188
24,4,0.7783067584624648,0.7355645185504686,4.274223991199621
24,5,0.7783067584624648,0.7265841077217826,5.172265074068216
24,6,0.7783067584624648,0.7620807459676311,1.6226012494833686
24,7,0.7783067584624648,0.7280920115654319,5.021474689703287
24,8,0.7783067584624648,0.7430885492206246,3.521820924184016
25,0,0.8641911573065335,0.8660267102887117,-0.18355529821781902
25,1,0.8641911573065335,0.8498032253964254,1.438793191010812
25,2,0.8641911573065335,0.836824855065537,2.7366302240996454
25,3,0.8641911573065335,0.8511465440623311,1.3044613244202363
25,4,0.8641911573065335,0.8298302186034758,3.4360938703057675
25,5,0.8641911573065335,0.8551961578812864,0.8994999425247063
25,6,0.8641911573065335,0.8825214751592181,-1.8330317852684574
25,7,0.8641911573065335,0.8266334097880407,3.7557747518492834
25,8,0.8641911573065335,0.879751781122777,-1.5560623816243457
26,0,0.7859797343998292,0.7663242036293245,1.9655530770504637
26,1,0.7859797343998292,0.773556651207963,1.2423083191866136
26,2,0.7859797343998292,0.7547006189791596,3.1279115420669523
26,3,0.7859797343998292,0.7500860827001158,3.589365169971337
26,4,0.7859797343998292,0.7627367218169115,2.324301258291761
26,5,0.7859797343998292,0.7764441468266096,0.9535587573219595
26,6,0.7859797343998292,0.8061671056367774,-2.018737123694825
26,7,0.7859797343998292,0.7465332939125383,3.9446440487290846
26,8,0.7859797343998292,0.745307451785721,4.067228261410816
27,0,0.8594583242005308,0.860269814435825,-0.08114902352941433
27,1,0.8594583242005308,0.8529627027030543,0.6495621497476511
27,2,0.8594583242005308,0.8007288089457074,5.872951525482339
27,3,0.8594583242005308,0.8650831292337349,-0.5624805033204061
27,4,0.8594583242005308,0.8328984481371094,2.655987606342136
27,5,0.8594583242005308,0.8532551109363173,0.620321326421347
27,6,0.8594583242005308,0.8977024441207756,-3.824411992024479
27,7,0.8594583242005308,0.8410902073487707,1.8368116851760097
27,8,0.8594583242005308,0.8489057147266289,1.0552609473901908
28,0,0.7512575451228813,0.8706960452165056,-11.943850009362421
28,1,0.7512575451228813,0.7678026791899242,-1.6545134067042833
28,2,0.7512575451228813,0.7592156798269651,-0.7958134704083797
28,3,0.7512575451228813,0.7247053510564078,2.655219406647358
28,4,0.7512575451228813,0.7627248561299536,-1.1467311007072212
28,5,0.7512575451228813,0.739098587072462,1.2158958050419333
28,6,0.7512575451228813,0.7585718086235158,-0.7314263500634466
28,7,0.7512575451228813,0.7408699087037607,1.038763641912066
28,8,0.7512575451228813,0.8104212941173573,-5.916374899447597
29,0,0.8438304436388456,0.8175877674476328,2.624267619121279
29,1,0.8438304436388456,0.84945475713994,-0.562431350109438
29,2,0.8438304436388456,0.8247282749777058,1.9102168661139785
29,3,0.8438304436388456,0.8358215587288815,0.8008884909964098
29,4,0.8438304436388456,0.8001264491587844,4.370399448006124
29,5,0.8438304436388456,0.8216080744028108,2.2222369236034822
29,6,0.8438304436388456,0.8425374779541446,0.1292965684701053
29,7,0.8438304436388456,0.8200103692470105,2.382007439183509
29,8,0.8438304436388456,0.8252245009149097,1.8605942723935898
30,0,0.833755477932138,0.8450220873383123,-1.12666094061743
30,1,0.833755477932138,0.81054916532533,2.3206312606808055
30,2,0.833755477932138,0.8671099726639907,-3.33544947318527
30,3,0.833755477932138,0.7894850683508352,4.427040958130279
30,4,0.833755477932138,0.8133287177245655,2.0426760207572503
30,5,0.833755477932138,0.8444997055945571,-1.0744227662419115
30,6,0.833755477932138,0.8464355801872818,-1.2680102255143821
30,7,0.833755477932138,0.7912567162218892,4.24987617102488
30,8,0.833755477932138,0.8440961453256536,-1.034066739351558
31,0,0.7770740437027084,0.7583692830332884,1.870476066941995
31,1,0.7770740437027084,0.7813357229951765,-0.42616792924681235
31,2,0.7770740437027084,0.7580794256670741,1.8994618035634292
31,3,0.7770740437027084,0.7656720841628162,1.1401959539892204
31,4,0.7770740437027084,0.7766945343194609,0.03795093832474894
31,5,0.7770740437027084,0.7750658499265425,0.20081937761659008
31,6,0.7770740437027084,0.7677544849143789,0.9319558788329463
31,7,0.7770740437027084,0.7378913493151853,3.9182694387523087
31,8,0.7770740437027084,0.7353516402296889,4.172240347301948
32,0,0.8339868883105466,0.8151173258739699,1.886956243657667
32,1,0.8339868883105466,0.8237605608485099,1.0226327462036666
32,2,0.8339868883105466,0.8094988829100979,2.448800540044871
32,3,0.8339868883105466,0.8160924358265591,1.7894452483987466
32,4,0.8339868883105466,0.8165526142805463,1.7434274030000307
32,5,0.8339868883105466,0.8216077949050535,1.2379093405493036
32,6,0.8339868883105466,0.8339329732482008,0.005391506234575516
32,7,0.8339868883105466,0.7917564821224252,4.223040618812135
32,8,0.8339868883105466,0.8362366035806579,-0.22497152701113077
33,0,0.8692555677746864,0.8632631365535113,0.5992431221175099
33,1,0.8692555677746864,0.812800964698853,5.645460307583338
33,2,0.8692555677746864,0.8778146542580634,-0.8559086483376999
33,3,0.8692555677746864,0.8116114165596127,5.764415121507371
33,4,0.8692555677746864,0.872761077577685,-0.35055098029985743
33,5,0.8692555677746864,0.848410088127566,2.0845479647120357
33,6,0.8692555677746864,0.8376568919649201,3.1598675809766275
33,7,0.8692555677746864,0.8166383705644408,5.26171972102456
33,8,0.8692555677746864,0.8678327579850479,0.14228097896384906
34,0,0.8853949201134252,0.8597356984696788,2.5659221643746455
34,1,0.8853949201134252,0.8866210418593666,-0.12261217459413887
34,2,0.8853949201134252,0.8975163572481316,-1.212143713470637
34,3,0.8853949201134252,0.8585681927192199,2.682672739420533
34,4,0.8853949201134252,0.8742554902435118,1.1139429869913453
34,5,0.8853949201134252,0.8916793487445247,-0.6284428631099459
34,6,0.8853949201134252,0.888709392522662,-0.33144724092367683
34,7,0.8853949201134252,0.879338961620753,0.6055958492672264
34,8,0.8853949201134252,0.8757383953449973,0.9656524768427932
35,0,0.7030898172597912,0.670512740174214,3.257707708557722
35,1,0.7030898172597912,0.7039009781986217,-0.08111609388304908
35,2,0.7030898172597912,0.703507403656439,-0.04175863966477955
35,3,0.7030898172597912,0.6854392848849198,1.7650532374871464
35,4,0.7030898172597912,0.6787197763357022,2.437004092408901
35,5,0.7030898172597912,0.6597787015416826,4.3311115718108635
35,6,0.7030898172597912,0.6989541531624661,0.41356640973251313
35,7,0.7030898172597912,0.6997532209796269,0.3336596280164361
35,8,0.7030898172597912,0.6968119751599513,0.6277842099839948
36,0,0.7640876055005208,0.7434139088629629,2.0673696637557915
36,1,0.7640876055005208,0.7147559028439632,4.933170265655762
36,2,0.7640876055005208,0.7184577125400804,4.56298929604404
36,3,0.7640876055005208,0.7261499600443357,3.7937645456185054
36,4,0.7640876055005208,0.7761422575157001,-1.2054652015179301
36,5,0.7640876055005208,0.7719313772457945,-0.7843771745273731
36,6,0.7640876055005208,0.7366257610764783,2.7461844424042536
36,7,0.7640876055005208,0.6740376869596774,9.004991854084343
36,8,0.7640876055005208,0.6933871220981117,7.070048340240909
37,0,0.8749749857061178,0.8540756567496717,2.0899328956446084
37,1,0.8749749857061178,0.8337823082390253,4.119267746709243
37,2,0.8749749857061178,0.8327725355031109,4.220245020300684
37,3,0.8749749857061178,0.8532575074820581,2.171747822405967
37,4,0.8749749857061178,0.8682477423927047,0.6727243313413012
37,5,0.8749749857061178,0.8566175398393426,1.8357445866775124
37,6,0.8749749857061178,0.858436697082182,1.6538288623935804
37,7,0.8749749857061178,0.8202639672336641,5.471101847245363
37,8,0.8749749857061178,0.8533430007063928,2.1631984999724962
38,0,0.8247359765608391,0.782155041903217,4.258093465762203
38,1,0.8247359765608391,0.8282228321387257,-0.34868555778866384
38,2,0.8247359765608391,0.8092656125106338,1.5470364050205299
38,3,0.8247359765608391,0.8257036132061979,-0.09676366453588159
38,4,0.8247359765608391,0.8001520505708936,2.458392598994552
38,5,0.8247359765608391,0.8334152317323706,-0.8679255171531564
38,6,0.8247359765608391,0.8015425767963349,2.3193399764504186
38,7,0.8247359765608391,0.7957222165552654,2.901376000557365
38,8,0.8247359765608391,0.8190348262965147,0.5701150264324384
39,0,0.8120685191779666,0.7857813789512842,2.6287140226682437
39,1,0.8120685191779666,0.7919449847950539,2.01235343829127
39,2,0.8120685191779666,0.8161278947363425,-0.4059375558375877
39,3,0.8120685191779666,0.6934247095531029,11.864380962486376
39,4,0.8120685191779666,0.7608741121894883,5.119440698847832
39,5,0.8120685191779666,0.8033214825527385,0.8747036625228133
39,6,0.8120685191779666,0.8294429890808396,-1.7374469902872947
39,7,0.8120685191779666,0.7894985522872742,2.256996689069246
39,8,0.8120685191779666,0.8252867060072251,-1.321818682925846
40,0,0.8271478993263305,0.7522019246351681,7.494597469116238
40,1,0.8271478993263305,0.8239316836435695,0.3216215682760981
40,2,0.8271478993263305,0.8404068257377321,-1.3258926411401584
40,3,0.8271478993263305,0.8049567496183847,2.219114970794578
40,4,0.8271478993263305,0.8022627675968943,2.4885131729436183
40,5,0.8271478993263305,0.8411508570074536,-1.400295768112314
40,6,0.8271478993263305,0.7947003838233404,3.2447515502990076
40,7,0.8271478993263305,0.7851557296088133,4.199216971751718
40,8,0.8271478993263305,0.7817248189258775,4.542308040045295
