subject,channel,r,f1_drop_mean,f1_drop_sd
1,0,5,0.12232689689695726,0.004947733841101755
1,1,5,0.07980658776271017,0.01357871151309848
1,2,5,0.05665441839187555,0.006348195141461393
1,3,5,0.08164206954417996,0.012421881255874127
1,4,5,0.03666645001310258,0.005166317300500076
1,5,5,0.13143049084747954,0.011851499476628571
1,6,5,0.010165071485484557,0.005298558361622961
1,7,5,0.1165960211756869,0.011159974343710832
1,8,5,0.06830790011276451,0.014878099582858403
2,0,5,0.08866432351224571,0.012078724810901081
2,1,5,0.10857827687411763,0.007515818649270279
2,2,5,0.058011553772533954,0.015025237758590175
2,3,5,0.05622448046907704,0.005503248053719469
2,4,5,0.11639860604774228,0.013948626218958655
2,5,5,0.13899779893310907,0.01733826591462693
2,6,5,0.02494165451203121,0.011077051968841404
2,7,5,0.11741155849270639,0.01789230106353313
2,8,5,0.06112014969787127,0.00912254924582638
3,0,5,0.1317799891376123,0.008888558867409196
3,1,5,0.12380936654601489,0.016056901596389617
3,2,5,0.11717146898241233,0.016788250099346196
3,3,5,0.10922616683258299,0.00815238582319416
3,4,5,0.11123687844531191,0.01713886876054492
3,5,5,0.08478521989437308,0.005045608410143156
3,6,5,0.030959839123818965,0.00854427203749656
3,7,5,0.10890305313963937,0.012232208301725748
3,8,5,0.104269023515589,0.015995625015980987
4,0,5,0.12339910843395238,0.011863190831051773
4,1,5,0.11374315616806419,0.018376621583671524
4,2,5,0.11995406610605004,0.014270280106026411
4,3,5,0.05062506413687708,0.011751382186144672
4,4,5,0.152212584065293,0.01016462641612872
4,5,5,0.13387711210918707,0.007887592263761128
4,6,5,0.03319004664426613,0.0023260231130383933
4,7,5,0.12351144886630099,0.016672932803629203
4,8,5,0.10204930375514483,0.019110951551188495
5,0,5,0.07591225834210429,0.014961818782370732
5,1,5,0.05555686516790639,0.004948755012891344
5,2,5,0.053794185967950624,0.009687196005095749
5,3,5,0.0666788944585766,0.010134038540543004
5,4,5,0.051122537998127895,0.011000818943517005
5,5,5,0.1007953587752353,0.01329769214687221
5,6,5,0.03607646407123426,0.010419806310000867
5,7,5,0.061518083823163726,0.0145961663196069
5,8,5,0.10688469929058408,0.0061392905214740535
6,0,5,0.07832839474857711,0.013404482964860881
6,1,5,0.06901336000336913,0.013430819795862851
6,2,5,0.02933415860751738,0.005857566586505696
6,3,5,0.03286861885043071,0.0233161901983956
6,4,5,0.08063966563609212,0.01997744029383002
6,5,5,0.059911424863432525,0.004894780955752203
6,6,5,0.0023733444143213987,0.005043652363102773
6,7,5,0.08304083333613962,0.007293556481194283
6,8,5,0.08014033749021213,0.019009265132329225
7,0,5,0.1042964828230587,0.018641369034716342
7,1,5,0.11723285069279814,0.009002011540366955
7,2,5,0.12403931242691454,0.01922466626836659
7,3,5,0.022196416885911542,0.005584027154220311
7,4,5,0.13745192033637807,0.011035034983809398
7,5,5,0.11087159077162297,0.016392077098125353
7,6,5,0.07857669795823083,0.010470829801031622
7,7,5,0.13434829948817714,0.018080347424063396
7,8,5,0.1319212429170081,0.013432294541795018
8,0,5,0.08014667897747599,0.009829616922387506
8,1,5,0.07984520260613896,0.005213470552471884
8,2,5,0.06649605927314575,0.01621518640352917
8,3,5,0.10644083803289946,0.01607947673488803
8,4,5,0.12646810891789,0.01744094739032842
8,5,5,0.1554765806578179,0.023428846455603062
8,6,5,0.05481838179914047,0.015450175869858947
8,7,5,0.09843151953740023,0.015045868196713717
8,8,5,0.07854865907523279,0.010096570385196053
9,0,5,0.04004117839378205,0.012682056212485374
9,1,5,0.06879982423661808,0.014846871896643339
9,2,5,0.07845766637709597,0.007141105331113608
9,3,5,0.025988736169208847,0.010483059372371935
9,4,5,0.08290985888458671,0.023496844534099934
9,5,5,0.06463240011887905,0.0071077865865087995
9,6,5,0.02778376347215621,0.006173481218958257
9,7,5,0.09299560992511471,0.00401026347624835
9,8,5,0.035608338355566205,0.010761103551458514
10,0,5,0.07142128406901374,0.025468286483770034
10,1,5,0.029551078245392715,0.006668648292496419
10,2,5,-0.002744298184240779,0.004528029967481749
10,3,5,0.05355253316510742,0.011271013977282038
10,4,5,0.05090667908432227,0.02403474026715672
10,5,5,0.11032897407059801,0.012282953802378904
10,6,5,0.022910980185387973,0.010432467306886524
10,7,5,0.07013675060908746,0.008664230565249583
10,8,5,0.0978008750928305,0.015743572689133182
11,0,5,0.05318356057348037,0.01344964797084703
11,1,5,0.08935480150616541,0.010981341297884771
11,2,5,0.0864978264288289,0.010887023518613165
11,3,5,0.09248518672803493,0.003082194671766222
11,4,5,0.13141086383578,0.012537162782483983
11,5,5,0.07795139557629457,0.011230888755269595
11,6,5,0.04422399765295271,0.006000676251994681
11,7,5,0.144482415866017,0.008728712680041743
11,8,5,0.08909131522257767,0.0121056218580347
12,0,5,0.07480069680898391,0.010918932537185943
12,1,5,0.09408989988569376,0.016023231054759297
12,2,5,0.12913646312007193,0.01194037410238712
12,3,5,0.07043974641289467,0.016165462020976705
12,4,5,0.13130750579876002,0.017695753520564118
12,5,5,0.0854359489094904,0.004542783053763658
12,6,5,0.03271715821519157,0.012540928002208025
12,7,5,0.1082594016198823,0.014301931661555642
12,8,5,0.0610540258123949,0.006172263665499924
13,0,5,0.08671990641778211,0.01071440670054828
13,1,5,0.0464711556190462,0.012664507792662325
13,2,5,0.05939642751748557,0.004859680218169717
13,3,5,0.03878650427975596,0.013717111868357975
13,4,5,0.08318171340276907,0.004309416835267356
13,5,5,0.21498126340098667,0.012900148782936544
13,6,5,0.015312467747091229,0.012635350759589336
13,7,5,0.059678031952809095,0.010997596128994197
13,8,5,0.065285962550796,0.016442674901278483
14,0,5,0.09501973302218211,0.003681715309883171
14,1,5,0.0946170513565516,0.007774591998288105
14,2,5,0.05450816763872453,0.009288873651941264
14,3,5,0.10676494429329383,0.009526460530327817
14,4,5,0.1893764699554626,0.021779313147568792
14,5,5,0.04745071444887108,0.011218587871457261
14,6,5,0.0345740539688371,0.008576162755262087
14,7,5,0.11709783906329625,0.015476287921897376
14,8,5,0.08617611575612398,0.01358678151452476
15,0,5,0.08905396877135548,0.008045791705854484
15,1,5,0.08573479745681827,0.010382594720604077
15,2,5,0.0895087437255218,0.008996196206253361
15,3,5,0.028656620369263263,0.007864380486516801
15,4,5,0.09399519605741673,0.021476668942713724
15,5,5,0.15516183556474722,0.02920712415544636
15,6,5,0.07395266345704495,0.019215260595258698
15,7,5,0.0887297163443497,0.017679571600271234
15,8,5,0.12436794575131964,0.010409457067399578
16,0,5,0.09104777041244913,0.007442780235278818
16,1,5,0.0836290705328316,0.014695691761359722
16,2,5,0.09679637219606638,0.02047824449880433
16,3,5,0.07101687490295519,0.008616254085031265
16,4,5,0.08669121530550579,0.008633742364738895
16,5,5,0.13253994553861653,0.015264733773015873
16,6,5,0.035025700869803764,0.00935118903090756
16,7,5,0.11120135106317,0.010003747971373711
16,8,5,0.14751599638269325,0.010063048660169492
17,0,5,0.15870055622870946,0.009607307791605117
17,1,5,0.07160623761287437,0.006675930775107958
17,2,5,0.08745698938440594,0.005083987846101481
17,3,5,0.0759260944658117,0.009881637102900841
17,4,5,0.1479984707878873,0.007848604294335794
17,5,5,0.10718808651713463,0.007114797461998164
17,6,5,0.046914798025762705,0.00904848542613155
17,7,5,0.11695257378794674,0.014611043437083809
17,8,5,0.15298227871502704,0.005361317918600595
18,0,5,0.07001479784919704,0.009636549788961897
18,1,5,0.0659526164739767,0.013896054854802962
18,2,5,0.07468427991858191,0.016775412813328526
18,3,5,0.10949115443347272,0.008279385392047638
18,4,5,0.021904967938072416,0.008581583963954063
18,5,5,0.13394404794931122,0.00672119617812465
18,6,5,0.023632486632136816,0.007902667458125888
18,7,5,0.1463410509950704,0.010417785812876853
18,8,5,0.05657948666396271,0.01278408617075534
19,0,5,0.06618417708990956,0.006711095287144394
19,1,5,0.07085051188345985,0.014155873928944964
19,2,5,0.04982919587295551,0.01514488486364602
19,3,5,0.07377748484135475,0.00932548249544456
19,4,5,0.09004902847278615,0.009902496877027638
19,5,5,0.10624390265308199,0.016334709844429213
19,6,5,0.045962693350112674,0.013109868038369945
19,7,5,0.13426714119050884,0.007263859332124567
19,8,5,0.11068548237170661,0.016075941250404343
20,0,5,0.0635223047903504,0.01528858692192706
20,1,5,0.07002438480935284,0.011583284673160613
20,2,5,0.08675885329217266,0.007451357604895952
20,3,5,0.0021186343076678104,0.00802906306329715
20,4,5,0.0908422343936142,0.009803740948749839
20,5,5,0.1495172718459594,0.0062478671592643325
20,6,5,0.03609250041041745,0.010299969502743133
20,7,5,0.0653821881962812,0.009425308423208788
20,8,5,0.11335087547952542,0.012094173166648995
21,0,5,0.1425367941804327,0.007346179364994256
21,1,5,0.06781064785887563,0.013722433209144775
21,2,5,0.09702048358444657,0.012497891092368322
21,3,5,0.06125210706046771,0.012668834032888196
21,4,5,0.099672385437839,0.007557074953053416
21,5,5,0.0898957639960615,0.007156317741308862
21,6,5,0.043780336677323464,0.014181709452129303
21,7,5,0.10519207212844835,0.007558640608092473
21,8,5,0.10931424552147564,0.013824703551031705
22,0,5,0.12037787090485785,0.018287832610202257
22,1,5,0.08464461400408889,0.009492870778461952
22,2,5,0.10910197335114427,0.01033420856340254
22,3,5,0.07218035948354022,0.009807584404137691
22,4,5,0.11179300512811322,0.0039330645774649465
22,5,5,0.10694944096630246,0.010636518881727315
22,6,5,0.06823147847129614,0.007647675697776174
22,7,5,0.1709513454380892,0.006459435737824793
22,8,5,0.11693998339967379,0.006503949877647361
23,0,5,0.1508710129798703,0.0028266730578494683
23,1,5,0.1041978570373387,0.023506669805216044
23,2,5,0.07776581521152773,0.0035322844161604023
23,3,5,0.06690133965668499,0.007428999121727374
23,4,5,0.1205982179307179,0.007178771144651298
23,5,5,0.10747195639042187,0.006410025703730314
23,6,5,0.07292228408486863,0.006564523618476229
23,7,5,0.12584737511519878,0.010400362591685022
23,8,5,0.12145833186836726,0.0165685966491715
24,0,5,0.08447943655681214,0.004532535060990605
24,1,5,0.06440756010881199,0.014394747817658746
24,2,5,0.0797697995789505,0.015385376302295873
24,3,5,0.026500140554341002,0.009626868384547899
24,4,5,0.1336001303997712,0.006978799142078012
24,5,5,0.09149774461016394,0.014280720292623192
24,6,5,0.04078890320942703,0.005878494811933734
24,7,5,0.12562308280079337,0.014485393461570413
24,8,5,0.0997313110710379,0.010403596025484298
25,0,5,0.11747630786289989,0.011873737966372862
25,1,5,0.07401784988976148,0.015084347906592995
25,2,5,0.10440452264611613,0.015466179370696395
25,3,5,0.06985315046962035,0.013947011029072556
25,4,5,0.08736451413938173,0.004667291778749603
25,5,5,0.11957274631650441,0.011068832361143309
25,6,5,0.028411667613826252,0.00978340727336166
25,7,5,0.1103236793705136,0.005682576661639697
25,8,5,0.12238338343233543,0.012949158647810174
26,0,5,0.09137754093344745,0.005424879526327115
26,1,5,0.07527888677309749,0.012060538667727924
26,2,5,0.0929881069318756,0.004746813861283723
26,3,5,0.07062695394878868,0.014727726697737184
26,4,5,0.1104517664783052,0.016082345079267778
26,5,5,0.17322709105843567,0.011910838660218536
26,6,5,0.03529347026880984,0.0059165196778105545
26,7,5,0.14648036427194439,0.008469963321969202
26,8,5,0.13687140792995373,0.007488565381827444
27,0,5,0.06923345885287813,0.00812743820852399
27,1,5,0.07487170786327282,0.010031636629952292
27,2,5,0.09041807093860606,0.02340345156937229
27,3,5,0.048357636150073824,0.009795837133627921
27,4,5,0.09387522061041106,0.007006406951898081
27,5,5,0.16604355211401942,0.006472769559744293
27,6,5,0.009043474868111323,0.004939496540358267
27,7,5,0.12971331786117635,0.0054323320614632535
27,8,5,0.04416934572106461,0.020348264237902584
28,0,5,0.03666994691962337,0.008629225254811895
28,1,5,0.04202595475214592,0.019453785905596176
28,2,5,0.05214986561989834,0.00890315547424923
28,3,5,0.01887750727384214,0.010563941601721015
28,4,5,0.06552967292059597,0.012440929820876495
28,5,5,0.18677489601297179,0.0133352924325208
28,6,5,0.039987468732903354,0.005429761622233466
28,7,5,0.059724321170164775,0.006213099672065888
28,8,5,0.06181747526932289,0.012765087678114975
29,0,5,0.11188369890407705,0.014805930456641171
29,1,5,0.05915564252907637,0.00957725194289645
29,2,5,0.12002727510997588,0.011775627977256417
29,3,5,0.042850061549528154,0.01275585813529622
29,4,5,0.13352296457084917,0.016022809795160325
29,5,5,0.16770102155920769,0.012648702187437473
29,6,5,0.037106145896174045,0.010326387798044716
29,7,5,0.12057197231072056,0.0035523372748710305
29,8,5,0.1058541260280295,0.007318056368913605
30,0,5,0.0459212681548369,0.007330792830955009
30,1,5,0.03337568217192355,0.004807757868991493
30,2,5,0.026648110711351047,0.013666372852962917
30,3,5,0.03995803720066282,0.009087644216891986
30,4,5,0.04574063869585596,0.007005114285815688
30,5,5,0.1852616909763045,0.01535694520577269
30,6,5,0.025975360503352828,0.013318317693644721
30,7,5,0.10804526866483626,0.021843942153946274
30,8,5,0.07023675441524371,0.012486281538192362
31,0,5,0.08265001201105755,0.004282114440194754
31,1,5,0.0665170209099983,0.009086048331617335
31,2,5,0.07966218299370229,0.006465516977841398
31,3,5,0.040304873529890275,0.019232799220310688
31,4,5,0.11665813340685496,0.014609828608276716
31,5,5,0.068716039138596,0.017936328473266268
31,6,5,0.05873296523120062,0.013038454643091203
31,7,5,0.09768073749997468,0.013824502808805707
31,8,5,0.10979410535623668,0.013749056383804635
32,0,5,0.08859403816678404,0.014891697989381333
32,1,5,0.08355678258965668,0.013593497352496577
32,2,5,0.1106143265762268,0.008635375627017558
32,3,5,0.0331207322760805,0.0078033100691812865
32,4,5,0.12955066581116623,0.024341241880538662
32,5,5,0.21077338527309258,0.01728246090874941
32,6,5,0.029674590733287265,0.008002708549462684
32,7,5,0.13097662037719676,0.014822555078664545
32,8,5,0.07951684481161359,0.015487653577175709
33,0,5,0.07661886929879318,0.016605595476385224
33,1,5,0.1461763339995006,0.012203796110194155
33,2,5,0.025938402493318802,0.01534870861196439
33,3,5,0.07921124316050568,0.008478164276379754
33,4,5,0.17168541987460412,0.016821518274018243
33,5,5,0.13860185559949906,0.010908959535036258
33,6,5,0.07292427052901256,0.01556775224614705
33,7,5,0.10862619548112704,0.0097735368136924
33,8,5,0.10544252179331584,0.009844414623028498
34,0,5,0.10292876342169983,0.0074054556585105855
34,1,5,0.07567344402788259,0.008658897691629303
34,2,5,0.05547727253479166,0.007716614649729153
34,3,5,0.06036878461164998,0.010532117307223157
34,4,5,0.05385923891907933,0.02052889312011647
34,5,5,0.0838659868630743,0.018849182109200672
34,6,5,0.04412395482318281,0.006724915306967013
34,7,5,0.12857326151595172,0.012700690989228419
34,8,5,0.1063377705829748,0.011414102680335072
35,0,5,0.11065873362094636,0.009102489095868747
35,1,5,0.038725611573893315,0.012629334888630769
35,2,5,0.044135597518761706,0.010038939426347995
35,3,5,0.051915197084629106,0.007267179790891025
35,4,5,0.031799492744344925,0.011631076536510868
35,5,5,0.19001128136229756,0.00848956741288414
35,6,5,0.057620422706223605,0.006016329728171275
35,7,5,0.08413818825894939,0.009340030926131483
35,8,5,0.08024586034388012,0.0047424869381437465
36,0,5,0.04671712133436372,0.0035931991634946493
36,1,5,0.1164260622977358,0.010873430710934473
36,2,5,0.07559262324071,0.01292420970979694
36,3,5,0.08417010940302203,0.01839525882997406
36,4,5,0.10586458840400939,0.01836129919625744
36,5,5,0.09037315000093833,0.0060831887293928705
36,6,5,0.0701109762096496,0.005139735700573857
36,7,5,0.15575649697881513,0.008274803924857545
36,8,5,0.1109912416672912,0.006799134260079147
37,0,5,0.06353594326964493,0.00859340430426736
37,1,5,0.1025885469267342,0.013217932544952005
37,2,5,0.10939221252536666,0.008753296611968135
37,3,5,0.034177995780814506,0.01136784665065071
37,4,5,0.142769565189959,0.006311546246333972
37,5,5,0.1963595123052922,0.012062143926598852
37,6,5,0.03675066194119068,0.005175175827006533
37,7,5,0.13487294506926722,0.012439333386591176
37,8,5,0.0604432244077532,0.00796536443653895
38,0,5,0.10050767460974423,0.013383631203891235
38,1,5,0.06669878031179147,0.01090596396694989
38,2,5,0.04086484968083533,0.015360058998774007
38,3,5,0.06841543760562765,0.013326854990366142
38,4,5,0.16289322432864878,0.008936538986271062
38,5,5,0.13449125315407498,0.003979601203332518
38,6,5,0.07665435788602774,0.007232281825400848
38,7,5,0.0813736123830795,0.016128774501685705
38,8,5,0.05008845650383729,0.011392416717904297
39,0,5,0.09115626493706519,0.01607639515921301
39,1,5,0.06608274250604289,0.008295723630834632
39,2,5,0.03121634070261057,0.015803023967451767
39,3,5,0.10161074343454099,0.013821595740126808
39,4,5,0.15556608463127017,0.009918686018835703
39,5,5,0.1432099831212887,0.016272073246894416
39,6,5,0.03892499512352301,0.011681816703954257
39,7,5,0.10301272127200714,0.009592421745423354
39,8,5,0.05660050555707639,0.016000000200021482
40,0,5,0.15723228860402658,0.016847979772053594
40,1,5,0.09408762260674444,0.01792019167971308
40,2,5,0.0701571512708842,0.019743889081448748
40,3,5,0.020280624274877736,0.011904422859773644
40,4,5,0.11983383551888767,0.018558324226998064
40,5,5,0.15341936309985862,0.02740181503034465
40,6,5,0.04710637762369989,0.005674423995087324
40,7,5,0.1206124880650989,0.020419526259381388
40,8,5,0.11570239734570435,0.01828654837833217
