subject,block,block_width,feature_channel,gate_mean,gate_sd
1,0,32,0,0.4920232594013214,0.1593463122844696
1,0,32,1,0.3894164562225342,0.07490569353103638
1,0,32,2,0.4567822813987732,0.16895920038223267
1,0,32,3,0.5906060934066772,0.1657845675945282
1,0,32,4,0.4457588791847229,0.1081649661064148
1,0,32,5,0.38110825419425964,0.0650453194975853
1,0,32,6,0.4274294972419739,0.07533885538578033
1,0,32,7,0.3876391053199768,0.08314075320959091
1,0,32,8,0.539692223072052,0.08166930079460144
1,0,32,9,0.6651066541671753,0.09937380999326706
1,0,32,10,0.3960583209991455,0.1888887584209442
1,0,32,11,0.5147934556007385,0.09061773866415024
1,0,32,12,0.6312239766120911,0.18796667456626892
1,0,32,13,0.44849541783332825,0.07453680038452148
1,0,32,14,0.4817318916320801,0.08837015926837921
1,0,32,15,0.5029741525650024,0.17354364693164825
1,0,32,16,0.5081700086593628,0.056720808148384094
1,0,32,17,0.44867172837257385,0.08089102804660797
1,0,32,18,0.5283957123756409,0.08922836929559708
1,0,32,19,0.3765093684196472,0.08105498552322388
1,0,32,20,0.5657896399497986,0.04095175862312317
1,0,32,21,0.5381951332092285,0.16492623090744019
1,0,32,22,0.5336748361587524,0.056838955730199814
1,0,32,23,0.3908950090408325,0.0985560193657875
1,0,32,24,0.43493762612342834,0.05634245648980141
1,0,32,25,0.5668559670448303,0.06594572216272354
1,0,32,26,0.3816876709461212,0.07440249621868134
1,0,32,27,0.5558825731277466,0.06028016656637192
1,0,32,28,0.28701409697532654,0.11434482038021088
1,0,32,29,0.5361723899841309,0.13845551013946533
1,0,32,30,0.6654403805732727,0.145179882645607
1,0,32,31,0.41366612911224365,0.04855438694357872
1,1,32,0,0.38308820128440857,0.0729157030582428
1,1,32,1,0.5318402051925659,0.0921221524477005
1,1,32,2,0.5165886282920837,0.12410908937454224
1,1,32,3,0.38831913471221924,0.08286561816930771
1,1,32,4,0.6160579919815063,0.07714611291885376
1,1,32,5,0.4546239376068115,0.11391983181238174
1,1,32,6,0.4993622601032257,0.09272179752588272
1,1,32,7,0.6264737844467163,0.04086693003773689
1,1,32,8,0.5947306752204895,0.045816510915756226
1,1,32,9,0.5211852192878723,0.04608646407723427
1,1,32,10,0.5789247155189514,0.07328721135854721
1,1,32,11,0.5250562429428101,0.05196684971451759
1,1,32,12,0.5612201690673828,0.11085572093725204
1,1,32,13,0.4044359028339386,0.038763660937547684
1,1,32,14,0.5563781261444092,0.08916803449392319
1,1,32,15,0.397329181432724,0.10843878984451294
1,1,32,16,0.5620432496070862,0.022189320996403694
1,1,32,17,0.37459972500801086,0.058865249156951904
1,1,32,18,0.6424004435539246,0.03962147608399391
1,1,32,19,0.69580078125,0.06819487363100052
1,1,32,20,0.44742000102996826,0.06043274328112602
1,1,32,21,0.3921467959880829,0.06257634609937668
1,1,32,22,0.40780988335609436,0.12082892656326294
1,1,32,23,0.6281293034553528,0.04369822517037392
1,1,32,24,0.5657955408096313,0.1322735697031021
1,1,32,25,0.5500598549842834,0.07276967167854309
1,1,32,26,0.5511367917060852,0.11712738871574402
1,1,32,27,0.47551488876342773,0.06908430904150009
1,1,32,28,0.3912947475910187,0.10415510833263397
1,1,32,29,0.4956301152706146,0.055404409766197205
1,1,32,30,0.374676376581192,0.06672904640436172
1,1,32,31,0.3887843191623688,0.07961344718933105
1,2,64,0,0.5688429474830627,0.1492941826581955
1,2,64,1,0.7248902320861816,0.15191079676151276
1,2,64,2,0.5981770753860474,0.12160500138998032
1,2,64,3,0.5528530478477478,0.1960589438676834
1,2,64,4,0.6331213712692261,0.20701198279857635
1,2,64,5,0.42401158809661865,0.1705240160226822
1,2,64,6,0.6300227642059326,0.20881131291389465
1,2,64,7,0.5101401805877686,0.05779125168919563
1,2,64,8,0.5966994762420654,0.12091530859470367
1,2,64,9,0.467323899269104,0.110389344394207
1,2,64,10,0.45020800828933716,0.14937901496887207
1,2,64,11,0.5377761721611023,0.09406176209449768
1,2,64,12,0.5035701394081116,0.06478312611579895
1,2,64,13,0.62519770860672,0.15092884004116058
1,2,64,14,0.2381017804145813,0.13657736778259277
1,2,64,15,0.40102818608283997,0.07451541721820831
1,2,64,16,0.4867337942123413,0.11305861175060272
1,2,64,17,0.638514518737793,0.14684003591537476
1,2,64,18,0.5510159134864807,0.11180540919303894
1,2,64,19,0.5099236369132996,0.12798963487148285
1,2,64,20,0.6416949033737183,0.1111845150589943
1,2,64,21,0.507434606552124,0.08335574716329575
1,2,64,22,0.49220699071884155,0.13225291669368744
1,2,64,23,0.70988529920578,0.11962368339300156
1,2,64,24,0.5375293493270874,0.07911630719900131
1,2,64,25,0.4643622934818268,0.1285451352596283
1,2,64,26,0.42580029368400574,0.10845677554607391
1,2,64,27,0.4412536025047302,0.11371899396181107
1,2,64,28,0.48906174302101135,0.07066681236028671
1,2,64,29,0.3441247344017029,0.17827129364013672
1,2,64,30,0.6644815802574158,0.093851238489151
1,2,64,31,0.5297330021858215,0.0795212835073471
1,2,64,32,0.6665648818016052,0.12356577813625336
1,2,64,33,0.4954295754432678,0.21740616858005524
1,2,64,34,0.32640698552131653,0.15369358658790588
1,2,64,35,0.5665053129196167,0.14273801445960999
1,2,64,36,0.2518587112426758,0.12834888696670532
1,2,64,37,0.6454664468765259,0.2625519633293152
1,2,64,38,0.6261314749717712,0.19845864176750183
1,2,64,39,0.4815904498100281,0.08578819036483765
1,2,64,40,0.666153609752655,0.2332117259502411
1,2,64,41,0.6234127283096313,0.14741887152194977
1,2,64,42,0.4708438813686371,0.09350650012493134
1,2,64,43,0.30785462260246277,0.14315104484558105
1,2,64,44,0.6544594168663025,0.15120288729667664
1,2,64,45,0.5073051452636719,0.03266714885830879
1,2,64,46,0.626039981842041,0.0499819852411747
1,2,64,47,0.504080593585968,0.16349034011363983
1,2,64,48,0.41585150361061096,0.1138795018196106
1,2,64,49,0.40418365597724915,0.17528770864009857
1,2,64,50,0.42251303791999817,0.05553474277257919
1,2,64,51,0.6757350564002991,0.18465755879878998
1,2,64,52,0.28860098123550415,0.13357704877853394
1,2,64,53,0.5085541009902954,0.1222265362739563
1,2,64,54,0.5834152102470398,0.2723921239376068
1,2,64,55,0.6205855011940002,0.1466188132762909
1,2,64,56,0.5838221311569214,0.062464237213134766
1,2,64,57,0.36338093876838684,0.10432295501232147
1,2,64,58,0.5001152753829956,0.11739494651556015
1,2,64,59,0.6361418962478638,0.25368666648864746
1,2,64,60,0.43580693006515503,0.13209427893161774
1,2,64,61,0.3836377263069153,0.1736576408147812
1,2,64,62,0.5141330361366272,0.14461781084537506
1,2,64,63,0.5679897665977478,0.12856075167655945
1,3,64,0,0.5559316277503967,0.14799590408802032
1,3,64,1,0.5882341265678406,0.18551841378211975
1,3,64,2,0.547910749912262,0.18053169548511505
1,3,64,3,0.3453381061553955,0.0886758416891098
1,3,64,4,0.5665205717086792,0.07233676314353943
1,3,64,5,0.5198215246200562,0.24399597942829132
1,3,64,6,0.4227587878704071,0.08415137231349945
1,3,64,7,0.4904487133026123,0.07664673775434494
1,3,64,8,0.45125189423561096,0.06419884413480759
1,3,64,9,0.4931582510471344,0.24414294958114624
1,3,64,10,0.3063383400440216,0.14586885273456573
1,3,64,11,0.6445187330245972,0.1293615847826004
1,3,64,12,0.5267267823219299,0.15586310625076294
1,3,64,13,0.474380224943161,0.14379021525382996
1,3,64,14,0.3791212737560272,0.06000852584838867
1,3,64,15,0.5943801999092102,0.19274218380451202
1,3,64,16,0.4981820583343506,0.06039318069815636
1,3,64,17,0.5267931222915649,0.17565082013607025
1,3,64,18,0.5772716403007507,0.10875890403985977
1,3,64,19,0.5530676245689392,0.17924334108829498
1,3,64,20,0.4963296949863434,0.07673342525959015
1,3,64,21,0.5324774980545044,0.07285352051258087
1,3,64,22,0.6409050226211548,0.1203218325972557
1,3,64,23,0.32095083594322205,0.13000166416168213
1,3,64,24,0.47829627990722656,0.09511256963014603
1,3,64,25,0.5228603482246399,0.13764595985412598
1,3,64,26,0.5563653707504272,0.24500390887260437
1,3,64,27,0.6480393409729004,0.08442778885364532
1,3,64,28,0.557228684425354,0.25185731053352356
1,3,64,29,0.46942734718322754,0.1855315864086151
1,3,64,30,0.5652822256088257,0.07837947458028793
1,3,64,31,0.41270673274993896,0.18326489627361298
1,3,64,32,0.5900722146034241,0.08924654126167297
1,3,64,33,0.4648458957672119,0.14508414268493652
1,3,64,34,0.5844271779060364,0.06193958967924118
1,3,64,35,0.5389493703842163,0.07417823374271393
1,3,64,36,0.31138500571250916,0.1511847823858261
1,3,64,37,0.5066791772842407,0.19860342144966125
1,3,64,38,0.4506886601448059,0.07929199188947678
1,3,64,39,0.5441259145736694,0.22976261377334595
1,3,64,40,0.5651674866676331,0.24456748366355896
1,3,64,41,0.5920445919036865,0.0862547978758812
1,3,64,42,0.4570029377937317,0.28211361169815063
1,3,64,43,0.420029878616333,0.12698091566562653
1,3,64,44,0.4982810318470001,0.28004470467567444
1,3,64,45,0.5013481974601746,0.22624672949314117
1,3,64,46,0.5121567249298096,0.14873209595680237
1,3,64,47,0.4780884385108948,0.1522638201713562
1,3,64,48,0.6373984217643738,0.0996125265955925
1,3,64,49,0.5090945363044739,0.05895329639315605
1,3,64,50,0.4163392186164856,0.17722263932228088
1,3,64,51,0.35490477085113525,0.14425989985466003
1,3,64,52,0.36819055676460266,0.09637350589036942
1,3,64,53,0.3601428270339966,0.07240939140319824
1,3,64,54,0.5379360914230347,0.2545231878757477
1,3,64,55,0.4830826222896576,0.17469871044158936
1,3,64,56,0.5101737976074219,0.047572217881679535
1,3,64,57,0.4709652066230774,0.10986872762441635
1,3,64,58,0.4877889156341553,0.07677321881055832
1,3,64,59,0.5254806280136108,0.16544312238693237
1,3,64,60,0.5429915189743042,0.043394558131694794
1,3,64,61,0.5507367849349976,0.21851664781570435
1,3,64,62,0.36523258686065674,0.16410508751869202
1,3,64,63,0.535219669342041,0.12014887481927872
1,4,128,0,0.48653286695480347,0.1998867392539978
1,4,128,1,0.483264297246933,0.21841368079185486
1,4,128,2,0.5130204558372498,0.08469171077013016
1,4,128,3,0.3942981958389282,0.2204061597585678
1,4,128,4,0.6283652782440186,0.07597241550683975
1,4,128,5,0.638491153717041,0.13160540163516998
1,4,128,6,0.6429432034492493,0.1658274382352829
1,4,128,7,0.5051062703132629,0.2066422551870346
1,4,128,8,0.37392333149909973,0.07887519896030426
1,4,128,9,0.47228461503982544,0.1091584712266922
1,4,128,10,0.6288339495658875,0.2269066572189331
1,4,128,11,0.48771563172340393,0.13011890649795532
1,4,128,12,0.6145502328872681,0.15590323507785797
1,4,128,13,0.622681200504303,0.11275825649499893
1,4,128,14,0.5560591816902161,0.12267245352268219
1,4,128,15,0.6135972738265991,0.16389749944210052
1,4,128,16,0.5520075559616089,0.06172401085495949
1,4,128,17,0.5658292770385742,0.2973031997680664
1,4,128,18,0.5699641704559326,0.11421564966440201
1,4,128,19,0.5324737429618835,0.20092162489891052
1,4,128,20,0.5692697763442993,0.2766679525375366
1,4,128,21,0.5244036912918091,0.21076135337352753
1,4,128,22,0.6608070731163025,0.09737415611743927
1,4,128,23,0.4598175883293152,0.23556692898273468
1,4,128,24,0.6352709531784058,0.12794820964336395
1,4,128,25,0.3382642865180969,0.21343828737735748
1,4,128,26,0.5346174240112305,0.26045992970466614
1,4,128,27,0.568514883518219,0.3107559084892273
1,4,128,28,0.5024766325950623,0.27023494243621826
1,4,128,29,0.5089868307113647,0.2495422214269638
1,4,128,30,0.4424285888671875,0.16811266541481018
1,4,128,31,0.5869312882423401,0.1846170276403427
1,4,128,32,0.7596597671508789,0.11274739354848862
1,4,128,33,0.5647317171096802,0.1720217913389206
1,4,128,34,0.6714621782302856,0.16349808871746063
1,4,128,35,0.5826464891433716,0.2758858799934387
1,4,128,36,0.4392876625061035,0.10587178170681
1,4,128,37,0.44799086451530457,0.28057095408439636
1,4,128,38,0.5451515913009644,0.15222060680389404
1,4,128,39,0.4351477324962616,0.10064206272363663
1,4,128,40,0.7275186777114868,0.11510095745325089
1,4,128,41,0.48036012053489685,0.18791420757770538
1,4,128,42,0.45697203278541565,0.08514278382062912
1,4,128,43,0.390651136636734,0.1848284900188446
1,4,128,44,0.6825008988380432,0.09687346965074539
1,4,128,45,0.4473717212677002,0.19190570712089539
1,4,128,46,0.5618632435798645,0.14248403906822205
1,4,128,47,0.6009626984596252,0.302670419216156
1,4,128,48,0.45667964220046997,0.09734604507684708
1,4,128,49,0.6894011497497559,0.17112243175506592
1,4,128,50,0.5334346890449524,0.21027451753616333
1,4,128,51,0.4668048024177551,0.20023779571056366
1,4,128,52,0.5095770359039307,0.26822373270988464
1,4,128,53,0.6294301152229309,0.10417386144399643
1,4,128,54,0.5856189727783203,0.23305341601371765
1,4,128,55,0.6622575521469116,0.0995299220085144
1,4,128,56,0.4656650424003601,0.2147185057401657
1,4,128,57,0.5838044881820679,0.23247458040714264
1,4,128,58,0.5792361497879028,0.13036949932575226
1,4,128,59,0.44598886370658875,0.16165567934513092
1,4,128,60,0.6214516162872314,0.18043005466461182
1,4,128,61,0.40283915400505066,0.250892698764801
1,4,128,62,0.5038231015205383,0.1318732500076294
1,4,128,63,0.5408332347869873,0.18546707928180695
1,4,128,64,0.6585949659347534,0.12608931958675385
1,4,128,65,0.6007623672485352,0.11026571691036224
1,4,128,66,0.5824684500694275,0.07708200067281723
1,4,128,67,0.7010051608085632,0.1509317308664322
1,4,128,68,0.416022390127182,0.11456021666526794
1,4,128,69,0.5942392945289612,0.17424988746643066
1,4,128,70,0.6194969415664673,0.22377875447273254
1,4,128,71,0.408880352973938,0.28896817564964294
1,4,128,72,0.6015541553497314,0.21607834100723267
1,4,128,73,0.6698358058929443,0.10062527656555176
1,4,128,74,0.431086927652359,0.18989481031894684
1,4,128,75,0.4399539828300476,0.17445075511932373
1,4,128,76,0.569804847240448,0.1090996190905571
1,4,128,77,0.6320309638977051,0.09577492624521255
1,4,128,78,0.4719659090042114,0.19775508344173431
1,4,128,79,0.41397160291671753,0.06295774132013321
1,4,128,80,0.6029512882232666,0.245683953166008
1,4,128,81,0.47753432393074036,0.2951463460922241
1,4,128,82,0.5421391129493713,0.15154096484184265
1,4,128,83,0.46163755655288696,0.14272838830947876
1,4,128,84,0.5590069890022278,0.16484303772449493
1,4,128,85,0.5770716071128845,0.09631910175085068
1,4,128,86,0.5911320447921753,0.1342792510986328
1,4,128,87,0.41527748107910156,0.14083904027938843
1,4,128,88,0.5912556648254395,0.1859315186738968
1,4,128,89,0.6544003486633301,0.08013594895601273
1,4,128,90,0.43942564725875854,0.08897049725055695
1,4,128,91,0.6087943911552429,0.1950758993625641
1,4,128,92,0.45680418610572815,0.06432120501995087
1,4,128,93,0.5356382131576538,0.17993786931037903
1,4,128,94,0.682068407535553,0.11881375312805176
1,4,128,95,0.4959372580051422,0.2254011482000351
1,4,128,96,0.47803351283073425,0.09784673899412155
1,4,128,97,0.584629476070404,0.15737012028694153
1,4,128,98,0.6257915496826172,0.09922220557928085
1,4,128,99,0.5295820236206055,0.2806813418865204
1,4,128,100,0.5843420028686523,0.1355992555618286
1,4,128,101,0.46055662631988525,0.177131786942482
1,4,128,102,0.41172629594802856,0.1048591285943985
1,4,128,103,0.42561787366867065,0.0788419246673584
1,4,128,104,0.6108033657073975,0.14570768177509308
1,4,128,105,0.7381535768508911,0.11374229192733765
1,4,128,106,0.4495139420032501,0.21460260450839996
1,4,128,107,0.5682587623596191,0.26478371024131775
1,4,128,108,0.46756330132484436,0.17156819999217987
1,4,128,109,0.6072450876235962,0.18907126784324646
1,4,128,110,0.5407904386520386,0.13440151512622833
1,4,128,111,0.4993956387042999,0.1246463805437088
1,4,128,112,0.5268194079399109,0.12688201665878296
1,4,128,113,0.5948678255081177,0.1859360635280609
1,4,128,114,0.5994136333465576,0.20399445295333862
1,4,128,115,0.6156575083732605,0.24130770564079285
1,4,128,116,0.5003958344459534,0.15298226475715637
1,4,128,117,0.4064272344112396,0.18081815540790558
1,4,128,118,0.6306359171867371,0.12519970536231995
1,4,128,119,0.3275640308856964,0.21443887054920197
1,4,128,120,0.6726597547531128,0.12490399926900864
1,4,128,121,0.6594376564025879,0.10613071173429489
1,4,128,122,0.6634923219680786,0.2006904035806656
1,4,128,123,0.5123476982116699,0.2490280568599701
1,4,128,124,0.380539208650589,0.07878279685974121
1,4,128,125,0.508109986782074,0.23206624388694763
1,4,128,126,0.587895393371582,0.12033558636903763
1,4,128,127,0.6575770974159241,0.13987399637699127
1,5,128,0,0.6428212523460388,0.2189691960811615
1,5,128,1,0.5327066779136658,0.05120895430445671
1,5,128,2,0.5964034199714661,0.08435218781232834
1,5,128,3,0.5234835147857666,0.0774536207318306
1,5,128,4,0.7283161282539368,0.15314804017543793
1,5,128,5,0.4717782437801361,0.1415862888097763
1,5,128,6,0.5649757385253906,0.18086212873458862
1,5,128,7,0.40410301089286804,0.09015339612960815
1,5,128,8,0.3694222867488861,0.07951516658067703
1,5,128,9,0.7234945297241211,0.10113366693258286
1,5,128,10,0.5605396032333374,0.08755606412887573
1,5,128,11,0.6046711206436157,0.05081721395254135
1,5,128,12,0.34747812151908875,0.09488945454359055
1,5,128,13,0.7648786306381226,0.09261855483055115
1,5,128,14,0.5533921122550964,0.030574291944503784
1,5,128,15,0.6949417591094971,0.07478783279657364
1,5,128,16,0.5275649428367615,0.15906397998332977
1,5,128,17,0.6965442895889282,0.17225496470928192
1,5,128,18,0.6518904566764832,0.20000070333480835
1,5,128,19,0.606412410736084,0.1734209656715393
1,5,128,20,0.6200626492500305,0.03682706877589226
1,5,128,21,0.6705789566040039,0.07280970364809036
1,5,128,22,0.49207472801208496,0.12409873306751251
1,5,128,23,0.5047682523727417,0.08745785057544708
1,5,128,24,0.7030898928642273,0.12443134188652039
1,5,128,25,0.5109555125236511,0.18310120701789856
1,5,128,26,0.5758125185966492,0.14958854019641876
1,5,128,27,0.5829088687896729,0.2351885885000229
1,5,128,28,0.7114994525909424,0.09377823024988174
1,5,128,29,0.5371634364128113,0.17105934023857117
1,5,128,30,0.5392693281173706,0.06893081218004227
1,5,128,31,0.649009644985199,0.18265536427497864
1,5,128,32,0.5288028120994568,0.1421353667974472
1,5,128,33,0.40214356780052185,0.0958288162946701
1,5,128,34,0.5191456079483032,0.153645321726799
1,5,128,35,0.6709699630737305,0.11940731853246689
1,5,128,36,0.49478834867477417,0.13012075424194336
1,5,128,37,0.5065315961837769,0.18666666746139526
1,5,128,38,0.5221365094184875,0.14541298151016235
1,5,128,39,0.5870993733406067,0.13237693905830383
1,5,128,40,0.5984609723091125,0.13278572261333466
1,5,128,41,0.4953477680683136,0.15781719982624054
1,5,128,42,0.78216952085495,0.10612700134515762
1,5,128,43,0.5961806774139404,0.04596291109919548
1,5,128,44,0.683049738407135,0.0831344798207283
1,5,128,45,0.5371448993682861,0.07593076676130295
1,5,128,46,0.550140917301178,0.07172531634569168
1,5,128,47,0.7649562954902649,0.07206711173057556
1,5,128,48,0.4741491973400116,0.06764856725931168
1,5,128,49,0.6220638155937195,0.06985216587781906
1,5,128,50,0.46767446398735046,0.0629727840423584
1,5,128,51,0.5705172419548035,0.11037464439868927
1,5,128,52,0.4986627995967865,0.1394399106502533
1,5,128,53,0.60808926820755,0.17175312340259552
1,5,128,54,0.6620117425918579,0.0608394481241703
1,5,128,55,0.7951059937477112,0.10356325656175613
1,5,128,56,0.5396618843078613,0.041519895195961
1,5,128,57,0.4935432970523834,0.12984390556812286
1,5,128,58,0.6055726408958435,0.1329461932182312
1,5,128,59,0.5165492296218872,0.16398943960666656
1,5,128,60,0.6516199707984924,0.21082313358783722
1,5,128,61,0.6344316601753235,0.07651038467884064
1,5,128,62,0.45972633361816406,0.15507538616657257
1,5,128,63,0.7234135866165161,0.13250744342803955
1,5,128,64,0.5987878441810608,0.24540726840496063
1,5,128,65,0.7450720071792603,0.12421180307865143
1,5,128,66,0.5790680646896362,0.1610741764307022
1,5,128,67,0.6672775745391846,0.12830039858818054
1,5,128,68,0.5039204955101013,0.06820723414421082
1,5,128,69,0.43175116181373596,0.06642307341098785
1,5,128,70,0.8035479187965393,0.10004061460494995
1,5,128,71,0.35297003388404846,0.14826110005378723
1,5,128,72,0.6269614696502686,0.1486182063817978
1,5,128,73,0.7604914307594299,0.09244267642498016
1,5,128,74,0.5969670414924622,0.133404940366745
1,5,128,75,0.7262832522392273,0.09837716817855835
1,5,128,76,0.5340988636016846,0.17532750964164734
1,5,128,77,0.5608391165733337,0.06134812906384468
1,5,128,78,0.5009268522262573,0.07067394256591797
1,5,128,79,0.4729209244251251,0.039515264332294464
1,5,128,80,0.6944028735160828,0.10823194682598114
1,5,128,81,0.7066789865493774,0.13700595498085022
1,5,128,82,0.6900882124900818,0.10193178802728653
1,5,128,83,0.6530894041061401,0.1569952517747879
1,5,128,84,0.6732917428016663,0.07228928804397583
1,5,128,85,0.6453866362571716,0.1794901341199875
1,5,128,86,0.5474154353141785,0.1307612955570221
1,5,128,87,0.6548379063606262,0.09764159470796585
1,5,128,88,0.727593183517456,0.14303570985794067
1,5,128,89,0.5310633778572083,0.11038844287395477
1,5,128,90,0.5409209728240967,0.08780618757009506
1,5,128,91,0.7145230770111084,0.12626756727695465
1,5,128,92,0.4110185503959656,0.10560107231140137
1,5,128,93,0.6243085265159607,0.1340504288673401
1,5,128,94,0.6777393817901611,0.17668162286281586
1,5,128,95,0.4834306538105011,0.11187372356653214
1,5,128,96,0.6567850112915039,0.0736134722828865
1,5,128,97,0.5448487997055054,0.10776877403259277
1,5,128,98,0.5732033848762512,0.11560539156198502
1,5,128,99,0.4296429753303528,0.0815550684928894
1,5,128,100,0.6493619084358215,0.18411095440387726
1,5,128,101,0.5542097687721252,0.1624341756105423
1,5,128,102,0.5164828896522522,0.1469293236732483
1,5,128,103,0.4396531283855438,0.1271010935306549
1,5,128,104,0.751695454120636,0.08830247819423676
1,5,128,105,0.7362337708473206,0.1054927185177803
1,5,128,106,0.6607635617256165,0.12380961328744888
1,5,128,107,0.7504227161407471,0.11823449283838272
1,5,128,108,0.45057785511016846,0.15465062856674194
1,5,128,109,0.6165277361869812,0.21110756695270538
1,5,128,110,0.539588212966919,0.062150053679943085
1,5,128,111,0.6761845946311951,0.12204285711050034
1,5,128,112,0.5464209318161011,0.10176095366477966
1,5,128,113,0.6827578544616699,0.1365129053592682
1,5,128,114,0.7055556178092957,0.16916200518608093
1,5,128,115,0.5928896069526672,0.13861776888370514
1,5,128,116,0.5261551737785339,0.08343572914600372
1,5,128,117,0.5642645955085754,0.05264418199658394
1,5,128,118,0.38978123664855957,0.05702100694179535
1,5,128,119,0.5387541055679321,0.06169010326266289
1,5,128,120,0.6766496896743774,0.11897201836109161
1,5,128,121,0.5817850828170776,0.2396477311849594
1,5,128,122,0.6141692399978638,0.2059033215045929
1,5,128,123,0.5185143947601318,0.09971703588962555
1,5,128,124,0.5717363357543945,0.12958836555480957
1,5,128,125,0.6024113893508911,0.09719576686620712
1,5,128,126,0.630255937576294,0.14383934438228607
1,5,128,127,0.664646565914154,0.09135439991950989
2,0,32,0,0.5957240462303162,0.08986834436655045
2,0,32,1,0.55629962682724,0.11005809158086777
2,0,32,2,0.4357011020183563,0.1245940774679184
2,0,32,3,0.5383854508399963,0.06587012112140656
2,0,32,4,0.47257643938064575,0.09997889399528503
2,0,32,5,0.5556666851043701,0.06703061610460281
2,0,32,6,0.4909110963344574,0.08933079242706299
2,0,32,7,0.3227178156375885,0.06041247025132179
2,0,32,8,0.43873265385627747,0.08275619894266129
2,0,32,9,0.4134823977947235,0.08291808515787125
2,0,32,10,0.5771055221557617,0.052463918924331665
2,0,32,11,0.492125004529953,0.09141592681407928
2,0,32,12,0.5943838357925415,0.02711281180381775
2,0,32,13,0.40437620878219604,0.03261692076921463
2,0,32,14,0.5136661529541016,0.08128485828638077
2,0,32,15,0.43533390760421753,0.06071143224835396
2,0,32,16,0.349854975938797,0.09203958511352539
2,0,32,17,0.38853490352630615,0.11161688715219498
2,0,32,18,0.4915035367012024,0.056682005524635315
2,0,32,19,0.6142310500144958,0.08632842451334
2,0,32,20,0.48878082633018494,0.042594291269779205
2,0,32,21,0.46694955229759216,0.053223222494125366
2,0,32,22,0.37141063809394836,0.14295397698879242
2,0,32,23,0.552476167678833,0.08175449073314667
2,0,32,24,0.5630151033401489,0.11176370829343796
2,0,32,25,0.38511306047439575,0.12006767839193344
2,0,32,26,0.4925633370876312,0.11566991358995438
2,0,32,27,0.5368561744689941,0.13300417363643646
2,0,32,28,0.5373183488845825,0.05892251059412956
2,0,32,29,0.4528449475765228,0.0767650380730629
2,0,32,30,0.3699975907802582,0.05829497426748276
2,0,32,31,0.6369991898536682,0.04232533648610115
2,1,32,0,0.4085444509983063,0.11737896502017975
2,1,32,1,0.48102763295173645,0.10120771825313568
2,1,32,2,0.5017344951629639,0.10924188047647476
2,1,32,3,0.5422230362892151,0.06561445444822311
2,1,32,4,0.47321584820747375,0.08843532204627991
2,1,32,5,0.5639227032661438,0.1093854084610939
2,1,32,6,0.3604969084262848,0.11180227994918823
2,1,32,7,0.6460303068161011,0.08107629418373108
2,1,32,8,0.670071542263031,0.1156688928604126
2,1,32,9,0.503797173500061,0.0666167140007019
2,1,32,10,0.3867379128932953,0.06390447914600372
2,1,32,11,0.533568799495697,0.15324227511882782
2,1,32,12,0.3423716723918915,0.10714798420667648
2,1,32,13,0.4940475523471832,0.09856396913528442
2,1,32,14,0.5093107223510742,0.13840727508068085
2,1,32,15,0.5603684782981873,0.07266132533550262
2,1,32,16,0.3740028440952301,0.08765827864408493
2,1,32,17,0.5685052275657654,0.08595971763134003
2,1,32,18,0.46865901350975037,0.15821819007396698
2,1,32,19,0.3856624960899353,0.03523063659667969
2,1,32,20,0.39249756932258606,0.04872160404920578
2,1,32,21,0.5168641805648804,0.1773250848054886
2,1,32,22,0.4988751709461212,0.053198009729385376
2,1,32,23,0.5128147602081299,0.08924055844545364
2,1,32,24,0.5884771943092346,0.06236467510461807
2,1,32,25,0.46869009733200073,0.086800716817379
2,1,32,26,0.5281561017036438,0.09637222439050674
2,1,32,27,0.5078405737876892,0.1130099892616272
2,1,32,28,0.3791842758655548,0.09974569082260132
2,1,32,29,0.44359278678894043,0.12624354660511017
2,1,32,30,0.5603750348091125,0.12461668252944946
2,1,32,31,0.49745550751686096,0.08384405076503754
2,2,64,0,0.5647268891334534,0.1378147453069687
2,2,64,1,0.489436537027359,0.18941596150398254
2,2,64,2,0.43420273065567017,0.0492752306163311
2,2,64,3,0.48349034786224365,0.1717163771390915
2,2,64,4,0.5759223699569702,0.08435545861721039
2,2,64,5,0.596571147441864,0.06941375881433487
2,2,64,6,0.5581142902374268,0.08091268688440323
2,2,64,7,0.702147901058197,0.12114427238702774
2,2,64,8,0.39638903737068176,0.11370109766721725
2,2,64,9,0.4372519850730896,0.1501494199037552
2,2,64,10,0.4712297022342682,0.08054658770561218
2,2,64,11,0.4382108449935913,0.1208425983786583
2,2,64,12,0.4442685544490814,0.06991428881883621
2,2,64,13,0.5463582277297974,0.03285094350576401
2,2,64,14,0.5246495604515076,0.1469808667898178
2,2,64,15,0.48937079310417175,0.16745419800281525
2,2,64,16,0.4797000586986542,0.15176551043987274
2,2,64,17,0.5743677020072937,0.17517244815826416
2,2,64,18,0.4127790927886963,0.09066127240657806
2,2,64,19,0.5403750538825989,0.2213522046804428
2,2,64,20,0.44174325466156006,0.1488962024450302
2,2,64,21,0.5237609148025513,0.08873370289802551
2,2,64,22,0.6415667533874512,0.07576686888933182
2,2,64,23,0.5450141429901123,0.12718075513839722
2,2,64,24,0.35946187376976013,0.1186848133802414
2,2,64,25,0.48259100317955017,0.12391102313995361
2,2,64,26,0.5176422595977783,0.21862109005451202
2,2,64,27,0.5433565974235535,0.09352792054414749
2,2,64,28,0.5123989582061768,0.14260151982307434
2,2,64,29,0.3996065557003021,0.07528056204319
2,2,64,30,0.4373989403247833,0.12562024593353271
2,2,64,31,0.4509112536907196,0.14742325246334076
2,2,64,32,0.5013117790222168,0.19619640707969666
2,2,64,33,0.5476334691047668,0.12316907197237015
2,2,64,34,0.36194777488708496,0.14238569140434265
2,2,64,35,0.4393288195133209,0.03276997059583664
2,2,64,36,0.5225334167480469,0.0829167515039444
2,2,64,37,0.424355685710907,0.15023016929626465
2,2,64,38,0.4227658212184906,0.15951216220855713
2,2,64,39,0.4204164445400238,0.050813570618629456
2,2,64,40,0.42975571751594543,0.11868241429328918
2,2,64,41,0.31315189599990845,0.13827574253082275
2,2,64,42,0.49144577980041504,0.18450307846069336
2,2,64,43,0.4791966378688812,0.19563060998916626
2,2,64,44,0.46818897128105164,0.1533116102218628
2,2,64,45,0.4601608216762543,0.12248210608959198
2,2,64,46,0.5974693298339844,0.0717349648475647
2,2,64,47,0.34601330757141113,0.12426909059286118
2,2,64,48,0.4081295132637024,0.10630705952644348
2,2,64,49,0.5728973150253296,0.11670678108930588
2,2,64,50,0.3152681887149811,0.0933738499879837
2,2,64,51,0.4492669105529785,0.10080012679100037
2,2,64,52,0.49545323848724365,0.13060711324214935
2,2,64,53,0.5035349130630493,0.11197036504745483
2,2,64,54,0.43262675404548645,0.09210897982120514
2,2,64,55,0.43527352809906006,0.11727305501699448
2,2,64,56,0.5498787760734558,0.10842395573854446
2,2,64,57,0.5680409073829651,0.1279096156358719
2,2,64,58,0.5322158932685852,0.13727302849292755
2,2,64,59,0.5020064115524292,0.16050413250923157
2,2,64,60,0.5338497161865234,0.1430167853832245
2,2,64,61,0.448388010263443,0.1666778028011322
2,2,64,62,0.5015340447425842,0.21957574784755707
2,2,64,63,0.49925461411476135,0.08103014528751373
2,3,64,0,0.5880557298660278,0.1274217814207077
2,3,64,1,0.36744260787963867,0.0816885381937027
2,3,64,2,0.3585018813610077,0.11773810535669327
2,3,64,3,0.5415506958961487,0.18460088968276978
2,3,64,4,0.4888310134410858,0.10910528153181076
2,3,64,5,0.48532217741012573,0.14198939502239227
2,3,64,6,0.472053587436676,0.1006234660744667
2,3,64,7,0.5784834027290344,0.19210141897201538
2,3,64,8,0.38152456283569336,0.097374826669693
2,3,64,9,0.42161452770233154,0.0869293138384819
2,3,64,10,0.46307000517845154,0.09626773744821548
2,3,64,11,0.6286413073539734,0.10054250806570053
2,3,64,12,0.5346331596374512,0.16369307041168213
2,3,64,13,0.4754483997821808,0.13013848662376404
2,3,64,14,0.44832366704940796,0.0335330069065094
2,3,64,15,0.6339918971061707,0.17109905183315277
2,3,64,16,0.39638909697532654,0.05592804029583931
2,3,64,17,0.5063327550888062,0.19387561082839966
2,3,64,18,0.7398209571838379,0.06030472368001938
2,3,64,19,0.4869350790977478,0.08942016214132309
2,3,64,20,0.46859338879585266,0.09491075575351715
2,3,64,21,0.43616926670074463,0.1400219202041626
2,3,64,22,0.43425628542900085,0.15797159075737
2,3,64,23,0.494369775056839,0.1482422947883606
2,3,64,24,0.6296323537826538,0.10681632906198502
2,3,64,25,0.42091742157936096,0.1669834852218628
2,3,64,26,0.4232262074947357,0.07294178754091263
2,3,64,27,0.6095777153968811,0.0684470385313034
2,3,64,28,0.5190160274505615,0.07639354467391968
2,3,64,29,0.3746948540210724,0.09474487602710724
2,3,64,30,0.49380961060523987,0.06335245817899704
2,3,64,31,0.3252790868282318,0.07581955939531326
2,3,64,32,0.5041250586509705,0.12116704136133194
2,3,64,33,0.5178429484367371,0.08579711616039276
2,3,64,34,0.45476359128952026,0.17118754982948303
2,3,64,35,0.4799039661884308,0.08326376229524612
2,3,64,36,0.42851853370666504,0.22271943092346191
2,3,64,37,0.45130646228790283,0.18765783309936523
2,3,64,38,0.4920065701007843,0.12666018307209015
2,3,64,39,0.5098751783370972,0.07220938056707382
2,3,64,40,0.5151352286338806,0.12178339809179306
2,3,64,41,0.557306706905365,0.11019899696111679
2,3,64,42,0.5050499439239502,0.16089202463626862
2,3,64,43,0.41214537620544434,0.13063181936740875
2,3,64,44,0.615330159664154,0.03425172343850136
2,3,64,45,0.5980314612388611,0.19531697034835815
2,3,64,46,0.4571514427661896,0.11607026308774948
2,3,64,47,0.5736685395240784,0.14613653719425201
2,3,64,48,0.4657774269580841,0.09028193354606628
2,3,64,49,0.4073130488395691,0.10883130878210068
2,3,64,50,0.4306914806365967,0.05070331692695618
2,3,64,51,0.5563311576843262,0.07825250178575516
2,3,64,52,0.5356953144073486,0.11519921571016312
2,3,64,53,0.3387391269207001,0.10071857273578644
2,3,64,54,0.6215201020240784,0.051418695598840714
2,3,64,55,0.5830560326576233,0.11484572291374207
2,3,64,56,0.6259766817092896,0.14244906604290009
2,3,64,57,0.5938119292259216,0.1181674674153328
2,3,64,58,0.47190216183662415,0.109799824655056
2,3,64,59,0.6130949854850769,0.0638183206319809
2,3,64,60,0.5194487571716309,0.0790947824716568
2,3,64,61,0.42052343487739563,0.2001417875289917
2,3,64,62,0.525188148021698,0.05956044793128967
2,3,64,63,0.5542500615119934,0.1152854710817337
2,4,128,0,0.714984118938446,0.08641297370195389
2,4,128,1,0.607964277267456,0.24056324362754822
2,4,128,2,0.7041452527046204,0.2220313847064972
2,4,128,3,0.5608438849449158,0.11058399826288223
2,4,128,4,0.4962104260921478,0.06958761811256409
2,4,128,5,0.6443735361099243,0.19494269788265228
2,4,128,6,0.5887183547019958,0.07180927693843842
2,4,128,7,0.44225412607192993,0.10793355852365494
2,4,128,8,0.5888839364051819,0.09628729522228241
2,4,128,9,0.24016740918159485,0.09675920009613037
2,4,128,10,0.287323534488678,0.22396688163280487
2,4,128,11,0.6999664902687073,0.2842392325401306
2,4,128,12,0.6614088416099548,0.30588462948799133
2,4,128,13,0.4343520998954773,0.0807948112487793
2,4,128,14,0.2761751413345337,0.20714698731899261
2,4,128,15,0.4290980100631714,0.11981482803821564
2,4,128,16,0.4224030375480652,0.05866362899541855
2,4,128,17,0.48147547245025635,0.19733528792858124
2,4,128,18,0.8601475954055786,0.05574743077158928
2,4,128,19,0.20198357105255127,0.18671812117099762
2,4,128,20,0.449724018573761,0.2509690523147583
2,4,128,21,0.6148022413253784,0.2951277494430542
2,4,128,22,0.3816806674003601,0.17367804050445557
2,4,128,23,0.47122034430503845,0.056384384632110596
2,4,128,24,0.6033328175544739,0.3049622178077698
2,4,128,25,0.48501890897750854,0.2212008833885193
2,4,128,26,0.45223763585090637,0.07648535817861557
2,4,128,27,0.5859678387641907,0.16867506504058838
2,4,128,28,0.5988600850105286,0.3170709013938904
2,4,128,29,0.6126271486282349,0.1572473645210266
2,4,128,30,0.4208675026893616,0.0906398817896843
2,4,128,31,0.35105276107788086,0.28619661927223206
2,4,128,32,0.6293690204620361,0.33486828207969666
2,4,128,33,0.39729782938957214,0.1600181758403778
2,4,128,34,0.49595406651496887,0.2474225014448166
2,4,128,35,0.5127262473106384,0.028980880975723267
2,4,128,36,0.6215025186538696,0.09083636105060577
2,4,128,37,0.5563561320304871,0.127408966422081
2,4,128,38,0.6543029546737671,0.22160282731056213
2,4,128,39,0.6838266253471375,0.13951292634010315
2,4,128,40,0.2872435748577118,0.15849778056144714
2,4,128,41,0.832416296005249,0.09635821729898453
2,4,128,42,0.5780059695243835,0.0893559604883194
2,4,128,43,0.6696208119392395,0.30420997738838196
2,4,128,44,0.6152767539024353,0.10114151239395142
2,4,128,45,0.5211030840873718,0.22697581350803375
2,4,128,46,0.8140187859535217,0.08831844478845596
2,4,128,47,0.45452356338500977,0.3381671607494354
2,4,128,48,0.4128671884536743,0.08596453070640564
2,4,128,49,0.6132002472877502,0.18703867495059967
2,4,128,50,0.6879201531410217,0.12332070618867874
2,4,128,51,0.7146351933479309,0.07625401765108109
2,4,128,52,0.763974666595459,0.11286362260580063
2,4,128,53,0.6807006597518921,0.27659446001052856
2,4,128,54,0.6008711457252502,0.1566946655511856
2,4,128,55,0.5007045269012451,0.13501738011837006
2,4,128,56,0.7913315296173096,0.06453822553157806
2,4,128,57,0.5601475834846497,0.13830013573169708
2,4,128,58,0.4438345432281494,0.08746393024921417
2,4,128,59,0.3470398485660553,0.26021862030029297
2,4,128,60,0.7702639698982239,0.10975926369428635
2,4,128,61,0.8144728541374207,0.08954006433486938
2,4,128,62,0.5203682780265808,0.20125040411949158
2,4,128,63,0.4433707296848297,0.2555182874202728
2,4,128,64,0.7617766857147217,0.07648906111717224
2,4,128,65,0.4502233862876892,0.24225933849811554
2,4,128,66,0.5501782298088074,0.3212071359157562
2,4,128,67,0.737936794757843,0.13866832852363586
2,4,128,68,0.3990582823753357,0.37120822072029114
2,4,128,69,0.425345242023468,0.17517738044261932
2,4,128,70,0.6712291240692139,0.2251950353384018
2,4,128,71,0.8052836656570435,0.09366750717163086
2,4,128,72,0.6318977475166321,0.18052540719509125
2,4,128,73,0.6840585470199585,0.3073855936527252
2,4,128,74,0.5957759618759155,0.23635360598564148
2,4,128,75,0.6705958247184753,0.327578604221344
2,4,128,76,0.33437907695770264,0.1886269897222519
2,4,128,77,0.35916683077812195,0.11376679688692093
2,4,128,78,0.6696596145629883,0.18768614530563354
2,4,128,79,0.6673207879066467,0.1462397277355194
2,4,128,80,0.622281551361084,0.24909643828868866
2,4,128,81,0.5327748656272888,0.16996805369853973
2,4,128,82,0.42399588227272034,0.19147339463233948
2,4,128,83,0.42344245314598083,0.18492336571216583
2,4,128,84,0.6541513800621033,0.2959219217300415
2,4,128,85,0.8097740411758423,0.09535390883684158
2,4,128,86,0.5420197248458862,0.06485787779092789
2,4,128,87,0.17469847202301025,0.08042740821838379
2,4,128,88,0.4378274977207184,0.062469255179166794
2,4,128,89,0.6354755759239197,0.19828036427497864
2,4,128,90,0.5778478384017944,0.34792035818099976
2,4,128,91,0.4871025085449219,0.10374996066093445
2,4,128,92,0.4333438575267792,0.26630863547325134
2,4,128,93,0.7588451504707336,0.08722168952226639
2,4,128,94,0.6439158916473389,0.04722081869840622
2,4,128,95,0.3730771243572235,0.16059231758117676
2,4,128,96,0.5859492421150208,0.26047834753990173
2,4,128,97,0.8206183314323425,0.08438938856124878
2,4,128,98,0.8502155542373657,0.14181075990200043
2,4,128,99,0.48090943694114685,0.09495227038860321
2,4,128,100,0.7071425318717957,0.11378271132707596
2,4,128,101,0.5216208696365356,0.19738847017288208
2,4,128,102,0.8032280206680298,0.16336387395858765
2,4,128,103,0.6155191659927368,0.311428040266037
2,4,128,104,0.6877156496047974,0.1612928956747055
2,4,128,105,0.6701617240905762,0.3030632436275482
2,4,128,106,0.5395143628120422,0.1497182846069336
2,4,128,107,0.3941378891468048,0.13376668095588684
2,4,128,108,0.6057614684104919,0.1696813553571701
2,4,128,109,0.6445368528366089,0.29914578795433044
2,4,128,110,0.40276825428009033,0.32418131828308105
2,4,128,111,0.6615224480628967,0.13308928906917572
2,4,128,112,0.6634670495986938,0.25928935408592224
2,4,128,113,0.6643434762954712,0.18936780095100403
2,4,128,114,0.5611852407455444,0.13802024722099304
2,4,128,115,0.35476475954055786,0.0907655879855156
2,4,128,116,0.813450038433075,0.0904441550374031
2,4,128,117,0.530441164970398,0.13238464295864105
2,4,128,118,0.6557976007461548,0.08943456411361694
2,4,128,119,0.349932461977005,0.11694600433111191
2,4,128,120,0.6447608470916748,0.07362767308950424
2,4,128,121,0.6354848146438599,0.18915078043937683
2,4,128,122,0.7144057750701904,0.32214000821113586
2,4,128,123,0.8434409499168396,0.08286979794502258
2,4,128,124,0.7051153779029846,0.0707990974187851
2,4,128,125,0.29782572388648987,0.13436652719974518
2,4,128,126,0.661532461643219,0.1398109346628189
2,4,128,127,0.46333059668540955,0.10682640969753265
2,5,128,0,0.5885540246963501,0.11709342896938324
2,5,128,1,0.6827524900436401,0.17286135256290436
2,5,128,2,0.4982309937477112,0.1662168949842453
2,5,128,3,0.6908999085426331,0.05683523416519165
2,5,128,4,0.5751909613609314,0.16852723062038422
2,5,128,5,0.41404542326927185,0.18111293017864227
2,5,128,6,0.6795130372047424,0.13407762348651886
2,5,128,7,0.4595586061477661,0.08101615309715271
2,5,128,8,0.5220037698745728,0.09380778670310974
2,5,128,9,0.7656233906745911,0.1871372014284134
2,5,128,10,0.43709105253219604,0.10343927890062332
2,5,128,11,0.6913827657699585,0.17499969899654388
2,5,128,12,0.6318353414535522,0.2954012453556061
2,5,128,13,0.6164251565933228,0.11911137402057648
2,5,128,14,0.29695942997932434,0.19591571390628815
2,5,128,15,0.7668346762657166,0.07128503173589706
2,5,128,16,0.6897057294845581,0.1402178853750229
2,5,128,17,0.7234544157981873,0.10872676968574524
2,5,128,18,0.7530906796455383,0.1254652738571167
2,5,128,19,0.6142587661743164,0.050234321504831314
2,5,128,20,0.6856974363327026,0.09222251921892166
2,5,128,21,0.6066661477088928,0.05648961663246155
2,5,128,22,0.6946510076522827,0.11698796600103378
2,5,128,23,0.43808603286743164,0.09339704364538193
2,5,128,24,0.7108798623085022,0.0703485757112503
2,5,128,25,0.709831953048706,0.14943554997444153
2,5,128,26,0.5723681449890137,0.1446589231491089
2,5,128,27,0.7376367449760437,0.19756774604320526
2,5,128,28,0.837946355342865,0.1132972240447998
2,5,128,29,0.7157381176948547,0.25003722310066223
2,5,128,30,0.7663664817810059,0.1923229694366455
2,5,128,31,0.7185919284820557,0.10424798727035522
2,5,128,32,0.7445664405822754,0.16241037845611572
2,5,128,33,0.7882376313209534,0.187379851937294
2,5,128,34,0.7363561987876892,0.28056055307388306
2,5,128,35,0.5865907073020935,0.21344013512134552
2,5,128,36,0.6565368175506592,0.2685106694698334
2,5,128,37,0.5241367816925049,0.06793507188558578
2,5,128,38,0.6043768525123596,0.20508597791194916
2,5,128,39,0.8246867656707764,0.15299130976200104
2,5,128,40,0.2604883313179016,0.19613951444625854
2,5,128,41,0.4389711618423462,0.042710158973932266
2,5,128,42,0.6564337611198425,0.26518675684928894
2,5,128,43,0.5199361443519592,0.25155729055404663
2,5,128,44,0.551285445690155,0.21464574337005615
2,5,128,45,0.3219190835952759,0.21939238905906677
2,5,128,46,0.8179693818092346,0.09468226134777069
2,5,128,47,0.5115477442741394,0.053760286420583725
2,5,128,48,0.6437119841575623,0.19010399281978607
2,5,128,49,0.5981206297874451,0.1493179351091385
2,5,128,50,0.6832131743431091,0.06382427364587784
2,5,128,51,0.7012842297554016,0.06783726811408997
2,5,128,52,0.4804605543613434,0.1861007660627365
2,5,128,53,0.8052641153335571,0.12543298304080963
2,5,128,54,0.6523190140724182,0.1234852522611618
2,5,128,55,0.7216541767120361,0.22671769559383392
2,5,128,56,0.7999365329742432,0.08340582996606827
2,5,128,57,0.6287755966186523,0.079740509390831
2,5,128,58,0.7551420331001282,0.1125507652759552
2,5,128,59,0.7338870167732239,0.04598519206047058
2,5,128,60,0.6766478419303894,0.08782436698675156
2,5,128,61,0.7854982614517212,0.1679287552833557
2,5,128,62,0.7387776970863342,0.10941983759403229
2,5,128,63,0.811859667301178,0.12719637155532837
2,5,128,64,0.394377201795578,0.15049144625663757
2,5,128,65,0.6348453164100647,0.0784682109951973
2,5,128,66,0.7808856964111328,0.06911147385835648
2,5,128,67,0.5487121343612671,0.1704406589269638
2,5,128,68,0.6934646368026733,0.056309428066015244
2,5,128,69,0.6748024225234985,0.11768218129873276
2,5,128,70,0.7179720997810364,0.10786772519350052
2,5,128,71,0.7897987961769104,0.09443939477205276
2,5,128,72,0.43465831875801086,0.10491116344928741
2,5,128,73,0.7539275288581848,0.23731273412704468
2,5,128,74,0.8030906915664673,0.13700224459171295
2,5,128,75,0.7858409881591797,0.19414924085140228
2,5,128,76,0.6081995368003845,0.17965862154960632
2,5,128,77,0.18814927339553833,0.10895049571990967
2,5,128,78,0.6966848969459534,0.12380476295948029
2,5,128,79,0.7119728326797485,0.16523900628089905
2,5,128,80,0.6717525720596313,0.3202252686023712
2,5,128,81,0.4276176989078522,0.054201800376176834
2,5,128,82,0.444734662771225,0.11213727295398712
2,5,128,83,0.8188362121582031,0.1483841836452484
2,5,128,84,0.775664210319519,0.0913822203874588
2,5,128,85,0.7760319113731384,0.09885399043560028
2,5,128,86,0.6600999236106873,0.14506803452968597
2,5,128,87,0.6085772514343262,0.1701485961675644
2,5,128,88,0.31709229946136475,0.18535292148590088
2,5,128,89,0.7585746049880981,0.1293298453092575
2,5,128,90,0.7419133186340332,0.12365131080150604
2,5,128,91,0.6850719451904297,0.2066507190465927
2,5,128,92,0.6654074192047119,0.07071374356746674
2,5,128,93,0.48553115129470825,0.03426787629723549
2,5,128,94,0.759709894657135,0.13095179200172424
2,5,128,95,0.4481198191642761,0.07386454194784164
2,5,128,96,0.505005955696106,0.17368462681770325
2,5,128,97,0.8041054010391235,0.14391034841537476
2,5,128,98,0.39221638441085815,0.18149003386497498
2,5,128,99,0.6550569534301758,0.05057591572403908
2,5,128,100,0.7918044328689575,0.17249836027622223
2,5,128,101,0.6627966165542603,0.30083829164505005
2,5,128,102,0.5825519561767578,0.20159532129764557
2,5,128,103,0.6912446618080139,0.08996716141700745
2,5,128,104,0.714084804058075,0.259052038192749
2,5,128,105,0.6627851128578186,0.12987299263477325
2,5,128,106,0.5482111573219299,0.14095436036586761
2,5,128,107,0.6228077411651611,0.1148826852440834
2,5,128,108,0.698981523513794,0.24502086639404297
2,5,128,109,0.45465102791786194,0.20090621709823608
2,5,128,110,0.5317866802215576,0.13768179714679718
2,5,128,111,0.5742759704589844,0.14542219042778015
2,5,128,112,0.8131838440895081,0.1365976184606552
2,5,128,113,0.6859731674194336,0.15527284145355225
2,5,128,114,0.2792799472808838,0.12220187485218048
2,5,128,115,0.541595995426178,0.14047545194625854
2,5,128,116,0.8226729035377502,0.14218473434448242
2,5,128,117,0.7585200071334839,0.08463268727064133
2,5,128,118,0.4642525613307953,0.2337852120399475
2,5,128,119,0.7406454682350159,0.05567476898431778
2,5,128,120,0.7171069383621216,0.18458029627799988
2,5,128,121,0.7216236591339111,0.21758489310741425
2,5,128,122,0.786948025226593,0.14576371014118195
2,5,128,123,0.7437617182731628,0.17341496050357819
2,5,128,124,0.6922741532325745,0.0717845931649208
2,5,128,125,0.7602861523628235,0.2073318213224411
2,5,128,126,0.6293090581893921,0.09926564991474152
2,5,128,127,0.6384052634239197,0.28249597549438477
3,0,32,0,0.5302814245223999,0.17275848984718323
3,0,32,1,0.5078474283218384,0.0407448373734951
3,0,32,2,0.36280325055122375,0.07030022144317627
3,0,32,3,0.3998211920261383,0.0598861500620842
3,0,32,4,0.6252610683441162,0.026921914890408516
3,0,32,5,0.48795655369758606,0.13770364224910736
3,0,32,6,0.3090287446975708,0.13569773733615875
3,0,32,7,0.4023043215274811,0.18312011659145355
3,0,32,8,0.46460089087486267,0.14660203456878662
3,0,32,9,0.4999447464942932,0.08351723849773407
3,0,32,10,0.5583943724632263,0.16817714273929596
3,0,32,11,0.4313848614692688,0.06720739603042603
3,0,32,12,0.37424638867378235,0.11846494674682617
3,0,32,13,0.5330808162689209,0.08123322576284409
3,0,32,14,0.6835281848907471,0.0805404782295227
3,0,32,15,0.42628681659698486,0.06527261435985565
3,0,32,16,0.4358825087547302,0.16438816487789154
3,0,32,17,0.33495843410491943,0.10276374965906143
3,0,32,18,0.44204652309417725,0.06340759247541428
3,0,32,19,0.3949873447418213,0.13553845882415771
3,0,32,20,0.3823850154876709,0.12983010709285736
3,0,32,21,0.5063581466674805,0.06237401068210602
3,0,32,22,0.6284977197647095,0.03958985209465027
3,0,32,23,0.32057085633277893,0.08549563586711884
3,0,32,24,0.44680148363113403,0.1082281544804573
3,0,32,25,0.42239171266555786,0.12031932920217514
3,0,32,26,0.46638062596321106,0.09886593371629715
3,0,32,27,0.41647040843963623,0.13614173233509064
3,0,32,28,0.6123592257499695,0.07427109032869339
3,0,32,29,0.4711538851261139,0.0699705183506012
3,0,32,30,0.7104133367538452,0.12709838151931763
3,0,32,31,0.36259427666664124,0.1462090015411377
3,1,32,0,0.4845940172672272,0.029856298118829727
3,1,32,1,0.47482192516326904,0.1886378973722458
3,1,32,2,0.47376230359077454,0.1194344088435173
3,1,32,3,0.3695412576198578,0.056949421763420105
3,1,32,4,0.5473037362098694,0.1620008796453476
3,1,32,5,0.4217650294303894,0.08242698013782501
3,1,32,6,0.5654828548431396,0.07724925875663757
3,1,32,7,0.55109703540802,0.12506474554538727
3,1,32,8,0.42538556456565857,0.12978310883045197
3,1,32,9,0.48466289043426514,0.13456784188747406
3,1,32,10,0.4336075186729431,0.11451105773448944
3,1,32,11,0.504770040512085,0.14848698675632477
3,1,32,12,0.6544356346130371,0.1334226429462433
3,1,32,13,0.48904427886009216,0.1053800880908966
3,1,32,14,0.5241639614105225,0.14371223747730255
3,1,32,15,0.47395771741867065,0.10346687585115433
3,1,32,16,0.48929262161254883,0.058017801493406296
3,1,32,17,0.5868332386016846,0.11982549726963043
3,1,32,18,0.5340940356254578,0.1035814881324768
3,1,32,19,0.42823103070259094,0.06732507795095444
3,1,32,20,0.47792619466781616,0.07429289817810059
3,1,32,21,0.5251310467720032,0.06054867431521416
3,1,32,22,0.507858395576477,0.0627838596701622
3,1,32,23,0.5989803671836853,0.10643528401851654
3,1,32,24,0.546169102191925,0.11034154891967773
3,1,32,25,0.5593130588531494,0.1445465385913849
3,1,32,26,0.5899625420570374,0.09992514550685883
3,1,32,27,0.43811726570129395,0.21492408215999603
3,1,32,28,0.39890536665916443,0.0971318855881691
3,1,32,29,0.6778138875961304,0.05963168293237686
3,1,32,30,0.5842254161834717,0.01945718750357628
3,1,32,31,0.43602338433265686,0.07567235082387924
3,2,64,0,0.5490909814834595,0.10898281633853912
3,2,64,1,0.6247432827949524,0.13902832567691803
3,2,64,2,0.4906620681285858,0.07567053288221359
3,2,64,3,0.5959927439689636,0.09094008803367615
3,2,64,4,0.39636528491973877,0.18608607351779938
3,2,64,5,0.3875409960746765,0.10726430267095566
3,2,64,6,0.4325140118598938,0.1766544133424759
3,2,64,7,0.5512427687644958,0.14496757090091705
3,2,64,8,0.4508766531944275,0.14722029864788055
3,2,64,9,0.6741379499435425,0.1223287582397461
3,2,64,10,0.46071839332580566,0.15665090084075928
3,2,64,11,0.4890570342540741,0.07858823239803314
3,2,64,12,0.4829980731010437,0.16595333814620972
3,2,64,13,0.4072404205799103,0.22170738875865936
3,2,64,14,0.5267156362533569,0.14187298715114594
3,2,64,15,0.5188899636268616,0.18808111548423767
3,2,64,16,0.5178791284561157,0.23008526861667633
3,2,64,17,0.45798444747924805,0.20456339418888092
3,2,64,18,0.44127050042152405,0.08515492081642151
3,2,64,19,0.4938091039657593,0.15119336545467377
3,2,64,20,0.4170340299606323,0.118174709379673
3,2,64,21,0.46088168025016785,0.10682563483715057
3,2,64,22,0.5381566882133484,0.10074744373559952
3,2,64,23,0.5136445164680481,0.09576466679573059
3,2,64,24,0.4360978305339813,0.11871173977851868
3,2,64,25,0.630133867263794,0.1362444907426834
3,2,64,26,0.31867820024490356,0.1820608675479889
3,2,64,27,0.4986901879310608,0.0812116488814354
3,2,64,28,0.5096099972724915,0.11986372619867325
3,2,64,29,0.5228789448738098,0.07802968472242355
3,2,64,30,0.43336713314056396,0.215631365776062
3,2,64,31,0.4436737895011902,0.2366556078195572
3,2,64,32,0.46020492911338806,0.19699697196483612
3,2,64,33,0.5396748185157776,0.07328201830387115
3,2,64,34,0.5826889276504517,0.13004575669765472
3,2,64,35,0.5090279579162598,0.14018207788467407
3,2,64,36,0.4163872301578522,0.19677120447158813
3,2,64,37,0.40710824728012085,0.06964300572872162
3,2,64,38,0.41801130771636963,0.12503555417060852
3,2,64,39,0.5171043276786804,0.030239760875701904
3,2,64,40,0.6288785934448242,0.11334588378667831
3,2,64,41,0.657374918460846,0.1143626868724823
3,2,64,42,0.36584749817848206,0.12865638732910156
3,2,64,43,0.31534290313720703,0.0847746878862381
3,2,64,44,0.3637469708919525,0.10449578613042831
3,2,64,45,0.4691160321235657,0.20052433013916016
3,2,64,46,0.5441223382949829,0.15908610820770264
3,2,64,47,0.45774826407432556,0.09699270874261856
3,2,64,48,0.5032469630241394,0.17026980221271515
3,2,64,49,0.4868718385696411,0.08422014117240906
3,2,64,50,0.43572768568992615,0.12594027817249298
3,2,64,51,0.4820057153701782,0.1909409612417221
3,2,64,52,0.6626749038696289,0.1480109840631485
3,2,64,53,0.5381020903587341,0.0545930378139019
3,2,64,54,0.6965675354003906,0.1399793177843094
3,2,64,55,0.47818252444267273,0.18165776133537292
3,2,64,56,0.3154117166996002,0.12849196791648865
3,2,64,57,0.38393354415893555,0.12367963045835495
3,2,64,58,0.4995260238647461,0.18031468987464905
3,2,64,59,0.5086482763290405,0.20648452639579773
3,2,64,60,0.6189587116241455,0.09055577963590622
3,2,64,61,0.5539618730545044,0.160403311252594
3,2,64,62,0.577109694480896,0.14536768198013306
3,2,64,63,0.5015843510627747,0.11207079142332077
3,3,64,0,0.379825621843338,0.15048760175704956
3,3,64,1,0.5459426045417786,0.14045053720474243
3,3,64,2,0.44762349128723145,0.12009857594966888
3,3,64,3,0.5162872672080994,0.09188760817050934
3,3,64,4,0.4363650679588318,0.14483042061328888
3,3,64,5,0.5281624794006348,0.09256760030984879
3,3,64,6,0.5082750916481018,0.11804243177175522
3,3,64,7,0.5956976413726807,0.07546944171190262
3,3,64,8,0.5206944346427917,0.07810615748167038
3,3,64,9,0.4817259609699249,0.10762053728103638
3,3,64,10,0.4986305236816406,0.11004766076803207
3,3,64,11,0.47752276062965393,0.17248660326004028
3,3,64,12,0.4432332217693329,0.17297077178955078
3,3,64,13,0.6446859240531921,0.12036921828985214
3,3,64,14,0.5009491443634033,0.2152433842420578
3,3,64,15,0.571864902973175,0.049628980457782745
3,3,64,16,0.5018776655197144,0.1582576334476471
3,3,64,17,0.4525620937347412,0.1644911766052246
3,3,64,18,0.551672101020813,0.09991614520549774
3,3,64,19,0.4933522939682007,0.10521239787340164
3,3,64,20,0.5965346097946167,0.08862113952636719
3,3,64,21,0.5092971324920654,0.04628819227218628
3,3,64,22,0.541926920413971,0.14552634954452515
3,3,64,23,0.44045838713645935,0.14929838478565216
3,3,64,24,0.4418846666812897,0.1707448661327362
3,3,64,25,0.4168051481246948,0.03342384845018387
3,3,64,26,0.5905618667602539,0.0956377312541008
3,3,64,27,0.3787711262702942,0.12626419961452484
3,3,64,28,0.5116429328918457,0.10702352970838547
3,3,64,29,0.5508953332901001,0.1394955813884735
3,3,64,30,0.4952847957611084,0.1267731487751007
3,3,64,31,0.3636194169521332,0.09876148402690887
3,3,64,32,0.5107203125953674,0.1752486526966095
3,3,64,33,0.5136122703552246,0.048580996692180634
3,3,64,34,0.3768722116947174,0.08691549301147461
3,3,64,35,0.45858466625213623,0.05137724429368973
3,3,64,36,0.40283432602882385,0.090948686003685
3,3,64,37,0.4431285560131073,0.14861281216144562
3,3,64,38,0.48160210251808167,0.15320943295955658
3,3,64,39,0.39886239171028137,0.11467019468545914
3,3,64,40,0.6363568305969238,0.11997043341398239
3,3,64,41,0.49125346541404724,0.15134203433990479
3,3,64,42,0.43136242032051086,0.13933970034122467
3,3,64,43,0.5130720138549805,0.12814363837242126
3,3,64,44,0.42622652649879456,0.10060681402683258
3,3,64,45,0.4626700282096863,0.20349456369876862
3,3,64,46,0.5736702680587769,0.15084505081176758
3,3,64,47,0.42033976316452026,0.05082983523607254
3,3,64,48,0.5717239379882812,0.13955850899219513
3,3,64,49,0.5286546945571899,0.14786772429943085
3,3,64,50,0.5098518133163452,0.10528047382831573
3,3,64,51,0.40344780683517456,0.09195594489574432
3,3,64,52,0.5733933448791504,0.14467938244342804
3,3,64,53,0.582399845123291,0.12994623184204102
3,3,64,54,0.615267276763916,0.06452176719903946
3,3,64,55,0.5524585247039795,0.11442799866199493
3,3,64,56,0.46787476539611816,0.114513099193573
3,3,64,57,0.5291122198104858,0.10461002588272095
3,3,64,58,0.41720104217529297,0.19120894372463226
3,3,64,59,0.5851603150367737,0.06869804114103317
3,3,64,60,0.38097167015075684,0.09815942496061325
3,3,64,61,0.4164528250694275,0.13916872441768646
3,3,64,62,0.44300171732902527,0.13962766528129578
3,3,64,63,0.47275614738464355,0.08065206557512283
3,4,128,0,0.6897231936454773,0.07841546833515167
3,4,128,1,0.5840977430343628,0.21126510202884674
3,4,128,2,0.6482911705970764,0.11288680881261826
3,4,128,3,0.4394412636756897,0.2769600450992584
3,4,128,4,0.6143324971199036,0.1523030549287796
3,4,128,5,0.40321364998817444,0.19617079198360443
3,4,128,6,0.76123046875,0.12890785932540894
3,4,128,7,0.30890530347824097,0.11344733834266663
3,4,128,8,0.3832797408103943,0.06616361439228058
3,4,128,9,0.3951334059238434,0.2678191661834717
3,4,128,10,0.3687685430049896,0.24655210971832275
3,4,128,11,0.2946736812591553,0.10661443322896957
3,4,128,12,0.6726917028427124,0.2889397144317627
3,4,128,13,0.36060023307800293,0.12108917534351349
3,4,128,14,0.7324573993682861,0.10152087360620499
3,4,128,15,0.6627318263053894,0.1896047443151474
3,4,128,16,0.5958995819091797,0.06364842504262924
3,4,128,17,0.6368933320045471,0.15573619306087494
3,4,128,18,0.5598894953727722,0.11504111438989639
3,4,128,19,0.2796717882156372,0.13004109263420105
3,4,128,20,0.6280319094657898,0.03727535903453827
3,4,128,21,0.4756745398044586,0.05783424526453018
3,4,128,22,0.2782216966152191,0.1113337054848671
3,4,128,23,0.5452002286911011,0.12622186541557312
3,4,128,24,0.5756065249443054,0.13656271994113922
3,4,128,25,0.6843584179878235,0.2577621638774872
3,4,128,26,0.46743738651275635,0.16641514003276825
3,4,128,27,0.3961232006549835,0.13666874170303345
3,4,128,28,0.5662097334861755,0.1826322376728058
3,4,128,29,0.35264110565185547,0.20026907324790955
3,4,128,30,0.7396563291549683,0.1470324695110321
3,4,128,31,0.29063886404037476,0.1336469054222107
3,4,128,32,0.5599300265312195,0.22828707098960876
3,4,128,33,0.5389171242713928,0.12271936982870102
3,4,128,34,0.6026936769485474,0.08310868591070175
3,4,128,35,0.5381455421447754,0.13373446464538574
3,4,128,36,0.5133854746818542,0.16811668872833252
3,4,128,37,0.6666103601455688,0.26174142956733704
3,4,128,38,0.5893002152442932,0.22860728204250336
3,4,128,39,0.7460426092147827,0.1888403296470642
3,4,128,40,0.6345498561859131,0.2645340859889984
3,4,128,41,0.38843950629234314,0.209112748503685
3,4,128,42,0.8159095644950867,0.10010684281587601
3,4,128,43,0.6898589730262756,0.22575820982456207
3,4,128,44,0.7055090665817261,0.21659907698631287
3,4,128,45,0.4905282258987427,0.06486137956380844
3,4,128,46,0.4838075637817383,0.16184835135936737
3,4,128,47,0.32397428154945374,0.1342354416847229
3,4,128,48,0.7091732621192932,0.32243168354034424
3,4,128,49,0.7285074591636658,0.12138010561466217
3,4,128,50,0.666317880153656,0.22037877142429352
3,4,128,51,0.36446046829223633,0.21556489169597626
3,4,128,52,0.6430492401123047,0.2809515595436096
3,4,128,53,0.7300387024879456,0.07408066093921661
3,4,128,54,0.39153850078582764,0.08779335021972656
3,4,128,55,0.8006579875946045,0.10322258621454239
3,4,128,56,0.3460511565208435,0.30809348821640015
3,4,128,57,0.7232607007026672,0.17453256249427795
3,4,128,58,0.7451783418655396,0.10342413932085037
3,4,128,59,0.28418001532554626,0.11850891262292862
3,4,128,60,0.40994277596473694,0.09322254359722137
3,4,128,61,0.7552568316459656,0.16319693624973297
3,4,128,62,0.8302345275878906,0.08932831138372421
3,4,128,63,0.6393799185752869,0.26878622174263
3,4,128,64,0.32806316018104553,0.2041161209344864
3,4,128,65,0.7518776059150696,0.13038498163223267
3,4,128,66,0.7025027871131897,0.23201227188110352
3,4,128,67,0.37414541840553284,0.23551687598228455
3,4,128,68,0.571456253528595,0.11906416714191437
3,4,128,69,0.5204361081123352,0.17182718217372894
3,4,128,70,0.4208555519580841,0.11074172705411911
3,4,128,71,0.3527469038963318,0.2597237527370453
3,4,128,72,0.6901019811630249,0.2765771746635437
3,4,128,73,0.49645620584487915,0.18159827589988708
3,4,128,74,0.6466600298881531,0.25314921140670776
3,4,128,75,0.6710360050201416,0.25712600350379944
3,4,128,76,0.668677806854248,0.12356918305158615
3,4,128,77,0.7678707242012024,0.16722099483013153
3,4,128,78,0.3208819329738617,0.10391002148389816
3,4,128,79,0.375892698764801,0.2770575284957886
3,4,128,80,0.6174851655960083,0.28092145919799805
3,4,128,81,0.7066119909286499,0.32947900891304016
3,4,128,82,0.32473158836364746,0.09536945819854736
3,4,128,83,0.544800341129303,0.0733703151345253
3,4,128,84,0.6731897592544556,0.14440692961215973
3,4,128,85,0.7290201187133789,0.19278261065483093
3,4,128,86,0.7229205965995789,0.13010914623737335
3,4,128,87,0.6429493427276611,0.12860170006752014
3,4,128,88,0.4835333526134491,0.16682186722755432
3,4,128,89,0.36349034309387207,0.08827085793018341
3,4,128,90,0.6468966007232666,0.13864591717720032
3,4,128,91,0.6950283050537109,0.17315754294395447
3,4,128,92,0.7233315110206604,0.3048160970211029
3,4,128,93,0.5536085963249207,0.0737413614988327
3,4,128,94,0.41509655117988586,0.2813066840171814
3,4,128,95,0.6994656920433044,0.23183976113796234
3,4,128,96,0.756235659122467,0.07822924852371216
3,4,128,97,0.7402760982513428,0.20029814541339874
3,4,128,98,0.46265509724617004,0.17655041813850403
3,4,128,99,0.7385513186454773,0.12116912007331848
3,4,128,100,0.5859050750732422,0.07554079592227936
3,4,128,101,0.255467027425766,0.11818979680538177
3,4,128,102,0.6040754914283752,0.1130247637629509
3,4,128,103,0.7738730907440186,0.12107142060995102
3,4,128,104,0.7127788662910461,0.10359882563352585
3,4,128,105,0.4294198453426361,0.15317058563232422
3,4,128,106,0.3731527328491211,0.20967262983322144
3,4,128,107,0.7144118547439575,0.14978379011154175
3,4,128,108,0.6012199521064758,0.08517615497112274
3,4,128,109,0.5008097290992737,0.17243991792201996
3,4,128,110,0.6152793765068054,0.11171628534793854
3,4,128,111,0.43661803007125854,0.0863531157374382
3,4,128,112,0.6590562462806702,0.2634745240211487
3,4,128,113,0.6543331742286682,0.15956485271453857
3,4,128,114,0.7601658701896667,0.08033697307109833
3,4,128,115,0.45985814929008484,0.15046100318431854
3,4,128,116,0.7148332595825195,0.19604602456092834
3,4,128,117,0.3413597047328949,0.11429959535598755
3,4,128,118,0.6884613633155823,0.17897024750709534
3,4,128,119,0.7218616604804993,0.12042500823736191
3,4,128,120,0.7141987681388855,0.0662837028503418
3,4,128,121,0.4019138216972351,0.1984338015317917
3,4,128,122,0.6893498301506042,0.239926278591156
3,4,128,123,0.5796757936477661,0.07586806267499924
3,4,128,124,0.47506803274154663,0.11309996992349625
3,4,128,125,0.27904224395751953,0.07326389849185944
3,4,128,126,0.4512172341346741,0.23361752927303314
3,4,128,127,0.2607453465461731,0.07056505978107452
3,5,128,0,0.6211128830909729,0.16999460756778717
3,5,128,1,0.4229215681552887,0.13214890658855438
3,5,128,2,0.7423995137214661,0.1733737289905548
3,5,128,3,0.8130174279212952,0.2003779113292694
3,5,128,4,0.5915054082870483,0.16134734451770782
3,5,128,5,0.6670463681221008,0.09485596418380737
3,5,128,6,0.7980945110321045,0.22626887261867523
3,5,128,7,0.8525457382202148,0.0991874411702156
3,5,128,8,0.7597396969795227,0.1382344365119934
3,5,128,9,0.24787062406539917,0.2229345738887787
3,5,128,10,0.6453693509101868,0.1600961536169052
3,5,128,11,0.3404577374458313,0.17727725207805634
3,5,128,12,0.6996892094612122,0.20482756197452545
3,5,128,13,0.7081657648086548,0.2059299796819687
3,5,128,14,0.5160689353942871,0.1262822300195694
3,5,128,15,0.7873076796531677,0.22005914151668549
3,5,128,16,0.5972518920898438,0.14103077352046967
3,5,128,17,0.7613388895988464,0.11733070760965347
3,5,128,18,0.7009379863739014,0.12061818689107895
3,5,128,19,0.7416666150093079,0.1734548658132553
3,5,128,20,0.7434348464012146,0.2706984877586365
3,5,128,21,0.5206769108772278,0.15348611772060394
3,5,128,22,0.7147579789161682,0.048234373331069946
3,5,128,23,0.23990026116371155,0.12616869807243347
3,5,128,24,0.8164941668510437,0.15383280813694
3,5,128,25,0.8014935851097107,0.2095554918050766
3,5,128,26,0.7940072417259216,0.08394892513751984
3,5,128,27,0.48567694425582886,0.1940278261899948
3,5,128,28,0.5752503871917725,0.07828264683485031
3,5,128,29,0.629803478717804,0.09534575045108795
3,5,128,30,0.7968361377716064,0.09227128326892853
3,5,128,31,0.5708819031715393,0.10852433741092682
3,5,128,32,0.741811990737915,0.056769486516714096
3,5,128,33,0.29320812225341797,0.2966964542865753
3,5,128,34,0.8186042308807373,0.15352557599544525
3,5,128,35,0.8406556844711304,0.11715134233236313
3,5,128,36,0.5045875906944275,0.11150556057691574
3,5,128,37,0.7846239805221558,0.07822929322719574
3,5,128,38,0.8281727433204651,0.14961625635623932
3,5,128,39,0.7229089736938477,0.16008375585079193
3,5,128,40,0.7815243601799011,0.2435838133096695
3,5,128,41,0.2086988091468811,0.1062401682138443
3,5,128,42,0.8170575499534607,0.15485377609729767
3,5,128,43,0.8054645657539368,0.20263803005218506
3,5,128,44,0.7582498788833618,0.2809736728668213
3,5,128,45,0.6183502078056335,0.08855244517326355
3,5,128,46,0.6152523756027222,0.1432504802942276
3,5,128,47,0.6062325835227966,0.12597772479057312
3,5,128,48,0.7872331738471985,0.10831115394830704
3,5,128,49,0.8278700113296509,0.1457221359014511
3,5,128,50,0.5756314396858215,0.09716541320085526
3,5,128,51,0.3600105345249176,0.27742958068847656
3,5,128,52,0.7106186747550964,0.07186011224985123
3,5,128,53,0.7931737899780273,0.16642457246780396
3,5,128,54,0.7728952765464783,0.1408877968788147
3,5,128,55,0.7953623533248901,0.21949510276317596
3,5,128,56,0.7463114261627197,0.23159682750701904
3,5,128,57,0.5620973110198975,0.17111261188983917
3,5,128,58,0.7647520303726196,0.12287327647209167
3,5,128,59,0.5788940787315369,0.10899889469146729
3,5,128,60,0.5314160585403442,0.12517215311527252
3,5,128,61,0.8242397308349609,0.11930549889802933
3,5,128,62,0.8151076436042786,0.16972750425338745
3,5,128,63,0.8415161371231079,0.15929722785949707
3,5,128,64,0.770388126373291,0.17800301313400269
3,5,128,65,0.7890477180480957,0.24848806858062744
3,5,128,66,0.8703050017356873,0.10704849660396576
3,5,128,67,0.8203802108764648,0.12442423403263092
3,5,128,68,0.8575093746185303,0.11079642921686172
3,5,128,69,0.7389307022094727,0.20048336684703827
3,5,128,70,0.412161260843277,0.20193791389465332
3,5,128,71,0.5671539306640625,0.1184060350060463
3,5,128,72,0.8030648231506348,0.16950570046901703
3,5,128,73,0.3505650758743286,0.2864237129688263
3,5,128,74,0.25567734241485596,0.23399585485458374
3,5,128,75,0.2925955355167389,0.2701811194419861
3,5,128,76,0.6366655826568604,0.03103991039097309
3,5,128,77,0.8006717562675476,0.21212822198867798
3,5,128,78,0.42753785848617554,0.2324293702840805
3,5,128,79,0.29858630895614624,0.264579713344574
3,5,128,80,0.7595658302307129,0.23548072576522827
3,5,128,81,0.7855126857757568,0.09530459344387054
3,5,128,82,0.4162226915359497,0.25640541315078735
3,5,128,83,0.7670437693595886,0.24767930805683136
3,5,128,84,0.8143613934516907,0.1385362595319748
3,5,128,85,0.8320044279098511,0.1697530299425125
3,5,128,86,0.8021355271339417,0.20364561676979065
3,5,128,87,0.8386552929878235,0.23089191317558289
3,5,128,88,0.27132904529571533,0.2493380904197693
3,5,128,89,0.6774858236312866,0.22862975299358368
3,5,128,90,0.6406026482582092,0.10112905502319336
3,5,128,91,0.6373011469841003,0.10653728991746902
3,5,128,92,0.8259225487709045,0.12987378239631653
3,5,128,93,0.5425280928611755,0.060075849294662476
3,5,128,94,0.39164304733276367,0.27285581827163696
3,5,128,95,0.7363502383232117,0.2882223129272461
3,5,128,96,0.5926549434661865,0.1994628608226776
3,5,128,97,0.7221649885177612,0.23813003301620483
3,5,128,98,0.8496048450469971,0.08898021280765533
3,5,128,99,0.6509092450141907,0.11583255976438522
3,5,128,100,0.44117677211761475,0.0431826151907444
3,5,128,101,0.6809117794036865,0.14617544412612915
3,5,128,102,0.7434626221656799,0.08894374966621399
3,5,128,103,0.7103530764579773,0.22083979845046997
3,5,128,104,0.758696973323822,0.14253269135951996
3,5,128,105,0.7613911032676697,0.17671100795269012
3,5,128,106,0.3814907670021057,0.12684352695941925
3,5,128,107,0.8061737418174744,0.20771212875843048
3,5,128,108,0.8543238639831543,0.15998245775699615
3,5,128,109,0.5551126003265381,0.047961488366127014
3,5,128,110,0.6524881720542908,0.09789428859949112
3,5,128,111,0.415806382894516,0.07853957265615463
3,5,128,112,0.652633786201477,0.20818112790584564
3,5,128,113,0.6416318416595459,0.12314141541719437
3,5,128,114,0.7705667018890381,0.10785651206970215
3,5,128,115,0.7603866457939148,0.23133280873298645
3,5,128,116,0.8274568915367126,0.1391633003950119
3,5,128,117,0.42262476682662964,0.14681881666183472
3,5,128,118,0.7561757564544678,0.2819652259349823
3,5,128,119,0.6386615633964539,0.09244193881750107
3,5,128,120,0.791275143623352,0.08897136896848679
3,5,128,121,0.7279609441757202,0.14378373324871063
3,5,128,122,0.7800301909446716,0.1298290193080902
3,5,128,123,0.7521471977233887,0.17509393393993378
3,5,128,124,0.44490331411361694,0.03868969529867172
3,5,128,125,0.5322065353393555,0.09561711549758911
3,5,128,126,0.7295205593109131,0.12381508201360703
3,5,128,127,0.44949498772621155,0.16663917899131775
4,0,32,0,0.44751062989234924,0.058064982295036316
4,0,32,1,0.5301502346992493,0.04773218184709549
4,0,32,2,0.5306271314620972,0.031919047236442566
4,0,32,3,0.5666666030883789,0.039235010743141174
4,0,32,4,0.4762687385082245,0.06295217573642731
4,0,32,5,0.3957887589931488,0.14195729792118073
4,0,32,6,0.4696754515171051,0.1678064912557602
4,0,32,7,0.4163178503513336,0.0574469268321991
4,0,32,8,0.6478303074836731,0.08044948428869247
4,0,32,9,0.32257142663002014,0.03497617319226265
4,0,32,10,0.42335057258605957,0.07669816166162491
4,0,32,11,0.3742331862449646,0.05990704521536827
4,0,32,12,0.5007523894309998,0.057547856122255325
4,0,32,13,0.5050528645515442,0.04064084216952324
4,0,32,14,0.47132378816604614,0.04445701465010643
4,0,32,15,0.38083502650260925,0.07726137340068817
4,0,32,16,0.6331144571304321,0.03890496492385864
4,0,32,17,0.4143421947956085,0.04082299768924713
4,0,32,18,0.4253261089324951,0.10784223675727844
4,0,32,19,0.5550940632820129,0.09985852986574173
4,0,32,20,0.4369982182979584,0.07833897322416306
4,0,32,21,0.4221189618110657,0.08243457973003387
4,0,32,22,0.4945094883441925,0.031932830810546875
4,0,32,23,0.3143879175186157,0.08531614392995834
4,0,32,24,0.6276618242263794,0.08514221757650375
4,0,32,25,0.504688024520874,0.1583569347858429
4,0,32,26,0.5658901929855347,0.050851888954639435
4,0,32,27,0.45278283953666687,0.1208251416683197
4,0,32,28,0.5766111612319946,0.06413804739713669
4,0,32,29,0.43285924196243286,0.11137045919895172
4,0,32,30,0.4677225351333618,0.07979531586170197
4,0,32,31,0.39575791358947754,0.17420457303524017
4,1,32,0,0.43360838294029236,0.0661759227514267
4,1,32,1,0.6248407363891602,0.05571378022432327
4,1,32,2,0.3124615550041199,0.0386112742125988
4,1,32,3,0.6443800926208496,0.09797025471925735
4,1,32,4,0.458182692527771,0.05696305260062218
4,1,32,5,0.4216236472129822,0.07754871249198914
4,1,32,6,0.6242378950119019,0.1338857263326645
4,1,32,7,0.32548025250434875,0.06942851841449738
4,1,32,8,0.41224464774131775,0.07273872196674347
4,1,32,9,0.409473180770874,0.024287890642881393
4,1,32,10,0.5344377756118774,0.08630688488483429
4,1,32,11,0.6203604340553284,0.0811360776424408
4,1,32,12,0.6297935843467712,0.06916984170675278
4,1,32,13,0.4617864191532135,0.11847905814647675
4,1,32,14,0.5792577862739563,0.05108669772744179
4,1,32,15,0.45919522643089294,0.05549699440598488
4,1,32,16,0.4273074269294739,0.07562541961669922
4,1,32,17,0.6164795160293579,0.07267918437719345
4,1,32,18,0.37471804022789,0.11488444358110428
4,1,32,19,0.4454421401023865,0.07060453295707703
4,1,32,20,0.4841954708099365,0.11412229388952255
4,1,32,21,0.48075157403945923,0.03493901342153549
4,1,32,22,0.5933013558387756,0.04690041020512581
4,1,32,23,0.6562003493309021,0.11175117641687393
4,1,32,24,0.5355247259140015,0.07124371081590652
4,1,32,25,0.4758797883987427,0.11245732754468918
4,1,32,26,0.42471131682395935,0.07169730961322784
4,1,32,27,0.5805953741073608,0.07987464964389801
4,1,32,28,0.45204776525497437,0.05718372017145157
4,1,32,29,0.43339890241622925,0.059312038123607635
4,1,32,30,0.5670691728591919,0.05592231824994087
4,1,32,31,0.4367747902870178,0.09545585513114929
4,2,64,0,0.5066083669662476,0.07366952300071716
4,2,64,1,0.3890424072742462,0.11969691514968872
4,2,64,2,0.58465975522995,0.10302869975566864
4,2,64,3,0.4779787063598633,0.10853606462478638
4,2,64,4,0.42684394121170044,0.15053893625736237
4,2,64,5,0.4298403859138489,0.1790454089641571
4,2,64,6,0.4981309771537781,0.029653282836079597
4,2,64,7,0.48956260085105896,0.09617204964160919
4,2,64,8,0.445416122674942,0.06892354786396027
4,2,64,9,0.46099573373794556,0.02735445648431778
4,2,64,10,0.49222543835639954,0.027318619191646576
4,2,64,11,0.3932117223739624,0.07900924235582352
4,2,64,12,0.5142189264297485,0.12970812618732452
4,2,64,13,0.5207268595695496,0.07555490732192993
4,2,64,14,0.5299968123435974,0.14482057094573975
4,2,64,15,0.6012097597122192,0.1436985433101654
4,2,64,16,0.511552095413208,0.041808512061834335
4,2,64,17,0.517115592956543,0.07266053557395935
4,2,64,18,0.4969630837440491,0.10042508691549301
4,2,64,19,0.42636027932167053,0.17234481871128082
4,2,64,20,0.49024292826652527,0.106449194252491
4,2,64,21,0.514965832233429,0.19466012716293335
4,2,64,22,0.5311208963394165,0.08682265877723694
4,2,64,23,0.3936159014701843,0.12138956785202026
4,2,64,24,0.4875984489917755,0.057383932173252106
4,2,64,25,0.3789776861667633,0.13408994674682617
4,2,64,26,0.43927863240242004,0.0393642857670784
4,2,64,27,0.4202839136123657,0.1302882581949234
4,2,64,28,0.6271920204162598,0.13662001490592957
4,2,64,29,0.5493807196617126,0.1150195300579071
4,2,64,30,0.5743361711502075,0.054529283195734024
4,2,64,31,0.41271716356277466,0.11503150314092636
4,2,64,32,0.44314277172088623,0.11649511009454727
4,2,64,33,0.5143059492111206,0.03755204752087593
4,2,64,34,0.4372245669364929,0.176420196890831
4,2,64,35,0.4379994571208954,0.21417969465255737
4,2,64,36,0.38010373711586,0.10291896015405655
4,2,64,37,0.4182251989841461,0.04043126851320267
4,2,64,38,0.3657430410385132,0.059856656938791275
4,2,64,39,0.6047025918960571,0.09282746911048889
4,2,64,40,0.48209264874458313,0.04940678924322128
4,2,64,41,0.482256680727005,0.13196131587028503
4,2,64,42,0.376583456993103,0.11731582880020142
4,2,64,43,0.3239351511001587,0.13673098385334015
4,2,64,44,0.471728652715683,0.05024464428424835
4,2,64,45,0.43148332834243774,0.1337975412607193
4,2,64,46,0.4751151502132416,0.09871495515108109
4,2,64,47,0.4763897955417633,0.08661594986915588
4,2,64,48,0.605911135673523,0.08855319023132324
4,2,64,49,0.4424175024032593,0.1663002222776413
4,2,64,50,0.4364595413208008,0.153055340051651
4,2,64,51,0.5606820583343506,0.08775929361581802
4,2,64,52,0.539067804813385,0.11864044517278671
4,2,64,53,0.5310325026512146,0.08404169976711273
4,2,64,54,0.464260458946228,0.10454078018665314
4,2,64,55,0.49708622694015503,0.061408404260873795
4,2,64,56,0.3378264904022217,0.14242322742938995
4,2,64,57,0.4701054096221924,0.10181848704814911
4,2,64,58,0.45102551579475403,0.08511053025722504
4,2,64,59,0.6248329877853394,0.14300104975700378
4,2,64,60,0.5328655242919922,0.12857283651828766
4,2,64,61,0.5624473690986633,0.15061436593532562
4,2,64,62,0.673245906829834,0.1402650624513626
4,2,64,63,0.4207304120063782,0.106476329267025
4,3,64,0,0.5616249442100525,0.18951036036014557
4,3,64,1,0.5263074636459351,0.11194761842489243
4,3,64,2,0.5993441343307495,0.2306922823190689
4,3,64,3,0.47480159997940063,0.12259110063314438
4,3,64,4,0.4464610815048218,0.10245711356401443
4,3,64,5,0.529283881187439,0.2489616721868515
4,3,64,6,0.4969840943813324,0.09233127534389496
4,3,64,7,0.4856919050216675,0.1412055641412735
4,3,64,8,0.42788824439048767,0.2332046777009964
4,3,64,9,0.5560599565505981,0.12400664389133453
4,3,64,10,0.692446768283844,0.10148830711841583
4,3,64,11,0.29710277915000916,0.07721628248691559
4,3,64,12,0.5377358198165894,0.22103770077228546
4,3,64,13,0.7532545328140259,0.12159514427185059
4,3,64,14,0.5311345458030701,0.16714438796043396
4,3,64,15,0.31982603669166565,0.06091824918985367
4,3,64,16,0.5200805068016052,0.14295192062854767
4,3,64,17,0.5645860433578491,0.1458808332681656
4,3,64,18,0.393741250038147,0.19608068466186523
4,3,64,19,0.5778143405914307,0.2378242313861847
4,3,64,20,0.5200623273849487,0.11808958649635315
4,3,64,21,0.5316311120986938,0.11605733633041382
4,3,64,22,0.5472370982170105,0.10158582776784897
4,3,64,23,0.40934354066848755,0.19721853733062744
4,3,64,24,0.39799389243125916,0.18902860581874847
4,3,64,25,0.5142512321472168,0.1284828931093216
4,3,64,26,0.4024338722229004,0.09508459270000458
4,3,64,27,0.6113343834877014,0.054184652864933014
4,3,64,28,0.4777596592903137,0.14376531541347504
4,3,64,29,0.5758400559425354,0.07502824068069458
4,3,64,30,0.41493430733680725,0.14724195003509521
4,3,64,31,0.45775583386421204,0.11742420494556427
4,3,64,32,0.38874560594558716,0.18185275793075562
4,3,64,33,0.42769452929496765,0.10958141088485718
4,3,64,34,0.527475118637085,0.14196278154850006
4,3,64,35,0.5486616492271423,0.27173441648483276
4,3,64,36,0.5123077034950256,0.048136480152606964
4,3,64,37,0.4936273396015167,0.05914747714996338
4,3,64,38,0.32705435156822205,0.15107643604278564
4,3,64,39,0.734282374382019,0.15758006274700165
4,3,64,40,0.5998297333717346,0.18027395009994507
4,3,64,41,0.618545651435852,0.07799770683050156
4,3,64,42,0.5819339752197266,0.15038694441318512
4,3,64,43,0.5198509693145752,0.1336730271577835
4,3,64,44,0.3423178493976593,0.11205404251813889
4,3,64,45,0.5631656050682068,0.24275192618370056
4,3,64,46,0.4717324376106262,0.14430662989616394
4,3,64,47,0.6038978099822998,0.10267786681652069
4,3,64,48,0.38725873827934265,0.14246831834316254
4,3,64,49,0.4980451762676239,0.2272224873304367
4,3,64,50,0.4186924397945404,0.23538509011268616
4,3,64,51,0.5630750060081482,0.19146452844142914
4,3,64,52,0.46183207631111145,0.13289594650268555
4,3,64,53,0.6679700016975403,0.16705992817878723
4,3,64,54,0.5089569091796875,0.13083960115909576
4,3,64,55,0.4749138355255127,0.10074002295732498
4,3,64,56,0.4765963554382324,0.1901445835828781
4,3,64,57,0.5735552310943604,0.15566258132457733
4,3,64,58,0.6923511624336243,0.09901464730501175
4,3,64,59,0.4923093914985657,0.23040756583213806
4,3,64,60,0.5002500414848328,0.22404314577579498
4,3,64,61,0.40023109316825867,0.15291361510753632
4,3,64,62,0.5333025455474854,0.08759049326181412
4,3,64,63,0.42750534415245056,0.1649671345949173
4,4,128,0,0.7024572491645813,0.09780966490507126
4,4,128,1,0.42322030663490295,0.22507552802562714
4,4,128,2,0.5407659411430359,0.23087944090366364
4,4,128,3,0.5766011476516724,0.13297335803508759
4,4,128,4,0.6152418851852417,0.05047503486275673
4,4,128,5,0.47935476899147034,0.2527461349964142
4,4,128,6,0.44678717851638794,0.15481416881084442
4,4,128,7,0.3314583897590637,0.12114745378494263
4,4,128,8,0.5055637955665588,0.12015996128320694
4,4,128,9,0.6375733613967896,0.24001649022102356
4,4,128,10,0.5902000069618225,0.16994431614875793
4,4,128,11,0.40480634570121765,0.26167526841163635
4,4,128,12,0.44105735421180725,0.17006543278694153
4,4,128,13,0.4456515610218048,0.11462599039077759
4,4,128,14,0.6760703325271606,0.15708346664905548
4,4,128,15,0.5041385293006897,0.09083984047174454
4,4,128,16,0.6044335961341858,0.14336581528186798
4,4,128,17,0.4616265594959259,0.16577644646167755
4,4,128,18,0.6859380602836609,0.08362146466970444
4,4,128,19,0.44223350286483765,0.27622002363204956
4,4,128,20,0.49480655789375305,0.08895694464445114
4,4,128,21,0.7669315338134766,0.08323609083890915
4,4,128,22,0.3484570384025574,0.09002991020679474
4,4,128,23,0.498173326253891,0.1829502135515213
4,4,128,24,0.452472448348999,0.18019965291023254
4,4,128,25,0.4596303701400757,0.1287856101989746
4,4,128,26,0.25047293305397034,0.08214405179023743
4,4,128,27,0.36672085523605347,0.13599106669425964
4,4,128,28,0.629004716873169,0.1008475199341774
4,4,128,29,0.6010956764221191,0.15935546159744263
4,4,128,30,0.5563170909881592,0.25846806168556213
4,4,128,31,0.5890856981277466,0.1001143679022789
4,4,128,32,0.4032655656337738,0.06076119840145111
4,4,128,33,0.6558129191398621,0.2096562534570694
4,4,128,34,0.6044771075248718,0.09891454875469208
4,4,128,35,0.46696311235427856,0.13907445967197418
4,4,128,36,0.4522733688354492,0.20733444392681122
4,4,128,37,0.3647178113460541,0.09553995728492737
4,4,128,38,0.4533211886882782,0.10217057168483734
4,4,128,39,0.32696202397346497,0.07560376077890396
4,4,128,40,0.40344661474227905,0.11197499185800552
4,4,128,41,0.7263271808624268,0.10376277565956116
4,4,128,42,0.6828833222389221,0.08446516841650009
4,4,128,43,0.7043949365615845,0.2251550704240799
4,4,128,44,0.6208660006523132,0.12297680974006653
4,4,128,45,0.528468906879425,0.1585083156824112
4,4,128,46,0.38071563839912415,0.05891180410981178
4,4,128,47,0.5304221510887146,0.06818068027496338
4,4,128,48,0.48628875613212585,0.08616221696138382
4,4,128,49,0.5128024816513062,0.19926631450653076
4,4,128,50,0.6194556951522827,0.21406537294387817
4,4,128,51,0.5828917026519775,0.14185990393161774
4,4,128,52,0.5228908658027649,0.1889221966266632
4,4,128,53,0.48663032054901123,0.2368171215057373
4,4,128,54,0.5690221786499023,0.10394168645143509
4,4,128,55,0.7804191708564758,0.0881882756948471
4,4,128,56,0.7749772071838379,0.08528807759284973
4,4,128,57,0.5415777564048767,0.12972742319107056
4,4,128,58,0.605217456817627,0.13449212908744812
4,4,128,59,0.6160458922386169,0.12357237190008163
4,4,128,60,0.6131849884986877,0.09405438601970673
4,4,128,61,0.5672702789306641,0.16676057875156403
4,4,128,62,0.6855030655860901,0.14200268685817719
4,4,128,63,0.4908348321914673,0.16254529356956482
4,4,128,64,0.5510902404785156,0.10275156050920486
4,4,128,65,0.6956077218055725,0.10629625618457794
4,4,128,66,0.514983057975769,0.2015572190284729
4,4,128,67,0.6954240202903748,0.2512071132659912
4,4,128,68,0.33560797572135925,0.18303652107715607
4,4,128,69,0.46069613099098206,0.10304681211709976
4,4,128,70,0.48175865411758423,0.1840665340423584
4,4,128,71,0.6065894365310669,0.1520264744758606
4,4,128,72,0.33376505970954895,0.08379961550235748
4,4,128,73,0.44687730073928833,0.26863667368888855
4,4,128,74,0.5415225625038147,0.22925256192684174
4,4,128,75,0.6335573196411133,0.07131501287221909
4,4,128,76,0.5131707191467285,0.20886129140853882
4,4,128,77,0.41093698143959045,0.23617658019065857
4,4,128,78,0.6134278178215027,0.3325667381286621
4,4,128,79,0.6093397736549377,0.32120198011398315
4,4,128,80,0.6366621851921082,0.3136090040206909
4,4,128,81,0.537132740020752,0.1917671263217926
4,4,128,82,0.46888652443885803,0.0903935357928276
4,4,128,83,0.43850892782211304,0.3217984139919281
4,4,128,84,0.43142029643058777,0.19171392917633057
4,4,128,85,0.6643224954605103,0.2590044140815735
4,4,128,86,0.6663158535957336,0.29742762446403503
4,4,128,87,0.52726811170578,0.09419704973697662
4,4,128,88,0.2714100182056427,0.1281076818704605
4,4,128,89,0.7126156687736511,0.13983844220638275
4,4,128,90,0.7537063360214233,0.09162168204784393
4,4,128,91,0.5084971785545349,0.24638856947422028
4,4,128,92,0.5360986590385437,0.11496405303478241
4,4,128,93,0.5884099006652832,0.11841008812189102
4,4,128,94,0.4536826014518738,0.18262332677841187
4,4,128,95,0.61247318983078,0.20304828882217407
4,4,128,96,0.6672816872596741,0.09283529967069626
4,4,128,97,0.6257233619689941,0.32566604018211365
4,4,128,98,0.7148135304450989,0.11877390742301941
4,4,128,99,0.6456342339515686,0.08089194446802139
4,4,128,100,0.5545927286148071,0.18352289497852325
4,4,128,101,0.526726484298706,0.27348998188972473
4,4,128,102,0.7580791711807251,0.160419762134552
4,4,128,103,0.6803502440452576,0.09424594789743423
4,4,128,104,0.29395484924316406,0.17739556729793549
4,4,128,105,0.41030454635620117,0.08555340021848679
4,4,128,106,0.39508894085884094,0.12455889582633972
4,4,128,107,0.535470724105835,0.21581719815731049
4,4,128,108,0.5931876301765442,0.11225074529647827
4,4,128,109,0.675990641117096,0.12402106076478958
4,4,128,110,0.7575017809867859,0.10749874264001846
4,4,128,111,0.4382491409778595,0.14886155724525452
4,4,128,112,0.49386319518089294,0.16622555255889893
4,4,128,113,0.5745716691017151,0.10271789133548737
4,4,128,114,0.7159082293510437,0.09190922230482101
4,4,128,115,0.5600959062576294,0.18131107091903687
4,4,128,116,0.6350152492523193,0.14338257908821106
4,4,128,117,0.38677337765693665,0.05495131015777588
4,4,128,118,0.5163732171058655,0.1613377034664154
4,4,128,119,0.5346717238426208,0.13695156574249268
4,4,128,120,0.750695526599884,0.12795090675354004
4,4,128,121,0.49643415212631226,0.09286683052778244
4,4,128,122,0.4886275827884674,0.10316183418035507
4,4,128,123,0.5430892109870911,0.18132273852825165
4,4,128,124,0.578284740447998,0.09824682772159576
4,4,128,125,0.5518355369567871,0.23367495834827423
4,4,128,126,0.4769117534160614,0.15725378692150116
4,4,128,127,0.5917112827301025,0.23665094375610352
4,5,128,0,0.6900323033332825,0.22773708403110504
4,5,128,1,0.6884336471557617,0.09551576524972916
4,5,128,2,0.5714945793151855,0.09469469636678696
4,5,128,3,0.5926066040992737,0.06493198871612549
4,5,128,4,0.6785362958908081,0.07396814227104187
4,5,128,5,0.36108967661857605,0.18344667553901672
4,5,128,6,0.5200194120407104,0.14315450191497803
4,5,128,7,0.7509380578994751,0.09029562026262283
4,5,128,8,0.7223734855651855,0.14310221374034882
4,5,128,9,0.4708426296710968,0.05498633533716202
4,5,128,10,0.7313237190246582,0.2131369411945343
4,5,128,11,0.5374580025672913,0.03811142221093178
4,5,128,12,0.6122942566871643,0.16930899024009705
4,5,128,13,0.533857524394989,0.0696740597486496
4,5,128,14,0.6879689693450928,0.303913414478302
4,5,128,15,0.6704400777816772,0.2302570939064026
4,5,128,16,0.7004232406616211,0.14565658569335938
4,5,128,17,0.7349375486373901,0.09088872373104095
4,5,128,18,0.7460275888442993,0.1913401335477829
4,5,128,19,0.7154740691184998,0.20692893862724304
4,5,128,20,0.484271764755249,0.05817023664712906
4,5,128,21,0.8034502267837524,0.09339309483766556
4,5,128,22,0.5165795087814331,0.09836029261350632
4,5,128,23,0.6360845565795898,0.25259077548980713
4,5,128,24,0.7242467999458313,0.18495802581310272
4,5,128,25,0.7730514407157898,0.18906117975711823
4,5,128,26,0.6930228471755981,0.09959713369607925
4,5,128,27,0.5526246428489685,0.04510221257805824
4,5,128,28,0.7866119146347046,0.12525120377540588
4,5,128,29,0.7313942313194275,0.15833880007266998
4,5,128,30,0.6199707984924316,0.10682570934295654
4,5,128,31,0.7480343580245972,0.08905330300331116
4,5,128,32,0.7527264952659607,0.1489267349243164
4,5,128,33,0.767319917678833,0.12411743402481079
4,5,128,34,0.6847391724586487,0.06545271724462509
4,5,128,35,0.25970250368118286,0.23369260132312775
4,5,128,36,0.6178150177001953,0.06300338357686996
4,5,128,37,0.6248716711997986,0.05907061696052551
4,5,128,38,0.6866357326507568,0.14800894260406494
4,5,128,39,0.4128531217575073,0.14515557885169983
4,5,128,40,0.5686171054840088,0.04633138328790665
4,5,128,41,0.5718823075294495,0.09217400848865509
4,5,128,42,0.7953450083732605,0.11462249606847763
4,5,128,43,0.6877289414405823,0.23707056045532227
4,5,128,44,0.6528036594390869,0.040528636425733566
4,5,128,45,0.33795830607414246,0.2700805962085724
4,5,128,46,0.6053743958473206,0.1526254117488861
4,5,128,47,0.7063153386116028,0.19614356756210327
4,5,128,48,0.6486390829086304,0.254489541053772
4,5,128,49,0.696639895439148,0.20663389563560486
4,5,128,50,0.7134130597114563,0.20159626007080078
4,5,128,51,0.4855986535549164,0.11185670644044876
4,5,128,52,0.5032251477241516,0.17896829545497894
4,5,128,53,0.640552282333374,0.2305925190448761
4,5,128,54,0.48174530267715454,0.05487385764718056
4,5,128,55,0.8036531209945679,0.1512182652950287
4,5,128,56,0.7376934289932251,0.2300734966993332
4,5,128,57,0.7460027933120728,0.12257861346006393
4,5,128,58,0.6304085850715637,0.18799608945846558
4,5,128,59,0.8038826584815979,0.15697303414344788
4,5,128,60,0.7683395743370056,0.14334985613822937
4,5,128,61,0.762161374092102,0.1781114935874939
4,5,128,62,0.7326544523239136,0.14012153446674347
4,5,128,63,0.8061172366142273,0.16752232611179352
4,5,128,64,0.656621515750885,0.2126101553440094
4,5,128,65,0.429063081741333,0.18606865406036377
4,5,128,66,0.8160962462425232,0.16129566729068756
4,5,128,67,0.6840854287147522,0.23621496558189392
4,5,128,68,0.5112203359603882,0.07085485011339188
4,5,128,69,0.4358822703361511,0.11707812547683716
4,5,128,70,0.7553856372833252,0.17855960130691528
4,5,128,71,0.6943196058273315,0.15720923244953156
4,5,128,72,0.582309365272522,0.04039229452610016
4,5,128,73,0.3533638119697571,0.2624843120574951
4,5,128,74,0.663054347038269,0.2841908037662506
4,5,128,75,0.6636603474617004,0.21735018491744995
4,5,128,76,0.24839022755622864,0.15112127363681793
4,5,128,77,0.5403881669044495,0.045927200466394424
4,5,128,78,0.6956398487091064,0.07632855325937271
4,5,128,79,0.7009451985359192,0.08658874034881592
4,5,128,80,0.7716186046600342,0.223613440990448
4,5,128,81,0.7679001688957214,0.13609598577022552
4,5,128,82,0.5345749855041504,0.18256007134914398
4,5,128,83,0.664071798324585,0.3233446776866913
4,5,128,84,0.5236926674842834,0.04101483151316643
4,5,128,85,0.5282743573188782,0.05875900387763977
4,5,128,86,0.7290478944778442,0.17900186777114868
4,5,128,87,0.6232664585113525,0.07036656886339188
4,5,128,88,0.44573265314102173,0.19239142537117004
4,5,128,89,0.6552178859710693,0.3162437677383423
4,5,128,90,0.5419303774833679,0.1185346394777298
4,5,128,91,0.5952070355415344,0.14949847757816315
4,5,128,92,0.7509759664535522,0.09855370968580246
4,5,128,93,0.6595683693885803,0.15998123586177826
4,5,128,94,0.446058988571167,0.0708019882440567
4,5,128,95,0.6641754508018494,0.2640874981880188
4,5,128,96,0.6659712195396423,0.1256118267774582
4,5,128,97,0.7291337847709656,0.11078065633773804
4,5,128,98,0.5611607432365417,0.11209944635629654
4,5,128,99,0.7460278868675232,0.17527148127555847
4,5,128,100,0.3281105160713196,0.06716643273830414
4,5,128,101,0.6886703372001648,0.16068029403686523
4,5,128,102,0.7863112688064575,0.14264200627803802
4,5,128,103,0.5613130331039429,0.048460982739925385
4,5,128,104,0.6686744689941406,0.12587988376617432
4,5,128,105,0.4302186965942383,0.0431792177259922
4,5,128,106,0.6809514760971069,0.2229173183441162
4,5,128,107,0.4622259736061096,0.20351454615592957
4,5,128,108,0.7274227738380432,0.09684406965970993
4,5,128,109,0.5554044842720032,0.09849204123020172
4,5,128,110,0.7163788676261902,0.09379531443119049
4,5,128,111,0.4085078239440918,0.05318078026175499
4,5,128,112,0.6403434872627258,0.1767338514328003
4,5,128,113,0.6863244771957397,0.16580231487751007
4,5,128,114,0.7869946360588074,0.11917982995510101
4,5,128,115,0.48324474692344666,0.06733828783035278
4,5,128,116,0.7530131936073303,0.18812322616577148
4,5,128,117,0.6124637126922607,0.12738385796546936
4,5,128,118,0.5277997255325317,0.1089026927947998
4,5,128,119,0.6390877366065979,0.08269412815570831
4,5,128,120,0.7076199054718018,0.14604513347148895
4,5,128,121,0.4151868522167206,0.10956130176782608
4,5,128,122,0.4211675822734833,0.07461734116077423
4,5,128,123,0.54668128490448,0.1374402493238449
4,5,128,124,0.5415380001068115,0.18842409551143646
4,5,128,125,0.6632326245307922,0.2388332337141037
4,5,128,126,0.3590860664844513,0.07711160182952881
4,5,128,127,0.3128019869327545,0.19930000603199005
5,0,32,0,0.3931407928466797,0.05367258936166763
5,0,32,1,0.5377916097640991,0.058244235813617706
5,0,32,2,0.3422871530056,0.08983175456523895
5,0,32,3,0.5080165266990662,0.10161678493022919
5,0,32,4,0.42130959033966064,0.07543501257896423
5,0,32,5,0.34245002269744873,0.08634566515684128
5,0,32,6,0.37572842836380005,0.04523046687245369
5,0,32,7,0.5347626209259033,0.10464244335889816
5,0,32,8,0.44199755787849426,0.08944530785083771
5,0,32,9,0.4092300534248352,0.10273730754852295
5,0,32,10,0.4220030903816223,0.07341068238019943
5,0,32,11,0.5484156012535095,0.06579689681529999
5,0,32,12,0.6799899339675903,0.08913028985261917
5,0,32,13,0.5495357513427734,0.08257966488599777
5,0,32,14,0.5376525521278381,0.05163537338376045
5,0,32,15,0.6356481313705444,0.07107409089803696
5,0,32,16,0.4937591254711151,0.05616617947816849
5,0,32,17,0.4197697341442108,0.10314708948135376
5,0,32,18,0.5584685206413269,0.06153508275747299
5,0,32,19,0.4668711721897125,0.08721053600311279
5,0,32,20,0.6346815824508667,0.08420344442129135
5,0,32,21,0.40682753920555115,0.0713450014591217
5,0,32,22,0.46329179406166077,0.080230213701725
5,0,32,23,0.4344780445098877,0.0705660805106163
5,0,32,24,0.3713981807231903,0.027606435120105743
5,0,32,25,0.47618311643600464,0.026620905846357346
5,0,32,26,0.5834184288978577,0.07615425437688828
5,0,32,27,0.39079952239990234,0.08501718193292618
5,0,32,28,0.4503762423992157,0.1135898232460022
5,0,32,29,0.587634801864624,0.08800268173217773
5,0,32,30,0.5622672438621521,0.08627329766750336
5,0,32,31,0.46540647745132446,0.08426292985677719
5,1,32,0,0.5048437714576721,0.17595072090625763
5,1,32,1,0.39038655161857605,0.1142745241522789
5,1,32,2,0.42057085037231445,0.1056797131896019
5,1,32,3,0.5358483195304871,0.06493151932954788
5,1,32,4,0.46908965706825256,0.1790781319141388
5,1,32,5,0.3377234637737274,0.07283873111009598
5,1,32,6,0.5528064966201782,0.1307462900876999
5,1,32,7,0.5459889769554138,0.18570472300052643
5,1,32,8,0.6719105243682861,0.13487771153450012
5,1,32,9,0.5023782849311829,0.04921145737171173
5,1,32,10,0.44430777430534363,0.12131592631340027
5,1,32,11,0.558027982711792,0.09454181790351868
5,1,32,12,0.5017150640487671,0.11022349447011948
5,1,32,13,0.5982491970062256,0.08766774088144302
5,1,32,14,0.6145846843719482,0.08922531455755234
5,1,32,15,0.37694042921066284,0.025254109874367714
5,1,32,16,0.4105772078037262,0.10187364369630814
5,1,32,17,0.5420519113540649,0.05475511774420738
5,1,32,18,0.36949798464775085,0.08618012070655823
5,1,32,19,0.6803457736968994,0.10933119803667068
5,1,32,20,0.5326306819915771,0.1728241741657257
5,1,32,21,0.5335166454315186,0.014398446306586266
5,1,32,22,0.4129074513912201,0.13244108855724335
5,1,32,23,0.5024473071098328,0.1009097546339035
5,1,32,24,0.5838786959648132,0.07438579201698303
5,1,32,25,0.4642142057418823,0.17033246159553528
5,1,32,26,0.39164820313453674,0.12315277010202408
5,1,32,27,0.6539854407310486,0.11754682660102844
5,1,32,28,0.3209485411643982,0.10792775452136993
5,1,32,29,0.3834368586540222,0.15318922698497772
5,1,32,30,0.5094137787818909,0.11725176125764847
5,1,32,31,0.4201183319091797,0.12872010469436646
5,2,64,0,0.5668983459472656,0.11638414114713669
5,2,64,1,0.5790243148803711,0.08755717426538467
5,2,64,2,0.4544307589530945,0.14303290843963623
5,2,64,3,0.46782228350639343,0.14392004907131195
5,2,64,4,0.38470718264579773,0.18887953460216522
5,2,64,5,0.44346874952316284,0.1754118651151657
5,2,64,6,0.4048827290534973,0.1500173658132553
5,2,64,7,0.3853558897972107,0.17132225632667542
5,2,64,8,0.5726588368415833,0.0724310576915741
5,2,64,9,0.38435497879981995,0.15222495794296265
5,2,64,10,0.6791521906852722,0.10573209822177887
5,2,64,11,0.6850163340568542,0.12215929478406906
5,2,64,12,0.4063740074634552,0.15487982332706451
5,2,64,13,0.578389585018158,0.14601942896842957
5,2,64,14,0.48203545808792114,0.06367358565330505
5,2,64,15,0.40217897295951843,0.143178328871727
5,2,64,16,0.4599110782146454,0.10590977966785431
5,2,64,17,0.4387305974960327,0.06790720671415329
5,2,64,18,0.5937329530715942,0.08553121984004974
5,2,64,19,0.45624083280563354,0.09465479105710983
5,2,64,20,0.4906504452228546,0.10096555948257446
5,2,64,21,0.5036953687667847,0.08115198463201523
5,2,64,22,0.4566207826137543,0.09567894041538239
5,2,64,23,0.6237775683403015,0.08891212940216064
5,2,64,24,0.24341340363025665,0.12797808647155762
5,2,64,25,0.6035828590393066,0.1190471276640892
5,2,64,26,0.6121969223022461,0.1292271465063095
5,2,64,27,0.4287223815917969,0.18368493020534515
5,2,64,28,0.6408054232597351,0.16788993775844574
5,2,64,29,0.5259570479393005,0.15699924528598785
5,2,64,30,0.309455543756485,0.1306907683610916
5,2,64,31,0.42505091428756714,0.16547709703445435
5,2,64,32,0.401477575302124,0.08920978754758835
5,2,64,33,0.36072924733161926,0.1385364979505539
5,2,64,34,0.49491357803344727,0.06374549865722656
5,2,64,35,0.5249610543251038,0.06925629824399948
5,2,64,36,0.4247874319553375,0.1674463301897049
5,2,64,37,0.3578006327152252,0.1669004261493683
5,2,64,38,0.41994744539260864,0.06764822453260422
5,2,64,39,0.5553178787231445,0.18642562627792358
5,2,64,40,0.4148019850254059,0.12615308165550232
5,2,64,41,0.5838255286216736,0.11825397610664368
5,2,64,42,0.5380186438560486,0.06590504944324493
5,2,64,43,0.508653998374939,0.10921834409236908
5,2,64,44,0.4052041471004486,0.10586252808570862
5,2,64,45,0.48412102460861206,0.10831805318593979
5,2,64,46,0.5195375084877014,0.16261526942253113
5,2,64,47,0.28461208939552307,0.16110925376415253
5,2,64,48,0.5452433228492737,0.11360490322113037
5,2,64,49,0.40384814143180847,0.0666288211941719
5,2,64,50,0.36134281754493713,0.09077491611242294
5,2,64,51,0.5804820656776428,0.10320520401000977
5,2,64,52,0.5575060248374939,0.10071124881505966
5,2,64,53,0.33249861001968384,0.11931571364402771
5,2,64,54,0.40982314944267273,0.11685004085302353
5,2,64,55,0.5297662615776062,0.1389337182044983
5,2,64,56,0.43390214443206787,0.07278535515069962
5,2,64,57,0.4604015648365021,0.23295235633850098
5,2,64,58,0.5122412443161011,0.05241119861602783
5,2,64,59,0.4995865225791931,0.14471858739852905
5,2,64,60,0.37562838196754456,0.19589287042617798
5,2,64,61,0.5604454278945923,0.04601817578077316
5,2,64,62,0.5317612290382385,0.06814096122980118
5,2,64,63,0.6095601916313171,0.0945228710770607
5,3,64,0,0.6357367038726807,0.14169353246688843
5,3,64,1,0.5079898238182068,0.1837441623210907
5,3,64,2,0.6589558720588684,0.08219537138938904
5,3,64,3,0.4732387661933899,0.1677951216697693
5,3,64,4,0.5460216403007507,0.1845763921737671
5,3,64,5,0.5011378526687622,0.04954112321138382
5,3,64,6,0.46280938386917114,0.08148402720689774
5,3,64,7,0.4732941687107086,0.24247190356254578
5,3,64,8,0.49616530537605286,0.06186513230204582
5,3,64,9,0.5110377073287964,0.15972277522087097
5,3,64,10,0.45413026213645935,0.14058125019073486
5,3,64,11,0.564285397529602,0.07651984691619873
5,3,64,12,0.44194692373275757,0.05038527771830559
5,3,64,13,0.6519415378570557,0.07241205126047134
5,3,64,14,0.478142112493515,0.10860759019851685
5,3,64,15,0.4923628270626068,0.04513736814260483
5,3,64,16,0.6305339932441711,0.08086507022380829
5,3,64,17,0.48122721910476685,0.0791885182261467
5,3,64,18,0.6377749443054199,0.07153020054101944
5,3,64,19,0.4151380956172943,0.17958231270313263
5,3,64,20,0.38157138228416443,0.10553043335676193
5,3,64,21,0.5531777739524841,0.10072959214448929
5,3,64,22,0.414896696805954,0.16461864113807678
5,3,64,23,0.592904806137085,0.1404976099729538
5,3,64,24,0.7565872073173523,0.1041591688990593
5,3,64,25,0.47079554200172424,0.18804654479026794
5,3,64,26,0.5123218297958374,0.15171223878860474
5,3,64,27,0.37131479382514954,0.06685949862003326
5,3,64,28,0.6261478066444397,0.07492437213659286
5,3,64,29,0.5705114006996155,0.02859535813331604
5,3,64,30,0.4675648510456085,0.1771550476551056
5,3,64,31,0.4741785228252411,0.13505764305591583
5,3,64,32,0.51615971326828,0.2661569118499756
5,3,64,33,0.5471067428588867,0.08809047937393188
5,3,64,34,0.37739065289497375,0.13193856179714203
5,3,64,35,0.47868776321411133,0.09475738555192947
5,3,64,36,0.45189809799194336,0.13123783469200134
5,3,64,37,0.40361902117729187,0.13256995379924774
5,3,64,38,0.42307722568511963,0.1373644769191742
5,3,64,39,0.5363107323646545,0.1595240831375122
5,3,64,40,0.5730259418487549,0.1745823323726654
5,3,64,41,0.4356197416782379,0.11431146413087845
5,3,64,42,0.5307276248931885,0.22988897562026978
5,3,64,43,0.44544073939323425,0.12572383880615234
5,3,64,44,0.5896440744400024,0.07360135763883591
5,3,64,45,0.5152841806411743,0.1931314915418625
5,3,64,46,0.5077217221260071,0.03385501727461815
5,3,64,47,0.4802219271659851,0.11052051931619644
5,3,64,48,0.5472294688224792,0.17270979285240173
5,3,64,49,0.3925749957561493,0.10261952877044678
5,3,64,50,0.5420970320701599,0.10201496630907059
5,3,64,51,0.7958802580833435,0.10456114262342453
5,3,64,52,0.5746222138404846,0.24765387177467346
5,3,64,53,0.45236024260520935,0.06665559858083725
5,3,64,54,0.5009673833847046,0.1778467297554016
5,3,64,55,0.5039215683937073,0.13914954662322998
5,3,64,56,0.5177276730537415,0.1188669428229332
5,3,64,57,0.6104589700698853,0.1496839076280594
5,3,64,58,0.34983763098716736,0.10270900279283524
5,3,64,59,0.39179787039756775,0.1299801617860794
5,3,64,60,0.48686444759368896,0.20014789700508118
5,3,64,61,0.5179550647735596,0.14360713958740234
5,3,64,62,0.5691663026809692,0.11246626079082489
5,3,64,63,0.6286165118217468,0.14661426842212677
5,4,128,0,0.554671049118042,0.15416941046714783
5,4,128,1,0.6004946827888489,0.235962375998497
5,4,128,2,0.509555459022522,0.23298606276512146
5,4,128,3,0.6012045741081238,0.14875325560569763
5,4,128,4,0.41526275873184204,0.2458670288324356
5,4,128,5,0.5077007412910461,0.10476337373256683
5,4,128,6,0.29913443326950073,0.2286446988582611
5,4,128,7,0.532846987247467,0.21787753701210022
5,4,128,8,0.5841212868690491,0.2291821986436844
5,4,128,9,0.6381527781486511,0.1095467060804367
5,4,128,10,0.3070639669895172,0.11257454752922058
5,4,128,11,0.7614485621452332,0.14490017294883728
5,4,128,12,0.4624350965023041,0.0631093680858612
5,4,128,13,0.3486432135105133,0.14489561319351196
5,4,128,14,0.6794631481170654,0.18505153059959412
5,4,128,15,0.620386004447937,0.20724019408226013
5,4,128,16,0.42091116309165955,0.13410505652427673
5,4,128,17,0.3980371356010437,0.1365201771259308
5,4,128,18,0.5465162992477417,0.20240482687950134
5,4,128,19,0.5496628284454346,0.33411088585853577
5,4,128,20,0.3551637530326843,0.12277548760175705
5,4,128,21,0.7446210384368896,0.12465251237154007
5,4,128,22,0.34480422735214233,0.09481625258922577
5,4,128,23,0.7505056858062744,0.1154288724064827
5,4,128,24,0.4933263063430786,0.09631721675395966
5,4,128,25,0.4876510202884674,0.10256335139274597
5,4,128,26,0.7014234662055969,0.10631369054317474
5,4,128,27,0.4741484224796295,0.11615414172410965
5,4,128,28,0.4582773447036743,0.18128588795661926
5,4,128,29,0.5667231678962708,0.16383063793182373
5,4,128,30,0.6171330213546753,0.10432102531194687
5,4,128,31,0.4856007397174835,0.12717336416244507
5,4,128,32,0.4219898581504822,0.16816195845603943
5,4,128,33,0.478288859128952,0.07943232357501984
5,4,128,34,0.459025502204895,0.20820115506649017
5,4,128,35,0.6432317495346069,0.11128401011228561
5,4,128,36,0.6234853863716125,0.09794065356254578
5,4,128,37,0.36017683148384094,0.11248359084129333
5,4,128,38,0.6304804682731628,0.24086205661296844
5,4,128,39,0.41374024748802185,0.13236333429813385
5,4,128,40,0.6343315839767456,0.07531565427780151
5,4,128,41,0.5561680793762207,0.13100208342075348
5,4,128,42,0.5193964838981628,0.058931827545166016
5,4,128,43,0.5594009757041931,0.23396097123622894
5,4,128,44,0.515108048915863,0.21775367856025696
5,4,128,45,0.6417146325111389,0.06489386409521103
5,4,128,46,0.5888371467590332,0.14578714966773987
5,4,128,47,0.5516675114631653,0.13972236216068268
5,4,128,48,0.569426417350769,0.10834889858961105
5,4,128,49,0.5253077745437622,0.2532549500465393
5,4,128,50,0.529930591583252,0.11180189996957779
5,4,128,51,0.3330528438091278,0.14798007905483246
5,4,128,52,0.2800396978855133,0.07996873557567596
5,4,128,53,0.5285645723342896,0.09460271894931793
5,4,128,54,0.30210554599761963,0.12075451761484146
5,4,128,55,0.5522454380989075,0.06959224492311478
5,4,128,56,0.5099855065345764,0.0875258594751358
5,4,128,57,0.4680339992046356,0.1262623518705368
5,4,128,58,0.5408750772476196,0.1347489058971405
5,4,128,59,0.5130718946456909,0.2689802050590515
5,4,128,60,0.5955890417098999,0.29428544640541077
5,4,128,61,0.4860159456729889,0.06447988748550415
5,4,128,62,0.5518633723258972,0.09236227720975876
5,4,128,63,0.5776930451393127,0.3022686541080475
5,4,128,64,0.5303390622138977,0.07125481963157654
5,4,128,65,0.4218098819255829,0.12271024286746979
5,4,128,66,0.5632382035255432,0.1208256408572197
5,4,128,67,0.756544828414917,0.11796775460243225
5,4,128,68,0.6013359427452087,0.15358123183250427
5,4,128,69,0.44376274943351746,0.09546855837106705
5,4,128,70,0.6901825070381165,0.12149201333522797
5,4,128,71,0.5947944521903992,0.14991407096385956
5,4,128,72,0.42749813199043274,0.16104018688201904
5,4,128,73,0.5426254272460938,0.2782108783721924
5,4,128,74,0.393634557723999,0.10015682131052017
5,4,128,75,0.6254382729530334,0.09679979085922241
5,4,128,76,0.6116905808448792,0.10487444698810577
5,4,128,77,0.583536684513092,0.2403029352426529
5,4,128,78,0.40309810638427734,0.055242083966732025
5,4,128,79,0.38172000646591187,0.21045544743537903
5,4,128,80,0.4329853355884552,0.09678814560174942
5,4,128,81,0.6605778932571411,0.10340919345617294
5,4,128,82,0.5385405421257019,0.22614693641662598
5,4,128,83,0.44710639119148254,0.1706753969192505
5,4,128,84,0.7445915341377258,0.09974243491888046
5,4,128,85,0.4244164824485779,0.24945953488349915
5,4,128,86,0.4172263741493225,0.05570732802152634
5,4,128,87,0.5025155544281006,0.1998429000377655
5,4,128,88,0.5712804794311523,0.1217324435710907
5,4,128,89,0.48793336749076843,0.25444790720939636
5,4,128,90,0.5642145276069641,0.06823842227458954
5,4,128,91,0.6088311672210693,0.22716550529003143
5,4,128,92,0.5608196258544922,0.09841806441545486
5,4,128,93,0.4689999222755432,0.12592411041259766
5,4,128,94,0.6984387636184692,0.08057348430156708
5,4,128,95,0.4545843303203583,0.133001446723938
5,4,128,96,0.5368220806121826,0.10452603548765182
5,4,128,97,0.5862522125244141,0.08464576303958893
5,4,128,98,0.7228888273239136,0.08515157550573349
5,4,128,99,0.6191893815994263,0.20817218720912933
5,4,128,100,0.6284955143928528,0.13430804014205933
5,4,128,101,0.6994696259498596,0.11229847371578217
5,4,128,102,0.49109312891960144,0.0834139809012413
5,4,128,103,0.4366707503795624,0.04610501602292061
5,4,128,104,0.5155189633369446,0.16772136092185974
5,4,128,105,0.531152606010437,0.12873968482017517
5,4,128,106,0.3904373347759247,0.2036152482032776
5,4,128,107,0.45650941133499146,0.15269926190376282
5,4,128,108,0.6061677932739258,0.16255059838294983
5,4,128,109,0.46907946467399597,0.20928819477558136
5,4,128,110,0.4034480154514313,0.08339353650808334
5,4,128,111,0.6659744381904602,0.09559333324432373
5,4,128,112,0.48611685633659363,0.09633415192365646
5,4,128,113,0.4644964337348938,0.21046903729438782
5,4,128,114,0.5335392951965332,0.16150641441345215
5,4,128,115,0.6559348702430725,0.13517774641513824
5,4,128,116,0.523077666759491,0.19753167033195496
5,4,128,117,0.5388355851173401,0.19485831260681152
5,4,128,118,0.5967271327972412,0.22543296217918396
5,4,128,119,0.6885475516319275,0.15777114033699036
5,4,128,120,0.47031691670417786,0.08163455873727798
5,4,128,121,0.6429820656776428,0.20902757346630096
5,4,128,122,0.39121609926223755,0.10827634483575821
5,4,128,123,0.7419239282608032,0.21272112429141998
5,4,128,124,0.35654541850090027,0.1010754182934761
5,4,128,125,0.5767439603805542,0.15449580550193787
5,4,128,126,0.5322630405426025,0.2680828273296356
5,4,128,127,0.5042551755905151,0.17677517235279083
5,5,128,0,0.7046509385108948,0.11663954704999924
5,5,128,1,0.6286303400993347,0.17009200155735016
5,5,128,2,0.365714430809021,0.15904100239276886
5,5,128,3,0.5175498723983765,0.07360893487930298
5,5,128,4,0.6546766757965088,0.27360016107559204
5,5,128,5,0.5415323376655579,0.11232112348079681
5,5,128,6,0.697216272354126,0.2539486885070801
5,5,128,7,0.6754533052444458,0.2823735475540161
5,5,128,8,0.7472104430198669,0.13080263137817383
5,5,128,9,0.4858633577823639,0.024183228611946106
5,5,128,10,0.28580930829048157,0.19127821922302246
5,5,128,11,0.7384174466133118,0.16458024084568024
5,5,128,12,0.6878162622451782,0.2405397742986679
5,5,128,13,0.6495438814163208,0.13009336590766907
5,5,128,14,0.7021106481552124,0.2525487244129181
5,5,128,15,0.6530501842498779,0.18678675591945648
5,5,128,16,0.6638110280036926,0.26908454298973083
5,5,128,17,0.41650018095970154,0.21653921902179718
5,5,128,18,0.7467494010925293,0.17597423493862152
5,5,128,19,0.68113774061203,0.15981799364089966
5,5,128,20,0.4395124316215515,0.1073140949010849
5,5,128,21,0.5918654203414917,0.20182567834854126
5,5,128,22,0.6058609485626221,0.07991031557321548
5,5,128,23,0.7467271685600281,0.16568130254745483
5,5,128,24,0.5966658592224121,0.09670522809028625
5,5,128,25,0.7525405883789062,0.1416642814874649
5,5,128,26,0.6719273924827576,0.2536141574382782
5,5,128,27,0.6925660371780396,0.21758724749088287
5,5,128,28,0.6252509951591492,0.22496530413627625
5,5,128,29,0.6825944185256958,0.18993785977363586
5,5,128,30,0.7915264368057251,0.14897802472114563
5,5,128,31,0.7308903932571411,0.14189021289348602
5,5,128,32,0.6470672488212585,0.12666577100753784
5,5,128,33,0.7679521441459656,0.15370561182498932
5,5,128,34,0.7182456851005554,0.23648153245449066
5,5,128,35,0.6647209525108337,0.22523246705532074
5,5,128,36,0.7870956659317017,0.14120350778102875
5,5,128,37,0.7705626487731934,0.13238942623138428
5,5,128,38,0.7430979609489441,0.17650645971298218
5,5,128,39,0.6664367318153381,0.19262930750846863
5,5,128,40,0.7098613977432251,0.18229767680168152
5,5,128,41,0.5241695046424866,0.06025466322898865
5,5,128,42,0.6958918571472168,0.21231450140476227
5,5,128,43,0.48719218373298645,0.18092741072177887
5,5,128,44,0.6333658695220947,0.21065902709960938
5,5,128,45,0.6703200936317444,0.21825312077999115
5,5,128,46,0.4839288890361786,0.14797459542751312
5,5,128,47,0.27515220642089844,0.13074861466884613
5,5,128,48,0.465168297290802,0.05078720673918724
5,5,128,49,0.28379306197166443,0.2511937618255615
5,5,128,50,0.7239143252372742,0.17252030968666077
5,5,128,51,0.45008426904678345,0.08891856670379639
5,5,128,52,0.5910181999206543,0.26661038398742676
5,5,128,53,0.41979900002479553,0.12874659895896912
5,5,128,54,0.38018062710762024,0.12710238993167877
5,5,128,55,0.5801764130592346,0.11627977341413498
5,5,128,56,0.6510687470436096,0.21175134181976318
5,5,128,57,0.7416417002677917,0.14237967133522034
5,5,128,58,0.3225370943546295,0.10761053115129471
5,5,128,59,0.3234097957611084,0.2659771144390106
5,5,128,60,0.6682795286178589,0.3071817457675934
5,5,128,61,0.6954067349433899,0.2108650952577591
5,5,128,62,0.7178604006767273,0.12204764038324356
5,5,128,63,0.6489185094833374,0.24342410266399384
5,5,128,64,0.6401048302650452,0.09061925113201141
5,5,128,65,0.7334240674972534,0.216103196144104
5,5,128,66,0.733088493347168,0.21812433004379272
5,5,128,67,0.7128961086273193,0.19824354350566864
5,5,128,68,0.7074241638183594,0.1061214879155159
5,5,128,69,0.7513136267662048,0.17340493202209473
5,5,128,70,0.7447714805603027,0.10096181929111481
5,5,128,71,0.7447608709335327,0.1284223049879074
5,5,128,72,0.7163432240486145,0.10775730013847351
5,5,128,73,0.7030508518218994,0.1779824048280716
5,5,128,74,0.4511817693710327,0.050459686666727066
5,5,128,75,0.6782333254814148,0.2029619663953781
5,5,128,76,0.7086459994316101,0.25032931566238403
5,5,128,77,0.7689874768257141,0.1385260373353958
5,5,128,78,0.7407780885696411,0.21466752886772156
5,5,128,79,0.6669934391975403,0.1979951113462448
5,5,128,80,0.6646276712417603,0.2451542466878891
5,5,128,81,0.6492161154747009,0.1846035122871399
5,5,128,82,0.6534013748168945,0.2645554840564728
5,5,128,83,0.6637343764305115,0.14588333666324615
5,5,128,84,0.6458239555358887,0.2676999866962433
5,5,128,85,0.5168982744216919,0.01661570556461811
5,5,128,86,0.7672603726387024,0.17736580967903137
5,5,128,87,0.7676838636398315,0.12730778753757477
5,5,128,88,0.6668201088905334,0.16331899166107178
5,5,128,89,0.5184639096260071,0.09686825424432755
5,5,128,90,0.7272980809211731,0.1813279688358307
5,5,128,91,0.39695101976394653,0.2605467736721039
5,5,128,92,0.33191847801208496,0.1178750991821289
5,5,128,93,0.5922183394432068,0.07609830796718597
5,5,128,94,0.6754546761512756,0.09529877454042435
5,5,128,95,0.40559250116348267,0.16242098808288574
5,5,128,96,0.6504397988319397,0.1817290335893631
5,5,128,97,0.6515065431594849,0.11854857206344604
5,5,128,98,0.6561563611030579,0.22929240763187408
5,5,128,99,0.752902626991272,0.13104310631752014
5,5,128,100,0.6735454797744751,0.21208421885967255
5,5,128,101,0.6337447762489319,0.1358277052640915
5,5,128,102,0.5684940218925476,0.10432042926549911
5,5,128,103,0.4900902211666107,0.03072444349527359
5,5,128,104,0.6288750767707825,0.28640949726104736
5,5,128,105,0.4734664559364319,0.08340363949537277
5,5,128,106,0.6482992172241211,0.1411285549402237
5,5,128,107,0.7212578058242798,0.1456827074289322
5,5,128,108,0.6200555562973022,0.23690903186798096
5,5,128,109,0.6857213973999023,0.10277045518159866
5,5,128,110,0.6563432812690735,0.21340717375278473
5,5,128,111,0.6931292414665222,0.09288037568330765
5,5,128,112,0.35053157806396484,0.14769591391086578
5,5,128,113,0.7098824381828308,0.18788321316242218
5,5,128,114,0.7022475600242615,0.190603569149971
5,5,128,115,0.522152304649353,0.02226974256336689
5,5,128,116,0.7023704051971436,0.13593074679374695
5,5,128,117,0.2692691683769226,0.2262450009584427
5,5,128,118,0.7334907054901123,0.14741826057434082
5,5,128,119,0.7122244834899902,0.1888851821422577
5,5,128,120,0.6960362792015076,0.13142313063144684
5,5,128,121,0.7531039714813232,0.18559697270393372
5,5,128,122,0.725354790687561,0.11459402740001678
5,5,128,123,0.6959380507469177,0.2029300034046173
5,5,128,124,0.6936068534851074,0.17481780052185059
5,5,128,125,0.41526976227760315,0.14470739662647247
5,5,128,126,0.729496419429779,0.10666429251432419
5,5,128,127,0.6831421256065369,0.23010152578353882
6,0,32,0,0.3981594443321228,0.0883236676454544
6,0,32,1,0.4610331058502197,0.12474904954433441
6,0,32,2,0.5353268384933472,0.06464270502328873
6,0,32,3,0.5519798994064331,0.04899422451853752
6,0,32,4,0.4350157082080841,0.1737118363380432
6,0,32,5,0.3243318498134613,0.13237054646015167
6,0,32,6,0.3799428939819336,0.15475508570671082
6,0,32,7,0.42424702644348145,0.11125833541154861
6,0,32,8,0.5533155202865601,0.11739310622215271
6,0,32,9,0.3252478539943695,0.07059373706579208
6,0,32,10,0.40942972898483276,0.12672266364097595
6,0,32,11,0.33907148241996765,0.13065439462661743
6,0,32,12,0.5162096619606018,0.09634650498628616
6,0,32,13,0.49830907583236694,0.09548124670982361
6,0,32,14,0.40389785170555115,0.09603133797645569
6,0,32,15,0.37548092007637024,0.12939979135990143
6,0,32,16,0.6502608060836792,0.06883971393108368
6,0,32,17,0.3906421959400177,0.0966092124581337
6,0,32,18,0.4250525236129761,0.15954455733299255
6,0,32,19,0.5527543425559998,0.09184324741363525
6,0,32,20,0.4314042627811432,0.04146081581711769
6,0,32,21,0.44244325160980225,0.11594432592391968
6,0,32,22,0.5230821967124939,0.06485649943351746
6,0,32,23,0.32179877161979675,0.1639651507139206
6,0,32,24,0.58799809217453,0.0861675962805748
6,0,32,25,0.4590562880039215,0.17991170287132263
6,0,32,26,0.5969951152801514,0.1426626294851303
6,0,32,27,0.39300286769866943,0.09435165673494339
6,0,32,28,0.5726486444473267,0.09758999943733215
6,0,32,29,0.41649100184440613,0.13192488253116608
6,0,32,30,0.4704679846763611,0.1532149314880371
6,0,32,31,0.39986222982406616,0.1525520384311676
6,1,32,0,0.526488721370697,0.11370367556810379
6,1,32,1,0.6611782908439636,0.0758993998169899
6,1,32,2,0.2796953022480011,0.07446250319480896
6,1,32,3,0.6464760899543762,0.060506563633680344
6,1,32,4,0.5233975052833557,0.12408438324928284
6,1,32,5,0.4548092186450958,0.0838053971529007
6,1,32,6,0.628227949142456,0.11521261930465698
6,1,32,7,0.37297144532203674,0.11336147785186768
6,1,32,8,0.358331561088562,0.10377446562051773
6,1,32,9,0.4094234108924866,0.050163209438323975
6,1,32,10,0.47234126925468445,0.11809602379798889
6,1,32,11,0.6106672883033752,0.07965041697025299
6,1,32,12,0.6503594517707825,0.08144769072532654
6,1,32,13,0.44367703795433044,0.10024470090866089
6,1,32,14,0.6151911616325378,0.08588727563619614
6,1,32,15,0.49923208355903625,0.0916014239192009
6,1,32,16,0.41132763028144836,0.09894596040248871
6,1,32,17,0.5363457202911377,0.16429968178272247
6,1,32,18,0.37389320135116577,0.09954455494880676
6,1,32,19,0.45637571811676025,0.06236039474606514
6,1,32,20,0.5362940430641174,0.1523946225643158
6,1,32,21,0.4565313160419464,0.09149573743343353
6,1,32,22,0.6101129651069641,0.0944228321313858
6,1,32,23,0.6675594449043274,0.10057728737592697
6,1,32,24,0.5703844428062439,0.08753187209367752
6,1,32,25,0.5167338848114014,0.15377239882946014
6,1,32,26,0.39554110169410706,0.10236780345439911
6,1,32,27,0.5635002851486206,0.07433085888624191
6,1,32,28,0.4757424294948578,0.05134965479373932
6,1,32,29,0.48491746187210083,0.09197547286748886
6,1,32,30,0.5448718070983887,0.08184897899627686
6,1,32,31,0.3627658188343048,0.16439850628376007
6,2,64,0,0.5021693706512451,0.03931281343102455
6,2,64,1,0.4195900559425354,0.05492535978555679
6,2,64,2,0.5792521238327026,0.1218552365899086
6,2,64,3,0.45633256435394287,0.0811242088675499
6,2,64,4,0.425488144159317,0.15511654317378998
6,2,64,5,0.4442051947116852,0.13866540789604187
6,2,64,6,0.5031107664108276,0.07231450825929642
6,2,64,7,0.4196898937225342,0.09807383269071579
6,2,64,8,0.46605339646339417,0.06676194816827774
6,2,64,9,0.4923872947692871,0.15726183354854584
6,2,64,10,0.5151463150978088,0.05893867835402489
6,2,64,11,0.3537112772464752,0.09505421668291092
6,2,64,12,0.5093836188316345,0.08919123560190201
6,2,64,13,0.5558269619941711,0.10432495921850204
6,2,64,14,0.5524545311927795,0.10903878509998322
6,2,64,15,0.6398823261260986,0.16953624784946442
6,2,64,16,0.4706416726112366,0.06375093758106232
6,2,64,17,0.45074784755706787,0.09461572021245956
6,2,64,18,0.5521466732025146,0.05414929240942001
6,2,64,19,0.38856735825538635,0.15503966808319092
6,2,64,20,0.43345364928245544,0.12958016991615295
6,2,64,21,0.5645968317985535,0.05453041195869446
6,2,64,22,0.5453856587409973,0.14246337115764618
6,2,64,23,0.3952668011188507,0.10889703780412674
6,2,64,24,0.45256590843200684,0.10652811080217361
6,2,64,25,0.39287784695625305,0.11299441009759903
6,2,64,26,0.4168412685394287,0.046566709876060486
6,2,64,27,0.4778132736682892,0.06178603321313858
6,2,64,28,0.5915939211845398,0.06381586194038391
6,2,64,29,0.4639755189418793,0.11728520691394806
6,2,64,30,0.5700399279594421,0.1145298033952713
6,2,64,31,0.40703487396240234,0.08759146928787231
6,2,64,32,0.434969037771225,0.1161968782544136
6,2,64,33,0.38296642899513245,0.17990818619728088
6,2,64,34,0.4395484924316406,0.1637977808713913
6,2,64,35,0.3914823532104492,0.16892071068286896
6,2,64,36,0.38449224829673767,0.10126905143260956
6,2,64,37,0.3773629367351532,0.08960839360952377
6,2,64,38,0.4034739136695862,0.07211946696043015
6,2,64,39,0.620972216129303,0.13888205587863922
6,2,64,40,0.4344095289707184,0.1752627044916153
6,2,64,41,0.4918593764305115,0.10813882201910019
6,2,64,42,0.3618360459804535,0.12979526817798615
6,2,64,43,0.3150923550128937,0.14503952860832214
6,2,64,44,0.49677929282188416,0.10361220687627792
6,2,64,45,0.42517560720443726,0.1499800682067871
6,2,64,46,0.41526877880096436,0.09114725887775421
6,2,64,47,0.46693387627601624,0.14238442480564117
6,2,64,48,0.6259394288063049,0.1193922832608223
6,2,64,49,0.40606775879859924,0.12954261898994446
6,2,64,50,0.44881004095077515,0.0659051239490509
6,2,64,51,0.5276789665222168,0.07094956189393997
6,2,64,52,0.5350283980369568,0.12644705176353455
6,2,64,53,0.477023720741272,0.09814248979091644
6,2,64,54,0.5385208129882812,0.06626769155263901
6,2,64,55,0.5075106024742126,0.1023801863193512
6,2,64,56,0.33550986647605896,0.13368374109268188
6,2,64,57,0.4196668565273285,0.11785725504159927
6,2,64,58,0.47612157464027405,0.0997837707400322
6,2,64,59,0.6493726968765259,0.1317753940820694
6,2,64,60,0.474112331867218,0.14957329630851746
6,2,64,61,0.6081268787384033,0.14799748361110687
6,2,64,62,0.6649325489997864,0.1856558918952942
6,2,64,63,0.4446165859699249,0.12162929028272629
6,3,64,0,0.5258804559707642,0.18437108397483826
6,3,64,1,0.5011093020439148,0.06579317152500153
6,3,64,2,0.559775710105896,0.2257731556892395
6,3,64,3,0.33538690209388733,0.13737159967422485
6,3,64,4,0.3572658896446228,0.10118764638900757
6,3,64,5,0.5815974473953247,0.2552528381347656
6,3,64,6,0.4426332712173462,0.21533529460430145
6,3,64,7,0.6045913696289062,0.15379558503627777
6,3,64,8,0.42973485589027405,0.21733199059963226
6,3,64,9,0.503207802772522,0.08564240485429764
6,3,64,10,0.6988579034805298,0.1560816615819931
6,3,64,11,0.2808351516723633,0.10167631506919861
6,3,64,12,0.6317164897918701,0.15492619574069977
6,3,64,13,0.776207685470581,0.12720683217048645
6,3,64,14,0.5534406900405884,0.10087902843952179
6,3,64,15,0.3540564179420471,0.049933820962905884
6,3,64,16,0.48029905557632446,0.181413471698761
6,3,64,17,0.6059149503707886,0.11394254118204117
6,3,64,18,0.3930647373199463,0.17774559557437897
6,3,64,19,0.5778641700744629,0.2749192714691162
6,3,64,20,0.565885603427887,0.13941439986228943
6,3,64,21,0.5498321652412415,0.20417365431785583
6,3,64,22,0.6707989573478699,0.14033617079257965
6,3,64,23,0.34316501021385193,0.18536317348480225
6,3,64,24,0.445292204618454,0.2106194645166397
6,3,64,25,0.43708211183547974,0.17619489133358002
6,3,64,26,0.3072604835033417,0.1385139375925064
6,3,64,27,0.5605980157852173,0.11299911141395569
6,3,64,28,0.43701696395874023,0.06541775912046432
6,3,64,29,0.5444030165672302,0.08289297670125961
6,3,64,30,0.4202314615249634,0.14349281787872314
6,3,64,31,0.499736487865448,0.16879147291183472
6,3,64,32,0.385912150144577,0.13479676842689514
6,3,64,33,0.4659193456172943,0.08242401480674744
6,3,64,34,0.5543814301490784,0.11508949846029282
6,3,64,35,0.5570356249809265,0.2856798470020294
6,3,64,36,0.40804529190063477,0.11489962041378021
6,3,64,37,0.619379460811615,0.17336703836917877
6,3,64,38,0.3239172101020813,0.15291953086853027
6,3,64,39,0.7161587476730347,0.1776788979768753
6,3,64,40,0.6962425708770752,0.1659509837627411
6,3,64,41,0.6793355941772461,0.07792440801858902
6,3,64,42,0.595923900604248,0.20978301763534546
6,3,64,43,0.4860909879207611,0.16331219673156738
6,3,64,44,0.3954024314880371,0.07143265008926392
6,3,64,45,0.583136260509491,0.24769490957260132
6,3,64,46,0.46281713247299194,0.15725159645080566
6,3,64,47,0.4699031710624695,0.07495300471782684
6,3,64,48,0.34682193398475647,0.11456604301929474
6,3,64,49,0.4423791170120239,0.16116534173488617
6,3,64,50,0.36814770102500916,0.18709790706634521
6,3,64,51,0.655539870262146,0.06535869091749191
6,3,64,52,0.4143056273460388,0.09219210594892502
6,3,64,53,0.7091017365455627,0.1743844449520111
6,3,64,54,0.5740512013435364,0.15289726853370667
6,3,64,55,0.5081747174263,0.053439002484083176
6,3,64,56,0.42856305837631226,0.12883184850215912
6,3,64,57,0.697962760925293,0.15558142960071564
6,3,64,58,0.7525110840797424,0.09107088297605515
6,3,64,59,0.5088912844657898,0.22145569324493408
