subject,channel,alpha,f1,drop_pp
156,0,1.0,0.7031613913536433,0.0
156,0,0.75,0.7067544204222586,-0.359302906861525
156,0,0.5,0.7062962823524801,-0.31348909988367923
156,0,0.25,0.6879728883962088,1.5188502957434458
156,0,0.0,0.643460271359487,5.970111999415629
156,1,1.0,0.7031613913536433,0.0
156,1,0.75,0.7076803849034047,-0.4518993549761374
156,1,0.5,0.6982019803038477,0.4959411049795581
156,1,0.25,0.6817831150502461,2.137827630339717
156,1,0.0,0.63086314811727,7.2298243236373345
156,2,1.0,0.7031613913536433,0.0
156,2,0.75,0.7145701915666408,-1.1408800212997505
156,2,0.5,0.7257307111061128,-2.256931975246945
156,2,0.25,0.7139324817254596,-1.0771090371816339
156,2,0.0,0.6399755917892642,6.318579956437908
156,3,1.0,0.7031613913536433,0.0
156,3,0.75,0.7054755726181043,-0.2314181264461035
156,3,0.5,0.7022091137301147,0.09522776235285635
156,3,0.25,0.7006766926249857,0.24846987286576416
156,3,0.0,0.6873083861270817,1.5853005226561634
156,4,1.0,0.7031613913536433,0.0
156,4,0.75,0.6951346955679076,0.8026695785735671
156,4,0.5,0.6806295967131293,2.2531794640514025
156,4,0.25,0.6632056212814379,3.995577007220541
156,4,0.0,0.6384487092544113,6.471268209923197
156,5,1.0,0.7031613913536433,0.0
156,5,0.75,0.6893922992082157,1.3769092145427653
156,5,0.5,0.6726166520565442,3.054473929709911
156,5,0.25,0.6426079702757095,6.055342107793383
156,5,0.0,0.49442419243590763,20.87371989177357
156,6,1.0,0.7031613913536433,0.0
156,6,0.75,0.7031255231671143,0.0035868186529008916
156,6,0.5,0.7068109500780355,-0.364955872439221
156,6,0.25,0.7109659085461113,-0.7804517192467997
156,6,0.0,0.7084117987305942,-0.5250407376950927
185,0,1.0,0.7099999474207777,0.0
185,0,0.75,0.7171502580755647,-0.7150310654786995
185,0,0.5,0.7171539555309,-0.7154008110122345
185,0,0.25,0.6980883557152432,1.1911591705534463
185,0,0.0,0.6710688236566675,3.893112376411012
185,1,1.0,0.7099999474207777,0.0
185,1,0.75,0.7101922606422695,-0.01923132214918244
185,1,0.5,0.7082971758262195,0.17027715945581168
185,1,0.25,0.6919237489628427,1.8076198457934955
185,1,0.0,0.6197013835616716,9.029856385910605
185,2,1.0,0.7099999474207777,0.0
185,2,0.75,0.7091017273281209,0.08982200926567208
185,2,0.5,0.6989732502830179,1.1026697137759722
185,2,0.25,0.6750708563361222,3.4929091084655473
185,2,0.0,0.5850048955296532,12.499505189112448
185,3,1.0,0.7099999474207777,0.0
185,3,0.75,0.7052336663066965,0.4766281114081172
185,3,0.5,0.700019781954547,0.9980165466230706
185,3,0.25,0.6990088959891255,1.0991051431652132
185,3,0.0,0.6855688812420413,2.443106617873636
185,4,1.0,0.7099999474207777,0.0
185,4,0.75,0.7091720788021822,0.08278686185954065
185,4,0.5,0.7030143779625189,0.6985569458258789
185,4,0.25,0.6886242974586352,2.1375649962142473
185,4,0.0,0.6659276603193617,4.407228710141597
185,5,1.0,0.7099999474207777,0.0
185,5,0.75,0.7165010711213613,-0.6501123700583644
185,5,0.5,0.7215134983185468,-1.1513550897769176
185,5,0.25,0.7022787900206471,0.7721157400130574
185,5,0.0,0.589884774103009,12.011517331776867
185,6,1.0,0.7099999474207777,0.0
185,6,0.75,0.7113350577971942,-0.13351103764165373
185,6,0.5,0.7070637684128777,0.2936179007899997
185,6,0.25,0.7011630155143773,0.8836931906400336
185,6,0.0,0.6982448876831916,1.175505973758606
186,0,1.0,0.7380243935746674,0.0
186,0,0.75,0.7355932398116811,0.24311537629863045
186,0,0.5,0.7180597309917509,1.9964662582916515
186,0,0.25,0.6852654798874116,5.275891368725583
186,0,0.0,0.6499835381948184,8.804085537984907
186,1,1.0,0.7380243935746674,0.0
186,1,0.75,0.7388463094605187,-0.08219158858512321
186,1,0.5,0.7361442780027936,0.18801155718738416
186,1,0.25,0.7289713769540613,0.9053016620606091
186,1,0.0,0.7032148392281468,3.4809554346520666
186,2,1.0,0.7380243935746674,0.0
186,2,0.75,0.746985024332876,-0.8960630758208521
186,2,0.5,0.747959368263535,-0.9934974688867615
186,2,0.25,0.7109640071654064,2.7060386409261006
186,2,0.0,0.6210274254464461,11.699696812822136
186,3,1.0,0.7380243935746674,0.0
186,3,0.75,0.7414853049765298,-0.3460911401862332
186,3,0.5,0.7377813495034484,0.024304407121900073
186,3,0.25,0.7341489074738554,0.3875486100812009
186,3,0.0,0.7171411985507854,2.088319502388203
186,4,1.0,0.7380243935746674,0.0
186,4,0.75,0.7417321722665053,-0.3707778691837915
186,4,0.5,0.7351198744833009,0.2904519091366575
186,4,0.25,0.7147830339736,2.3241359601067435
186,4,0.0,0.6745416451645496,6.348274841011781
186,5,1.0,0.7380243935746674,0.0
186,5,0.75,0.7406632109250825,-0.2638817350415046
186,5,0.5,0.7442744563640875,-0.6250062789420086
186,5,0.25,0.7216291180817398,1.639527549292763
186,5,0.0,0.6477350168629206,9.028937671174686
186,6,1.0,0.7380243935746674,0.0
186,6,0.75,0.7393379971589036,-0.1313603584236156
186,6,0.5,0.7343279370410081,0.36964565336593536
186,6,0.25,0.730469994456781,0.7554399117886468
186,6,0.0,0.7209300240617229,1.7094369512944518
188,0,1.0,0.6188399735388613,0.0
188,0,0.75,0.6045352564064423,1.4304717132418987
188,0,0.5,0.5953319242666331,2.350804927222827
188,0,0.25,0.5815371554567258,3.7302818082135536
188,0,0.0,0.5697327605262144,4.910721301264697
188,1,1.0,0.6188399735388613,0.0
188,1,0.75,0.6164996696887711,0.23403038500902085
188,1,0.5,0.606167143514561,1.2672830024300308
188,1,0.25,0.586076743476094,3.276323006276738
188,1,0.0,0.5541349348335496,6.470503870531175
188,2,1.0,0.6188399735388613,0.0
188,2,0.75,0.6046067060277934,1.4233267511067904
188,2,0.5,0.5842934762966046,3.454649724225678
188,2,0.25,0.5588359232102647,6.000405032859668
188,2,0.0,0.48353235072641976,13.530762281244158
188,3,1.0,0.6188399735388613,0.0
188,3,0.75,0.6079991575766173,1.0840815962244066
188,3,0.5,0.597023298954691,2.181667458417036
188,3,0.25,0.5798542173010053,3.898575623785605
188,3,0.0,0.567035909248389,5.180406429047235
188,4,1.0,0.6188399735388613,0.0
188,4,0.75,0.6069482754574391,1.1891698081422208
188,4,0.5,0.5936251426135941,2.5214830925267218
188,4,0.25,0.5708596820117022,4.798029152715911
188,4,0.0,0.5454871833134833,7.335279022537799
188,5,1.0,0.6188399735388613,0.0
188,5,0.75,0.6213804526437314,-0.2540479104870097
188,5,0.5,0.6311609358012997,-1.2320962262438395
188,5,0.25,0.6163535348774233,0.24864386614380507
188,5,0.0,0.5035150386097453,11.5324934929116
188,6,1.0,0.6188399735388613,0.0
188,6,0.75,0.615874440772791,0.2965532766070367
188,6,0.5,0.6169356350462287,0.19043384926326068
188,6,0.25,0.6164810005311875,0.2358973007673848
188,6,0.0,0.6215934635968551,-0.2753490057993746
189,0,1.0,0.6248597031621317,0.0
189,0,0.75,0.6177689911750663,0.7090711987065346
189,0,0.5,0.6131160292224045,1.1743673939727195
189,0,0.25,0.5995121950833601,2.534750807877162
189,0,0.0,0.5812085155022177,4.365118765991394
189,1,1.0,0.6248597031621317,0.0
189,1,0.75,0.6176676309095632,0.719207225256846
189,1,0.5,0.6084234337692295,1.6436269392902214
189,1,0.25,0.5784547290766675,4.640497408546418
189,1,0.0,0.48787432318601376,13.698537997611792
189,2,1.0,0.6248597031621317,0.0
189,2,0.75,0.6262487844254032,-0.138908126327153
189,2,0.5,0.626091661613561,-0.12319584514293158
189,2,0.25,0.614613211250228,1.0246491911903632
189,2,0.0,0.5566692620298461,6.819044113228556
189,3,1.0,0.6248597031621317,0.0
189,3,0.75,0.6205321689823544,0.43275341797772704
189,3,0.5,0.6147364958634798,1.0123207298651904
189,3,0.25,0.6077134634823711,1.7146239679760589
189,3,0.0,0.5991639130161825,2.569579014594914
189,4,1.0,0.6248597031621317,0.0
189,4,0.75,0.6134006882902894,1.145901487184231
189,4,0.5,0.6018186304231108,2.3041072739020896
189,4,0.25,0.5913052965447476,3.355440661738407
189,4,0.0,0.5878742034124361,3.698549974969556
189,5,1.0,0.6248597031621317,0.0
189,5,0.75,0.6232836748499828,0.15760283121488694
189,5,0.5,0.6166375298456988,0.8222173316432935
189,5,0.25,0.567089290834934,5.777041232719771
189,5,0.0,0.4203043613173507,20.455534184478097
189,6,1.0,0.6248597031621317,0.0
189,6,0.75,0.6315828042817004,-0.6723101119568753
189,6,0.5,0.6405126870341675,-1.5652983872035842
189,6,0.25,0.6483744521797625,-2.3514749017630843
189,6,0.0,0.6557431445830049,-3.088344142087318
190,0,1.0,0.59940374993335,0.0
190,0,0.75,0.6073772166893018,-0.7973466755951786
190,0,0.5,0.6090212664248019,-0.9617516491451927
190,0,0.25,0.6068598900260924,-0.7456140092742425
190,0,0.0,0.572197357334438,2.7206392598912
190,1,1.0,0.59940374993335,0.0
190,1,0.75,0.5991342480613925,0.026950187195751152
190,1,0.5,0.591327332940529,0.8076416992821023
190,1,0.25,0.569416646228214,2.998710370513602
190,1,0.0,0.5150622658024429,8.434148413090714
190,2,1.0,0.59940374993335,0.0
190,2,0.75,0.5911448198653065,0.8258930068043457
190,2,0.5,0.5902012751453078,0.9202474788042148
190,2,0.25,0.5718425352799705,2.756121465337946
190,2,0.0,0.5325299580890189,6.687379184433107
190,3,1.0,0.59940374993335,0.0
190,3,0.75,0.6055873097884348,-0.6183559855084786
190,3,0.5,0.6158593146228831,-1.645556468953313
190,3,0.25,0.6140738830637056,-1.467013313035559
190,3,0.0,0.6061581361200375,-0.6754386186687555
190,4,1.0,0.59940374993335,0.0
190,4,0.75,0.5948718564987234,0.4531893434626566
190,4,0.5,0.604425976337401,-0.5022226404051033
190,4,0.25,0.5961540583685166,0.3249691564833346
190,4,0.0,0.5513282718077073,4.807547812564272
190,5,1.0,0.59940374993335,0.0
190,5,0.75,0.6224427045171165,-2.303895458376648
190,5,0.5,0.6241962981885008,-2.479254825515076
190,5,0.25,0.6096557945615371,-1.0252044628187074
190,5,0.0,0.538952620509528,6.045112942382202
190,6,1.0,0.59940374993335,0.0
190,6,0.75,0.5937180557514448,0.5685694181905232
190,6,0.5,0.5896141331284339,0.9789616804916079
190,6,0.25,0.5867789289860996,1.262482094725037
190,6,0.0,0.5816988367214573,1.7704913211892714
191,0,1.0,0.6846213592021521,0.0
191,0,0.75,0.6698001330617155,1.4821226140436572
191,0,0.5,0.6542921597137155,3.03291994884366
191,0,0.25,0.6295257612249829,5.509559797716912
191,0,0.0,0.5618731942502375,12.274816495191454
191,1,1.0,0.6846213592021521,0.0
191,1,0.75,0.6805037128972111,0.4117646304940936
191,1,0.5,0.6749514039737464,0.9669955228405636
191,1,0.25,0.6579901430428358,2.6631216159316295
191,1,0.0,0.5895894404533928,9.503191874875927
191,2,1.0,0.6846213592021521,0.0
191,2,0.75,0.7008419103342004,-1.6220551132048344
191,2,0.5,0.7068666124075362,-2.2245253205384174
191,2,0.25,0.6853258721771247,-0.07045129749726486
191,2,0.0,0.6357234876102776,4.889787159187442
191,3,1.0,0.6846213592021521,0.0
191,3,0.75,0.693324177637804,-0.8702818435651904
191,3,0.5,0.688252256088848,-0.36308968866959335
191,3,0.25,0.6941857864155255,-0.9564427213373472
191,3,0.0,0.7106952962171027,-2.6073937014950643
191,4,1.0,0.6846213592021521,0.0
191,4,0.75,0.6759303039122636,0.869105528988845
191,4,0.5,0.6618086848952086,2.281267430694345
191,4,0.25,0.6496293320228641,3.4992027179287954
191,4,0.0,0.6301569591241366,5.446440007801545
191,5,1.0,0.6846213592021521,0.0
191,5,0.75,0.6968800379797024,-1.225867877755038
191,5,0.5,0.6999799174956716,-1.5358558293519509
191,5,0.25,0.6878650900492997,-0.32437308471476856
191,5,0.0,0.5899378426889202,9.468351651323182
191,6,1.0,0.6846213592021521,0.0
191,6,0.75,0.6912554773377138,-0.6634118135561695
191,6,0.5,0.6937569627336014,-0.9135603531449377
191,6,0.25,0.7010126192489321,-1.6391260046780043
191,6,0.0,0.7030654783882104,-1.8444119186058372
192,0,1.0,0.40020048803738206,0.0
192,0,0.75,0.39976278812259103,0.04376999147910343
192,0,0.5,0.3971211628465975,0.30793251907845764
192,0,0.25,0.39171571484792955,0.848477318945251
192,0,0.0,0.37709066761544136,2.3109820421940706
192,1,1.0,0.40020048803738206,0.0
192,1,0.75,0.3880128058848895,1.2187682152492552
192,1,0.5,0.3809345753914817,1.9265912645900385
192,1,0.25,0.36483513552338703,3.5365352513995028
192,1,0.0,0.3517082672311045,4.849222080627758
192,2,1.0,0.40020048803738206,0.0
192,2,0.75,0.39551156186594794,0.4688926171434127
192,2,0.5,0.38302936843334245,1.7171119604039609
192,2,0.25,0.3696259373541022,3.0574550683279855
192,2,0.0,0.3555998138214538,4.460067421592829
192,3,1.0,0.40020048803738206,0.0
192,3,0.75,0.4029446014382565,-0.2744113400874437
192,3,0.5,0.4072286872360886,-0.7028199198706564
192,3,0.25,0.40695907755240046,-0.6758589515018398
192,3,0.0,0.3986787794494319,0.15217085879501435
192,4,1.0,0.40020048803738206,0.0
192,4,0.75,0.4047185460665984,-0.4518058029216343
192,4,0.5,0.4021244961090341,-0.19240080716520502
192,4,0.25,0.3999981846331382,0.02023034042438754
192,4,0.0,0.38412842073215775,1.6072067305224313
192,5,1.0,0.40020048803738206,0.0
192,5,0.75,0.4063904327017856,-0.6189944664403535
192,5,0.5,0.4023192072348968,-0.2118719197514718
192,5,0.25,0.40486014183065056,-0.4659653793268492
192,5,0.0,0.41016269487309504,-0.9962206835712972
192,6,1.0,0.40020048803738206,0.0
192,6,0.75,0.40162115827298817,-0.1420670235606103
192,6,0.5,0.40105697197343043,-0.08564839360483689
192,6,0.25,0.4016587839006428,-0.1458295863260739
192,6,0.0,0.40336052758014407,-0.31600395427620054
193,0,1.0,0.6284104356041652,0.0
193,0,0.75,0.629511561933269,-0.11011263291037521
193,0,0.5,0.6218097205070762,0.6600715097089038
193,0,0.25,0.5937124490398081,3.4697986564357075
193,0,0.0,0.5346037088506814,9.380672675348379
193,1,1.0,0.6284104356041652,0.0
193,1,0.75,0.6187512971044398,0.9659138499725439
193,1,0.5,0.5997753147406257,2.8635120863539476
193,1,0.25,0.5713199584305297,5.709047717363546
193,1,0.0,0.520740289228134,10.767014637603122
193,2,1.0,0.6284104356041652,0.0
193,2,0.75,0.6177789166246439,1.0631518979521304
193,2,0.5,0.596732542695541,3.1677892908624217
193,2,0.25,0.5629840462871298,6.542638931703538
193,2,0.0,0.5293352863704186,9.907514923374661
193,3,1.0,0.6284104356041652,0.0
193,3,0.75,0.6379335211612529,-0.9523085557087696
193,3,0.5,0.638617527015046,-1.020709141088083
193,3,0.25,0.6402248110895667,-1.181437548540154
193,3,0.0,0.6305354455677435,-0.21250099635783393
193,4,1.0,0.6284104356041652,0.0
193,4,0.75,0.6533101742715506,-2.4899738667385374
193,4,0.5,0.6667680956669967,-3.835766006283148
193,4,0.25,0.6754767037999333,-4.706626819576809
193,4,0.0,0.6405999528019708,-1.2189517197805588
193,5,1.0,0.6284104356041652,0.0
193,5,0.75,0.6233334831252892,0.5076952478875962
193,5,0.5,0.6120153709686617,1.6395064635503553
193,5,0.25,0.5729771122679185,5.543332333624673
193,5,0.0,0.4937802225520984,13.463021305206679
193,6,1.0,0.6284104356041652,0.0
193,6,0.75,0.6259432263972214,0.24672092069437657
193,6,0.5,0.6227299605235624,0.5680475080602765
193,6,0.25,0.6259239356238467,0.24864999803184684
193,6,0.0,0.6237980817756494,0.46123538285157695
194,0,1.0,0.7546404349338413,0.0
194,0,0.75,0.7561247445473553,-0.14843096135140899
194,0,0.5,0.7504246716247107,0.4215763309130538
194,0,0.25,0.7365484219195724,1.8092013014268882
194,0,0.0,0.6795904690819261,7.504996585191515
194,1,1.0,0.7546404349338413,0.0
194,1,0.75,0.7564119787326531,-0.17715437988118365
194,1,0.5,0.7494918446893793,0.5148590244461904
194,1,0.25,0.7212612955570249,3.337913937681636
194,1,0.0,0.6359951829635513,11.864525197028996
194,2,1.0,0.7546404349338413,0.0
194,2,0.75,0.7596096190360664,-0.49691841022251326
194,2,0.5,0.7630995838523527,-0.8459148918511405
194,2,0.25,0.7523206295203724,0.23198054134688784
194,2,0.0,0.6962792680257444,5.836116690809689
194,3,1.0,0.7546404349338413,0.0
194,3,0.75,0.7531847378263428,0.1455697107498488
194,3,0.5,0.7483226595848589,0.6317775348982368
194,3,0.25,0.7455067873774768,0.9133647556364477
194,3,0.0,0.7391993769933912,1.5441057940450031
194,4,1.0,0.7546404349338413,0.0
194,4,0.75,0.7547689365713213,-0.01285016374800163
194,4,0.5,0.7460973900232006,0.8543044910640618
194,4,0.25,0.7299576385622185,2.468279637162274
194,4,0.0,0.6857159239994981,6.892451093434316
194,5,1.0,0.7546404349338413,0.0
194,5,0.75,0.7594280378475411,-0.478760291369984
194,5,0.5,0.7550253755331997,-0.038494059935845204
194,5,0.25,0.7411814654073112,1.345896952653003
194,5,0.0,0.6548880840266531,9.975235090718815
194,6,1.0,0.7546404349338413,0.0
194,6,0.75,0.7593276272871318,-0.46871923532905146
194,6,0.5,0.7634814960011325,-0.8841061067291212
194,6,0.25,0.7740873765775016,-1.9446941643660343
194,6,0.0,0.7769911992284789,-2.235076429463767
