epoch,train_ce,train_coral,val_loss,best,subject,coral_lambda
1,0.9298550605773925,0.0008306409930810332,0.6444023287900355,1,1,0.0
2,0.8159873625811409,0.0007723408169113099,0.5337436757018672,1,1,0.0
3,0.7778360570178312,0.0006446025526041494,0.5864802177344385,0,1,0.0
4,0.7442768854253432,0.000615215564132942,0.5802556871751472,0,1,0.0
5,0.7171176945461947,0.0006860815197475912,0.5321277073028785,1,1,0.0
6,0.7011446328724131,0.000805884282282718,0.5455650448675856,0,1,0.0
7,0.6782765374464147,0.0010634971166248706,0.5134874876923744,1,1,0.0
8,0.656874485576854,0.001055335408925791,0.5517651323448662,0,1,0.0
9,0.6523784974042107,0.0011045783354133806,0.4830025144792022,1,1,0.0
10,0.6289923275218291,0.0009985649150193615,0.5080229180798536,0,1,0.0
11,0.6194240345674402,0.0011664748301400858,0.4653346653191725,1,1,0.0
12,0.6082797884941101,0.0009304819967570331,0.4849817649285081,0,1,0.0
13,0.5980201612500583,0.0009794776629218284,0.5284092702441526,0,1,0.0
14,0.5879326294450199,0.000979411681456601,0.44498106415047395,1,1,0.0
15,0.5775760387673098,0.0008939039290827863,0.5009345700107168,0,1,0.0
16,0.5617792574798359,0.000956731235526283,0.4254262393115102,1,1,0.0
17,0.5529516991447,0.0009224470814361292,0.46024272631711277,0,1,0.0
18,0.5376536120386685,0.0009329026386908748,0.43935680056555193,0,1,0.0
19,0.5258376254754908,0.000886767971849836,0.4423457285487541,0,1,0.0
20,0.510834557168624,0.0007751566960531122,0.3992237258228669,1,1,0.0
21,0.4998189999776728,0.0007821448510238791,0.43628739928508864,0,1,0.0
22,0.4928437401266659,0.000846474474597284,0.42633690372987765,0,1,0.0
23,0.4953286970362944,0.0007493613897274961,0.4158538237229498,0,1,0.0
24,0.48253070571843315,0.0007832838455215096,0.4238761301617588,0,1,0.0
25,0.467336660974166,0.0007690068717826816,0.35514280560591105,1,1,0.0
26,0.45426370291148915,0.0007473423864747233,0.41583970241487456,0,1,0.0
27,0.45305240469820357,0.0008391139289254651,0.3881757666184466,0,1,0.0
28,0.4408729255199432,0.0008016890894128558,0.40282345181783696,0,1,0.0
29,0.43431609623572404,0.0007953952826723895,0.35747244353131646,0,1,0.0
30,0.4333870263660655,0.0008032570476643741,0.37945073873821683,0,1,0.0
31,0.4265136396183687,0.0007467853809323381,0.3601168843435033,0,1,0.0
32,0.41058361880919514,0.0007985098410726471,0.3539944615950875,1,1,0.0
33,0.4043420739033643,0.0007762778372339466,0.3573662691673547,0,1,0.0
34,0.40681789938141316,0.0007901087841566872,0.3430529426024396,1,1,0.0
35,0.39410940513891335,0.000734817744780551,0.3570826149159405,0,1,0.0
36,0.4007415715385886,0.0007807484978590818,0.3597505792220351,0,1,0.0
37,0.39545304529807146,0.0007806024370331536,0.357987135186437,0,1,0.0
38,0.3930720697431003,0.0007788912400000674,0.35156810573362884,0,1,0.0
39,0.3880393468281802,0.0007719024906263632,0.3503690245171244,0,1,0.0
40,0.3949327037614935,0.0007736975327134133,0.3563546846854773,0,1,0.0
1,0.9263671236879686,0.0004112329104613951,0.5888936575964364,1,2,0.0
2,0.826654211212607,0.00038495251484324826,0.5526310399986649,1,2,0.0
3,0.7798240388140959,0.00036004818342489134,0.6441670004807338,0,2,0.0
4,0.7564307942109949,0.0003812779324909891,0.5290719170907661,1,2,0.0
5,0.7342542802586275,0.0004590079205466763,0.5063805405167735,1,2,0.0
6,0.7134310133316938,0.0004098170661189429,0.5228860948609327,0,2,0.0
7,0.6938073691199808,0.00044607328720089486,0.4839830159775038,1,2,0.0
8,0.6736794408629923,0.00042796512613730393,0.4726984389173951,1,2,0.0
9,0.6642588454134324,0.00045118343756150674,0.4523986316369177,1,2,0.0
10,0.6509252562242396,0.00047102232518441534,0.4875493637510321,0,2,0.0
11,0.6340194435680614,0.0004179015560486518,0.474757383343325,0,2,0.0
12,0.6233111984589521,0.0003754690239849665,0.4183145789813129,1,2,0.0
13,0.6203371956067927,0.0003888390792246141,0.44539651423349624,0,2,0.0
14,0.5891970795743605,0.00036987519929158115,0.4213925524211869,0,2,0.0
15,0.5844368145746344,0.0003725682616384481,0.4081505095821096,1,2,0.0
16,0.5578851086251876,0.00034999717249507633,0.3878050287206266,1,2,0.0
17,0.5511411870227141,0.0003581227984635488,0.3836298664685374,1,2,0.0
18,0.5438794683007633,0.00037588677625856635,0.36706710297468526,1,2,0.0
19,0.5243840704945957,0.0003783050996443147,0.3707117427823778,0,2,0.0
20,0.5177281421773574,0.0003927311248844489,0.3876471957070317,0,2,0.0
21,0.5047944370438071,0.00037528095862773413,0.4030448087026744,0,2,0.0
22,0.4938256221659043,0.00039332694945829535,0.34526087346527967,1,2,0.0
23,0.48886766398654263,0.0003928619556758991,0.3538901816608504,0,2,0.0
24,0.4688680021201863,0.00035626995171803764,0.324331409504447,1,2,0.0
25,0.4662946665988249,0.0003927696066538749,0.3779774185562643,0,2,0.0
26,0.4615923296002781,0.00037425872972509,0.3367284783046625,0,2,0.0
27,0.45260493439786575,0.00039899058414020523,0.3292073200693381,0,2,0.0
28,0.44347289590274586,0.00039292262894484925,0.3505979312813001,0,2,0.0
29,0.4310508633361143,0.00038451495655702757,0.3189072325534072,1,2,0.0
30,0.42215468953637514,0.00037016316251966224,0.3259653403309604,0,2,0.0
31,0.4197173518293044,0.00038703649359590867,0.3201215513027684,0,2,0.0
32,0.4032011456349317,0.0004001413725371308,0.3099367870177514,1,2,0.0
33,0.4080998799380134,0.00038959687962607643,0.3169811597014364,0,2,0.0
34,0.4016870453077204,0.00036156915456933135,0.312242070552706,0,2,0.0
35,0.3943365710623124,0.00037537022949169006,0.3110769989550777,0,2,0.0
36,0.3925156908876756,0.0004124849192414652,0.3110908638384793,0,2,0.0
37,0.3919427710420945,0.0003809198274907163,0.31354034984001616,0,2,0.0
38,0.3835254155537661,0.00038061370655401226,0.3078244971885732,1,2,0.0
39,0.3910700030186597,0.00036919036339146685,0.30854741066654234,0,2,0.0
40,0.39465162613812615,0.00036813358618768263,0.3086727384352057,0,2,0.0
1,0.9338782507748831,0.0007237995173671239,0.5739155519014352,1,3,0.0
2,0.8075900829973675,0.0008527104378334202,0.6433791959960075,0,3,0.0
3,0.7687931898094359,0.0007996600335380728,0.5367510659925546,1,3,0.0
4,0.7401608647335143,0.0009382361486565234,0.5287763749821646,1,3,0.0
5,0.725209721497127,0.0007956991958919735,0.5666455042727956,0,3,0.0
6,0.7058987099499929,0.0006927488041886439,0.5489940336715227,0,3,0.0
7,0.6844708933716729,0.0006936647783039094,0.5175978542374284,1,3,0.0
8,0.6680707434813181,0.0006318365267361514,0.47338489178043086,1,3,0.0
9,0.655847953188987,0.0005783695471888807,0.45442093107295745,1,3,0.0
10,0.6328952376331601,0.0005654429059220655,0.483533098036468,0,3,0.0
11,0.6212534379391443,0.0005127357289893553,0.4860573546569848,0,3,0.0
12,0.6076840325480416,0.0004396441772336229,0.45558782740498777,0,3,0.0
13,0.5978981788669314,0.00041657943040176873,0.469589126532967,0,3,0.0
14,0.5728188401886395,0.0003869657202379867,0.4490366256791359,1,3,0.0
15,0.5689039123909814,0.00042174455544833717,0.4184978522167453,1,3,0.0
16,0.5532641126995995,0.00038046335976105183,0.4332248133215214,0,3,0.0
17,0.5375253685883113,0.0004234722586088104,0.42730197110432105,0,3,0.0
18,0.5337070574363073,0.0003975342669513165,0.47321189551374027,0,3,0.0
19,0.5078401686180205,0.00032408154341586243,0.4542794191454424,0,3,0.0
20,0.49826484492846895,0.00033887738460353355,0.42333384241090866,0,3,0.0
21,0.4916197458902995,0.000401744313075185,0.4452986664362859,0,3,0.0
22,0.4800157632146563,0.00042970898409423953,0.3892254524097232,1,3,0.0
23,0.4824529503073011,0.00043680827643367506,0.3947057893440799,0,3,0.0
24,0.46669216489508036,0.0004284118672547352,0.3726886470917316,1,3,0.0
25,0.4539597396339689,0.00037914566530075503,0.39260907196872874,0,3,0.0
26,0.45225721030008226,0.00039212520260618823,0.3742454032398482,0,3,0.0
27,0.43364380087171284,0.0003640346207941461,0.37338708352551137,0,3,0.0
28,0.4312924799464998,0.00038688392963931185,0.3694307463223959,1,3,0.0
29,0.4216545543500355,0.00035925133609756205,0.4020202956372231,0,3,0.0
30,0.41823901377973105,0.0003686917698360048,0.38604102781612143,0,3,0.0
31,0.41343966800542103,0.00035988203186813433,0.36529599013716013,1,3,0.0
32,0.4022309368564969,0.0003442683505238078,0.34595454018473737,1,3,0.0
33,0.39914029872133616,0.0003395741654717962,0.385987641963097,0,3,0.0
34,0.39247662999800276,0.000332739110100582,0.35838924952687146,0,3,0.0
35,0.3912250708256449,0.0003612605947377493,0.35666357894443257,0,3,0.0
36,0.3859595326440675,0.0003601268129256953,0.36881788503575075,0,3,0.0
37,0.38567268209797995,0.0003768580811863233,0.3603871609026268,0,3,0.0
38,0.38690628501630964,0.00036300703037081154,0.35045671705888765,0,3,0.0
39,0.3857983677160172,0.0003819164984244188,0.35733024968854077,0,3,0.0
1,0.9428841899423038,0.0005443866220850716,0.5852621612531361,1,4,0.0
2,0.8274305932662066,0.000526257898822865,0.528706285168774,1,4,0.0
3,0.7879869454047259,0.0005016867191229454,0.5302610702301931,0,4,0.0
4,0.7645692916477428,0.0004553650362033616,0.5024800866390011,1,4,0.0
5,0.7350079129723942,0.0005078451591543853,0.5209246497271823,0,4,0.0
6,0.7172725698527168,0.0006293002904653001,0.48902313420592897,1,4,0.0
7,0.7007775902748108,0.0005451057137072305,0.4672914042031809,1,4,0.0
8,0.6963420895969167,0.0005262662831228227,0.4687505512221018,0,4,0.0
9,0.6652103410047643,0.000448063389151631,0.40889114439331503,1,4,0.0
10,0.6590410190470078,0.0003856680054655846,0.44726890441535155,0,4,0.0
11,0.6473880006986505,0.0003507825956844232,0.43481486687784665,0,4,0.0
12,0.6350963017519783,0.0003482111034613541,0.41800734182417176,0,4,0.0
13,0.6150618798592511,0.0003073372270377791,0.40967738654509317,0,4,0.0
14,0.5971298203748815,0.0002744791008915533,0.38770075705758195,1,4,0.0
15,0.5772279634195215,0.00026264957782319364,0.4048347684439254,0,4,0.0
16,0.560905579959645,0.000262450471157482,0.3770027176181195,1,4,0.0
17,0.5527890233432545,0.00027545971542542033,0.3778122064040039,0,4,0.0
18,0.5391862220623914,0.0002560745506985661,0.37413804324695665,1,4,0.0
19,0.5296092562815722,0.00024582354988738454,0.36795813026913543,1,4,0.0
20,0.5201240150367512,0.00024160486834315473,0.3781667483979295,0,4,0.0
21,0.5008694133337807,0.00026540362365160355,0.3683094669997006,0,4,0.0
22,0.49566188489689544,0.0002651598326765987,0.3535179410096646,1,4,0.0
23,0.4894819305223577,0.0002623781272525187,0.3544595493924814,0,4,0.0
24,0.47087567729108476,0.0002828290725387085,0.35264869320363756,1,4,0.0
25,0.4630925416946411,0.0002806844600640676,0.33199434921005083,1,4,0.0
26,0.45224745063220756,0.0002932210733620998,0.3317860628296448,1,4,0.0
27,0.451908440099043,0.000289872960146407,0.35279333487168646,0,4,0.0
28,0.4381404070293202,0.0002758485693073667,0.336647644697497,0,4,0.0
29,0.43536560149753795,0.0003006004896151888,0.3623325139389401,0,4,0.0
30,0.42677460488151103,0.00030376867096706787,0.3355919143437466,0,4,0.0
31,0.4161247169270235,0.00030282556219711243,0.34398626484861866,0,4,0.0
32,0.41459200417294223,0.00029618892774177605,0.3375574746356779,0,4,0.0
33,0.4047179877758026,0.00029846929571837843,0.3457603902872291,0,4,0.0
1,0.9292008399963378,0.0007277114803026266,0.4963293959676348,1,5,0.0
2,0.817223096595091,0.0008016681000727284,0.49600511742658554,1,5,0.0
3,0.7818483871572158,0.0008124852977583513,0.44366256021632033,1,5,0.0
4,0.7383050399668076,0.000899279661312261,0.42007884013005736,1,5,0.0
5,0.7260567980654099,0.0010573480411788776,0.3926342013048976,1,5,0.0
6,0.7016890189226936,0.0009179524327491356,0.4028410308825198,0,5,0.0
7,0.6841976306017707,0.0008746859559323639,0.3888030335664874,1,5,0.0
8,0.6653286786640391,0.0008298514609444229,0.4416459937091909,0,5,0.0
9,0.6564418091493495,0.0008298430800684454,0.3901653253241969,0,5,0.0
10,0.6289402817978579,0.0007396959189517314,0.35584530326108094,1,5,0.0
11,0.6154138771926656,0.0006603484593249639,0.385826513171196,0,5,0.0
12,0.6074442667119643,0.0006062610893208972,0.35381954099539675,1,5,0.0
13,0.5841899121508879,0.0006416456876596545,0.34179298823897675,1,5,0.0
14,0.5803851075032178,0.0006588486163630424,0.380095728566104,0,5,0.0
15,0.5675524848348954,0.0005752477407975889,0.35622735228583935,0,5,0.0
16,0.5673032862298629,0.0005514043516835526,0.3357082349957902,1,5,0.0
17,0.5434602898709914,0.0006291482371606809,0.3344920695854627,1,5,0.0
18,0.5345437014804167,0.0005615615217453416,0.3329355387728747,1,5,0.0
19,0.5301268170861637,0.0006000124780899461,0.3392381929094458,0,5,0.0
20,0.5132294854697059,0.00061394240371609,0.33068279474818135,1,5,0.0
21,0.49132262047599345,0.0004838965528452878,0.324696108737731,1,5,0.0
22,0.4921466869466445,0.0005386062031474841,0.33717370660108414,0,5,0.0
23,0.4799866869169123,0.0005418513928923537,0.3046771968269647,1,5,0.0
24,0.47711028316441706,0.0005602339450406896,0.289231297005909,1,5,0.0
25,0.4653034543289858,0.00047466754023095265,0.291372035507556,0,5,0.0
26,0.4454295393298654,0.000509367769871674,0.295612463852029,0,5,0.0
27,0.4417704533128177,0.00045423812133616164,0.2956690248607469,0,5,0.0
28,0.4332799041972441,0.000493602518005954,0.2950603858974134,0,5,0.0
29,0.4240276245509877,0.0004884575106724001,0.29772800068703476,0,5,0.0
30,0.41988963519825656,0.0005011530986795312,0.28075124184544625,1,5,0.0
31,0.4106076934758355,0.0004825332438271931,0.29425536992809964,0,5,0.0
32,0.41238312475821554,0.0004876212014898877,0.28024060926973693,1,5,0.0
33,0.40286409679581137,0.0005136111912125831,0.28224656513128,0,5,0.0
34,0.3937532316235935,0.0005159703638021122,0.28592202078652157,0,5,0.0
35,0.39190906286239624,0.0005378343168344787,0.2749511985679882,1,5,0.0
36,0.3888120626702028,0.0005364881708588013,0.27484969935517967,1,5,0.0
37,0.3833080412710414,0.0005249653104007901,0.2758417428473092,0,5,0.0
38,0.3841615950360018,0.0005171813351540443,0.2744971873678096,1,5,0.0
39,0.38704654083532447,0.0005250704786329365,0.27476123921448725,0,5,0.0
40,0.3831002856002134,0.0005243944651310277,0.27326974006358046,1,5,0.0
1,0.9126016135726657,0.0006159026961540803,0.7870482332730275,1,6,0.0
2,0.8111923847879682,0.0004160276016808071,0.6837004216257578,1,6,0.0
3,0.770522681020555,0.00042245236320360123,0.775594261545046,0,6,0.0
4,0.7505783807663691,0.00039338464505687753,0.6375280833968135,1,6,0.0
5,0.721549738021124,0.0004117729222343769,0.6678573507202737,0,6,0.0
6,0.6934494858696347,0.0004292188991495918,0.6324803215314666,1,6,0.0
7,0.6816745059830802,0.00040263942199609507,0.5989465049576707,1,6,0.0
8,0.6671478606405712,0.00038692445343171825,0.6254775135026794,0,6,0.0
9,0.6550037598326093,0.00036268471636243964,0.5899721761080889,1,6,0.0
10,0.6396726600470997,0.0003910466418476842,0.5261590801526244,1,6,0.0
11,0.6203867732768967,0.00039394380014744543,0.5074124793301202,1,6,0.0
12,0.609504623782067,0.00037719816706764203,0.5584897154530403,0,6,0.0
13,0.6059634994183268,0.00038701984019661763,0.5842932404002823,0,6,0.0
14,0.591052209692342,0.0003810106824121682,0.5246581088768806,0,6,0.0
15,0.5698626488447189,0.0003276448126901717,0.549047975377603,0,6,0.0
16,0.5570920932860601,0.0003270189604552884,0.4949038182050462,1,6,0.0
17,0.5540176168793723,0.00033381968525992266,0.45456221932511254,1,6,0.0
18,0.532669549541814,0.00033511119961206404,0.46888858156177493,0,6,0.0
19,0.5204216117660204,0.0003205278557115456,0.4729331977013521,0,6,0.0
20,0.5147796922496387,0.000300439117598303,0.49908156376654367,0,6,0.0
21,0.5100249346523058,0.00030528747897949957,0.4412510201767134,1,6,0.0
22,0.48539936507032033,0.0003075878010436316,0.44832241304296855,0,6,0.0
23,0.4846567493819055,0.0003283586899799827,0.4779244010544843,0,6,0.0
24,0.4771329639923005,0.0003415170557716573,0.4163641550769072,1,6,0.0
25,0.4660245481701124,0.0003140266741129814,0.41753893561094685,0,6,0.0
26,0.46918434649705887,0.0003277509436191481,0.4469695453444197,0,6,0.0
27,0.44815869061719804,0.000333004322913309,0.4488300842728058,0,6,0.0
28,0.44552983804827645,0.0003325284692220434,0.4368806035624912,0,6,0.0
29,0.42975773697807673,0.0003598169205361046,0.4250675714051552,0,6,0.0
30,0.42333927502234775,0.0003748700220880675,0.42301247599678826,0,6,0.0
31,0.42721256826605114,0.00039951511800089586,0.41802424464266735,0,6,0.0
1,0.9322414107265926,0.0010053245517026102,0.5407516556104822,1,7,0.0
2,0.8271019770985558,0.0008587860405289879,0.5545057931810405,0,7,0.0
3,0.7646140945809228,0.000753996384100035,0.4990609120582138,1,7,0.0
4,0.7408354473965508,0.0007800393165477241,0.5150014188280295,0,7,0.0
5,0.7260797357275373,0.0007337902321264014,0.4619114036523253,1,7,0.0
6,0.7066943695147833,0.0009243040185538121,0.4096442755057046,1,7,0.0
7,0.6868929664293925,0.0009756229057009998,0.44196451961431865,0,7,0.0
8,0.6676863708666393,0.0009657799341117165,0.41717246566967353,0,7,0.0
9,0.6486782814775195,0.0010683287795732862,0.4095191526569242,1,7,0.0
10,0.635382225825673,0.0009944796655049902,0.4199264983399421,0,7,0.0
11,0.6249960295501209,0.000971587565713673,0.42315978955416317,0,7,0.0
12,0.6114718523763475,0.0008677603396964038,0.4199442617801497,0,7,0.0
13,0.5888431966304779,0.0007690521912688079,0.37851538567004384,1,7,0.0
14,0.578731663879894,0.0007232174178906938,0.37893518533843373,0,7,0.0
15,0.5653321803325698,0.0006484353995931867,0.36078525884307444,1,7,0.0
16,0.5572918880553472,0.0006438369351339393,0.386097617460156,0,7,0.0
17,0.5523448366494406,0.0006880754157291015,0.3547396631626135,1,7,0.0
18,0.5295450822228477,0.0005802382535572784,0.3673879944994823,0,7,0.0
19,0.5153431548249154,0.0006483310038068643,0.35450618503228676,1,7,0.0
20,0.49772709146851585,0.0006395019566601453,0.3626121194360888,0,7,0.0
21,0.49443160990873974,0.0005468797569933702,0.3232066584634623,1,7,0.0
22,0.48082374568496433,0.0005552451014712764,0.32521133379327466,0,7,0.0
23,0.47579301290568854,0.00058587910046169,0.340505479470067,0,7,0.0
24,0.4624657098736082,0.000565472866929624,0.33868016613315527,0,7,0.0
25,0.459602666752679,0.0005752759350885061,0.3227527945780982,1,7,0.0
26,0.44166960957504453,0.0005783023952972144,0.3214823414216261,1,7,0.0
27,0.4375892689540273,0.0005627916304677326,0.32648201800172627,0,7,0.0
28,0.43234648200727643,0.00048770372987270267,0.31450711825670374,1,7,0.0
29,0.4290932643981207,0.0005029617272417194,0.31258726285766425,1,7,0.0
30,0.4281201245529311,0.0005129114447516345,0.3101097426740774,1,7,0.0
31,0.4118706598168328,0.0005236690873668218,0.32919632600922993,0,7,0.0
32,0.40834503762778784,0.0004767926438944414,0.31937668789648244,0,7,0.0
33,0.40712980429331463,0.00048562392614604464,0.31117979729768547,0,7,0.0
34,0.39429322843040737,0.0005168480666248971,0.3211267852726242,0,7,0.0
35,0.38561990076587316,0.0005056654595786572,0.31443483019336654,0,7,0.0
36,0.38782907241866704,0.0005427831305756367,0.308508088011217,1,7,0.0
37,0.39351393779118854,0.0005008379779437313,0.3095911178401042,0,7,0.0
38,0.3860692802284445,0.0005122976886230477,0.3088851080852757,0,7,0.0
39,0.38297477719329653,0.0005039218404341401,0.31026739360026595,0,7,0.0
40,0.3816589117050171,0.0004934708115234528,0.30930670459782833,0,7,0.0
1,0.9364079428570611,0.0014572780294526768,0.5285393147811591,1,8,0.0
2,0.8096610414130347,0.0013212957412525568,0.5796081721499662,0,8,0.0
3,0.7840992552893502,0.001243179857348358,0.5017053149888205,1,8,0.0
4,0.7487490936404183,0.0010008185390255502,0.5892117653264959,0,8,0.0
5,0.7310807598488671,0.001035539182166325,0.5432914211313044,0,8,0.0
6,0.6999181423868451,0.0010114272452136945,0.5165744825688183,0,8,0.0
7,0.6907701840003332,0.000941003188754188,0.5269427478087028,0,8,0.0
8,0.6647192963532039,0.0009366450082909848,0.4975563369245611,1,8,0.0
9,0.6518645740690685,0.0007667654263925561,0.5324180139669156,0,8,0.0
10,0.6382024572009132,0.0007459178450517356,0.46495029778491287,1,8,0.0
11,0.6299831806903794,0.0007368964278222327,0.5136664470999103,0,8,0.0
12,0.605879619717598,0.0007218933120990793,0.47503397763412225,0,8,0.0
13,0.5924959161451885,0.0006783817249621885,0.4448792751514108,1,8,0.0
14,0.591115285952886,0.0006226129941448258,0.4220032014540005,1,8,0.0
15,0.5668416984734082,0.0006536813917115243,0.41699211370175154,1,8,0.0
16,0.5502472785966737,0.0006128026541860198,0.46969347706122955,0,8,0.0
17,0.5338218510150909,0.0005319672716376815,0.4134175232828286,1,8,0.0
18,0.5303203708359173,0.0005466788684965909,0.3836272876401912,1,8,0.0
19,0.5124374337139583,0.000624562904357888,0.40277111998707027,0,8,0.0
20,0.496320668785345,0.0005576473546777075,0.3962351942164266,0,8,0.0
21,0.49378502120574314,0.0005931869446136435,0.4115153532386788,0,8,0.0
22,0.47841448585192364,0.0006507324765802228,0.3932500808709367,0,8,0.0
23,0.46953420979636057,0.00048102820385663236,0.38625676422985755,0,8,0.0
24,0.45998588062468027,0.0004929156039863647,0.3740642981184514,1,8,0.0
25,0.45485587666432065,0.0005181261225342972,0.42437006263920274,0,8,0.0
26,0.4358571370442708,0.0005484633272447224,0.3965236512344447,0,8,0.0
27,0.4375676821385111,0.0005381569391742925,0.3784567165274283,0,8,0.0
28,0.43130559261356083,0.0005286676977924625,0.4007254011667239,0,8,0.0
29,0.41624400871140615,0.00045879235230608,0.3756283239230641,0,8,0.0
30,0.4052412364454496,0.000480742709831767,0.4241206843055721,0,8,0.0
31,0.40470352591503234,0.00047764717064204714,0.37725918813973863,0,8,0.0
1,0.9245192039580572,0.0007626740469796849,0.5255482873806143,1,9,0.0
2,0.8180993596712748,0.0005999166976488638,0.5343967626724803,0,9,0.0
3,0.7716121808404014,0.0007459787905515571,0.5031368756179655,1,9,0.0
4,0.7352130782036554,0.0006375834359676533,0.5080303204141875,0,9,0.0
5,0.7254893212091356,0.0005927015258099086,0.4938837530865938,1,9,0.0
6,0.6967195428553081,0.0005475924550583365,0.4669714331891345,1,9,0.0
7,0.6707190601598649,0.0005591495947945597,0.4705315654188769,0,9,0.0
8,0.6688803029911858,0.00048513223217534166,0.4411919492533091,1,9,0.0
9,0.6347786929635775,0.00047162998470455584,0.4433022363706854,0,9,0.0
10,0.6373060239212853,0.0004808857127153758,0.423053145136832,1,9,0.0
11,0.6155786911646525,0.0004766698551802186,0.4364802021113616,0,9,0.0
12,0.59958544586386,0.00043464554030270806,0.40552995816545295,1,9,0.0
13,0.5845207795500755,0.0004346270992148978,0.4549427735400018,0,9,0.0
14,0.5724197526772817,0.0004081919715168797,0.3826357073492389,1,9,0.0
15,0.5684948176855132,0.0003936479404815362,0.405898995387134,0,9,0.0
16,0.5455195868299121,0.0003609777243885522,0.38729814946695534,0,9,0.0
17,0.5433298413242612,0.00033370098771272404,0.3869224105609706,0,9,0.0
18,0.5295116014423824,0.0003720082434786794,0.4080131738066732,0,9,0.0
19,0.5196426592412449,0.00038747213797510734,0.3672912572004362,1,9,0.0
20,0.5038307752637636,0.00033172062345935654,0.4008910374113101,0,9,0.0
21,0.49349521065042135,0.0002972917160756576,0.35673410641770953,1,9,0.0
22,0.4869706981948444,0.00029951973556308076,0.3544204067700539,1,9,0.0
23,0.47515976145153954,0.0003154461756778238,0.3405866368572965,1,9,0.0
24,0.4635664632632619,0.00032886086773942225,0.3560688622462976,0,9,0.0
25,0.45131385042553857,0.00030277071242120916,0.3577301646464559,0,9,0.0
26,0.4474078608410699,0.00032877640513193215,0.37324168552737064,0,9,0.0
27,0.43751706466788337,0.0003417311201614904,0.3383184134930791,1,9,0.0
28,0.42659169896727517,0.00031279744975368625,0.3574545342610157,0,9,0.0
29,0.43004764439094634,0.00035164553056737143,0.33831187272258423,1,9,0.0
30,0.4062655422659147,0.0003184439592587296,0.35093381763283243,0,9,0.0
31,0.40558687703950064,0.0003409779074856834,0.32661580127802337,1,9,0.0
32,0.40607497557288125,0.0003428365912224676,0.35070233038009785,0,9,0.0
33,0.3992993849373999,0.0003265135862983741,0.32350432057009854,1,9,0.0
34,0.3798420092179662,0.00035127702271676666,0.3272387986134537,0,9,0.0
35,0.3866046713221641,0.00036223936521786353,0.33325639105405835,0,9,0.0
36,0.37589503789231893,0.0003471709476018857,0.32916850863138913,0,9,0.0
37,0.38128074045692173,0.0003543194777323931,0.3288027814545595,0,9,0.0
38,0.3718584410491444,0.00037279831407691484,0.3223431903059946,1,9,0.0
39,0.38354267995981944,0.000344109308657824,0.32880461429554986,0,9,0.0
40,0.3793224681700979,0.00033920688015530773,0.32487424166259254,0,9,0.0
1,0.9168073086177602,0.0009245921857655049,0.6435427149828714,1,10,0.0
2,0.8148512714049395,0.0007602346982286476,0.642794037320955,1,10,0.0
3,0.7649464880718905,0.0006968121787341421,0.6601247210229493,0,10,0.0
4,0.7387483631863313,0.0006682826414950849,0.619680618596083,1,10,0.0
5,0.7209056216127733,0.0005712847112376681,0.5643878758570295,1,10,0.0
6,0.7028101374121273,0.0005501546951777795,0.5920382666521652,0,10,0.0
7,0.6755527250907001,0.0005114266700248289,0.6094848464158278,0,10,0.0
8,0.6576160781523761,0.0005765927020761677,0.49948560598971653,1,10,0.0
9,0.6423456227078157,0.000535160961889607,0.5228598981967876,0,10,0.0
10,0.6145640646710115,0.0005362023914451985,0.5472853423488462,0,10,0.0
11,0.6041911528390996,0.0005796869494267466,0.502628165815865,0,10,0.0
12,0.5939556318170884,0.0005164982394917923,0.5485248055244196,0,10,0.0
13,0.5732216035618501,0.0005136122197761913,0.47405723816452683,1,10,0.0
14,0.5614429284544552,0.0005186309627092936,0.49713065866084827,0,10,0.0
15,0.5401147386607001,0.00046141252558514037,0.5068409680989304,0,10,0.0
16,0.5413259976050433,0.0005310030893751366,0.518408538196955,0,10,0.0
17,0.5203026382362141,0.00047736353487433755,0.4730426511160208,1,10,0.0
18,0.5117010172675638,0.0005505962105577483,0.46357846716167406,1,10,0.0
19,0.5065421791637645,0.0004493838398689952,0.488181983201816,0,10,0.0
20,0.4886443895452163,0.0004511401060667327,0.46442942691667494,0,10,0.0
21,0.4851941490874571,0.00044845352052053544,0.4768962130935662,0,10,0.0
22,0.479870105490965,0.00044870869366123395,0.5129444519231303,0,10,0.0
23,0.4650019568555495,0.00042348517402869594,0.440078506609526,1,10,0.0
24,0.46507183839293087,0.0004322512790916816,0.43530998932286524,1,10,0.0
25,0.43887849765665393,0.0004656958431416356,0.5063699472008436,0,10,0.0
26,0.432683158271453,0.00044459428686155554,0.45441391332384734,0,10,0.0
27,0.4303401137099547,0.0004824655524263268,0.4256388849479861,1,10,0.0
28,0.41543287634849546,0.0004775595844394582,0.45926079815787074,0,10,0.0
29,0.41104231687153087,0.0005028160703231526,0.47874182549737904,0,10,0.0
30,0.4073727285160738,0.00047140649745843426,0.4539126407090925,0,10,0.0
31,0.38547668737523694,0.0005003758490441696,0.4644950562488798,0,10,0.0
32,0.3917323298314038,0.00048476352479637544,0.458780975159283,0,10,0.0
33,0.39517027665587035,0.00048248917720390157,0.4496132033624915,0,10,0.0
34,0.38140495910364036,0.00046354551176430985,0.4433627702134097,0,10,0.0
1,0.8969161934163197,0.0011607926354339593,0.6665178491090595,1,11,0.0
2,0.8050411530287869,0.0008912742658972695,0.5961037527582422,1,11,0.0
3,0.7684338078441391,0.0007983703655050507,0.55513342167369,1,11,0.0
4,0.747138752276639,0.0007653965142061822,0.5681227007403756,0,11,0.0
5,0.7173201176057379,0.000783386180550421,0.49592809099403184,1,11,0.0
6,0.7036030565399721,0.0007283041276127459,0.5717892199445277,0,11,0.0
7,0.6753523048148098,0.0006689367723280946,0.5092928116186167,0,11,0.0
8,0.6634009695914854,0.0005329337589237951,0.5169781275415027,0,11,0.0
9,0.6329619791134294,0.0005551131437981434,0.5450475470098032,0,11,0.0
10,0.6178915805845375,0.0005400502803196838,0.5501188195873968,0,11,0.0
11,0.6086672504982317,0.0005162910303011177,0.49613608861360126,0,11,0.0
12,0.5889661900968437,0.00045894745773080375,0.4553587901469167,1,11,0.0
13,0.5792347638003797,0.0004871890421519168,0.5217403177116935,0,11,0.0
14,0.5678385532045939,0.00044819007677458095,0.4569760304920798,0,11,0.0
15,0.5549236008201737,0.00042447911930292936,0.5123262075534547,0,11,0.0
16,0.531875209995063,0.00038144493272881507,0.5091637501258439,0,11,0.0
17,0.5187558671796179,0.0003739571330664926,0.44006453955612207,1,11,0.0
18,0.5169384960668633,0.0004014624102133697,0.46450801998854757,0,11,0.0
19,0.5015563957662468,0.000340541620971635,0.5049350770593487,0,11,0.0
20,0.4910450663911291,0.00032189287541922274,0.4201389264064378,1,11,0.0
21,0.4913050683147936,0.00031856117252518525,0.43918555697755407,0,11,0.0
22,0.47315049063728515,0.000345271295855237,0.4141362971979927,1,11,0.0
23,0.46913441369332465,0.00032027816282113994,0.45139663816908016,0,11,0.0
24,0.45540541410446167,0.00031120894744666853,0.4224544849098898,0,11,0.0
25,0.4510066362030535,0.00030706267409778414,0.41676528491234527,0,11,0.0
26,0.43442293139825383,0.0002915545114938798,0.40631439259003316,1,11,0.0
27,0.43026538498430367,0.0003360514106517882,0.416301157784506,0,11,0.0
28,0.4189138778720994,0.0003104578364915383,0.4209634377283741,0,11,0.0
29,0.41073759241276475,0.00029872266624083585,0.4428826541509643,0,11,0.0
30,0.4211622139057481,0.00030507018834532025,0.434453142462208,0,11,0.0
31,0.3986898858145059,0.00030639137268341314,0.43836225762904846,0,11,0.0
32,0.3958267174571393,0.00030596062354462964,0.4380745037287357,0,11,0.0
33,0.38270656369536754,0.00031501907804077603,0.42249379184030006,0,11,0.0
1,0.9305757304956747,0.0005286798956614464,0.6283805642313968,1,12,0.0
2,0.8181541672972745,0.0005424010220828444,0.6256939207492221,1,12,0.0
3,0.7816459404867749,0.0005716515148632488,0.5627661312395315,1,12,0.0
4,0.760413296000902,0.0005568432470047196,0.5463283353679236,1,12,0.0
5,0.7395063957502676,0.0006783217825212104,0.5972541419598207,0,12,0.0
6,0.7214843339698259,0.0005878172963749358,0.5523464330928985,0,12,0.0
7,0.6965780466101891,0.0006706697184749511,0.4767512586563333,1,12,0.0
8,0.6666887291642123,0.0006158859198263218,0.45747058815194463,1,12,0.0
9,0.6555080510849176,0.0006077440349293094,0.435066395666134,1,12,0.0
10,0.6409575651551402,0.0006261843975449284,0.43328385420817195,1,12,0.0
11,0.6178621303203494,0.0006106775301389483,0.42436929924419725,1,12,0.0
12,0.6233792481727378,0.0005046818887633488,0.4124369559503574,1,12,0.0
13,0.5890170453592788,0.0006224590185813086,0.5111792959568585,0,12,0.0
14,0.5790086159872454,0.0005660544875142879,0.4338480359705241,0,12,0.0
15,0.5586967499450196,0.0006631182118855027,0.4223173672976147,0,12,0.0
16,0.5556474799333617,0.0005576829321081425,0.41276557334876374,0,12,0.0
17,0.5401394640983537,0.0006393662103597984,0.37375464521003465,1,12,0.0
18,0.5212129496557768,0.0005567009739447818,0.3876703000887243,0,12,0.0
19,0.5206591379503871,0.0006112397890700417,0.3745060802920996,0,12,0.0
20,0.4982431180948435,0.0005696540891983394,0.37432697742341586,0,12,0.0
21,0.49623436775318414,0.0005851466334587353,0.36757704438980515,1,12,0.0
22,0.48693619252637377,0.0005519199467651265,0.3637227907431822,1,12,0.0
23,0.4752896327612012,0.0005621212791126265,0.35717504090950913,1,12,0.0
24,0.46707252049168874,0.0006240870100364826,0.35269704473368174,1,12,0.0
25,0.45329896967078365,0.0006331736611088651,0.3343937696530684,1,12,0.0
26,0.4479988241611525,0.0005837835210407976,0.3610707749396998,0,12,0.0
27,0.43404746610064837,0.0005909057484999255,0.3298819499416842,1,12,0.0
28,0.4259136644906776,0.0006323808318188111,0.32316310172838947,1,12,0.0
29,0.4274427592754364,0.0006926568468009274,0.3519214026752116,0,12,0.0
30,0.41485843166362407,0.0006807112797612844,0.3465885060886589,0,12,0.0
31,0.4137315171402554,0.0005718235344068299,0.34497644733524624,0,12,0.0
32,0.40193418396073716,0.0006059725213184043,0.3228678882508123,1,12,0.0
33,0.39497166975986125,0.0006291426983553657,0.3265259856855663,0,12,0.0
34,0.3925335739934167,0.0006766490483261255,0.3284072199232605,0,12,0.0
35,0.3843851432550785,0.0006515769694720633,0.32025090103112613,1,12,0.0
36,0.3913850091224493,0.0006463906621468406,0.3339724601898445,0,12,0.0
37,0.3827719527275063,0.0006530749994644159,0.35019516632733033,0,12,0.0
38,0.3789544597614643,0.0006010369235259848,0.3321576240532051,0,12,0.0
39,0.3778935372829437,0.0006181904149301306,0.3340143513724068,0,12,0.0
40,0.37468053435170373,0.0006114568244557568,0.33877992722777756,0,12,0.0
1,0.9336891500722795,0.0007032086771990483,0.5947426508665085,1,13,0.0
2,0.8183079127754483,0.0006378572070389055,0.6435768508911133,0,13,0.0
3,0.7664862821499506,0.0005473362422587039,0.6048899544477463,0,13,0.0
4,0.7424041125036421,0.00057706230741349,0.4981962653398514,1,13,0.0
5,0.718610344898133,0.0006163816869957373,0.47531773340702055,1,13,0.0
6,0.6957571939343498,0.00048062366338507713,0.43865733432769777,1,13,0.0
7,0.6698313021943683,0.00044940987849951766,0.42706646490097044,1,13,0.0
8,0.6581729316995257,0.0004906073327653022,0.488443657040596,0,13,0.0
9,0.6474669816948119,0.0004910118299275858,0.40868856114149094,1,13,0.0
10,0.625579426685969,0.0004414568770915226,0.40902972424030304,0,13,0.0
11,0.607443885079452,0.0003666592567155714,0.423182197034359,0,13,0.0
12,0.6108323484659195,0.00044102048992672715,0.3850199688076973,1,13,0.0
13,0.5855383830411094,0.0004440107784051049,0.4031606671512127,0,13,0.0
14,0.5722984100381533,0.0005020594464786839,0.4003888969421387,0,13,0.0
15,0.5722565697062583,0.00041671084285813516,0.36730587965250017,1,13,0.0
16,0.5539617325578418,0.0004212770363665186,0.36405077697336674,1,13,0.0
17,0.5482519439288548,0.00033453311230654696,0.3855141195654869,0,13,0.0
18,0.5429624102654911,0.00031958989590445225,0.356170943826437,1,13,0.0
19,0.5171732498066766,0.00035159575452867317,0.37063664999604223,0,13,0.0
20,0.5166526316177278,0.00036689336480949785,0.35933800929784776,0,13,0.0
21,0.5039127752894447,0.0003481476841053726,0.37961917056143285,0,13,0.0
22,0.49503116593474433,0.0003405465015800603,0.3617978467941284,0,13,0.0
23,0.5011285869848161,0.00035662361222507785,0.3376488251388073,1,13,0.0
24,0.4775710382631847,0.00032902401047370705,0.3514849160015583,0,13,0.0
25,0.4693655212010656,0.00035004952812977576,0.33825307175517083,0,13,0.0
26,0.4577427868332182,0.00037773958527915444,0.34997000566124914,0,13,0.0
27,0.45020269389663425,0.00032333944909623824,0.33007601837813855,1,13,0.0
28,0.4428583411943345,0.00033681035070219964,0.3286034494638443,1,13,0.0
29,0.431015007907436,0.00035444274111623165,0.34361329463124274,0,13,0.0
30,0.4341697774472691,0.00033074433858495294,0.3274500708281994,1,13,0.0
31,0.43122576815741404,0.00033348114517312276,0.33161469638347624,0,13,0.0
32,0.4204701476153873,0.0003146503511830122,0.3205111224502325,1,13,0.0
33,0.40671062079213915,0.000326669926705238,0.32356637640297414,0,13,0.0
34,0.40388166656096774,0.00032880104741447473,0.31719668316841126,1,13,0.0
35,0.41029092314697446,0.00033441559017297724,0.31125052796304226,1,13,0.0
36,0.3959548537220274,0.00032757252813011986,0.3159454038441181,0,13,0.0
37,0.4008431023075467,0.0003498901311277656,0.31480190460383894,0,13,0.0
38,0.3921786837634586,0.00034310620183186115,0.3159354141801596,0,13,0.0
39,0.38364735813367934,0.0003380213775450275,0.3193804170638323,0,13,0.0
40,0.3964724232043539,0.0003380028418697683,0.3199830515533686,0,13,0.0
1,0.9251733422279358,0.0004336490113139489,0.6303523096113648,1,14,0.0
2,0.8028577077819641,0.000484785405534645,0.6329689783474693,0,14,0.0
3,0.7670595064220658,0.0004093478009853714,0.5178987886000072,1,14,0.0
4,0.7297131490994648,0.00036430070443213526,0.6287978299293573,0,14,0.0
5,0.7221652585339834,0.0003675071326931602,0.4601203455396962,1,14,0.0
6,0.6931192673832537,0.00040209668050997005,0.46642937212533947,0,14,0.0
7,0.6733184212661651,0.0003658684807919325,0.44065333591554334,1,14,0.0
8,0.6520159955484321,0.0004255371631111905,0.45539180458680056,0,14,0.0
9,0.6429288724818861,0.0004367390505517889,0.39024158774711176,1,14,0.0
10,0.6415394214262445,0.0004749020078732823,0.4559028082071467,0,14,0.0
11,0.6052206600286875,0.0004245647624084524,0.4213597643940315,0,14,0.0
12,0.6009538769721985,0.0004046689969675436,0.390826837806395,0,14,0.0
13,0.5840020908648709,0.0003907209353771128,0.3637863998688628,1,14,0.0
14,0.5688387360199388,0.0004399773717019146,0.360418943536956,1,14,0.0
15,0.5518717338521797,0.00044734890436675084,0.374030723548143,0,14,0.0
16,0.5436432638082159,0.0004086631293414183,0.3546734600430589,1,14,0.0
17,0.5276775051312275,0.00040007166684386376,0.3455145550113553,1,14,0.0
18,0.5226629229195147,0.0004040326841430828,0.33992602900967606,1,14,0.0
19,0.5049083642212742,0.0004064434909974281,0.317939868812923,1,14,0.0
20,0.49697577989245034,0.0003916659102780767,0.3400003736806273,0,14,0.0
21,0.48684591557606155,0.0004191002086175224,0.35607298844758734,0,14,0.0
22,0.47149979314172125,0.0004171140057859516,0.3024713515594054,1,14,0.0
23,0.47615882718419456,0.00042676231602953004,0.33136624370195417,0,14,0.0
24,0.4569083445043449,0.00040661676240529504,0.3297595388185759,0,14,0.0
25,0.4346461622829897,0.00046330376535917754,0.3071403314667525,0,14,0.0
26,0.43476788143077527,0.0004912628210149705,0.335454801576684,0,14,0.0
27,0.4273197435470949,0.0004947159498234291,0.316258150374434,0,14,0.0
28,0.42069924308593015,0.0004718332510744502,0.32369762895055965,0,14,0.0
29,0.40853924851819695,0.000443448312931234,0.31911650305069855,0,14,0.0
1,0.9170939134699958,0.000704161951857497,0.7210086341554053,1,15,0.0
2,0.8020628442366918,0.0005286428538619518,0.6566341172996729,1,15,0.0
3,0.7675484780754361,0.0005702376563151899,0.6148627106093171,1,15,0.0
4,0.7458179429883048,0.0005590185662315759,0.5878854785793802,1,15,0.0
5,0.7199053586948485,0.0004973637804228236,0.5792870701160174,1,15,0.0
6,0.687637197119849,0.0004920639631953756,0.5701255968802263,1,15,0.0
7,0.6752596944570541,0.0004060707362354844,0.5416151382415171,1,15,0.0
8,0.6562962468181338,0.0004117154984712778,0.5386398126319365,1,15,0.0
9,0.6441912218218758,0.0003709860511229462,0.5442477966338797,0,15,0.0
10,0.6265122014142218,0.00036913245969030653,0.5556991681771177,0,15,0.0
11,0.6189871352343332,0.00035166613053574805,0.49506356088076353,1,15,0.0
12,0.5991092590349061,0.0003446113977198755,0.48832817761774483,1,15,0.0
13,0.5762684930648122,0.00035476498167207905,0.49828706392857486,0,15,0.0
14,0.5824959732237316,0.00033040381060259064,0.5101144469116105,0,15,0.0
15,0.5408916448553404,0.0003312058955392179,0.4868886288891827,1,15,0.0
16,0.5478213237864631,0.0003003166871383742,0.52504009975124,0,15,0.0
17,0.5345730937662578,0.0002841581474404804,0.5246560013568791,0,15,0.0
18,0.5269326042561304,0.00031073761385327784,0.5122117620969688,0,15,0.0
19,0.5188839307853154,0.0002758484354542036,0.4682932342197067,1,15,0.0
20,0.4930019999543826,0.0002762749233321908,0.5021941160171823,0,15,0.0
21,0.49773314630701426,0.0003011110379052947,0.5050487514878418,0,15,0.0
22,0.4854779229277656,0.00030928400900891227,0.5165384118364778,0,15,0.0
23,0.4754600070771717,0.00030531677943404896,0.4840344946810014,0,15,0.0
24,0.4657818160596348,0.0002886218415889224,0.4684775912143905,0,15,0.0
25,0.4596305113463175,0.00030053865980118557,0.4574766189374759,1,15,0.0
26,0.4485363768679755,0.00032233003626710603,0.46009923846616396,0,15,0.0
27,0.4374602014819781,0.00031444144787244675,0.48137982818879,0,15,0.0
28,0.42722635645241963,0.0003450973559838964,0.44693299933495767,1,15,0.0
29,0.42485877800555455,0.00033044373343554546,0.4673491847949843,0,15,0.0
30,0.4166427336278416,0.00033361566914079176,0.4483426739524285,0,15,0.0
31,0.41555639391853694,0.00033327369688084305,0.45604064817506385,0,15,0.0
32,0.40692574424403055,0.0003448487368586939,0.4559575953090031,0,15,0.0
33,0.40824264216990697,0.0003410790375796967,0.4435758889865509,1,15,0.0
34,0.39135024288580533,0.00033791992869477587,0.45869030667586885,0,15,0.0
35,0.39531181362413226,0.00032593927850636345,0.4484591569301034,0,15,0.0
36,0.38828692620708827,0.00032352189927700064,0.4462009417518773,0,15,0.0
37,0.38399590374458403,0.00034372691672095764,0.4403035980497349,1,15,0.0
38,0.3806232792280969,0.0003145692876603876,0.4474813870642327,0,15,0.0
39,0.38641913217448054,0.00035372538280041354,0.4460438493060059,0,15,0.0
40,0.38518576111112324,0.0003537668136622025,0.44856892620533306,0,15,0.0
1,0.91901154237635,0.0004806107913335676,1.0201107438202877,1,16,0.0
2,0.808566025425406,0.00040823154302094787,0.936298631305654,1,16,0.0
3,0.773085215512444,0.0003889366741264787,0.7864275410170262,1,16,0.0
4,0.743286584405338,0.00034542472464689874,0.675921281811538,1,16,0.0
5,0.7250317594584297,0.0003688958677230403,0.7140086390663357,0,16,0.0
6,0.7120594171916738,0.0003110464979031616,0.7727423677272351,0,16,0.0
7,0.690083634853363,0.00031373074213179815,0.7819081703062524,0,16,0.0
8,0.6759577617925756,0.00036541433775496174,0.6860525084149306,0,16,0.0
9,0.6636492806322435,0.0003381687918376616,0.6236847620734237,1,16,0.0
10,0.6462590771562913,0.00033388632462661274,0.6985196085239419,0,16,0.0
11,0.630865518135183,0.0003500686004853753,0.6350962129874341,0,16,0.0
12,0.6198540084502276,0.00028675622786121334,0.6469890532220245,0,16,0.0
13,0.6066819594186895,0.00027780396494028324,0.6064005658947991,1,16,0.0
14,0.5966958599932054,0.0002598174066994997,0.613813545325506,0,16,0.0
15,0.5798373331041897,0.000282814509324346,0.5456545416526734,1,16,0.0
16,0.5681954489034765,0.00025295061829691643,0.6064425292098599,0,16,0.0
17,0.5590652227401733,0.00025569270519019266,0.5816075530717834,0,16,0.0
18,0.5464846916058484,0.00027721599412068506,0.5725713354197277,0,16,0.0
19,0.53171848023639,0.0002610240439774797,0.5045087928162005,1,16,0.0
20,0.52317955809481,0.00024392309372642024,0.4917330166716484,1,16,0.0
21,0.5170884966850281,0.00027538743657607806,0.5573411157429851,0,16,0.0
22,0.5047497465330012,0.00025034288701135664,0.5640345963070094,0,16,0.0
23,0.5003674728028914,0.0002463098632527844,0.4778107948237417,1,16,0.0
24,0.4773391124080209,0.0002557252559413695,0.44678505717315997,1,16,0.0
25,0.47399673917714286,0.0002719473768272163,0.526554863797125,0,16,0.0
26,0.46378582575741933,0.00026852292477783253,0.4816835521386181,0,16,0.0
27,0.45435912468854117,0.0002853368852383402,0.483007007691764,0,16,0.0
28,0.45157794251161465,0.00028187746938783674,0.4831922272113478,0,16,0.0
29,0.43271524485419777,0.0002657371441326926,0.476473637478873,0,16,0.0
30,0.44193616228945115,0.0002913815633612959,0.45114679440792704,0,16,0.0
31,0.42603450908380397,0.0002843222435330972,0.5032665973287985,0,16,0.0
1,0.9234395019979362,0.0009206284808152052,0.7855808205720006,1,17,0.0
2,0.8121917491935822,0.0007329877768923719,0.8293597226121323,0,17,0.0
3,0.762750517891114,0.0006857183968777353,0.7436773049094156,1,17,0.0
4,0.7332547938967325,0.0007262678423486874,0.7036632235384739,1,17,0.0
5,0.7148074062473803,0.0006671020275834633,0.673147821578533,1,17,0.0
6,0.6783047476446772,0.0006103922542134098,0.6571836806998926,1,17,0.0
7,0.6598026149244194,0.0006114403900959675,0.6682867956264086,0,17,0.0
8,0.6434417819402304,0.0005609665216081383,0.5690675756686487,1,17,0.0
9,0.6286784511014639,0.0005088215651753617,0.6233835672657576,0,17,0.0
10,0.6208638430359852,0.000502555707893166,0.5797246527331017,0,17,0.0
11,0.6025076311036764,0.0005197772249181093,0.6233039967285398,0,17,0.0
12,0.5921103304409119,0.0005124775620586946,0.5984723073946553,0,17,0.0
13,0.5641002597579037,0.0004767721791678748,0.5529640127090757,1,17,0.0
14,0.5639580279947763,0.0004977606270596923,0.59427756929255,0,17,0.0
15,0.5380394124841116,0.00045781401378742185,0.5957688399415589,0,17,0.0
16,0.5268309364117771,0.0004628253334513248,0.5315488401044034,1,17,0.0
17,0.5300116291247219,0.0005125579566565758,0.4759162526190837,1,17,0.0
18,0.5021306233233717,0.00045540383231478285,0.5459767066594322,0,17,0.0
19,0.49717861090797977,0.00043909459168663676,0.5351141039768936,0,17,0.0
20,0.488768888525216,0.00039818216657338954,0.5107874049988761,0,17,0.0
21,0.4890908207519945,0.00041051086438791714,0.5307327430356238,0,17,0.0
22,0.46675695963652736,0.00043206662079880396,0.5654197063783886,0,17,0.0
23,0.46591317689562417,0.0004091619493591274,0.5159539137309462,0,17,0.0
24,0.4493973366467349,0.0004560042583630476,0.4908011533020014,0,17,0.0
1,0.937495899061824,0.0008112731255011547,0.5957490744686538,1,18,0.0
2,0.8255017115626224,0.0006159603203847181,0.6196471007687803,0,18,0.0
3,0.7768522868322771,0.000490124118250394,0.512399839191902,1,18,0.0
4,0.746796308561813,0.0004747146344608302,0.5167173554086617,0,18,0.0
5,0.7286455146102018,0.00043711698628274377,0.4599941182341774,1,18,0.0
6,0.7045259607392688,0.00046285366819532545,0.5005691412189599,0,18,0.0
7,0.6919814008612966,0.00042438964720891223,0.4744366540029709,0,18,0.0
8,0.6773830146290535,0.0004260231995262032,0.40810756639308876,1,18,0.0
9,0.6582356220067933,0.0004636966653823376,0.42612490124647723,0,18,0.0
10,0.6448543924231862,0.00038127775752759904,0.43886216572743747,0,18,0.0
11,0.6337530502053195,0.00038176561843842097,0.37007896370405446,1,18,0.0
12,0.6225194979545682,0.00040885254972192,0.382599782892416,0,18,0.0
13,0.6017989079619563,0.00044207934183231013,0.3992281082456389,0,18,0.0
14,0.5918362989675167,0.00044533878200698297,0.3503317334003736,1,18,0.0
15,0.5832616270974625,0.0003856829280266538,0.3486177860920877,1,18,0.0
16,0.568859149203744,0.0004356168054834788,0.3515522216536222,0,18,0.0
17,0.5520176551369733,0.0004111669150852533,0.3593099446601129,0,18,0.0
18,0.5351464734521023,0.0004077022272530337,0.4067246807784569,0,18,0.0
19,0.5446287844070169,0.0004045535384902059,0.3337836546569507,1,18,0.0
20,0.5246873030135798,0.0004791457195519903,0.33647028840169674,0,18,0.0
21,0.5157130447237991,0.0003834448659692371,0.3216387661385057,1,18,0.0
22,0.5088352256043013,0.0004389219833429643,0.3168847194446553,1,18,0.0
23,0.4966690405163654,0.0004023372581117613,0.282230830979313,1,18,0.0
24,0.47564644210560375,0.00036403916161615663,0.2969308746168911,0,18,0.0
25,0.4733151568229808,0.00044116487748227843,0.3168642653411567,0,18,0.0
26,0.47038640982882923,0.0003746779010154653,0.31609610148105594,0,18,0.0
27,0.4546407360670178,0.0003433771311985004,0.32041604226425696,0,18,0.0
28,0.44848953152811805,0.000401767116272822,0.2870160953877988,0,18,0.0
29,0.4397982313882473,0.0003677707698147441,0.30068010386811783,0,18,0.0
30,0.4427783724873565,0.0004125378838453312,0.2877166086495179,0,18,0.0
1,0.9177905839113962,0.0005940187821536147,0.593461485219755,1,19,0.0
2,0.8193077601137615,0.0005286616301635236,0.565843629395252,1,19,0.0
3,0.7773771413734981,0.0004958694556816703,0.5294291262076952,1,19,0.0
4,0.7468183998550687,0.0005242857854076041,0.4968477450659723,1,19,0.0
5,0.7281334932361331,0.00045643193672211576,0.4892858833346158,1,19,0.0
6,0.6952669528268632,0.00044375145114913936,0.48822008110582826,1,19,0.0
7,0.6681050743375506,0.00046422834410415296,0.46792341698264367,1,19,0.0
8,0.6496019299541201,0.0005851278800123726,0.45678216057149457,1,19,0.0
9,0.6451119986318407,0.0005110511552802997,0.47235221281004924,0,19,0.0
10,0.6240350206693014,0.0005610882962216801,0.4334916768826427,1,19,0.0
11,0.6069856754371098,0.0006345330073686672,0.4716240563667532,0,19,0.0
12,0.5930906715137618,0.0007026048354288962,0.4273322486509892,1,19,0.0
13,0.5792222037201836,0.0006369542284768873,0.4574649173180196,0,19,0.0
14,0.5604364002744356,0.0006520653547514008,0.4411070545684922,0,19,0.0
15,0.5533108860254288,0.0006078314950822719,0.40704863092761356,1,19,0.0
16,0.5458360516599247,0.0005741489360280823,0.427769123565039,0,19,0.0
17,0.5250392634244192,0.0006057435128327814,0.3950321118691359,1,19,0.0
18,0.5131892945085254,0.0007140990422894468,0.37815200832965506,1,19,0.0
19,0.5101939876164708,0.0006526922831350627,0.4401482389335671,0,19,0.0
20,0.49066276599963504,0.0006662120594271636,0.39165849884313375,0,19,0.0
21,0.4990026124176525,0.000814530251470084,0.3616303864111705,1,19,0.0
22,0.46587259145010085,0.000695893032354347,0.3818897408719558,0,19,0.0
23,0.4624301993421146,0.0008098215119042877,0.4089702214131342,0,19,0.0
24,0.45750208589292707,0.0007871237678392347,0.36745446673882975,0,19,0.0
25,0.45026387167828424,0.0008120974373360653,0.373070703441886,0,19,0.0
26,0.4414958031404586,0.0007669529946897889,0.364528953335627,0,19,0.0
27,0.4221181862411045,0.0007460000772317428,0.33724600081337686,1,19,0.0
28,0.42313661106995176,0.0007651405588452084,0.38936232324437275,0,19,0.0
29,0.41619469438280376,0.0007033383486226999,0.3624173964412242,0,19,0.0
30,0.4134296452005704,0.0007837908366733851,0.3818583490810202,0,19,0.0
31,0.39260112139440717,0.0008250014482958553,0.3814420806724954,0,19,0.0
32,0.40110048332384657,0.0008451055570427949,0.3638921991566067,0,19,0.0
33,0.3976553366297767,0.0008599772256621648,0.36440647531296255,0,19,0.0
34,0.3860568267603715,0.0008110780036076903,0.3602128538152572,0,19,0.0
1,0.9349492057448342,0.0008394416474315914,0.5684478318959525,1,20,0.0
2,0.8243406741392045,0.0005385892869699525,0.5342346213370925,1,20,0.0
3,0.7826402201538994,0.0005577564694422541,0.514414677576126,1,20,0.0
4,0.7471515507925124,0.0004930373823819016,0.486754738705878,1,20,0.0
5,0.7224387632949012,0.0004980287963657507,0.5385119581596401,0,20,0.0
6,0.7091779396647498,0.00048329440912874856,0.4987458844921336,0,20,0.0
7,0.67902059001582,0.0004951290670543953,0.4654305218733439,1,20,0.0
8,0.67002919954913,0.0004746645399358212,0.445812276335554,1,20,0.0
9,0.6422159412787074,0.000470067869519837,0.4330475634155246,1,20,0.0
10,0.6300162020183745,0.0004952547498673777,0.4129311595703387,1,20,0.0
11,0.6179788098448799,0.0005324023264360481,0.41065431547301906,1,20,0.0
12,0.6102961021519843,0.0004328252505815943,0.4448372724539381,0,20,0.0
13,0.5911806793439955,0.00041867883729061024,0.430293824883552,0,20,0.0
14,0.5910299473575183,0.00037154123388713093,0.4238249717727535,0,20,0.0
15,0.5689681995482672,0.0003990996923502756,0.40575526179850585,1,20,0.0
16,0.5458608564166796,0.00040416259192473564,0.36739907277311423,1,20,0.0
17,0.5488708977188382,0.0003978031296962096,0.38552358278659987,0,20,0.0
18,0.5349153173821313,0.00039045649291005074,0.422247644924546,0,20,0.0
19,0.5271167098766282,0.00038374119287168254,0.36878478992306746,0,20,0.0
20,0.5115603087913423,0.00032678990776600713,0.3898932684377025,0,20,0.0
21,0.5077287249621891,0.0003597825137452067,0.36125099479568856,1,20,0.0
22,0.48890246202548343,0.0003684669645735994,0.3592174700832564,1,20,0.0
23,0.49433552615699317,0.0003844039657408194,0.3492908592641118,1,20,0.0
24,0.4636892768598738,0.00035213356057370434,0.37578866065087174,0,20,0.0
25,0.4696094471783865,0.0003539611849798045,0.32691516126632003,1,20,0.0
26,0.4537834514464651,0.00036267650267247866,0.32199770384079063,1,20,0.0
27,0.44740857077496393,0.0003879843224283485,0.3435528512936204,0,20,0.0
28,0.4428992420434952,0.00034398656585142904,0.3269292159112577,0,20,0.0
29,0.43317625849019914,0.00034749746382225393,0.33421221326970624,0,20,0.0
30,0.4314508299742426,0.0003584878208390104,0.31608702047771037,1,20,0.0
31,0.413979457957404,0.00037189974890290093,0.3376778907209246,0,20,0.0
32,0.40969093995434896,0.0003675039481008536,0.321056570187978,0,20,0.0
33,0.40022947852100643,0.00036715067645196715,0.3093037621595495,1,20,0.0
34,0.40728938366685596,0.000363147316896911,0.32447437769542736,0,20,0.0
35,0.39342571120886577,0.00036880268557329794,0.3089467875908294,1,20,0.0
36,0.38799631418216796,0.00035522948504270363,0.32920112853447503,0,20,0.0
37,0.395377221206824,0.0003663770152169967,0.3279032193557737,0,20,0.0
38,0.38919050104561304,0.0003608930519909509,0.32505417127596553,0,20,0.0
39,0.391245950900373,0.0003527380932133556,0.3204122662755175,0,20,0.0
40,0.3920203653119859,0.00036286940840433264,0.32546980241289053,0,20,0.0
1,0.9160250120219731,0.0009017280383323808,0.5964105778619636,1,21,0.0
2,0.8121311934221358,0.0007127269172564237,0.6397334021434191,0,21,0.0
3,0.765173078292892,0.0006383405624157083,0.5483523458279146,1,21,0.0
4,0.734167992359116,0.0006042875711933621,0.5584360957439527,0,21,0.0
5,0.7156538771731513,0.0006536740326001087,0.5401725354660665,1,21,0.0
6,0.687090977316811,0.0006147621468352597,0.468018916129537,1,21,0.0
7,0.6697698334852854,0.000619011187587776,0.473179265022983,0,21,0.0
8,0.6479587107896805,0.0005637028007186018,0.4791737347363779,0,21,0.0
9,0.6305254208190101,0.0005724115513398179,0.44616788755005027,1,21,0.0
10,0.6114127515327363,0.0005817215694280874,0.43472466242998026,1,21,0.0
11,0.6035813692779768,0.0005659124792492505,0.43072382415791055,1,21,0.0
12,0.5927487689824331,0.0005042434834952777,0.4557191050233352,0,21,0.0
13,0.5776393026823089,0.00048335988512484445,0.4337220319315134,0,21,0.0
14,0.5570328920370057,0.0005107646928601233,0.399179022936419,1,21,0.0
15,0.541232786717869,0.0005147413037429075,0.43787745191879335,0,21,0.0
16,0.5358643755316734,0.0005270637016760052,0.40573067167194893,0,21,0.0
17,0.517588863770167,0.0004940710956968056,0.4005205846895042,0,21,0.0
18,0.515055945231801,0.000508476344596905,0.40244495794489255,0,21,0.0
19,0.5010154236640249,0.0004508143382346524,0.4172316727150183,0,21,0.0
20,0.4886265631232943,0.000533027970439954,0.3781460696160573,1,21,0.0
21,0.4853837869706608,0.00047409116571846727,0.3647138373602603,1,21,0.0
22,0.46654090462695985,0.000521233448428878,0.388492582224921,0,21,0.0
23,0.46767625709374744,0.00047808820108046,0.3858801279017747,0,21,0.0
24,0.44845074308770044,0.00048391569518051777,0.35019935553653325,1,21,0.0
25,0.4443789025147756,0.0005163350294987183,0.3641285266876882,0,21,0.0
26,0.42455686983608065,0.000528360450906413,0.3657724816606481,0,21,0.0
27,0.41939511575869154,0.000534943274119758,0.35839643000101906,0,21,0.0
28,0.42839608980076654,0.0005412275720681507,0.3684260125230885,0,21,0.0
29,0.41427133622623624,0.0005639566346265686,0.37054341273381847,0,21,0.0
30,0.40998108791453497,0.000555368560266548,0.34868040483280566,1,21,0.0
31,0.3942882088678224,0.000579904680697447,0.36079127738922134,0,21,0.0
32,0.39088825987918036,0.0005424615037987852,0.3516535024712584,0,21,0.0
33,0.3824616739792483,0.0005040610946404437,0.35585299906676,0,21,0.0
34,0.37310330676180975,0.0005402039522388284,0.35264306906808146,0,21,0.0
35,0.38212296224775766,0.0004932871597702615,0.3532966031397479,0,21,0.0
36,0.3747158217288199,0.0005253998464294931,0.34260363590880394,1,21,0.0
37,0.3729115201249009,0.0005432352398721767,0.3466839790123861,0,21,0.0
38,0.38082975894212723,0.0005493026775574046,0.3477047077369331,0,21,0.0
39,0.3717879420589833,0.0005544013571731435,0.34824411005942374,0,21,0.0
40,0.3665344480957304,0.0005397186555672393,0.3454456713022139,0,21,0.0
1,0.9077468039024443,0.0010729629104302841,0.696780362041648,1,22,0.0
2,0.7897015199774787,0.0006761428338081931,0.6645720555264618,1,22,0.0
3,0.7469375857285091,0.0006583111240789073,0.5966393337729051,1,22,0.0
4,0.734603266630854,0.0005707338239604031,0.630412514822692,0,22,0.0
5,0.6932260706311181,0.000543768753968401,0.6040735600919453,0,22,0.0
6,0.6814695362533841,0.0005715449882527104,0.6117132079969977,0,22,0.0
7,0.6611897335166023,0.000529200139377887,0.5949004203465181,1,22,0.0
8,0.6435016847792125,0.0005347494530031413,0.6187978927065263,0,22,0.0
9,0.6203294914393198,0.0005322318517885703,0.5394312330785678,1,22,0.0
10,0.5999363905617169,0.0005142628842371604,0.5772631813702414,0,22,0.0
11,0.5939521076423782,0.0005339393849551145,0.554484791388812,0,22,0.0
12,0.5807754599622318,0.00048354931433485556,0.5598561362339395,0,22,0.0
13,0.5639549820196061,0.0004830501309784484,0.5593812028020524,0,22,0.0
14,0.5451621175521896,0.000438053575635422,0.5441778820534909,0,22,0.0
15,0.531223676389172,0.0004947501537182168,0.49587261934270216,1,22,0.0
16,0.5219658368400165,0.00043986272863722186,0.5351090482989393,0,22,0.0
17,0.5127794054292497,0.0004310111253289506,0.508236447548897,0,22,0.0
18,0.49123320834977285,0.00043604138253223416,0.5308918049983853,0,22,0.0
19,0.4820864800186384,0.00048802847231854685,0.5049129562147595,0,22,0.0
20,0.47054488956928253,0.00046988060508045324,0.5372390952395736,0,22,0.0
21,0.4619811280142693,0.0004399523473001041,0.5081840250517491,0,22,0.0
22,0.4559490879376729,0.0004978084432964568,0.4932467727558255,1,22,0.0
23,0.4495773787299792,0.0004690617504474219,0.4942438182165395,0,22,0.0
24,0.4403239655352774,0.000532398936186274,0.48353723013982386,1,22,0.0
25,0.4273668240223612,0.0004869649762570459,0.4759145138845251,1,22,0.0
26,0.4239979549532845,0.0005328107921134991,0.48878506564945656,0,22,0.0
27,0.4191924897687776,0.0005570075192649494,0.45082613899739765,1,22,0.0
28,0.4058380726547468,0.0005078882874970857,0.4572427322885223,0,22,0.0
29,0.404146684777169,0.0005110598943983426,0.5069319179778458,0,22,0.0
30,0.3990142600876944,0.0004438966851531794,0.4860969807549089,0,22,0.0
31,0.3922135808638164,0.000521059734421128,0.47434330528380575,0,22,0.0
32,0.38494007963509785,0.00047793023328440975,0.47043139850207694,0,22,0.0
33,0.37858226895332336,0.0004608023286675147,0.4933072452901169,0,22,0.0
34,0.37799484637521563,0.0004639692869248046,0.47779096436289864,0,22,0.0
1,0.9356973933619123,0.000869027252456574,0.5484616892405466,1,23,0.0
2,0.8217545685380004,0.0009336427543149871,0.5281165137853335,1,23,0.0
3,0.7720393656298171,0.0007961744872032838,0.48217333333534695,1,23,0.0
4,0.7409377694129944,0.0007438418194164283,0.47734466181219515,1,23,0.0
5,0.7171575260716815,0.0006996900960667665,0.4883227934358619,0,23,0.0
6,0.6986873260764188,0.0007000410593274526,0.49471243843962265,0,23,0.0
7,0.6814467969328858,0.0005395086329879759,0.45524590282967387,1,23,0.0
8,0.6517499629841295,0.0005260555768726653,0.49031921116536836,0,23,0.0
9,0.6546642870403999,0.0004921622759104858,0.42829442946663754,1,23,0.0
10,0.6351427054682444,0.0005243537672741208,0.4920440541590314,0,23,0.0
11,0.6126111603753511,0.0005299256262396527,0.46405362221892354,0,23,0.0
12,0.6056425207576086,0.0004937231847285401,0.4676915253456014,0,23,0.0
13,0.5888223253017248,0.0004968717494616718,0.4544211367207777,0,23,0.0
14,0.5749915786260782,0.0004050537785122626,0.4156300971182986,1,23,0.0
15,0.5700234600970912,0.0004562889125948057,0.45649014962944934,0,23,0.0
16,0.5480018885329713,0.0004603806534527563,0.4420308968006504,0,23,0.0
17,0.5420551681241323,0.00042967981933670247,0.4073705477158722,1,23,0.0
18,0.5292345430961874,0.0004138409460929959,0.42432878226824516,0,23,0.0
19,0.511610978218012,0.0004254114209352126,0.4202483189464524,0,23,0.0
20,0.5111514333375665,0.0004157761770414275,0.4193088154428694,0,23,0.0
21,0.502116612916769,0.00039237857844306935,0.38818354903599595,1,23,0.0
22,0.48914457649685616,0.000429491319072292,0.3905458488569728,0,23,0.0
23,0.47900478645812633,0.00045193207002147424,0.41524654072629164,0,23,0.0
24,0.4764590453962947,0.00038835391683807207,0.410861798644958,0,23,0.0
25,0.46311105961023374,0.00039094577927201944,0.3613434166917606,1,23,0.0
26,0.4561172245546829,0.0004342633868407913,0.37475463356196764,0,23,0.0
27,0.4495637389116509,0.00040417407682641994,0.36716741485275545,0,23,0.0
28,0.44615946086340175,0.0003982347019658381,0.4009890148184186,0,23,0.0
29,0.4346962110247723,0.0004253805351719737,0.35823845124596493,1,23,0.0
30,0.41999523584232773,0.0004014651444036687,0.3863956454475362,0,23,0.0
31,0.41716953037783155,0.0004344440994616381,0.37491373585858473,0,23,0.0
32,0.421097694094791,0.00045307262680157587,0.35561672072101197,1,23,0.0
33,0.4124244541622872,0.0004308447365305213,0.3515837874891596,1,23,0.0
34,0.41091959109139997,0.0004279928704585642,0.3468376441062574,1,23,0.0
35,0.397977142833,0.0004234281201037405,0.3434967320550215,1,23,0.0
36,0.39667198997597364,0.0004641713874365831,0.35158590901200126,0,23,0.0
37,0.39280949636947277,0.0004402480271257742,0.3562565251713552,0,23,0.0
38,0.3889519312354021,0.000443416677224504,0.3471551067439118,0,23,0.0
39,0.3885381228702013,0.0004450882306839556,0.3509352166574912,0,23,0.0
40,0.3829374874747077,0.00043421947711342295,0.34853295401576145,0,23,0.0
1,0.911997377872467,0.0006423825318398442,0.7698819437610959,1,24,0.0
2,0.8022769604410444,0.0006059355031798727,0.7867916373588778,0,24,0.0
3,0.7605200225398654,0.0006106801589512976,0.7813783621920748,0,24,0.0
4,0.7421769237234479,0.0006404127818227391,0.8006396838407285,0,24,0.0
5,0.7155987847419012,0.0005848661069952262,0.705474032066491,1,24,0.0
6,0.7004218463386808,0.000697832153708164,0.7732827308991177,0,24,0.0
7,0.6929750258014316,0.0006732168829850187,0.6517098369567018,1,24,0.0
8,0.6712377901588168,0.0007051264287188783,0.6314387939086086,1,24,0.0
9,0.6488211587780998,0.0007145608026240509,0.6542054605689126,0,24,0.0
10,0.641928704721587,0.0007015986425574825,0.5448477106387557,1,24,0.0
11,0.626416380916323,0.0007268471821416391,0.6713172482017443,0,24,0.0
12,0.605229262085188,0.0007326819267334594,0.6522771135606023,0,24,0.0
13,0.5895314053410575,0.0006949558966360721,0.5456985589946329,0,24,0.0
14,0.5931523679977372,0.0007122610816926075,0.6074711079539558,0,24,0.0
15,0.5609285466018177,0.0007275767337497589,0.5735036139847779,0,24,0.0
16,0.5519206935451144,0.000722590642648616,0.5488732188849555,0,24,0.0
17,0.5481526699094545,0.0007483885450970515,0.6065636640527712,0,24,0.0
1,0.9178003753934588,0.000410543015840674,0.586540850115494,1,25,0.0
2,0.813654118350574,0.00044039723209044455,0.5996991241242084,0,25,0.0
3,0.763558614112082,0.0004293172193380694,0.5227534091943347,1,25,0.0
4,0.7430693677493504,0.00041616532793601176,0.5380221051304513,0,25,0.0
5,0.7172540880384899,0.0004044108649222402,0.5116420610015181,1,25,0.0
6,0.6950752500976835,0.0004564780784199857,0.4911310674783809,1,25,0.0
7,0.6704096957331612,0.00042526105729242164,0.525115418542079,0,25,0.0
8,0.6619213393756321,0.00045831410084030635,0.5004805633929413,0,25,0.0
9,0.6405761057422275,0.000444674099223145,0.4591144183631874,1,25,0.0
10,0.61941925684611,0.00043346074068852303,0.44137224268685404,1,25,0.0
11,0.6068984124632109,0.00043067703397052054,0.41254398763419636,1,25,0.0
12,0.594950791980539,0.0004973244493677546,0.4161852345140407,0,25,0.0
13,0.5723580615151496,0.0004443310397272442,0.456817984491047,0,25,0.0
14,0.5683596034844717,0.0004767331255217349,0.39186355991052907,1,25,0.0
15,0.5482174977660179,0.0004860809065229703,0.3891126445384033,1,25,0.0
16,0.547641108078616,0.00042951093062237346,0.3998958516596129,0,25,0.0
17,0.5220342785829589,0.0004535351971363915,0.4165789709132262,0,25,0.0
18,0.509142126710642,0.00041581521526538943,0.4056485316845433,0,25,0.0
19,0.5074168422392437,0.0004383918726705902,0.38069094948365656,1,25,0.0
20,0.4970861861393565,0.0004037390454392326,0.3984407771761029,0,25,0.0
21,0.4863188511558941,0.00043460230015279235,0.37565313299960446,1,25,0.0
22,0.4685827351751782,0.0004361646088433363,0.38339150389675164,0,25,0.0
23,0.4656076810899235,0.0004436512546297828,0.35862569309681114,1,25,0.0
24,0.4550266677425021,0.00046662692572378245,0.3720577717786823,0,25,0.0
25,0.44752527595985503,0.0004144838775183806,0.3668504173322103,0,25,0.0
26,0.43691610225609373,0.0004919765747867391,0.3561660040870789,1,25,0.0
27,0.43811832403852824,0.00044961637918493666,0.36200719501006173,0,25,0.0
28,0.4288093727968988,0.00047808290227770894,0.3514331524921825,1,25,0.0
29,0.411163105851128,0.00047149542071911997,0.35155371183967987,0,25,0.0
30,0.41444048853147597,0.00046326251391465555,0.35695594153694915,0,25,0.0
31,0.39447361833992456,0.00045335789452240406,0.3595178529762586,0,25,0.0
32,0.3971222057228997,0.0004585591045075229,0.3392676217415908,1,25,0.0
33,0.3950763681814784,0.00042901973072383994,0.34635640759305875,0,25,0.0
34,0.38338481315544676,0.0004300632066414913,0.3435999425146841,0,25,0.0
35,0.37294552688087734,0.0004445886647556021,0.3514331256580994,0,25,0.0
36,0.37769285695893423,0.0004337663437278631,0.34209666159135144,0,25,0.0
37,0.3747593327647164,0.0004512268039564203,0.34372619667485865,0,25,0.0
38,0.37440656941561473,0.0004482965104259728,0.3434154403553357,0,25,0.0
39,0.37299861262242,0.00044965606953372203,0.34370066028020874,0,25,0.0
1,0.9236829067979541,0.0008711845273085471,0.5658954191001504,1,26,0.0
2,0.8182001120987392,0.0005906128670695969,0.5536966857738235,1,26,0.0
3,0.7787437580880665,0.0005462327629045051,0.5176027071838571,1,26,0.0
4,0.7502868863798323,0.0005799170321552083,0.48761891648741357,1,26,0.0
5,0.7371152135587874,0.0005634959795445736,0.48402561328386867,1,26,0.0
6,0.7081635707900638,0.000610846926671608,0.453760813353666,1,26,0.0
7,0.6940721138602212,0.0005959951508668295,0.4318097383470252,1,26,0.0
8,0.6735036628586906,0.0005349596117628694,0.4231188513854521,1,26,0.0
9,0.670204745162101,0.0005339602399284818,0.4097931948498725,1,26,0.0
10,0.643533594196751,0.0006195303510702658,0.4145496615687956,0,26,0.0
11,0.6376365061317172,0.0005671621876813116,0.40653024826534895,1,26,0.0
12,0.6256769008579708,0.0005361726459038133,0.39875513267108115,1,26,0.0
13,0.5972586820522944,0.0005349936528502786,0.4291858424485828,0,26,0.0
14,0.5886211061761493,0.00044387686197989664,0.3990337886858206,0,26,0.0
15,0.5748487054592087,0.0004726498785506313,0.38674400171887463,1,26,0.0
16,0.5537510617148309,0.0005096786560551706,0.3943062402805008,0,26,0.0
17,0.552562605767023,0.0004763165133703123,0.394458770116003,0,26,0.0
18,0.5272981960858617,0.0004309761970944237,0.38883199180740263,0,26,0.0
19,0.5066958460069838,0.00040427881772519045,0.3996102982314287,0,26,0.0
20,0.5043284208292053,0.00040063100407548646,0.3843738502548271,1,26,0.0
21,0.49977003995861324,0.00046448825915355147,0.3539920578737953,1,26,0.0
22,0.48040180937165305,0.0004591806725892682,0.3538462072688958,1,26,0.0
23,0.47062790606703075,0.0003903135267527042,0.3353386472852657,1,26,0.0
24,0.4697924753030141,0.0003747965609017272,0.3514307283745485,0,26,0.0
25,0.4515253866002673,0.00040115571426299753,0.34986140967146734,0,26,0.0
26,0.45157393671217416,0.00039820317657098973,0.32909142686174814,1,26,0.0
27,0.446545914879867,0.0004269251148798503,0.3317761199290863,0,26,0.0
28,0.43566814810037613,0.00042558774848224683,0.3190479462275227,1,26,0.0
29,0.42702496016309377,0.0004077809064169525,0.3324564730695282,0,26,0.0
30,0.423446261102245,0.0003853859431858707,0.3177686909887007,1,26,0.0
31,0.4145807261977877,0.000401466312766951,0.34060957738419634,0,26,0.0
32,0.4016092639593851,0.0004131889824445049,0.3218741964683732,0,26,0.0
33,0.3956600392148608,0.0004011373963467555,0.3190462529621403,0,26,0.0
34,0.3924829825049355,0.0004263686267742222,0.31954502841597365,0,26,0.0
35,0.3925066863497098,0.0004495588067844177,0.30942421150257693,1,26,0.0
36,0.39012744419631507,0.00042718940104740407,0.30730928021046455,1,26,0.0
37,0.3879149630665779,0.0004233706469156979,0.3194612259458244,0,26,0.0
38,0.37916379138117745,0.00042685701780664244,0.32198521133874375,0,26,0.0
39,0.3831085686882337,0.0004247655704689567,0.3169786886656432,0,26,0.0
40,0.3779326432517597,0.000429446502190937,0.3172046318424219,0,26,0.0
1,0.9292888811656407,0.0005409823920455805,0.6559834721599996,1,27,0.0
2,0.8297035495440165,0.00042716963192409213,0.6093698517393004,1,27,0.0
3,0.7810911479450408,0.00040119549729362395,0.6924689503816458,0,27,0.0
4,0.740546614641235,0.00040966150499159647,0.7170427535709581,0,27,0.0
5,0.722309294910658,0.0004282795981409782,0.6259159186349706,0,27,0.0
6,0.699801049771763,0.00042536415899771133,0.5818805923225426,1,27,0.0
7,0.6622475137313207,0.00045007683573723104,0.5874452174675127,0,27,0.0
8,0.6490178292705899,0.00038430397520035814,0.5623131347329993,1,27,0.0
9,0.6315223304998308,0.00039951678817964247,0.5454951271354428,1,27,0.0
10,0.6095485485025814,0.0003741084105318545,0.5102766091645006,1,27,0.0
11,0.5947977673439753,0.0003288528697296334,0.5510655652414932,0,27,0.0
12,0.5892979438815799,0.0003518407057050527,0.5331678231838743,0,27,0.0
13,0.5684520545459929,0.00030428665108740374,0.49635399787532175,1,27,0.0
14,0.5542272386096773,0.0003294108833610413,0.4645260095837628,1,27,0.0
15,0.5489007450994992,0.00030574563165178655,0.5181037840331614,0,27,0.0
16,0.5331475869530723,0.00030263599234915873,0.4886330442148664,0,27,0.0
17,0.5247884066331954,0.00028377750121373016,0.4755586885247636,0,27,0.0
18,0.5179126915477571,0.00025071858614128794,0.4704437920077127,0,27,0.0
19,0.499605991655872,0.00024945516737976244,0.43204195381176136,1,27,0.0
20,0.49485961809044793,0.00025884817122936337,0.47197799680204044,0,27,0.0
21,0.4799624323135331,0.00024365750591858246,0.4594231766124486,0,27,0.0
22,0.4764337397757031,0.00026260323197458915,0.4753430609399008,0,27,0.0
23,0.4528791429031463,0.00025908659448586625,0.4467783216160801,0,27,0.0
24,0.45117101002307164,0.00026500468222712657,0.4515578460234862,0,27,0.0
25,0.4476137235760689,0.00028658026331825005,0.42791997843425766,1,27,0.0
26,0.4407993012240955,0.0002621469215054752,0.44880847451899214,0,27,0.0
27,0.4323370460243452,0.00026545888526708863,0.4732831836591365,0,27,0.0
28,0.42535603755996343,0.00026700017579493025,0.4555583690945436,0,27,0.0
29,0.4172075447582063,0.0002514395160861092,0.4486110636941817,0,27,0.0
30,0.40277783501715886,0.0002665370474070577,0.4300493670981905,0,27,0.0
31,0.40315195279461996,0.0002771825789490582,0.43712079235416673,0,27,0.0
32,0.39092899504162015,0.0002967422920586874,0.4169921805018838,1,27,0.0
33,0.3968648658621879,0.0002894718892916682,0.4096583667916325,1,27,0.0
34,0.3923981665145783,0.0002678098578707293,0.43366358631294266,0,27,0.0
35,0.3895162070790927,0.00027430776026449166,0.4291143503628279,0,27,0.0
36,0.3795851845116842,0.0002681810138234314,0.433824665693619,0,27,0.0
37,0.37766409168640774,0.0002638872664690661,0.4297796432909213,0,27,0.0
38,0.37351533202897935,0.0002760695921703397,0.4329472847192394,0,27,0.0
39,0.3774109819815272,0.00026843097224454616,0.4264780944175566,0,27,0.0
40,0.3762507818284489,0.00026663352158114623,0.4354132471176294,0,27,0.0
1,0.9216169473670778,0.00101841847052648,0.5293283614233557,1,28,0.0
2,0.8077139400300526,0.000993559437726314,0.5151173302747765,1,28,0.0
3,0.7704841508751824,0.0008309640827411343,0.5316183413881309,0,28,0.0
4,0.7457069499152047,0.0007489158022162016,0.4977150469255885,1,28,0.0
5,0.7129605263471603,0.0007177006572462796,0.46799254431086923,1,28,0.0
6,0.6974609238760812,0.0007618643912359229,0.451123117725067,1,28,0.0
7,0.6719156276612055,0.0007223187660981369,0.46877299477270934,0,28,0.0
8,0.6575350754317784,0.0006612393065422241,0.43781765077452844,1,28,0.0
9,0.6407455809059597,0.00063856571034107,0.4718062151938267,0,28,0.0
10,0.6172514075324649,0.000785446111140551,0.4223886559753999,1,28,0.0
11,0.6150408827123188,0.0006550285771871651,0.38613017486741497,1,28,0.0
12,0.5832830749097324,0.0005772886402805202,0.3885963589124761,0,28,0.0
13,0.5776552203155699,0.0006237913261256402,0.3726795576290267,1,28,0.0
14,0.5696072691962832,0.0005815780116660919,0.384264154957651,0,28,0.0
15,0.5489459122930255,0.0005280864203260059,0.3979898451483756,0,28,0.0
16,0.540765487012409,0.0005672639433344427,0.37172436169181183,1,28,0.0
17,0.528861926425071,0.0004820684729825838,0.3611519678751865,1,28,0.0
18,0.5163383906086286,0.0004426876365046372,0.352625046558849,1,28,0.0
19,0.5006095323534239,0.00041501141510837315,0.3530912554749579,0,28,0.0
20,0.49523454159498215,0.000455356203019619,0.3637596376034791,0,28,0.0
21,0.49418630202611286,0.0004492982414029982,0.3483398728069946,1,28,0.0
22,0.48273589000815437,0.00044615018088647743,0.32835593216495257,1,28,0.0
23,0.4655957413571222,0.0004802312950708992,0.34592716326348566,0,28,0.0
24,0.4554659504266012,0.00045402595181561384,0.32127372501687745,1,28,0.0
25,0.44682635295958745,0.0004502498857272301,0.3272364819595456,0,28,0.0
26,0.4444177860305423,0.00048332591506464054,0.3243027542382362,0,28,0.0
27,0.4321245455316135,0.0005128058266044329,0.31310777403387274,1,28,0.0
28,0.4232510360223906,0.0004681555087916509,0.3328569441916425,0,28,0.0
29,0.4202510973527318,0.00044797425549144724,0.31780773030709536,0,28,0.0
30,0.4063641180594762,0.00047882154536810483,0.33058655961463196,0,28,0.0
31,0.3997491686826661,0.0004920813728295755,0.33396869940013807,0,28,0.0
32,0.38829961028837023,0.0005036376349467208,0.31395829554454785,0,28,0.0
33,0.3918525033763477,0.0004892003063495005,0.3131292547094122,0,28,0.0
34,0.3865387205566679,0.000495953412263632,0.3072124229741379,1,28,0.0
35,0.38509086342084975,0.0004887481870052094,0.31015287409351083,0,28,0.0
36,0.382554329931736,0.0005328818238229447,0.31524417092140217,0,28,0.0
37,0.37985077110074816,0.0004995257574288795,0.31372941549415106,0,28,0.0
38,0.3718277882962,0.0005071165273658975,0.3169334598776693,0,28,0.0
39,0.37287179238739465,0.0005173307664725664,0.31809444800797054,0,28,0.0
40,0.37257846054576693,0.0004883400217208656,0.314944177218125,0,28,0.0
1,0.9233760925985518,0.0007489261943625198,0.5640523587600125,1,29,0.0
2,0.8201322328476679,0.0006513039316771375,0.5626783756026879,1,29,0.0
3,0.7753864725430807,0.0005196854525863836,0.5215282293702153,1,29,0.0
4,0.7427122749033428,0.000509151794609525,0.5113783146850861,1,29,0.0
5,0.7248651740096864,0.0005090153066530114,0.5352645862991215,0,29,0.0
6,0.7023647654624212,0.0004668241339719056,0.4580359335117291,1,29,0.0
7,0.6691922545433044,0.0004476144278582762,0.4674786569220241,0,29,0.0
8,0.6543174428599221,0.0004018546441373127,0.44328542877285526,1,29,0.0
9,0.6329224138032823,0.0004694258313975297,0.4571457717136736,0,29,0.0
10,0.6172553205064365,0.0004785173614869737,0.460220323476203,0,29,0.0
11,0.6081814489194325,0.0004339933943161408,0.40059720997945203,1,29,0.0
12,0.5968511941887084,0.00044908259916978535,0.4440912865887571,0,29,0.0
13,0.5765277172128359,0.000499023364335742,0.42918614544414924,0,29,0.0
14,0.5694416534333002,0.0004128778628433966,0.4601392255957145,0,29,0.0
15,0.5562957883590743,0.0004367199618995766,0.3935664693616656,1,29,0.0
16,0.554150063367117,0.00044987528859305063,0.40526133748130505,0,29,0.0
17,0.5358417782755125,0.0004109853762201965,0.39588894824135884,0,29,0.0
18,0.520880455772082,0.00037258756094074455,0.4423607162690714,0,29,0.0
19,0.5194270415675073,0.00040621078871828063,0.4202888786792755,0,29,0.0
20,0.5065306950183142,0.00041370439742292674,0.39023819372709123,1,29,0.0
21,0.49178520483630045,0.00040065532084554434,0.4023510647157164,0,29,0.0
22,0.47444829451186316,0.0003793016136720932,0.4311969428718243,0,29,0.0
23,0.4710992844331832,0.0003907377145618999,0.37258998927849424,1,29,0.0
24,0.4639561747511228,0.0003734330376097378,0.38319791828911837,0,29,0.0
25,0.4589117875411397,0.00039651415725183183,0.3553374277978446,1,29,0.0
26,0.4457322557767232,0.00036660867131320716,0.3506021210344408,1,29,0.0
27,0.4223018040259679,0.00037328920128250803,0.3698380562364289,0,29,0.0
28,0.4288985835654395,0.00036797961538901464,0.33708068402077057,1,29,0.0
29,0.4222193370972361,0.00037288866761151613,0.3697538316403073,0,29,0.0
30,0.40862817139852614,0.00036704546731752564,0.3363147076726879,1,29,0.0
31,0.40639147091479527,0.0003699838291920189,0.39881745872583363,0,29,0.0
32,0.4004236566168921,0.0003682103476118452,0.36186304748211545,0,29,0.0
33,0.3961422305021967,0.0003978677904385785,0.3682887845296786,0,29,0.0
34,0.39388738572597504,0.00036424023052123155,0.3623091341520643,0,29,0.0
35,0.38692169317177366,0.00039315292365028567,0.36117725816667845,0,29,0.0
36,0.3890492839827424,0.00037906425824898874,0.3562668151444825,0,29,0.0
37,0.379874919851621,0.0003523789198966586,0.35953121632720636,0,29,0.0
1,0.9172988765379961,0.0008501701241852168,0.7258016070642206,1,30,0.0
2,0.7904603607514326,0.0010018544956384337,0.7114606769420577,1,30,0.0
3,0.7488276656936197,0.0009701356024700491,0.6853186775419792,1,30,0.0
4,0.7259050404324251,0.0009026573272421956,0.6581045566613624,1,30,0.0
5,0.698190243103925,0.0009492016743238577,0.6419776548493489,1,30,0.0
6,0.6805701711598564,0.0008054419061141637,0.6430471550480379,0,30,0.0
7,0.6504491946276496,0.0008606007031630725,0.603896521497399,1,30,0.0
8,0.6388550975743462,0.000667851375799407,0.6624645845443429,0,30,0.0
9,0.6235174929394441,0.0006447780370602713,0.5793209513936746,1,30,0.0
10,0.6180479463408975,0.0006832679908256977,0.548648735457493,1,30,0.0
11,0.5963479006991667,0.000611381495015367,0.5606900050464683,0,30,0.0
12,0.5788969106533948,0.0006416478656533668,0.5351433171298059,1,30,0.0
13,0.5654808402061462,0.0005992477824774516,0.5501318589989186,0,30,0.0
14,0.557025106864817,0.0006158374972394942,0.5661919341270366,0,30,0.0
15,0.5358730782480801,0.0005977795486721922,0.5418702397258937,0,30,0.0
16,0.5303754803012399,0.0005856914367006324,0.5568487812854963,0,30,0.0
17,0.5172944882336785,0.0005289422074223266,0.5150698696592577,1,30,0.0
18,0.49335515639361216,0.0005609214867410414,0.5123795064978988,1,30,0.0
19,0.47703119165757124,0.0005739809349453186,0.5328765089180177,0,30,0.0
20,0.4742803783977733,0.0005613068933598697,0.5177613411310588,0,30,0.0
21,0.4642134778639849,0.0006079601483446929,0.5317310112134455,0,30,0.0
22,0.4504169422037461,0.0005676098565077957,0.5486603715143256,0,30,0.0
23,0.44636912416009344,0.0006217778263175312,0.5410260465247873,0,30,0.0
24,0.43849583373350254,0.0006094496556804241,0.5124314126084271,0,30,0.0
25,0.4238050995504155,0.0005793134072412025,0.5761828735086937,0,30,0.0
1,0.9127387369380278,0.000402008555487127,0.6280064852741073,1,31,0.0
2,0.8123579207588645,0.0003532284961479223,0.5936297073495286,1,31,0.0
3,0.7780560668777017,0.0003954870706793907,0.5311574795996079,1,31,0.0
4,0.7505619154256933,0.00037443865679533166,0.5224623941759549,1,31,0.0
5,0.7180762669619392,0.00036993529904387235,0.509272759418664,1,31,0.0
6,0.7070034538998323,0.0004374357351266286,0.5290197613706941,0,31,0.0
7,0.6775263667106628,0.0003896553778116975,0.4949841576406423,1,31,0.0
8,0.6622478709501378,0.0003734301943468916,0.454020726967997,1,31,0.0
9,0.654994370656855,0.00032798549869125164,0.5238275938836852,0,31,0.0
10,0.6316772510023678,0.0003459919083123917,0.46334323180426357,0,31,0.0
11,0.6185263721381917,0.0003316611768883269,0.4707585240893521,0,31,0.0
12,0.5934581781134886,0.0003355043151018703,0.4696165150274759,0,31,0.0
13,0.5830831078922047,0.0003304091203437351,0.4928133132785468,0,31,0.0
14,0.5689321360167335,0.0003448378830559223,0.4213231434910312,1,31,0.0
15,0.5538516153307522,0.00030386803760741127,0.3884176060668476,1,31,0.0
16,0.5402922220089856,0.00029162777320700974,0.4023655380902452,0,31,0.0
17,0.5163737384711995,0.0003331471308175584,0.36836397620903066,1,31,0.0
18,0.5142934350406423,0.0002875445759855211,0.392437818567419,0,31,0.0
19,0.5078229977804072,0.0003092109621160061,0.35540135512815196,1,31,0.0
20,0.4762758093721726,0.00032961158961852024,0.35616890790732614,0,31,0.0
21,0.4812820269781001,0.00037749016003491465,0.3650994057108917,0,31,0.0
22,0.4771705420578227,0.0003505273997742573,0.35875841424700405,0,31,0.0
23,0.46143687542747047,0.00034946891571641624,0.34255138668392415,1,31,0.0
24,0.44631474403774035,0.00036133494423291483,0.3619142755067701,0,31,0.0
25,0.45034776154686423,0.0003735528433668044,0.3728960811622694,0,31,0.0
26,0.43674659483573014,0.0003521805170320851,0.34980791374255005,0,31,0.0
27,0.4270173479528988,0.0003584097844877226,0.3291968864997557,1,31,0.0
28,0.41927900945439056,0.00037251940401106633,0.33259963265393067,0,31,0.0
29,0.4152412411044626,0.0003560095340670908,0.328652067368686,1,31,0.0
30,0.4098703976939706,0.00038316043826532275,0.3395956387011362,0,31,0.0
31,0.40344707580173716,0.0003783626197700334,0.338032729292041,0,31,0.0
32,0.39839749511550454,0.00037190255791168003,0.3462498347894555,0,31,0.0
33,0.38965807346736686,0.00037297231285586297,0.3412407730109074,0,31,0.0
34,0.3865857240031747,0.00039446037656435854,0.3205322270353372,1,31,0.0
35,0.38155942979980917,0.000384878705988419,0.3250001066731373,0,31,0.0
36,0.3773269583197201,0.00038207875537302563,0.32846022353092713,0,31,0.0
37,0.3768566983587602,0.0003761262947912602,0.33554972934767346,0,31,0.0
38,0.3716409411500482,0.0003937801412950434,0.32227962351749034,0,31,0.0
39,0.3742635646287133,0.0003794496433864183,0.3280018961349761,0,31,0.0
40,0.38424849965993096,0.0003826628137818154,0.319129556838245,1,31,0.0
1,0.9235375142959227,0.0005696194750643952,0.5726561826659969,1,32,0.0
2,0.8148359835865986,0.0005569433574620858,0.5338697655220204,1,32,0.0
3,0.7707507976566452,0.0006225251828331545,0.5349090304809418,0,32,0.0
4,0.753119098852916,0.0005287791005159021,0.5355206435901827,0,32,0.0
5,0.7181249124458037,0.0005613209866267819,0.48332687185021206,1,32,0.0
6,0.7072291891258883,0.0005396439757686198,0.478451791482094,1,32,0.0
7,0.6819787147533463,0.00047378274731349246,0.4853676221344942,0,32,0.0
8,0.6679347767887345,0.0004861519864131977,0.5132936986140263,0,32,0.0
9,0.6501241534589285,0.000545521193472893,0.5199086241714183,0,32,0.0
10,0.6259039460894573,0.0005587614246599197,0.4714328856450653,1,32,0.0
11,0.6079481732414429,0.0005078091070824584,0.47860623314509704,0,32,0.0
12,0.6037153827856823,0.0005026795240034944,0.4602658539932621,1,32,0.0
13,0.5887970967465136,0.00045028780899094754,0.4637196011706861,0,32,0.0
14,0.5710997437856283,0.0004412248665438853,0.45453351813192494,1,32,0.0
15,0.5619562814034611,0.00046269765459646257,0.4520797978623187,1,32,0.0
16,0.5448981922074972,0.0004100366625289646,0.4727831760179057,0,32,0.0
17,0.5361607186047428,0.00044962309205523097,0.4768452555903456,0,32,0.0
18,0.516634369470987,0.00044146794892415536,0.45091914468341404,1,32,0.0
19,0.5090048356228564,0.00037255058614172443,0.4209484491720159,1,32,0.0
20,0.4960236377026661,0.00036463408109574884,0.4445670085011894,0,32,0.0
21,0.4842574797480939,0.0003923786490600197,0.4930212826177067,0,32,0.0
22,0.4729132720504899,0.0004333340508880161,0.41562481560626713,1,32,0.0
23,0.4694759583616831,0.0004028357566805579,0.4366392939875976,0,32,0.0
24,0.4570460122033774,0.00040431584898489024,0.4414825119247973,0,32,0.0
25,0.4472395960825035,0.00033492958474713546,0.4205319522353772,0,32,0.0
26,0.42811901705810823,0.000364481299135172,0.43899472296266245,0,32,0.0
27,0.42469527312071925,0.00038269707506679624,0.44483395342530235,0,32,0.0
28,0.4330391585826874,0.0003945265510203653,0.4403630441721575,0,32,0.0
29,0.4183064476553216,0.00036783350462582054,0.45726840257828616,0,32,0.0
1,0.919499621504829,0.0006680013684672303,0.707802667856409,1,33,0.0
2,0.8145616210642315,0.0008853591141468357,0.7305859974922305,0,33,0.0
3,0.7705169398160208,0.0009352951397193552,0.6638079974897578,1,33,0.0
4,0.7545436677478609,0.0009564304709783755,0.6450032781390092,1,33,0.0
5,0.7079845134701047,0.0008845481802598529,0.6532960880307929,0,33,0.0
6,0.7030574800003142,0.0009694871121263575,0.6595259833003999,0,33,0.0
7,0.6713160829884666,0.000887271291936659,0.6573600756893874,0,33,0.0
8,0.6586746914046151,0.00093064111639424,0.6009003156279854,1,33,0.0
9,0.6420155745886621,0.0008322796164152567,0.5962831509919301,1,33,0.0
10,0.629750038186709,0.0007973545202514201,0.504608706691773,1,33,0.0
11,0.6064519339374134,0.000792960600284416,0.5158948718412522,0,33,0.0
12,0.5927565225533077,0.0005349523042761055,0.6171323727819121,0,33,0.0
13,0.5831768814296949,0.0005536902896156313,0.5251142524855071,0,33,0.0
14,0.5542569593304679,0.0005343824938920859,0.5972692802189121,0,33,0.0
15,0.5458559376143274,0.000442779493044197,0.47317060412250583,1,33,0.0
16,0.5393059601386389,0.0004953565297737008,0.4711039322482808,1,33,0.0
17,0.5196484199592045,0.00043901209400722845,0.47110844014956527,0,33,0.0
18,0.5126832968422345,0.0004065815306343471,0.4565743735380028,1,33,0.0
19,0.4965751263357344,0.0004226842410432818,0.4713137973504608,0,33,0.0
20,0.4799630113300823,0.00044084194953375986,0.4462388725962889,1,33,0.0
21,0.4776934211452802,0.0004157511274180641,0.4444310320474128,1,33,0.0
22,0.46162289806774687,0.00034874070150267686,0.43900457274223365,1,33,0.0
23,0.4588116205164364,0.0003955018127314924,0.4583892375823428,0,33,0.0
24,0.4374404553146589,0.0004036389021036614,0.4831434038854078,0,33,0.0
25,0.4309860272776513,0.000384239271668429,0.4677539000219591,0,33,0.0
26,0.4292040641109149,0.0004420816032853465,0.4151848258014019,1,33,0.0
27,0.41565616499809993,0.00045148775063266625,0.40273577672700933,1,33,0.0
28,0.4031811814223017,0.00040637533709828163,0.43887848328690665,0,33,0.0
29,0.3999164381197521,0.00039427469354926697,0.454865125438748,0,33,0.0
30,0.3962561534274192,0.00043541575411966605,0.4282057631391362,0,33,0.0
31,0.38727951227199464,0.0004151773292895606,0.4245089703150836,0,33,0.0
32,0.3815437147305125,0.0004019797180219376,0.4275970812123005,0,33,0.0
33,0.36953690204591977,0.0004583011371626829,0.4282948491275829,0,33,0.0
34,0.37239099648736773,0.0004625153666157054,0.4302585654732987,0,33,0.0
1,0.9266250339292345,0.0005287765360706198,0.7621731204687673,1,34,0.0
2,0.8169694330011096,0.00047984700878649685,0.5908296577026748,1,34,0.0
3,0.7874889572461446,0.00042739805420361724,0.49242740717737493,1,34,0.0
4,0.7529131032171703,0.00042657811614584977,0.49243410052795483,0,34,0.0
5,0.7389739248014632,0.0004761694040748158,0.47890086032734797,1,34,0.0
6,0.721445769781158,0.0005256212205581722,0.4243930990385379,1,34,0.0
7,0.6951592699402854,0.0005763387459973316,0.4117568473566057,1,34,0.0
8,0.6914751160712469,0.0005190402402409486,0.4387319688115134,0,34,0.0
9,0.681656498994146,0.0005239059298349145,0.4580357936990833,0,34,0.0
10,0.6583256593772343,0.0004917694736615799,0.4063411700912367,1,34,0.0
11,0.6480061631827128,0.0004675740929087624,0.4414880294115606,0,34,0.0
12,0.6321349271706173,0.0004580414582354327,0.3928488942189735,1,34,0.0
13,0.6195610871627217,0.0005145050807706346,0.37332484145064077,1,34,0.0
14,0.6000657532186735,0.00045640166977786327,0.4269471305124206,0,34,0.0
15,0.5913512493882861,0.00046484515977291655,0.41069231841286297,0,34,0.0
16,0.572510142766294,0.00046906442799982394,0.39914419228369763,0,34,0.0
17,0.5601385459303856,0.0004264429553586524,0.37162867709483505,1,34,0.0
18,0.5530562163108871,0.0004670838191356909,0.3556367301041886,1,34,0.0
19,0.5448753500268573,0.00048360994696849957,0.3585432289454659,0,34,0.0
20,0.5272111037657374,0.0005776357135064678,0.3735862408749154,0,34,0.0
21,0.5132044972408385,0.0004939814430794545,0.33147507616985555,1,34,0.0
22,0.5096741116472653,0.0004342516908114443,0.32259513293260694,1,34,0.0
23,0.49366085408698945,0.0005024288371454791,0.3154831114320867,1,34,0.0
24,0.48567361136277515,0.0004987842243974141,0.3035400529099258,1,34,0.0
25,0.46473963984421324,0.0005604936380959337,0.3343610704295432,0,34,0.0
26,0.45913649314925786,0.0005334566064578082,0.3092722181124972,0,34,0.0
27,0.4486956273516019,0.0005612653528390053,0.3256577117903109,0,34,0.0
28,0.4455925403606324,0.0005872728704291928,0.3019168947428377,1,34,0.0
29,0.4396949343028523,0.0005634900870583286,0.3129500470303882,0,34,0.0
30,0.427668921649456,0.0005637808686255344,0.3014403759382381,1,34,0.0
31,0.42492896744183134,0.0005635570050799288,0.3103132158313512,0,34,0.0
32,0.41762496531009674,0.0005354964416169207,0.29789924386607797,1,34,0.0
33,0.4146515656085241,0.0005575109368822138,0.2942094584228243,1,34,0.0
34,0.417617278439658,0.0005748077362243618,0.28349506134034136,1,34,0.0
35,0.4077656620315143,0.0005563206848039824,0.2937692701524665,0,34,0.0
36,0.40611052442164647,0.000558972478930151,0.28682992273866836,0,34,0.0
37,0.4029976310474532,0.0005403574430688639,0.2817066544767225,1,34,0.0
38,0.39548446273519877,0.000561656730063814,0.28868248588774975,0,34,0.0
39,0.395543481977213,0.0005502848590757432,0.30502973623887564,0,34,0.0
40,0.3948050382591429,0.0005579805497074544,0.2942132067143275,0,34,0.0
1,0.8998221740836189,0.0011208638288302435,0.6988726603098152,1,35,0.0
2,0.7970173820143654,0.0010407552468850987,0.7641121751882813,0,35,0.0
3,0.7492049215804963,0.0007739850417627687,0.6800799009597991,1,35,0.0
4,0.714443292646181,0.0006746567056065292,0.7546052095318628,0,35,0.0
5,0.6820550482897532,0.0007441434614260548,0.6407478897532156,1,35,0.0
6,0.6633968630007335,0.0006965372629652155,0.6780230341371426,0,35,0.0
7,0.6403747569947016,0.0006762190726779712,0.626769716089422,1,35,0.0
8,0.6188600787094661,0.0007335394423405107,0.6068122139708563,1,35,0.0
9,0.5975786170789174,0.0006435671502480372,0.5826345387815444,1,35,0.0
10,0.5776728693218458,0.0005683895474898496,0.6978209553178677,0,35,0.0
11,0.5630437870110784,0.0005655223167628893,0.5782290473272486,1,35,0.0
12,0.5383121598334539,0.0007017488086213623,0.5942494954205741,0,35,0.0
13,0.5342063275831086,0.0006013236759047556,0.5477480606968738,1,35,0.0
14,0.5184048836429914,0.0005395752000151246,0.5099635404373003,1,35,0.0
15,0.5044769701503572,0.0005779848818617341,0.5161916402684263,0,35,0.0
16,0.4918678207766442,0.0005093439055296282,0.5273598358650838,0,35,0.0
17,0.49021514043921516,0.0005506639659177468,0.48361816614373654,1,35,0.0
18,0.4747743932973771,0.0005494956151648824,0.5025810860405283,0,35,0.0
19,0.4638447914095152,0.0005658261101676285,0.5058105744052032,0,35,0.0
20,0.4536799969417708,0.0005573755257674271,0.5198281720157497,0,35,0.0
21,0.4558063213314329,0.0006487777992290267,0.4979747525177711,0,35,0.0
22,0.436568483710289,0.0006092396735246959,0.5026916639171233,0,35,0.0
23,0.4321155177340621,0.0005699046468223623,0.4604858552867716,1,35,0.0
24,0.4267814815753982,0.0005802501549450902,0.49800434022033513,0,35,0.0
25,0.4081026464700699,0.0005592951288452328,0.5207177094022227,0,35,0.0
26,0.400856828050954,0.0006249358630157076,0.4230004984439035,1,35,0.0
27,0.38953591138124466,0.000630575898477608,0.44372286051819637,0,35,0.0
28,0.3916978312744981,0.0005739216562471397,0.4862517735743818,0,35,0.0
29,0.38170949405147914,0.0005780532637367113,0.4612743933800577,0,35,0.0
30,0.38024496890249704,0.0005282709004989426,0.4746891256144717,0,35,0.0
31,0.37404325214170275,0.0005694545463830721,0.45645415439647585,0,35,0.0
32,0.3690769612079575,0.0005740133215329566,0.45892023685395966,0,35,0.0
33,0.36139153086003806,0.000601692178904722,0.43857302616758287,0,35,0.0
1,0.9297101427527035,0.0005338425040998331,0.6750436631463174,1,36,0.0
2,0.8223446320084965,0.0005647426087628393,0.6511540205496446,1,36,0.0
3,0.7730546116828918,0.0006610359849326094,0.6504615223299104,1,36,0.0
4,0.7592531106051277,0.0007029410297571517,0.5522124490103185,1,36,0.0
5,0.7300756629775552,0.0006132613843553425,0.5362321903645679,1,36,0.0
6,0.7090218635166392,0.0006001003014663344,0.5782854269466753,0,36,0.0
7,0.694152368517483,0.0005329859059523134,0.5314933787522083,1,36,0.0
8,0.678355052541284,0.0005693779686493252,0.5445245207755218,0,36,0.0
9,0.6568260760868296,0.0006416903747081318,0.4664655451335422,1,36,0.0
10,0.6447327564744388,0.0005638581118546426,0.521878441215977,0,36,0.0
11,0.6241297735887416,0.0005380150440888588,0.4927142130936815,0,36,0.0
12,0.617373182142482,0.0005710445430047591,0.5140310749925984,0,36,0.0
13,0.6090194397112902,0.0005440525186713785,0.4578298137386146,1,36,0.0
14,0.5742522218648125,0.0005590162270784597,0.43898002039131884,1,36,0.0
15,0.5859015075599446,0.0005279667993925293,0.4399744586139975,0,36,0.0
16,0.5537757575511932,0.0004697812002097421,0.46782570699570886,0,36,0.0
17,0.549492828986224,0.0004794015853857512,0.45763300726737016,0,36,0.0
18,0.5449918326209573,0.0004869114138487288,0.46503730950780875,0,36,0.0
19,0.518136666802799,0.0005224973172195913,0.44774147306842327,0,36,0.0
20,0.5126913056654089,0.000579018855590702,0.4383356396548164,1,36,0.0
21,0.5063586974845213,0.0005742370243430795,0.4383211425245549,1,36,0.0
22,0.49191133485120886,0.0005882852323873736,0.3979955304149632,1,36,0.0
23,0.48606835533590875,0.0005495504616513191,0.40683956667307625,0,36,0.0
24,0.47598182804444256,0.0005970106076668291,0.3997873809745186,0,36,0.0
25,0.46707596498377185,0.0005665054849540705,0.38556240487908566,1,36,0.0
26,0.4542805496384116,0.0005398616543971002,0.42365640661921233,0,36,0.0
27,0.4446825188748977,0.0005371396611307693,0.3909864090516797,0,36,0.0
28,0.4442864120006561,0.0005910461751388057,0.3876690168105512,0,36,0.0
29,0.42598079793593463,0.0005766844534424736,0.39494518295765846,0,36,0.0
30,0.41635767116266137,0.0006051513561568058,0.3697546121659973,1,36,0.0
31,0.41687784019638513,0.0005546819004367161,0.36918505545611935,1,36,0.0
32,0.4170678300016067,0.0005900262533139218,0.38759711377365885,0,36,0.0
33,0.3970542024163639,0.000581145377980326,0.3901418787410528,0,36,0.0
34,0.4030185131465687,0.0006321151425842853,0.4054957762241232,0,36,0.0
35,0.3919052692020641,0.0005963388936566737,0.3840315385406039,0,36,0.0
36,0.38792032073525823,0.0006369743978960769,0.39052147391717495,0,36,0.0
37,0.39198876899831436,0.0005981067383853609,0.38866203822539147,0,36,0.0
38,0.38932751101606033,0.0006242717797730994,0.38214627855622746,0,36,0.0
1,0.9301372619236217,0.0009364448932876043,0.742918014756087,1,37,0.0
2,0.8184029943802777,0.0013030587808530339,0.6664776253951417,1,37,0.0
3,0.77950339457568,0.0014432074803420725,0.5441353263798623,1,37,0.0
4,0.7417100331362556,0.001547992106883184,0.5416447781217797,1,37,0.0
5,0.7300459714496836,0.0013881476356319207,0.5325183577429722,1,37,0.0
6,0.7101806542452644,0.0011278218432220028,0.47547493593237017,1,37,0.0
7,0.6880594029146082,0.0009578035623930833,0.553163916622992,0,37,0.0
8,0.6652380221030292,0.0009198045036207666,0.46605761839270227,1,37,0.0
9,0.6536862597746007,0.0009372278130339349,0.4707303097029384,0,37,0.0
10,0.6344731485142427,0.0008369170358705827,0.45978405569342157,1,37,0.0
11,0.6247257737552419,0.000923641980625689,0.42162504099990944,1,37,0.0
12,0.6106084241586573,0.0008334425517686588,0.3821468519512085,1,37,0.0
13,0.5838023143656114,0.0007789835172897096,0.42685198469924046,0,37,0.0
14,0.5798511550706975,0.0007136115140062483,0.4083133297613444,0,37,0.0
15,0.5569271319052752,0.0006490719230736003,0.4025513049663032,0,37,0.0
16,0.5545613544828751,0.0005916601228390765,0.3637763831576855,1,37,0.0
17,0.5374345053644741,0.0005958047226372668,0.3539333617944512,1,37,0.0
18,0.5252476878025952,0.000633699179846136,0.3556051119426907,0,37,0.0
19,0.5149786679183735,0.0005756241882302086,0.33885537064562476,1,37,0.0
20,0.514839231266695,0.0005465604895588887,0.34419193055254826,0,37,0.0
21,0.49689813151079065,0.0005789693544262692,0.3123213920133516,1,37,0.0
22,0.4918909840724047,0.0005824825897648492,0.32676296843883923,0,37,0.0
23,0.4749413143186008,0.0004885891654446502,0.31887799710081266,0,37,0.0
24,0.4674044542452868,0.0005752382895854466,0.32336190129263676,0,37,0.0
25,0.4734482940505533,0.000557999118737986,0.3113225076159985,1,37,0.0
26,0.4575381678693435,0.0005712581699138836,0.3124909936531781,0,37,0.0
27,0.4497707167092492,0.0005819870973937213,0.3187034823926968,0,37,0.0
28,0.43312265136662653,0.0005099547345547334,0.30419338544694763,1,37,0.0
29,0.42126286345369673,0.000534720705849502,0.30355031554417766,1,37,0.0
30,0.42443472567726587,0.0005257755076266168,0.2817468115981412,1,37,0.0
31,0.41728587360943065,0.0005216953423394658,0.2964950067709982,0,37,0.0
32,0.40177654974600846,0.0005686095747959746,0.27353070753282904,1,37,0.0
33,0.4013554516960593,0.0005331113705110243,0.28726062489499293,0,37,0.0
34,0.3960331092862522,0.0005530838741619578,0.27452883725834654,0,37,0.0
35,0.40503879960845496,0.0005646542526151546,0.28153977111625156,0,37,0.0
36,0.3976010322570801,0.0005811936437727555,0.27382710130400917,0,37,0.0
37,0.40215013833606944,0.0005804083909264163,0.2828334003709877,0,37,0.0
38,0.39229086076512054,0.0005812694363104289,0.28002099929050084,0,37,0.0
39,0.3937879681587219,0.0005591986591325087,0.2794913386338355,0,37,0.0
1,0.914960870430583,0.0006962974321573885,0.6383490540705851,1,38,0.0
2,0.8050548093659537,0.0009982809864422528,0.7282350470824381,0,38,0.0
3,0.7760454586574009,0.0009727385161871401,0.7325265007736074,0,38,0.0
4,0.739382816922097,0.001125694216517288,0.616199244904016,1,38,0.0
5,0.710786719407354,0.0010486562976092543,0.5253504438898849,1,38,0.0
6,0.6850965101094473,0.0010023325767611997,0.6609429838268852,0,38,0.0
7,0.6699544290701548,0.0012323904950227145,0.6289682259228098,0,38,0.0
8,0.6595513551008134,0.0012092586312930855,0.5918893123068559,0,38,0.0
9,0.630443719526132,0.00109364010374217,0.5720097143414941,0,38,0.0
10,0.6133846938610077,0.0013317162769713572,0.5894335669590938,0,38,0.0
11,0.6122922617055121,0.0013771744249554882,0.5796951464896097,0,38,0.0
12,0.5872379903282438,0.001169413299066946,0.5670174891704026,0,38,0.0
1,0.9329624028766856,0.0007722500882878462,0.6361112512456559,1,39,0.0
2,0.8230685612734626,0.0008586591856061097,0.7164907941696911,0,39,0.0
3,0.7743432199253756,0.0008951496747185421,0.5569129781755565,1,39,0.0
4,0.7521393712829141,0.00083264725501923,0.5875407826385478,0,39,0.0
5,0.7261541338527904,0.0008325323441942386,0.5987305910485258,0,39,0.0
6,0.7135421290117152,0.0007786891450557639,0.5241748102891992,1,39,0.0
7,0.6928086189662709,0.0007575308770516559,0.5971109145299971,0,39,0.0
8,0.671470832824707,0.0007738257730927538,0.5141758219695142,1,39,0.0
9,0.6596459578065311,0.0007581411919090897,0.5185817781151557,0,39,0.0
10,0.6454538177041447,0.0008075134780750993,0.5066289544508371,1,39,0.0
11,0.6207371269955354,0.0007621551678954241,0.5429904456483632,0,39,0.0
12,0.6117702466600081,0.0006361824210377082,0.4973588859765592,1,39,0.0
13,0.5953457478214713,0.0005818439147654264,0.4623449506223786,1,39,0.0
14,0.5857879459857941,0.0006337643748231452,0.5271583814623183,0,39,0.0
15,0.565486351181479,0.0006478072531000876,0.500880146457888,0,39,0.0
16,0.5650599349947537,0.0006663347084266955,0.47964138371374765,0,39,0.0
17,0.5397884554722729,0.0006576448809081579,0.5286392769145611,0,39,0.0
18,0.5336374384515425,0.0006784260259283816,0.4838923714993773,0,39,0.0
19,0.5212499488802517,0.0007112558869480648,0.3908090541154549,1,39,0.0
20,0.5069766500416923,0.000580379190197324,0.45126481942700164,0,39,0.0
21,0.500132417678833,0.0006101814037024536,0.42266406717799304,0,39,0.0
22,0.48499925101504604,0.0005929484196445521,0.42214102567273015,0,39,0.0
23,0.4876701660016004,0.0006425074582426426,0.3846074596063199,1,39,0.0
24,0.4686451231732088,0.0005501637950895683,0.4246064142052261,0,39,0.0
25,0.47189253779018625,0.0006485186311799814,0.427050100222305,0,39,0.0
26,0.45023660975344043,0.0005693525517605902,0.43887087852631645,0,39,0.0
27,0.44587601493386664,0.0006051551447907353,0.40712183365771604,0,39,0.0
28,0.4330801921732285,0.0006606930408024174,0.39450121992049214,0,39,0.0
29,0.42574125598458684,0.000585526049219291,0.448151106225648,0,39,0.0
30,0.4208291961866267,0.0005825787542990463,0.40579041863329807,0,39,0.0
1,0.914287609003839,0.0009752859252676856,0.764463063185207,1,40,0.0
2,0.8057775660639718,0.0010920551195297214,0.6747563905159276,1,40,0.0
3,0.7660949762378421,0.0013967629278167372,0.736565111882963,0,40,0.0
4,0.7352598288229534,0.0012049490753616695,0.6466290849817256,1,40,0.0
5,0.7134441293421245,0.0013174880365286732,0.6273751260545051,1,40,0.0
6,0.6913350756679263,0.0013263395951417763,0.6184166429748277,1,40,0.0
7,0.671677603608086,0.0011551944518855418,0.6416993650597848,0,40,0.0
8,0.6548476417859396,0.0011091046225850559,0.6069350449795702,1,40,0.0
9,0.635837849406969,0.00098212402094976,0.6040426863723463,1,40,0.0
10,0.6254024888787951,0.0009914943137638538,0.5676602435452432,1,40,0.0
11,0.607832690789586,0.0009818750570827564,0.5907804505306316,0,40,0.0
12,0.6003280562304315,0.0009166862794137117,0.5665931154875534,1,40,0.0
13,0.5745804774619284,0.0009745802876533985,0.5990606937900056,0,40,0.0
14,0.5669801089735258,0.0009524062500401799,0.5909757571365226,0,40,0.0
15,0.5647589482721829,0.0009177957700947965,0.5467805137996636,1,40,0.0
16,0.53176568093754,0.0009080515734413417,0.6001618245881617,0,40,0.0
17,0.5289126946812585,0.0008318311499481622,0.5540999545673375,0,40,0.0
18,0.5083639156960306,0.0008048205106336224,0.5826841696938149,0,40,0.0
19,0.5020921648967833,0.0008801365454149033,0.5350364648231232,1,40,0.0
20,0.486720608103843,0.0009626915821822227,0.4925319363812971,1,40,0.0
21,0.478716794578802,0.0008747957860274861,0.4914440599694805,1,40,0.0
22,0.4757969833555676,0.0009238666136211361,0.5345746178219648,0,40,0.0
23,0.47757393015282495,0.0009800415788222814,0.5079618423585739,0,40,0.0
24,0.4416761916308176,0.0009063826139373262,0.4990333771875844,0,40,0.0
25,0.4544508858096032,0.0008426160237009061,0.5235165886775683,0,40,0.0
26,0.43830115631932304,0.0009224357775002275,0.48675714674092907,1,40,0.0
27,0.4408474223954337,0.000930667760604549,0.4967426840082489,0,40,0.0
28,0.4255227435912405,0.0009690307266455853,0.5095909220984229,0,40,0.0
29,0.417014326722849,0.0008884375919088987,0.5394051880625302,0,40,0.0
30,0.4036319415484156,0.0009198830632071587,0.5330508881088956,0,40,0.0
31,0.39652025060994284,0.0009513259983144789,0.49478658029425526,0,40,0.0
32,0.38441625521296546,0.0009210066553870482,0.5156220234678075,0,40,0.0
33,0.39161447080827894,0.0010084265155629033,0.5095005020650694,0,40,0.0
