subject,channel,f1_full,f1_occluded,drop_pp
1,0,0.5521147922170776,0.5168859879858254,3.5228804231252187
1,1,0.5521147922170776,0.5437963056884284,0.8318486528649194
1,2,0.5521147922170776,0.5139886769895662,3.8126115227511415
1,3,0.5521147922170776,0.4635633847389272,8.855140747815039
1,4,0.5521147922170776,0.4406044251089648,11.15103671081128
1,5,0.5521147922170776,0.3710541047842448,18.10606874328328
1,6,0.5521147922170776,0.617641281674761,-6.552648945768336
1,7,0.5521147922170776,0.4992586077589583,5.285618445811929
1,8,0.5521147922170776,0.4527639409997468,9.935085121733078
2,0,0.7899778719795082,0.7412428884786343,4.873498350087391
2,1,0.7899778719795082,0.6955679797882023,9.440989219130591
2,2,0.7899778719795082,0.5899354958176518,20.004237616185637
2,3,0.7899778719795082,0.7569565228964464,3.3021349083061757
2,4,0.7899778719795082,0.797940963545032,-0.7963091565523772
2,5,0.7899778719795082,0.7076459584244361,8.233191355507207
2,6,0.7899778719795082,0.7090201465201466,8.095772545936164
2,7,0.7899778719795082,0.5072171448748879,28.27607271046203
2,8,0.7899778719795082,0.7076675910365209,8.23102809429873
3,0,0.8028438030560272,0.7391331841329871,6.3710618923040085
3,1,0.8028438030560272,0.7840806974161044,1.8763105639922784
3,2,0.8028438030560272,0.7635460028091943,3.9297800246832937
3,3,0.8028438030560272,0.5444334150562467,25.841038799978055
3,4,0.8028438030560272,0.6969828407354447,10.586096232058251
3,5,0.8028438030560272,0.6038060747686844,19.90377282873428
3,6,0.8028438030560272,0.7965948769965207,0.6248926059506554
3,7,0.8028438030560272,0.6954686433442163,10.73751597118109
3,8,0.8028438030560272,0.5582767140349862,24.456708902104097
4,0,0.7914536651313786,0.6887622502024726,10.269141492890599
4,1,0.7914536651313786,0.6706793766813988,12.077428844997984
4,2,0.7914536651313786,0.5542109226575792,23.724274247379938
4,3,0.7914536651313786,0.624405749054168,16.70479160772106
4,4,0.7914536651313786,0.6946102224210557,9.684344271032286
4,5,0.7914536651313786,0.6853649116189247,10.608875351245395
4,6,0.7914536651313786,0.6556317088340925,13.582195629728611
4,7,0.7914536651313786,0.6586887065447746,13.276495858660397
4,8,0.7914536651313786,0.6817799898544405,10.967367527693806
5,0,0.5566864654904182,0.4578214152505351,9.886505023988313
5,1,0.5566864654904182,0.5444317064685036,1.225475902191464
5,2,0.5566864654904182,0.4996625902821356,5.702387520828261
5,3,0.5566864654904182,0.5666737460704084,-0.998728057999021
5,4,0.5566864654904182,0.4888808178533608,6.780564763705743
5,5,0.5566864654904182,0.4494292859978173,10.725717949260094
5,6,0.5566864654904182,0.5270728177166535,2.961364777376474
5,7,0.5566864654904182,0.48725879554468104,6.942766994573718
5,8,0.5566864654904182,0.5358878386658752,2.079862682454303
6,0,0.641555928897454,0.581036944532891,6.051898436456304
6,1,0.641555928897454,0.6270983398155594,1.445758908189465
6,2,0.641555928897454,0.5102093071982063,13.134662169924772
6,3,0.641555928897454,0.5903612507072558,5.11946781901983
6,4,0.641555928897454,0.5746839492345849,6.687197966286917
6,5,0.641555928897454,0.38021970286166057,26.133622603579347
6,6,0.641555928897454,0.686544056499776,-4.498812760232196
6,7,0.641555928897454,0.5208828910688164,12.06730378286377
6,8,0.641555928897454,0.6133953836365891,2.8160545260864978
7,0,0.7528109239001355,0.5513857255661714,20.14251983339641
7,1,0.7528109239001355,0.5866275144683252,16.618340943181032
7,2,0.7528109239001355,0.639478567459062,11.333235644107354
7,3,0.7528109239001355,0.5920143869624245,16.0796536937711
7,4,0.7528109239001355,0.669123876834727,8.368704706540854
7,5,0.7528109239001355,0.5155814375900808,23.72294863100547
7,6,0.7528109239001355,0.6392198923568962,11.359103154323924
7,7,0.7528109239001355,0.5416340337750489,21.117689012508656
7,8,0.7528109239001355,0.5078919711413455,24.491895275878996
8,0,0.8029828560763612,0.7667414615007293,3.6241394575631913
8,1,0.8029828560763612,0.8313978321785045,-2.8414976102143275
8,2,0.8029828560763612,0.7836573976167608,1.932545845960043
8,3,0.8029828560763612,0.6775592121406523,12.542364393570892
8,4,0.8029828560763612,0.6864800837871698,11.650277228919137
8,5,0.8029828560763612,0.6263201656412815,17.666269043507977
8,6,0.8029828560763612,0.7881983777897239,1.4784478286637315
8,7,0.8029828560763612,0.7249530000346799,7.802985604168134
8,8,0.8029828560763612,0.6768625006147357,12.612035546162549
9,0,0.8078389636946879,0.7035897119436056,10.424925175108225
9,1,0.8078389636946879,0.6891005291906094,11.87384345040785
9,2,0.8078389636946879,0.7454875967962789,6.235136689840903
9,3,0.8078389636946879,0.6711020154148116,13.673694827987626
9,4,0.8078389636946879,0.6658496686964684,14.198929499821944
9,5,0.8078389636946879,0.6380302260257503,16.980873766893755
9,6,0.8078389636946879,0.7783933330844085,2.9445630610279383
9,7,0.8078389636946879,0.7335397973663487,7.429916632833922
9,8,0.8078389636946879,0.6724896706300089,13.534929306467902
10,0,0.6674608964120379,0.5270016674486975,14.04592289633404
10,1,0.6674608964120379,0.5817286802174765,8.57322161945614
10,2,0.6674608964120379,0.558179403541865,10.928149287017286
10,3,0.6674608964120379,0.5820556645757042,8.540523183633365
10,4,0.6674608964120379,0.6472955615812758,2.0165334830762105
10,5,0.6674608964120379,0.6283746202883669,3.9086276123670993
10,6,0.6674608964120379,0.6526512844398266,1.4809611972211312
10,7,0.6674608964120379,0.5356279640872741,13.183293232476379
10,8,0.6674608964120379,0.5997191214582519,6.774177495378597
11,0,0.7987032085561497,0.7887709154001946,0.9932293155955119
11,1,0.7987032085561497,0.7381813651981537,6.052184335799604
11,2,0.7987032085561497,0.7614347968701441,3.7268411686005587
11,3,0.7987032085561497,0.7628008654043642,3.590234315178553
11,4,0.7987032085561497,0.6502312346850162,14.847197387113354
11,5,0.7987032085561497,0.6827495123447086,11.595369621144114
11,6,0.7987032085561497,0.714504355031974,8.419885352417577
11,7,0.7987032085561497,0.6430668715017201,15.563633705442959
11,8,0.7987032085561497,0.7461477141000681,5.255549445608166
12,0,0.8719174618284775,0.7962156965297102,7.5701765298767265
12,1,0.8719174618284775,0.7094791769200732,16.24382849084043
12,2,0.8719174618284775,0.7648259660514726,10.709149577700494
12,3,0.8719174618284775,0.7978827668095556,7.40346950189219
12,4,0.8719174618284775,0.7113526953811192,16.056476644735827
12,5,0.8719174618284775,0.6905118241145795,18.140563771389807
12,6,0.8719174618284775,0.8641182156398193,0.7799246188658238
12,7,0.8719174618284775,0.7387558514967933,13.316161033168417
12,8,0.8719174618284775,0.7470505404339396,12.486692139453792
13,0,0.8807747920479195,0.8310277256746057,4.9747066373313835
13,1,0.8807747920479195,0.8139177594189555,6.6857032628964035
13,2,0.8807747920479195,0.7684305625627308,11.234422948518874
13,3,0.8807747920479195,0.8050877924648255,7.5686999583093995
13,4,0.8807747920479195,0.7393476679968183,14.142712405110125
13,5,0.8807747920479195,0.6042972113816669,27.64775806662526
13,6,0.8807747920479195,0.8457479079335837,3.5026884114335854
13,7,0.8807747920479195,0.7793186625910447,10.145612945687487
13,8,0.8807747920479195,0.8608351659438878,1.9939626104031771
14,0,0.7694434616831918,0.7368455647490078,3.2597896934184023
14,1,0.7694434616831918,0.7448219192431887,2.462154244000303
14,2,0.7694434616831918,0.6856460434933849,8.37974181898069
14,3,0.7694434616831918,0.6942211067308969,7.52223549522949
14,4,0.7694434616831918,0.6395560629498533,12.988739873333843
14,5,0.7694434616831918,0.6654308033697147,10.401265831347706
14,6,0.7694434616831918,0.7792343417377926,-0.9790880054600826
14,7,0.7694434616831918,0.6880457974924893,8.139766419070249
14,8,0.7694434616831918,0.6866553393179509,8.278812236524091
15,0,0.8005994077844552,0.6463654476201283,15.423396016432688
15,1,0.8005994077844552,0.7211557016796237,7.944370610483142
15,2,0.8005994077844552,0.6869442902990256,11.365511748542955
15,3,0.8005994077844552,0.676210755906854,12.438865187760118
15,4,0.8005994077844552,0.641143224097503,15.945618368695214
15,5,0.8005994077844552,0.41987284206340747,38.07265657210477
15,6,0.8005994077844552,0.6771873875240606,12.341202026039454
15,7,0.8005994077844552,0.6615124367360155,13.90869710484397
15,8,0.8005994077844552,0.8392310298771071,-3.863162209265192
16,0,0.7924567247826672,0.7310344336135413,6.14222911691259
16,1,0.7924567247826672,0.7146976965900959,7.77590281925713
16,2,0.7924567247826672,0.7228753880732328,6.958133670943434
16,3,0.7924567247826672,0.6466070180384244,14.58497067442428
16,4,0.7924567247826672,0.6655816115887977,12.687511319386946
16,5,0.7924567247826672,0.5636888190464859,22.876790573618123
16,6,0.7924567247826672,0.7837537449629217,0.8702979819745438
16,7,0.7924567247826672,0.7235524180060945,6.890430677657267
16,8,0.7924567247826672,0.7268764434760577,6.558028130660942
17,0,0.7947550777821304,0.6231959765631735,17.15591012189569
17,1,0.7947550777821304,0.6912510219418724,10.3504055840258
17,2,0.7947550777821304,0.7294674889300263,6.528758885210406
17,3,0.7947550777821304,0.6565482047958411,13.82068729862893
17,4,0.7947550777821304,0.7251206752786089,6.963440250352148
17,5,0.7947550777821304,0.6447836367037969,14.99714410783335
17,6,0.7947550777821304,0.8110812857144836,-1.6326207932353176
17,7,0.7947550777821304,0.7287504811238988,6.600459665823156
17,8,0.7947550777821304,0.6680005225715762,12.675455521055422
18,0,0.8154384766439934,0.7255366156512167,8.990186099277665
18,1,0.8154384766439934,0.7356478912143858,7.979058542960759
18,2,0.8154384766439934,0.6905017775304936,12.493669911349981
18,3,0.8154384766439934,0.6726905972931394,14.274787935085397
18,4,0.8154384766439934,0.7703379343129397,4.510054233105365
18,5,0.8154384766439934,0.6415135658725715,17.392491077142193
18,6,0.8154384766439934,0.8513391790685687,-3.5900702424575326
18,7,0.8154384766439934,0.7263395470928359,8.909892955115751
18,8,0.8154384766439934,0.7096546743405086,10.578380230348483
19,0,0.7912767893664904,0.740647310195341,5.0629479171149345
19,1,0.7912767893664904,0.7159429883661874,7.533380100030296
19,2,0.7912767893664904,0.7571946937551899,3.408209561130049
19,3,0.7912767893664904,0.6328639438504893,15.84128455160011
19,4,0.7912767893664904,0.6356653486231406,15.561144074334976
19,5,0.7912767893664904,0.4460483022930748,34.52284870734156
19,6,0.7912767893664904,0.7729080735661542,1.8368715800336166
19,7,0.7912767893664904,0.6834486392485721,10.782815011791824
19,8,0.7912767893664904,0.7002694218595142,9.100736750697614
20,0,0.7802283480052515,0.549086360133981,23.114198787127048
20,1,0.7802283480052515,0.6200535857350014,16.017476227025018
20,2,0.7802283480052515,0.5731413923763481,20.708695562890345
20,3,0.7802283480052515,0.762401143043388,1.7827204961863519
20,4,0.7802283480052515,0.7446992150378685,3.5529132967383026
20,5,0.7802283480052515,0.7684909346020092,1.1737413403242303
20,6,0.7802283480052515,0.7174527156280788,6.277563237717276
20,7,0.7802283480052515,0.6763090316313705,10.391931637388108
20,8,0.7802283480052515,0.690083411896105,9.014493610914654
21,0,0.7687651671232749,0.5316774322444668,23.70877348788081
21,1,0.7687651671232749,0.6920266324246953,7.673853469857961
21,2,0.7687651671232749,0.7443496512795136,2.4415515843761337
21,3,0.7687651671232749,0.7002540889289581,6.851107819431679
21,4,0.7687651671232749,0.7830840377453041,-1.431887062202919
21,5,0.7687651671232749,0.6768439521122884,9.192121501098649
21,6,0.7687651671232749,0.7667547988616397,0.20103682616352536
21,7,0.7687651671232749,0.6963385525104246,7.242661461285027
21,8,0.7687651671232749,0.7187775563582015,4.998761076507341
22,0,0.7658595139306069,0.7014853088175252,6.437420511308167
22,1,0.7658595139306069,0.6700064424085321,9.585307152207479
22,2,0.7658595139306069,0.6845960476037171,8.126346632688985
22,3,0.7658595139306069,0.6860271943936503,7.9832319536956575
22,4,0.7658595139306069,0.6868054726943029,7.905404123630399
22,5,0.7658595139306069,0.6582721411162095,10.758737281439746
22,6,0.7658595139306069,0.7202654362638171,4.55940776667898
22,7,0.7658595139306069,0.5287867366822916,23.70727772483153
22,8,0.7658595139306069,0.6477758866944235,11.808362723618337
23,0,0.7851586223075696,0.6280625664227952,15.709605588477437
23,1,0.7851586223075696,0.7089536620377603,7.620496026980927
23,2,0.7851586223075696,0.6765763651628446,10.858225714472503
23,3,0.7851586223075696,0.6727458050330287,11.241281727454089
23,4,0.7851586223075696,0.6624132911011467,12.274533120642294
23,5,0.7851586223075696,0.5905142219730738,19.46444003344958
23,6,0.7851586223075696,0.7240799216146357,6.107870069293386
23,7,0.7851586223075696,0.6374732033060299,14.768541900153975
23,8,0.7851586223075696,0.7037892810222072,8.136934128536243
24,0,0.6606567905428247,0.6119448201155738,4.871197042725084
24,1,0.6606567905428247,0.6315445362179424,2.911225432488229
24,2,0.6606567905428247,0.6417217762645211,1.8935014278303575
24,3,0.6606567905428247,0.6780088306691113,-1.735204012628666
24,4,0.6606567905428247,0.5326202007020958,12.803658984072886
24,5,0.6606567905428247,0.3275348766435964,33.31219138992283
24,6,0.6606567905428247,0.5989208382223353,6.173595232048934
24,7,0.6606567905428247,0.5734168362727655,8.723995427005915
24,8,0.6606567905428247,0.6324301749459866,2.8226615596838034
25,0,0.7538380018699465,0.6597743341012703,9.406366776867625
25,1,0.7538380018699465,0.6949091793718899,5.892882249805664
25,2,0.7538380018699465,0.6399084546914975,11.392954717844905
25,3,0.7538380018699465,0.659089438835622,9.474856303432455
25,4,0.7538380018699465,0.6320954665758569,12.174253529408963
25,5,0.7538380018699465,0.5272868451876085,22.655115668233805
25,6,0.7538380018699465,0.7267370592005988,2.7100942669347705
25,7,0.7538380018699465,0.6808494818025346,7.298852006741196
25,8,0.7538380018699465,0.7063321732733497,4.75058285965968
26,0,0.6966340637736466,0.6569701586400618,3.9663905133584754
26,1,0.6966340637736466,0.6751512926503127,2.1482771123333855
26,2,0.6966340637736466,0.5987317197308972,9.790234404274933
26,3,0.6966340637736466,0.6921814267461588,0.44526370274877713
26,4,0.6966340637736466,0.5782765530330631,11.835751074058344
26,5,0.6966340637736466,0.501344501773303,19.528956200034354
26,6,0.6966340637736466,0.7135552685152586,-1.6921204741612073
26,7,0.6966340637736466,0.683003015151728,1.3631048621918551
26,8,0.6966340637736466,0.6188339962808209,7.780006749282564
27,0,0.8421130092140757,0.8014961594101181,4.061684980395763
27,1,0.8421130092140757,0.7927511328172466,4.93618763968291
27,2,0.8421130092140757,0.7385291785308713,10.358383068320443
27,3,0.8421130092140757,0.7854944347158934,5.66185744981823
27,4,0.8421130092140757,0.7808015884163004,6.131142079777529
27,5,0.8421130092140757,0.5830785587953018,25.903445041877394
27,6,0.8421130092140757,0.8132061019914294,2.8906907222646328
27,7,0.8421130092140757,0.6471672868833754,19.49457223307003
27,8,0.8421130092140757,0.7741974371485346,6.791557206554111
28,0,0.8062738089656343,0.7794687551511399,2.6805053814494384
28,1,0.8062738089656343,0.7262730756450535,8.000073332058077
28,2,0.8062738089656343,0.7350935114627445,7.118029750288979
28,3,0.8062738089656343,0.7456182793926247,6.065552957300957
28,4,0.8062738089656343,0.7074505141236055,9.882329484202879
28,5,0.8062738089656343,0.5885206471286311,21.775316183700323
28,6,0.8062738089656343,0.7782559882922125,2.8017820673421734
28,7,0.8062738089656343,0.7191973786205734,8.707643034506084
28,8,0.8062738089656343,0.7223662686031588,8.39075403624755
29,0,0.8104327849966126,0.5879260203410356,22.250676465557707
29,1,0.8104327849966126,0.6722025584254291,13.823022657118356
29,2,0.8104327849966126,0.7101381096580193,10.029467533859338
29,3,0.8104327849966126,0.7666066894314769,4.3826095565135725
29,4,0.8104327849966126,0.6837307278732415,12.670205712337113
29,5,0.8104327849966126,0.6753162964105396,13.511648858607305
29,6,0.8104327849966126,0.7740253549315723,3.6407430065040325
29,7,0.8104327849966126,0.7120348779853988,9.839790701121387
29,8,0.8104327849966126,0.6969851507067655,11.344763428984717
30,0,0.7563283880939693,0.7222033666248721,3.412502146909724
30,1,0.7563283880939693,0.6823810669048764,7.394732118909286
30,2,0.7563283880939693,0.7193505783787114,3.697780971525788
30,3,0.7563283880939693,0.7093787757244577,4.694961236951157
30,4,0.7563283880939693,0.671356292262475,8.497209583149434
30,5,0.7563283880939693,0.5646270002253775,19.17013878685918
30,6,0.7563283880939693,0.7977243680649779,-4.139597997100863
30,7,0.7563283880939693,0.7059495807325941,5.037880736137524
30,8,0.7563283880939693,0.7130513453161106,4.327704277785871
31,0,0.741544201294234,0.6633156694277238,7.822853186651024
31,1,0.741544201294234,0.6892278036293376,5.231639766489648
31,2,0.741544201294234,0.6269266851600339,11.461751613420013
31,3,0.741544201294234,0.7091364663192874,3.2407734974946645
31,4,0.741544201294234,0.696025762959688,4.551843833454605
31,5,0.741544201294234,0.45596325565374074,28.55809456404933
31,6,0.741544201294234,0.7204222784442698,2.112192284996428
31,7,0.741544201294234,0.6178334726825371,12.371072861169697
31,8,0.741544201294234,0.6469195332658441,9.462466802838998
32,0,0.7165840114845345,0.6737137734941971,4.28702379903374
32,1,0.7165840114845345,0.6756270077796749,4.095700370485966
32,2,0.7165840114845345,0.6878652726799599,2.871873880457465
32,3,0.7165840114845345,0.7066504958588711,0.9933515625663469
32,4,0.7165840114845345,0.6569816073583926,5.960240412614192
32,5,0.7165840114845345,0.36736301796702175,34.92209935175128
32,6,0.7165840114845345,0.6726814341889206,4.390257729561398
32,7,0.7165840114845345,0.6559579912840783,6.0626020200456265
32,8,0.7165840114845345,0.6828054662647615,3.377854521977308
33,0,0.8935386380662877,0.7877431751515462,10.579546291474152
33,1,0.8935386380662877,0.7910830850300513,10.245555303623643
33,2,0.8935386380662877,0.8487914104966603,4.474722756962746
33,3,0.8935386380662877,0.8483817909771308,4.515684708915691
33,4,0.8935386380662877,0.8894056191586842,0.4133018907603536
33,5,0.8935386380662877,0.6952313652765681,19.83072727897196
33,6,0.8935386380662877,0.8772944463530543,1.6244191713233436
33,7,0.8935386380662877,0.733811077568594,15.972756049769377
33,8,0.8935386380662877,0.8107053047381569,8.283333332813081
34,0,0.8838052610057193,0.8050388281744214,7.876643283129791
34,1,0.8838052610057193,0.8632278475577564,2.0577413447962933
34,2,0.8838052610057193,0.8214444855156391,6.236077549008023
34,3,0.8838052610057193,0.7857131105954143,9.809215041030505
34,4,0.8838052610057193,0.7594104033065388,12.439485769918058
34,5,0.8838052610057193,0.7651707378178709,11.863452318784839
34,6,0.8838052610057193,0.8385504421177794,4.525481888793992
34,7,0.8838052610057193,0.692122795082056,19.168246592366334
34,8,0.8838052610057193,0.808491405534949,7.531385547077029
35,0,0.6967681189911802,0.6433922266805291,5.33758923106511
35,1,0.6967681189911802,0.6755613078602953,2.120681113088485
35,2,0.6967681189911802,0.6886682048057171,0.8099914185463075
35,3,0.6967681189911802,0.6489350635565386,4.783305543464156
35,4,0.6967681189911802,0.6481616876206235,4.860643137055664
35,5,0.6967681189911802,0.6428436825126325,5.392443647854773
35,6,0.6967681189911802,0.6511540260828758,4.561409290830443
35,7,0.6967681189911802,0.6468216969746909,4.994642201648924
35,8,0.6967681189911802,0.6383098279163409,5.845829107483924
36,0,0.6918719232745385,0.6533696569112207,3.850226636331777
36,1,0.6918719232745385,0.5884651509866166,10.340677228792195
36,2,0.6918719232745385,0.6474818695952017,4.43900536793368
36,3,0.6918719232745385,0.6696475703082136,2.2224352966324856
36,4,0.6918719232745385,0.663220389389853,2.8651533884685554
36,5,0.6918719232745385,0.39387444707551467,29.799747619902384
36,6,0.6918719232745385,0.6767811194841198,1.5090803790418716
36,7,0.6918719232745385,0.6190794481836444,7.279247509089415
36,8,0.6918719232745385,0.5708980208083372,12.097390246620133
37,0,0.8518925286628907,0.7457951860887562,10.60973425741345
37,1,0.8518925286628907,0.7548756713538805,9.701685730901023
37,2,0.8518925286628907,0.6952846478788883,15.660788078400234
37,3,0.8518925286628907,0.7661282568952168,8.576427176767387
37,4,0.8518925286628907,0.8220298040022692,2.9862724660621454
37,5,0.8518925286628907,0.7256073000606222,12.628522860226843
37,6,0.8518925286628907,0.7945225422232111,5.736998643967961
37,7,0.8518925286628907,0.7643629456458212,8.752958301706947
37,8,0.8518925286628907,0.762655418677152,8.923710998573863
38,0,0.8206448230111495,0.769983168960019,5.066165405113054
38,1,0.8206448230111495,0.7178828076546633,10.276201535648621
38,2,0.8206448230111495,0.5676661524145483,25.297867059660117
38,3,0.8206448230111495,0.7216241298668522,9.90206931442973
38,4,0.8206448230111495,0.5219435451255003,29.870127788564915
38,5,0.8206448230111495,0.5683660327039729,25.22787903071766
38,6,0.8206448230111495,0.8074112018883207,1.3233621122828776
38,7,0.8206448230111495,0.752472242318531,6.817258069261845
38,8,0.8206448230111495,0.7825365125547032,3.810831045644625
39,0,0.7733568966075105,0.667276686935682,10.608020967182853
39,1,0.7733568966075105,0.7006754761612141,7.268142044629644
39,2,0.7733568966075105,0.697360054223722,7.599684238378845
39,3,0.7733568966075105,0.7052682299023763,6.808866670513424
39,4,0.7733568966075105,0.637291435961977,13.60654606455335
39,5,0.7733568966075105,0.36058854312952926,41.27683534779813
39,6,0.7733568966075105,0.7805161966359622,-0.7159300028451665
39,7,0.7733568966075105,0.6863850521051332,8.697184450237728
39,8,0.7733568966075105,0.6987769105475343,7.457998605997618
40,0,0.757231539456072,0.7279152168694094,2.9316322586662613
40,1,0.757231539456072,0.7083627606188465,4.886877883722551
40,2,0.757231539456072,0.6864559400127116,7.077559944336043
40,3,0.757231539456072,0.6746838576612264,8.25476817948456
40,4,0.757231539456072,0.6950375172267567,6.219402222931536
40,5,0.757231539456072,0.40186048046909617,35.53710589869758
40,6,0.757231539456072,0.7252760378895011,3.19555015665709
40,7,0.757231539456072,0.6468406364988661,11.039090295720587
40,8,0.757231539456072,0.6366563991563992,12.057514029967287
