subject,channel,alpha,f1,drop_pp
1,0,1.0,0.6459517592183674,0.0
1,0,0.75,0.6362284590294675,0.9723300188899997
1,0,0.5,0.6324652072578725,1.3486551960494975
1,0,0.25,0.6252359936975463,2.0715765520821106
1,0,0.0,0.6014088049069134,4.454295431145406
1,1,1.0,0.6459517592183674,0.0
1,1,0.75,0.6307124779900888,1.5239281228278667
1,1,0.5,0.6343784302316873,1.1573328986680176
1,1,0.25,0.629239065961864,1.6712693256503486
1,1,0.0,0.6218709655621075,2.4080793656259925
1,2,1.0,0.6459517592183674,0.0
1,2,0.75,0.6486927235998543,-0.27409643814868545
1,2,0.5,0.6515995134682002,-0.564775424983277
1,2,0.25,0.6452147449173495,0.07370143010179131
1,2,0.0,0.6398926482203425,0.6059110998024919
1,3,1.0,0.6459517592183674,0.0
1,3,0.75,0.6437984802493935,0.21532789689739928
1,3,0.5,0.6345356569624978,1.1416102255869642
1,3,0.25,0.6176038382971849,2.8347920921182546
1,3,0.0,0.5944742270864483,5.147753213191919
1,4,1.0,0.6459517592183674,0.0
1,4,0.75,0.6565968268436706,-1.064506762530315
1,4,0.5,0.6942610960903888,-4.8309336872021325
1,4,0.25,0.6992799855686971,-5.332822635032963
1,4,0.0,0.68756040285038,-4.160864363201256
1,5,1.0,0.6459517592183674,0.0
1,5,0.75,0.6126852921855457,3.3266467032821767
1,5,0.5,0.594122283034669,5.182947618369848
1,5,0.25,0.6042017096764921,4.175004954187534
1,5,0.0,0.599302193044038,4.6649566174329475
1,6,1.0,0.6459517592183674,0.0
1,6,0.75,0.6553407254011877,-0.9388966182820258
1,6,0.5,0.6773246246760246,-3.137286545765716
1,6,0.25,0.6928159230704827,-4.686416385211523
1,6,0.0,0.7091399877212976,-6.3188228502930155
1,7,1.0,0.6459517592183674,0.0
1,7,0.75,0.6289567800460346,1.6994979172332836
1,7,0.5,0.6192999167776967,2.665184244067076
1,7,0.25,0.6268120321275308,1.9139727090836667
1,7,0.0,0.6016772647287354,4.4274494489632055
1,8,1.0,0.6459517592183674,0.0
1,8,0.75,0.6537704517812476,-0.7818692562880147
1,8,0.5,0.6681086621421723,-2.21569029238049
1,8,0.25,0.6715734935562522,-2.5621734337884727
1,8,0.0,0.6549455421716672,-0.8993782953299778
2,0,1.0,0.871528913288442,0.0
2,0,0.75,0.8782237912736574,-0.6694877985215397
2,0,0.5,0.8777589542720621,-0.6230040983620122
2,0,0.25,0.885885293040124,-1.4356379751682025
2,0,0.0,0.8722503562338978,-0.07214429454558413
2,1,1.0,0.871528913288442,0.0
2,1,0.75,0.8585637160766695,1.2965197211772472
2,1,0.5,0.8557435330001266,1.5785380288315332
2,1,0.25,0.8363848970037255,3.5144016284716417
2,1,0.0,0.8265429223009089,4.498599098753308
2,2,1.0,0.871528913288442,0.0
2,2,0.75,0.8615046893185634,1.0024223969878565
2,2,0.5,0.861763101182132,0.9765812106310001
2,2,0.25,0.8577700933841352,1.3758819904306718
2,2,0.0,0.8548950008325008,1.6633912455941147
2,3,1.0,0.871528913288442,0.0
2,3,0.75,0.8726410226203534,-0.1112109331911415
2,3,0.5,0.8763334624491805,-0.48045491607385804
2,3,0.25,0.868693687449905,0.28352258385369034
2,3,0.0,0.8402298076952577,3.1299105593184273
2,4,1.0,0.871528913288442,0.0
2,4,0.75,0.8753546615014813,-0.38257482130393816
2,4,0.5,0.8696352124887676,0.1893700799674325
2,4,0.25,0.875846688300148,-0.43177750117060487
2,4,0.0,0.8697818960434742,0.17470172449677301
2,5,1.0,0.871528913288442,0.0
2,5,0.75,0.8621894934456574,0.9339419842784524
2,5,0.5,0.8521052049175217,1.9423708370920223
2,5,0.25,0.8280885064031911,4.3440406885250855
2,5,0.0,0.8388812033176768,3.264770997076516
2,6,1.0,0.871528913288442,0.0
2,6,0.75,0.8740716207458883,-0.2542707457446336
2,6,0.5,0.8698545956473235,0.16743176411184724
2,6,0.25,0.8661216774976539,0.5407235790788056
2,6,0.0,0.8545613081551384,1.6967605133303532
2,7,1.0,0.871528913288442,0.0
2,7,0.75,0.8685999272774769,0.2928986010965029
2,7,0.5,0.851874044543248,1.9654868745193954
2,7,0.25,0.8301006396443261,4.142827364411583
2,7,0.0,0.8039230510073445,6.760586228109744
2,8,1.0,0.871528913288442,0.0
2,8,0.75,0.8684252434305754,0.31036698578665867
2,8,0.5,0.8613087813023436,1.022013198609839
2,8,0.25,0.8509443124240045,2.0584600864437474
2,8,0.0,0.8452051747899535,2.632373849848846
3,0,1.0,0.9125878970889976,0.0
3,0,0.75,0.9281815755032159,-1.5593678414218326
3,0,0.5,0.9253455117679256,-1.2757614678927998
3,0,0.25,0.918118832837629,-0.5530935748631394
3,0,0.0,0.9179054697922623,-0.5317572703264717
3,1,1.0,0.9125878970889976,0.0
3,1,0.75,0.9201951013336295,-0.7607204244631904
3,1,0.5,0.9089691315326067,0.3618765556390846
3,1,0.25,0.8966839371055153,1.5903959983482263
3,1,0.0,0.873141589772491,3.9446307316506557
3,2,1.0,0.9125878970889976,0.0
3,2,0.75,0.9282493162599884,-1.5661419170990842
3,2,0.5,0.9193281151373425,-0.6740218048344904
3,2,0.25,0.9183476845329777,-0.5759787443980091
3,2,0.0,0.9123241207051926,0.026377638380492563
3,3,1.0,0.9125878970889976,0.0
3,3,0.75,0.8958652278045974,1.6722669284400138
3,3,0.5,0.8869077761319141,2.5680120957083497
3,3,0.25,0.8771195056971033,3.5468391391894283
3,3,0.0,0.8407095959043762,7.187830118462135
3,4,1.0,0.9125878970889976,0.0
3,4,0.75,0.9175370764949575,-0.4949179405959958
3,4,0.5,0.9119164559239656,0.06714411650319274
3,4,0.25,0.9094208454631006,0.31670516258969217
3,4,0.0,0.9120073353082241,0.058056178077348086
3,5,1.0,0.9125878970889976,0.0
3,5,0.75,0.9190954066992956,-0.6507509610298001
3,5,0.5,0.9131337042352206,-0.05458071462229874
3,5,0.25,0.924442224643712,-1.1854327554714383
3,5,0.0,0.9180291900325673,-0.5441292943569764
3,6,1.0,0.9125878970889976,0.0
3,6,0.75,0.9191323998418149,-0.6544502752817372
3,6,0.5,0.9177334965766205,-0.5145599487622943
3,6,0.25,0.9110267641444476,0.1561132944549959
3,6,0.0,0.9076363295185383,0.49515675704592255
3,7,1.0,0.9125878970889976,0.0
3,7,0.75,0.9115147571309592,0.10731399580383716
3,7,0.5,0.9065446466356326,0.6043250453364957
3,7,0.25,0.8965790236138755,1.6008873475122032
3,7,0.0,0.8856452574930778,2.6942639595919804
3,8,1.0,0.9125878970889976,0.0
3,8,0.75,0.912072040172154,0.051585691684352675
3,8,0.5,0.9074171782534152,0.51707188355824
3,8,0.25,0.9104139658770685,0.21739312119291032
3,8,0.0,0.9033740038651328,0.9213893223864789
4,0,1.0,0.8822798612067351,0.0
4,0,0.75,0.8818242226676998,0.04556385390352968
4,0,0.5,0.8870195235284749,-0.4739662321739835
4,0,0.25,0.9008423323324811,-1.856247112574605
4,0,0.0,0.8961173764337812,-1.3837515227046127
4,1,1.0,0.8822798612067351,0.0
4,1,0.75,0.8801805817734777,0.2099279433257384
4,1,0.5,0.8775347072003048,0.47451540064302744
4,1,0.25,0.8667629546738821,1.551690653285298
4,1,0.0,0.8659158540465197,1.6364007160215355
4,2,1.0,0.8822798612067351,0.0
4,2,0.75,0.883006263468925,-0.07264022621898958
4,2,0.5,0.8829062045651205,-0.06263433583854061
4,2,0.25,0.8787666098079259,0.3513251398809203
4,2,0.0,0.8693666518968921,1.2913209309842966
4,3,1.0,0.8822798612067351,0.0
4,3,0.75,0.8849380888693366,-0.26582276626014867
4,3,0.5,0.8616542391596178,2.0625622047117265
4,3,0.25,0.8679483949669955,1.4331466239739576
4,3,0.0,0.8566787138064882,2.560114740024688
4,4,1.0,0.8822798612067351,0.0
4,4,0.75,0.8805386407185318,0.17412204882032434
4,4,0.5,0.8829822707422286,-0.07024095354934978
4,4,0.25,0.87938675785289,0.28931033538450723
4,4,0.0,0.8778591794532075,0.4420681753527611
4,5,1.0,0.8822798612067351,0.0
4,5,0.75,0.8829056291068519,-0.06257679001168137
4,5,0.5,0.8674362761765819,1.484358503015315
4,5,0.25,0.8684373784853865,1.3842482721348581
4,5,0.0,0.8684373784853865,1.3842482721348581
4,6,1.0,0.8822798612067351,0.0
4,6,0.75,0.8871153953056081,-0.4835534098873051
4,6,0.5,0.8858195481383888,-0.35396869316537405
4,6,0.25,0.888905967891475,-0.6626106684739952
4,6,0.0,0.888905967891475,-0.6626106684739952
4,7,1.0,0.8822798612067351,0.0
4,7,0.75,0.8947344024974856,-1.245454129075052
4,7,0.5,0.9072538411961703,-2.497397998943518
4,7,0.25,0.9107704106532246,-2.8490549446489544
4,7,0.0,0.9131352931435007,-3.0855431936765654
4,8,1.0,0.8822798612067351,0.0
4,8,0.75,0.8949062534547519,-1.262639224801687
4,8,0.5,0.89642360445717,-1.4143743250434881
4,8,0.25,0.8886960861966245,-0.6416224989889474
4,8,0.0,0.9014102783216336,-1.913041711489849
5,0,1.0,0.6560416850897812,0.0
5,0,0.75,0.6663839691171567,-1.034228402737547
5,0,0.5,0.6700813265919684,-1.4039641502187172
5,0,0.25,0.6570617263957172,-0.10200413059360258
5,0,0.0,0.6345259332539516,2.1515751835829655
5,1,1.0,0.6560416850897812,0.0
5,1,0.75,0.6702028983659203,-1.4161213276139062
5,1,0.5,0.6787380265745964,-2.269634148481514
5,1,0.25,0.6792170218012337,-2.3175336711452443
5,1,0.0,0.6716725883048057,-1.5630903215024472
5,2,1.0,0.6560416850897812,0.0
5,2,0.75,0.666056310202898,-1.0014625113116793
5,2,0.5,0.6766054908666861,-2.0563805776904864
5,2,0.25,0.6800327434248434,-2.399105833506221
5,2,0.0,0.6801795379241014,-2.413785283432013
5,3,1.0,0.6560416850897812,0.0
5,3,0.75,0.6710277385180172,-1.4986053428236001
5,3,0.5,0.6831993778053291,-2.715769271554791
5,3,0.25,0.6890309310826425,-3.298924599286124
5,3,0.0,0.6877253325138517,-3.1683647424070482
5,4,1.0,0.6560416850897812,0.0
5,4,0.75,0.6486876914386529,0.7353993651128321
5,4,0.5,0.6440388253265401,1.2002859763241114
5,4,0.25,0.6415203505202806,1.4521334569500666
5,4,0.0,0.6342314991768535,2.1810185912927715
5,5,1.0,0.6560416850897812,0.0
5,5,0.75,0.6445571389860342,1.148454610374705
5,5,0.5,0.6475183324672326,0.8523352622548663
5,5,0.25,0.6491738010227436,0.6867884067037644
5,5,0.0,0.6339742447894114,2.206744030036978
5,6,1.0,0.6560416850897812,0.0
5,6,0.75,0.6523781433790108,0.3663541710770435
5,6,0.5,0.6552829283099653,0.07587567798159611
5,6,0.25,0.6541383823158642,0.19033027739170372
5,6,0.0,0.6642547569693511,-0.8213071879569878
5,7,1.0,0.6560416850897812,0.0
5,7,0.75,0.6649550559090033,-0.8913370819222055
5,7,0.5,0.6734073393422705,-1.736565425248926
5,7,0.25,0.6716024599052517,-1.5560774815470468
5,7,0.0,0.6737734205173478,-1.7731735427566564
5,8,1.0,0.6560416850897812,0.0
5,8,0.75,0.660934709616087,-0.48930245263058003
5,8,0.5,0.6540978416597356,0.1943843430045611
5,8,0.25,0.6459467113447345,1.0094973745046754
5,8,0.0,0.6462660409836478,0.9775644106133408
6,0,1.0,0.8034369730798302,0.0
6,0,0.75,0.8105579085338974,-0.7120935454067223
6,0,0.5,0.8067185223244778,-0.328154924464763
6,0,0.25,0.7914634300416865,1.1973543038143686
6,0,0.0,0.7634605734090552,3.9976399670775042
6,1,1.0,0.8034369730798302,0.0
6,1,0.75,0.813933214593765,-1.04962415139348
6,1,0.5,0.7985493698916113,0.4887603188218903
6,1,0.25,0.7900182636137858,1.3418709466044398
6,1,0.0,0.7705836826262785,3.2853290453551676
6,2,1.0,0.8034369730798302,0.0
6,2,0.75,0.8101914379345619,-0.6754464854731745
6,2,0.5,0.8135807583762475,-1.0143785296417351
6,2,0.25,0.811832439416591,-0.8395466336760804
6,2,0.0,0.8123307964458499,-0.8893823366019737
6,3,1.0,0.8034369730798302,0.0
6,3,0.75,0.8013556087077519,0.2081364372078287
6,3,0.5,0.8193073177889932,-1.5870344709163042
6,3,0.25,0.8208028379755924,-1.7365864895762195
6,3,0.0,0.8315296102063554,-2.809263712652521
6,4,1.0,0.8034369730798302,0.0
6,4,0.75,0.7939718066203578,0.9465166459472374
6,4,0.5,0.7735089746047814,2.992799847504879
6,4,0.25,0.7666165464539797,3.68204266258505
6,4,0.0,0.7903827752736565,1.3054197806173673
6,5,1.0,0.8034369730798302,0.0
6,5,0.75,0.8049712492296682,-0.1534276149838032
6,5,0.5,0.8001607919595538,0.3276181120276389
6,5,0.25,0.8029028909698452,0.05340821099849569
6,5,0.0,0.808309579911634,-0.4872606831803794
6,6,1.0,0.8034369730798302,0.0
6,6,0.75,0.7963216664115701,0.7115306668260102
6,6,0.5,0.7939807790506264,0.9456194029203835
6,6,0.25,0.7903424308407427,1.3094542239087459
6,6,0.0,0.7959899253260035,0.7447047753826652
6,7,1.0,0.8034369730798302,0.0
6,7,0.75,0.7960539727067213,0.7383000373108906
6,7,0.5,0.7847474717301424,1.8689501349687831
6,7,0.25,0.765965496400415,3.7471476679415194
6,7,0.0,0.7470466282658326,5.639034481399763
6,8,1.0,0.8034369730798302,0.0
6,8,0.75,0.7884433960459158,1.4993577033914351
6,8,0.5,0.7801539927163977,2.328298036343246
6,8,0.25,0.7718875149529308,3.1549458126899355
6,8,0.0,0.7326738868343874,7.07630862454428
7,0,1.0,0.8025031679813759,0.0
7,0,0.75,0.8044390490235825,-0.19358810422066552
7,0,0.5,0.816473180516012,-1.3970012534636145
7,0,0.25,0.8009197050090358,0.15834629723401328
7,0,0.0,0.7861711479648833,1.6332020016492588
7,1,1.0,0.8025031679813759,0.0
7,1,0.75,0.7875973058262572,1.4905862155118688
7,1,0.5,0.765847888841801,3.6655279139574892
7,1,0.25,0.7705032576978839,3.199991028349203
7,1,0.0,0.764457712051699,3.8045455929676897
7,2,1.0,0.8025031679813759,0.0
7,2,0.75,0.804450572539794,-0.1947404558418131
7,2,0.5,0.7817541024085684,2.0749065572807535
7,2,0.25,0.7680132152599181,3.448995272145783
7,2,0.0,0.7814680221514523,2.1035145829923607
7,3,1.0,0.8025031679813759,0.0
7,3,0.75,0.816841152789749,-1.4337984808373117
7,3,0.5,0.8093146303311579,-0.6811462349782027
7,3,0.25,0.810693238013594,-0.8190070032218166
7,3,0.0,0.7991185016649677,0.33846663164082136
7,4,1.0,0.8025031679813759,0.0
7,4,0.75,0.7762756047866152,2.6227563194760717
7,4,0.5,0.7697035120417735,3.2799655939602435
7,4,0.25,0.7678250657387787,3.4678102242597153
7,4,0.0,0.7754427400171886,2.7060427964187284
7,5,1.0,0.8025031679813759,0.0
7,5,0.75,0.7982907827328612,0.42123852485146385
7,5,0.5,0.6977932953666979,10.470987261467801
7,5,0.25,0.696665691333813,10.583747664756293
7,5,0.0,0.7198734120436405,8.262975593773536
7,6,1.0,0.8025031679813759,0.0
7,6,0.75,0.8016942464325392,0.08089215488367163
7,6,0.5,0.7959287132969959,0.6574454684380004
7,6,0.25,0.7862931970663929,1.6209970914982996
7,6,0.0,0.7763340593886772,2.616910859269872
7,7,1.0,0.8025031679813759,0.0
7,7,0.75,0.80080814689545,0.16950210859258963
7,7,0.5,0.7954217934833707,0.7081374498005166
7,7,0.25,0.8009992201702194,0.15039478111564808
7,7,0.0,0.7787769139516694,2.3726254029706517
7,8,1.0,0.8025031679813759,0.0
7,8,0.75,0.8060197788341585,-0.35166108527826534
7,8,0.5,0.7968012128191608,0.5701955162215055
7,8,0.25,0.7898819765245225,1.2621191456853365
7,8,0.0,0.7828118873445548,1.969128063682113
8,0,1.0,0.8041774943628918,0.0
8,0,0.75,0.8052720635390908,-0.10945691761989895
8,0,0.5,0.8088816493730927,-0.4704155010200939
8,0,0.25,0.7980546262268753,0.6122868136016479
8,0,0.0,0.7995004932707268,0.46770010921649563
8,1,1.0,0.8041774943628918,0.0
8,1,0.75,0.8088452823246614,-0.4667787961769587
8,1,0.5,0.8057117370634075,-0.153424270051572
8,1,0.25,0.8117145581308942,-0.753706376800245
8,1,0.0,0.8020794666575461,0.20980277053456176
8,2,1.0,0.8041774943628918,0.0
8,2,0.75,0.802276353678481,0.19011406844107182
8,2,0.5,0.8177278885525612,-1.3550394189669412
8,2,0.25,0.821055284527016,-1.6877790164124273
8,2,0.0,0.8255951988823813,-2.1417704519489544
8,3,1.0,0.8041774943628918,0.0
8,3,0.75,0.7836935791237759,2.0483915239115857
8,3,0.5,0.7791619612606547,2.501553310223703
8,3,0.25,0.7804889189757611,2.368857538713065
8,3,0.0,0.7870613669348154,1.7116127428076333
8,4,1.0,0.8041774943628918,0.0
8,4,0.75,0.79261696304496,1.1560531317931777
8,4,0.5,0.7772339652224177,2.6943529140474043
8,4,0.25,0.7716710094963084,3.2506484866583363
8,4,0.0,0.7810778878621507,2.3099606500741054
8,5,1.0,0.8041774943628918,0.0
8,5,0.75,0.7865275088794208,1.7649985483470965
8,5,0.5,0.7720048809710873,3.217261339180444
8,5,0.25,0.7827760474819299,2.1401446880961905
8,5,0.0,0.7905787429821491,1.3598751380742624
8,6,1.0,0.8041774943628918,0.0
8,6,0.75,0.7985830113733662,0.5594482989525584
8,6,0.5,0.8011475040588638,0.3029990304027952
8,6,0.25,0.8036944401165005,0.0483054246391279
8,6,0.0,0.804896370024442,-0.07188756615502667
8,7,1.0,0.8041774943628918,0.0
8,7,0.75,0.8123489850819271,-0.8171490719035335
8,7,0.5,0.8257413685605175,-2.156387419762573
8,7,0.25,0.8075412954797835,-0.3363801116891718
8,7,0.0,0.770311058253067,3.386643610982476
8,8,1.0,0.8041774943628918,0.0
8,8,0.75,0.7945161553647251,0.966133899816668
8,8,0.5,0.7962717716888794,0.790572267401235
8,8,0.25,0.7900954566123977,1.4082037750494103
8,8,0.0,0.7855355095992514,1.8641984763640318
9,0,1.0,0.8205965825553186,0.0
9,0,0.75,0.833930856228937,-1.333427367361839
9,0,0.5,0.8392034240326709,-1.8606841477352254
9,0,0.25,0.8286786803339448,-0.8082097778626118
9,0,0.0,0.8270043758531413,-0.6407793297822706
9,1,1.0,0.8205965825553186,0.0
9,1,0.75,0.8259389878432611,-0.5342405287942498
9,1,0.5,0.8180391088556338,0.25574736996848424
9,1,0.25,0.8125864946867026,0.8010087868616012
9,1,0.0,0.8002971401145097,2.0299442440808946
9,2,1.0,0.8205965825553186,0.0
9,2,0.75,0.8293003727915162,-0.8703790236197606
9,2,0.5,0.8237446581196581,-0.3148075564339492
9,2,0.25,0.8275625054748091,-0.6965922919490497
9,2,0.0,0.8241984364224415,-0.36018538671228617
9,3,1.0,0.8205965825553186,0.0
9,3,0.75,0.821642161520048,-0.10455789647293434
9,3,0.5,0.8155379639208549,0.5058618634463774
9,3,0.25,0.8089474117054374,1.1649170849881263
9,3,0.0,0.8062211309376036,1.437545161771503
9,4,1.0,0.8205965825553186,0.0
9,4,0.75,0.8208760737435137,-0.02794911881950357
9,4,0.5,0.812690737556577,0.7905844998741696
9,4,0.25,0.8088334228317929,1.1763159723525707
9,4,0.0,0.8184018535851265,0.2194728970192128
9,5,1.0,0.8205965825553186,0.0
9,5,0.75,0.8276072741282591,-0.7010691572940431
9,5,0.5,0.8231497798694778,-0.255319731415915
9,5,0.25,0.8260603240867042,-0.5463741531385513
9,5,0.0,0.8148044016133991,0.5792180941919578
9,6,1.0,0.8205965825553186,0.0
9,6,0.75,0.8230644806883989,-0.24678981330802374
9,6,0.5,0.816672607089378,0.3923975465940588
9,6,0.25,0.8190610021379506,0.153558041736801
9,6,0.0,0.8118210071321751,0.8775575423143556
9,7,1.0,0.8205965825553186,0.0
9,7,0.75,0.8172904426165295,0.3306139938789143
9,7,0.5,0.8033980391211323,1.7198543434186364
9,7,0.25,0.7986666506444144,2.19299319109042
9,7,0.0,0.7765079539237185,4.408862863160012
9,8,1.0,0.8205965825553186,0.0
9,8,0.75,0.8233805869409158,-0.27840043855971164
9,8,0.5,0.8260248030363404,-0.5428220481021762
9,8,0.25,0.834940692247861,-1.4344109692542406
9,8,0.0,0.8356673393344368,-1.5070756779118177
10,0,1.0,0.8107203264004597,0.0
10,0,0.75,0.8061739941172565,0.4546332283203114
10,0,0.5,0.7906431895021006,2.0077136898359105
10,0,0.25,0.7678428489939674,4.287747740649229
10,0,0.0,0.7492668531122941,6.145347328816553
10,1,1.0,0.8107203264004597,0.0
10,1,0.75,0.8201280782190887,-0.9407751818629073
10,1,0.5,0.8071731665170089,0.3547159883450779
10,1,0.25,0.7909676309922932,1.9752695408166487
10,1,0.0,0.7796486557605389,3.107167063992078
10,2,1.0,0.8107203264004597,0.0
10,2,0.75,0.8130323822259774,-0.23120558255177448
10,2,0.5,0.8105825753902859,0.013775101017377
10,2,0.25,0.78679403299315,2.3926293407309673
10,2,0.0,0.7827882658948458,2.793206050561381
10,3,1.0,0.8107203264004597,0.0
10,3,0.75,0.7904006951089079,2.0319631291551787
10,3,0.5,0.7667154450601534,4.400488134030622
10,3,0.25,0.7425115647048268,6.820876169563284
10,3,0.0,0.7071548848438383,10.356544155662139
10,4,1.0,0.8107203264004597,0.0
10,4,0.75,0.7964224189101303,1.4297907490329331
10,4,0.5,0.787323785064896,2.339654133556368
10,4,0.25,0.7845827162954946,2.613761010496507
10,4,0.0,0.7635025792920529,4.721774710840676
10,5,1.0,0.8107203264004597,0.0
10,5,0.75,0.7912146492039648,1.9505677196494875
10,5,0.5,0.7615085665398473,4.9211759860612325
10,5,0.25,0.7723486255909563,3.837170080950336
10,5,0.0,0.779666622083616,3.105370431684362
10,6,1.0,0.8107203264004597,0.0
10,6,0.75,0.7903609723091445,2.0359354091315174
10,6,0.5,0.7796954732647645,3.102485313569514
10,6,0.25,0.7846814234571862,2.603890294327349
10,6,0.0,0.7790058369452415,3.1714489455218153
10,7,1.0,0.8107203264004597,0.0
10,7,0.75,0.78559428950767,2.5126036892789694
10,7,0.5,0.7599224419579611,5.079788444249855
10,7,0.25,0.7403158664971721,7.040445990328759
10,7,0.0,0.7151485543654887,9.55717720349709
10,8,1.0,0.8107203264004597,0.0
10,8,0.75,0.8026745583624019,0.8045768038057788
10,8,0.5,0.7979814142631173,1.273891213734235
10,8,0.25,0.8028367779691595,0.7883548431300125
10,8,0.0,0.7868596304596758,2.3860695940783883
11,0,1.0,0.9105483046504481,0.0
11,0,0.75,0.9189753842823635,-0.8427079631915357
11,0,0.5,0.9210401650120132,-1.049186036156513
11,0,0.25,0.9203059355469276,-0.9757630896479519
11,0,0.0,0.9050633285064047,0.5484976144043419
11,1,1.0,0.9105483046504481,0.0
11,1,0.75,0.9141026677191058,-0.355436306865764
11,1,0.5,0.9071330838982332,0.3415220752214898
11,1,0.25,0.894898974217611,1.5649330432837116
11,1,0.0,0.8798943192891798,3.0653985361268288
11,2,1.0,0.9105483046504481,0.0
11,2,0.75,0.9065714196481541,0.3976885002293984
11,2,0.5,0.887022355361803,2.3525949288645154
11,2,0.25,0.8852570127803606,2.5291291870087496
11,2,0.0,0.8855689128208469,2.4979391829601183
11,3,1.0,0.9105483046504481,0.0
11,3,0.75,0.9074226699528006,0.31256346976474836
11,3,0.5,0.8991606145483123,1.1387690102135806
11,3,0.25,0.8851552142275959,2.5393090422852205
11,3,0.0,0.8635897176030956,4.695858704735256
11,4,1.0,0.9105483046504481,0.0
11,4,0.75,0.9107418024075852,-0.01934977571370622
11,4,0.5,0.9027339213124274,0.7814383338020758
11,4,0.25,0.9060549137863164,0.44933908641316966
11,4,0.0,0.9190887118731708,-0.8540407222722646
11,5,1.0,0.9105483046504481,0.0
11,5,0.75,0.8909946531348503,1.9553651515597847
11,5,0.5,0.8874903898890847,2.305791476136343
11,5,0.25,0.9057414730230503,0.4806831627397812
11,5,0.0,0.9169412025444641,-0.6392897894015981
11,6,1.0,0.9105483046504481,0.0
11,6,0.75,0.9216700684345345,-1.1121763784086358
11,6,0.5,0.9250547876527915,-1.4506483002343362
11,6,0.25,0.9299996161523107,-1.9451311501862634
11,6,0.0,0.93469797284866,-2.414966819821185
11,7,1.0,0.9105483046504481,0.0
11,7,0.75,0.9227097607946486,-1.21614561442005
11,7,0.5,0.9265301840463558,-1.5981879395907672
11,7,0.25,0.9280100502032829,-1.746174555283475
11,7,0.0,0.9357968608829029,-2.524855623245481
11,8,1.0,0.9105483046504481,0.0
11,8,0.75,0.9200710199722878,-0.9522715321839681
11,8,0.5,0.9193205545239843,-0.8772249873536198
11,8,0.25,0.9240960841355356,-1.3547779485087452
11,8,0.0,0.9229886056668966,-1.244030101644844
12,0,1.0,0.9126217657603408,0.0
12,0,0.75,0.916442580058416,-0.3820814298075126
12,0,0.5,0.9208754806795527,-0.8253714919211896
12,0,0.25,0.9180434778453622,-0.5421712085021402
12,0,0.0,0.9060146086652334,0.6607157095107397
12,1,1.0,0.9126217657603408,0.0
12,1,0.75,0.8993811426471939,1.3240623113146888
12,1,0.5,0.8969667513428148,1.5655014417526036
12,1,0.25,0.9025879954582989,1.003377030204189
12,1,0.0,0.8945495846797942,1.8072181080546645
12,2,1.0,0.9126217657603408,0.0
12,2,0.75,0.9004897336705847,1.2132032089756106
12,2,0.5,0.892730114852124,1.9891650908216874
12,2,0.25,0.8951745823984043,1.7447183361936514
12,2,0.0,0.8803537085451979,3.226805721514292
12,3,1.0,0.9126217657603408,0.0
12,3,0.75,0.907555342965453,0.5066422794887782
12,3,0.5,0.8767574496094679,3.5864316150872932
12,3,0.25,0.86268679356494,4.993497219540077
12,3,0.0,0.8363687993471551,7.6252966413185685
12,4,1.0,0.9126217657603408,0.0
12,4,0.75,0.8981803421165123,1.44414236438285
12,4,0.5,0.8958340968325367,1.6787668927804145
12,4,0.25,0.9025173493952418,1.0104416365099067
12,4,0.0,0.9024433118546036,1.017845390573724
12,5,1.0,0.9126217657603408,0.0
12,5,0.75,0.9106183363885539,0.200342937178688
12,5,0.5,0.9100427066845245,0.2579059075816348
12,5,0.25,0.9096721301445712,0.29496356157696635
12,5,0.0,0.9209171455938697,-0.8295379833528904
12,6,1.0,0.9126217657603408,0.0
12,6,0.75,0.9156970079101228,-0.30752421497819427
12,6,0.5,0.9153608078912957,-0.2739042130954883
12,6,0.25,0.9064576859341048,0.6164079826236013
12,6,0.0,0.9042076160568422,0.841414970349863
12,7,1.0,0.9126217657603408,0.0
12,7,0.75,0.910108550743583,0.25132150167578304
12,7,0.5,0.8994347901381172,1.3186975622223596
12,7,0.25,0.9031589825218342,0.9462783238506578
12,7,0.0,0.899813416932056,1.2808348828284855
12,8,1.0,0.9126217657603408,0.0
12,8,0.75,0.9122564122869001,0.036535347344068825
12,8,0.5,0.8919417689243005,2.067999683604027
12,8,0.25,0.8823368929175801,3.0284872842760713
12,8,0.0,0.8814703417910636,3.115142396927717
13,0,1.0,0.9303113564735046,0.0
13,0,0.75,0.9303241220605707,-0.0012765587066088102
13,0,0.5,0.9235390562958066,0.6772300177698032
13,0,0.25,0.9135669048452246,1.6744451628279977
13,0,0.0,0.9021940596074003,2.8117296866104313
13,1,1.0,0.9303113564735046,0.0
13,1,0.75,0.9266381596268525,0.3673196846652127
13,1,0.5,0.9072486198017469,2.3062736671757733
13,1,0.25,0.9030615986516073,2.7249757821897314
13,1,0.0,0.8969811239312783,3.3330232542226335
13,2,1.0,0.9303113564735046,0.0
13,2,0.75,0.9319669578127935,-0.16556013392888813
13,2,0.5,0.9304984085572182,-0.018705208371361248
13,2,0.25,0.9345718252382177,-0.4260468764713088
13,2,0.0,0.9158136036473113,1.4497752826193255
13,3,1.0,0.9303113564735046,0.0
13,3,0.75,0.931658312160764,-0.1346955687259399
13,3,0.5,0.9271013249805047,0.3210031492999921
13,3,0.25,0.9175050428910112,1.28063135824934
13,3,0.0,0.9042112094213264,2.6100147052178224
13,4,1.0,0.9303113564735046,0.0
13,4,0.75,0.9297498131329194,0.05615433405852244
13,4,0.5,0.9203484615980493,0.9962894875455319
13,4,0.25,0.9161033064165527,1.4208050056951915
13,4,0.0,0.9164786527010056,1.383270377249901
13,5,1.0,0.9303113564735046,0.0
13,5,0.75,0.9180801869360988,1.2231169537405773
13,5,0.5,0.9084264060630236,2.1884950410480997
13,5,0.25,0.8984795551156763,3.183180135782826
13,5,0.0,0.8967978247311242,3.3513531742380365
13,6,1.0,0.9303113564735046,0.0
13,6,0.75,0.9361663142976615,-0.5854957824156903
13,6,0.5,0.9295171972966498,0.07941591768547696
13,6,0.25,0.9276100402853591,0.27013161881455083
13,6,0.0,0.9187863401882032,1.1525016285301448
13,7,1.0,0.9303113564735046,0.0
13,7,0.75,0.9189323058665977,1.1379050606906915
13,7,0.5,0.9039372728419266,2.6374083631578005
13,7,0.25,0.8953228536519638,3.4988502821540757
13,7,0.0,0.8909870259985182,3.93243304749864
13,8,1.0,0.9303113564735046,0.0
13,8,0.75,0.9377459563559869,-0.7434599882482296
13,8,0.5,0.9323476380851162,-0.20362816116116234
13,8,0.25,0.9197103721160038,1.0600984357500787
13,8,0.0,0.9171936529592509,1.3117703514253676
14,0,1.0,0.8258604529218432,0.0
14,0,0.75,0.8187908335609179,0.7069619360925317
14,0,0.5,0.8218742135726869,0.39862393491563175
14,0,0.25,0.8201490963614944,0.5711356560348824
14,0,0.0,0.8181396746334463,0.7720778288396901
14,1,1.0,0.8258604529218432,0.0
14,1,0.75,0.8199659671824899,0.589448573935325
14,1,0.5,0.8167155765515001,0.9144876370343114
14,1,0.25,0.821348008946434,0.4512443975409175
14,1,0.0,0.8189621444403586,0.6898308481484539
14,2,1.0,0.8258604529218432,0.0
14,2,0.75,0.8326826314706942,-0.6822178548851032
14,2,0.5,0.8374396649045461,-1.1579211982702953
14,2,0.25,0.8375386527285902,-1.1678199806747003
14,2,0.0,0.8462145135173511,-2.035406059550793
14,3,1.0,0.8258604529218432,0.0
14,3,0.75,0.8070254601706428,1.8834992751200375
14,3,0.5,0.805335384893396,2.0525068028447224
14,3,0.25,0.7820059081085806,4.385454481326256
14,3,0.0,0.7690045518208378,5.685590110100536
14,4,1.0,0.8258604529218432,0.0
14,4,0.75,0.8313570210027157,-0.549656808087251
14,4,0.5,0.8315687991122565,-0.5708346190413272
14,4,0.25,0.8290862110766575,-0.32257581548142955
14,4,0.0,0.8237826947634102,0.20777581584330296
14,5,1.0,0.8258604529218432,0.0
14,5,0.75,0.8387955210724738,-1.2935068150630613
14,5,0.5,0.8288172035532554,-0.29567506314122083
14,5,0.25,0.8326775336979082,-0.6817080776065021
14,5,0.0,0.8244593060145812,0.14011469072620075
14,6,1.0,0.8258604529218432,0.0
14,6,0.75,0.8210244776392394,0.48359752826038216
14,6,0.5,0.8214288904140876,0.443156250775556
14,6,0.25,0.823069233302262,0.27912196195811756
14,6,0.0,0.8187782805429864,0.7082172378856777
14,7,1.0,0.8258604529218432,0.0
14,7,0.75,0.8128780134594088,1.298243946243438
14,7,0.5,0.803670895842038,2.218955707980519
14,7,0.25,0.7834347149487814,4.242573797306182
14,7,0.0,0.7785642910518827,4.729616186996044
14,8,1.0,0.8258604529218432,0.0
14,8,0.75,0.8249797288154816,0.08807241063615301
14,8,0.5,0.8140327059720244,1.1827746949818807
14,8,0.25,0.8070836756048427,1.8776777317000448
14,8,0.0,0.7842616491146254,4.159880380721781
15,0,1.0,0.8905101830239927,0.0
15,0,0.75,0.8918740710608023,-0.13638880368096462
15,0,0.5,0.88826485372444,0.22453292995526786
15,0,0.25,0.8834241424688839,0.7086040555108752
15,0,0.0,0.8561911858790724,3.431899714492026
15,1,1.0,0.8905101830239927,0.0
15,1,0.75,0.8966004781981496,-0.6090295174156934
15,1,0.5,0.8963101149185205,-0.5799931894527877
15,1,0.25,0.8911397696233762,-0.06295865993835026
15,1,0.0,0.8887170575322254,0.17931254917672446
15,2,1.0,0.8905101830239927,0.0
15,2,0.75,0.8904487861379382,0.006139688605444338
15,2,0.5,0.8677912030127719,2.2718980011220746
15,2,0.25,0.8663001689057384,2.4210014118254297
15,2,0.0,0.8555773197813987,3.4932863242593926
15,3,1.0,0.8905101830239927,0.0
15,3,0.75,0.8846054495049642,0.5904733519028427
15,3,0.5,0.874463237936295,1.6046945087697662
15,3,0.25,0.8576073491473131,3.2902833876679582
15,3,0.0,0.8491156682786671,4.139451474532551
15,4,1.0,0.8905101830239927,0.0
15,4,0.75,0.8775653938174931,1.2944789206499552
15,4,0.5,0.8880728038038022,0.24373792201904942
15,4,0.25,0.8793096765773168,1.1200506446675806
15,4,0.0,0.899679629187826,-0.9169446163833306
15,5,1.0,0.8905101830239927,0.0
15,5,0.75,0.8892673285530428,0.12428544709498501
15,5,0.5,0.8864570066145064,0.40531764094862144
15,5,0.25,0.8817494211309062,0.8760761893086499
15,5,0.0,0.883440564119721,0.7069618904271602
15,6,1.0,0.8905101830239927,0.0
15,6,0.75,0.8798279983386808,1.0682184685311902
15,6,0.5,0.8815797773134672,0.8930405710525502
15,6,0.25,0.8834983477042495,0.7011835319743143
15,6,0.0,0.8786478737501149,1.186230927387777
15,7,1.0,0.8905101830239927,0.0
15,7,0.75,0.8623675212912529,2.8142661732739715
15,7,0.5,0.8579660205130282,3.254416251096448
15,7,0.25,0.8530199105259638,3.749027249802883
15,7,0.0,0.8577848271372124,3.272535588678027
15,8,1.0,0.8905101830239927,0.0
15,8,0.75,0.8950127938415955,-0.4502610817602837
15,8,0.5,0.9058003223431916,-1.529013931919898
15,8,0.25,0.9048039321893528,-1.4293749165360192
15,8,0.0,0.8921123715971508,-0.1602188573158192
16,0,1.0,0.8542836069607713,0.0
16,0,0.75,0.851371983960683,0.29116230000882926
16,0,0.5,0.856221194073051,-0.19375871122796484
16,0,0.25,0.8489253518029903,0.5358255157780989
16,0,0.0,0.8522287933026029,0.20548136581683973
16,1,1.0,0.8542836069607713,0.0
16,1,0.75,0.8509052384717838,0.33783684889875376
16,1,0.5,0.8600488153351589,-0.5765208374387543
16,1,0.25,0.8602186660886946,-0.5935059127923248
16,1,0.0,0.8676883679695525,-1.3404761008781185
16,2,1.0,0.8542836069607713,0.0
16,2,0.75,0.8578345307134005,-0.35509237526292203
16,2,0.5,0.8677380536762119,-1.3454446715440604
16,2,0.25,0.8635546051382491,-0.9270998177477785
16,2,0.0,0.8622905226276947,-0.8006915666923353
16,3,1.0,0.8542836069607713,0.0
16,3,0.75,0.8536322640308824,0.06513429298888873
16,3,0.5,0.8646481190161451,-1.036451205537381
16,3,0.25,0.8702761966068695,-1.5992589646098176
16,3,0.0,0.8735416310954917,-1.925802413472033
16,4,1.0,0.8542836069607713,0.0
16,4,0.75,0.8509267505024343,0.3356856458337054
16,4,0.5,0.8376277521119007,1.6655854848870666
16,4,0.25,0.8360403664790006,1.8243240481770728
16,4,0.0,0.8423732088071272,1.1910398153644142
16,5,1.0,0.8542836069607713,0.0
16,5,0.75,0.8375879038672636,1.6695703093507763
16,5,0.5,0.8274880293476731,2.6795577613098254
16,5,0.25,0.8352078041007143,1.9075802860057056
16,5,0.0,0.8443807825551564,0.9902824405614963
16,6,1.0,0.8542836069607713,0.0
16,6,0.75,0.8544409556600284,-0.015734869925709827
16,6,0.5,0.8586820369177931,-0.43984299570217766
16,6,0.25,0.8624834743256387,-0.819986736486733
16,6,0.0,0.8575984251255991,-0.3314818164827815
16,7,1.0,0.8542836069607713,0.0
16,7,0.75,0.8556611900018884,-0.13775830411171253
16,7,0.5,0.8564597033764223,-0.21760964156509743
16,7,0.25,0.8488661855156266,0.5417421445144677
16,7,0.0,0.8094792403173815,4.480436664338983
16,8,1.0,0.8542836069607713,0.0
16,8,0.75,0.8546351917902509,-0.0351584829479612
16,8,0.5,0.8515042167692692,0.27793901915020847
16,8,0.25,0.8501772971203978,0.4106309840373523
16,8,0.0,0.8460894511029554,0.819415585781591
17,0,1.0,0.8781659270173563,0.0
17,0,0.75,0.8780583579178153,0.010756909954101612
17,0,0.5,0.8752234233683098,0.29425036490464684
17,0,0.25,0.8706982784512888,0.746764856606752
17,0,0.0,0.8629277650145187,1.5238162002837563
17,1,1.0,0.8781659270173563,0.0
17,1,0.75,0.8851120234200149,-0.6946096402658641
17,1,0.5,0.8922478928173158,-1.4081965799959462
17,1,0.25,0.8906605601052427,-1.2494633087886453
17,1,0.0,0.8918651832754176,-1.3699256258061343
17,2,1.0,0.8781659270173563,0.0
17,2,0.75,0.8849774094211827,-0.6811482403826452
17,2,0.5,0.878234419583304,-0.006849256594765318
17,2,0.25,0.8721968337078623,0.5969093309494022
17,2,0.0,0.856238077376487,2.1927849640869246
17,3,1.0,0.8781659270173563,0.0
17,3,0.75,0.8884427639817318,-1.0276836964375535
17,3,0.5,0.879383503241557,-0.12175762242007115
17,3,0.25,0.8724034785457382,0.5762448471618109
17,3,0.0,0.8633908778842475,1.4775049133108786
17,4,1.0,0.8781659270173563,0.0
17,4,0.75,0.8719369301177496,0.6228996899606654
17,4,0.5,0.8668738117209962,1.1292115296360095
17,4,0.25,0.8635234676710393,1.4642459346317027
17,4,0.0,0.8673241642293592,1.084176278799709
17,5,1.0,0.8781659270173563,0.0
17,5,0.75,0.8746009317113241,0.35649953060321593
17,5,0.5,0.8606365176343491,1.7529409383007177
17,5,0.25,0.8595080742812911,1.865785273606524
17,5,0.0,0.8572601295342293,2.090579748312704
17,6,1.0,0.8781659270173563,0.0
17,6,0.75,0.8818447531755828,-0.3678826158226456
17,6,0.5,0.8843642065738255,-0.6198279556469233
17,6,0.25,0.8852745451465022,-0.7108618129145872
17,6,0.0,0.8723659232616892,0.5800003755667138
17,7,1.0,0.8781659270173563,0.0
17,7,0.75,0.8805696548443498,-0.24037278269934959
17,7,0.5,0.8836137128616888,-0.5447785844332476
17,7,0.25,0.8697860909963855,0.837983602097081
17,7,0.0,0.8495372948354101,2.8628632181946223
17,8,1.0,0.8781659270173563,0.0
17,8,0.75,0.8768363719301039,0.13295550872524098
17,8,0.5,0.8776743014307546,0.04916255866016517
17,8,0.25,0.8474884605104344,3.0677466506921935
17,8,0.0,0.8110831753002299,6.708275171712641
18,0,1.0,0.9114871884804641,0.0
18,0,0.75,0.9174572307841427,-0.5970042303678591
18,0,0.5,0.9129600518368267,-0.14728633563626525
18,0,0.25,0.9105199633995762,0.0967225080887868
18,0,0.0,0.9005235821409141,1.0963606339549958
18,1,1.0,0.9114871884804641,0.0
18,1,0.75,0.9152376256480992,-0.37504371676351234
18,1,0.5,0.9164008124196239,-0.4913623939159839
18,1,0.25,0.9162472428162806,-0.47600543358164993
18,1,0.0,0.916771651588508,-0.528446310804398
18,2,1.0,0.9114871884804641,0.0
18,2,0.75,0.9173914030630528,-0.5904214582588718
18,2,0.5,0.9187522795053804,-0.7265091024916348
18,2,0.25,0.9161808915963422,-0.4693703115878134
18,2,0.0,0.8907539671367729,2.0733221343691155
18,3,1.0,0.9114871884804641,0.0
18,3,0.75,0.8993171451792141,1.2170043301249933
18,3,0.5,0.8801581988261189,3.1328989654345163
18,3,0.25,0.8551696251203641,5.631756336009996
18,3,0.0,0.8139570555830828,9.75301328973812
18,4,1.0,0.9114871884804641,0.0
18,4,0.75,0.9182039112326639,-0.6716722752199811
18,4,0.5,0.9141458421646514,-0.2658653684187384
18,4,0.25,0.9081034026038353,0.33837858766287976
18,4,0.0,0.8834182209607957,2.8068967519668364
18,5,1.0,0.9114871884804641,0.0
18,5,0.75,0.9105660119594374,0.09211765210266343
18,5,0.5,0.8980633492167194,1.3423839263744686
18,5,0.25,0.8928128455192402,1.8674342961223833
18,5,0.0,0.8966586784918245,1.4828509988639604
18,6,1.0,0.9114871884804641,0.0
18,6,0.75,0.914033532175711,-0.25463436952469776
18,6,0.5,0.9065279295921829,0.4959258888281193
18,6,0.25,0.9008311938010019,1.065599467946221
18,6,0.0,0.904677236786228,0.6809951694236038
18,7,1.0,0.9114871884804641,0.0
18,7,0.75,0.8954169443641894,1.6070244116274668
18,7,0.5,0.881444597069597,3.004259141086707
18,7,0.25,0.8864870481240376,2.5000140356426503
18,7,0.0,0.8847785035925037,2.670868488796041
18,8,1.0,0.9114871884804641,0.0
18,8,0.75,0.9106705105572425,0.08166779232215982
18,8,0.5,0.9003483106931383,1.1138877787325807
18,8,0.25,0.900919613741896,1.0567574738568064
18,8,0.0,0.9016160843332481,0.9871104147215926
19,0,1.0,0.8465288370920727,0.0
19,0,0.75,0.8436180592926825,0.2910777799390196
19,0,0.5,0.8366563210440856,0.9872516047987112
19,0,0.25,0.8338448559822924,1.2683981109780307
19,0,0.0,0.8315019639451458,1.5026873146926967
19,1,1.0,0.8465288370920727,0.0
19,1,0.75,0.8499849915883317,-0.3456154496259023
19,1,0.5,0.8466926598696107,-0.01638227775380141
19,1,0.25,0.8426335131448025,0.3895323947270213
19,1,0.0,0.8313960041352328,1.513283295683987
19,2,1.0,0.8465288370920727,0.0
19,2,0.75,0.8425922699278936,0.39365671641791167
19,2,0.5,0.8401591352677164,0.6369701824356366
19,2,0.25,0.8364609236267806,1.0067913465292122
19,2,0.0,0.8375528806373715,0.8975956454701173
19,3,1.0,0.8465288370920727,0.0
19,3,0.75,0.8332049088798257,1.3323928212247038
19,3,0.5,0.8221026935021499,2.442614358992279
19,3,0.25,0.8052361440513761,4.129269304069661
19,3,0.0,0.7906314917005055,5.589734539156721
19,4,1.0,0.8465288370920727,0.0
19,4,0.75,0.8354318194446622,1.1097017647410556
19,4,0.5,0.8190930728911342,2.7435764200938517
19,4,0.25,0.8208073002235668,2.5721536868505868
19,4,0.0,0.8238360753488768,2.26927617431959
19,5,1.0,0.8465288370920727,0.0
19,5,0.75,0.8412115262060433,0.531731088602938
19,5,0.5,0.8275510927917411,1.8977744300331612
19,5,0.25,0.8212886823815158,2.524015471055696
19,5,0.0,0.8171843267570238,2.9344510335048923
19,6,1.0,0.8465288370920727,0.0
19,6,0.75,0.8427627416141906,0.3766095477882092
19,6,0.5,0.8460750075834934,0.04538295085793065
19,6,0.25,0.8417089176445992,0.48199194474735085
19,6,0.0,0.8375833500066916,0.8945487085381121
19,7,1.0,0.8465288370920727,0.0
19,7,0.75,0.8370923789720358,0.9436458120036906
19,7,0.5,0.831152634260162,1.5376202831910768
19,7,0.25,0.8320353297355405,1.449350735653221
19,7,0.0,0.8252754410779424,2.1253396014130344
19,8,1.0,0.8465288370920727,0.0
19,8,0.75,0.8412818248045486,0.5247012287524111
19,8,0.5,0.8372106958951564,0.9318141196916319
19,8,0.25,0.8428081914379228,0.3720645654149868
19,8,0.0,0.8261525679402268,2.037626915184587
20,0,1.0,0.8468995477988159,0.0
20,0,0.75,0.8339023622014825,1.2997185597333427
20,0,0.5,0.831584070578378,1.5315477220437912
20,0,0.25,0.8337184533306842,1.318109446813176
20,0,0.0,0.8295453157314864,1.7354232067329556
20,1,1.0,0.8468995477988159,0.0
20,1,0.75,0.8454711390968798,0.1428408701936168
20,1,0.5,0.8536640465475924,-0.6764498748776493
20,1,0.25,0.8512656266841955,-0.4366078885379543
20,1,0.0,0.8483749862142083,-0.14754384153923272
20,2,1.0,0.8468995477988159,0.0
20,2,0.75,0.8488365820944466,-0.19370342956306352
20,2,0.5,0.8340814071139321,1.281814068488385
20,2,0.25,0.8207961260867156,2.610342171210034
20,2,0.0,0.8177249432459253,2.917460455289067
20,3,1.0,0.8468995477988159,0.0
20,3,0.75,0.8500376623240592,-0.3138114525243263
20,3,0.5,0.8527687384400184,-0.5869190641202504
20,3,0.25,0.8499904623357164,-0.30909145369004687
20,3,0.0,0.8475177196262955,-0.061817182747958555
20,4,1.0,0.8468995477988159,0.0
20,4,0.75,0.8513670084187713,-0.4467460619955399
20,4,0.5,0.8454879267470775,0.1411621051738421
20,4,0.25,0.857014316879828,-1.0114769081012054
20,4,0.0,0.8619758235677251,-1.507627576890913
20,5,1.0,0.8468995477988159,0.0
20,5,0.75,0.8696304394378057,-2.273089163898978
20,5,0.5,0.8607558812663225,-1.3856333467506587
20,5,0.25,0.860752239159193,-1.3852691360377034
20,5,0.0,0.866194839637603,-1.9295291838787088
20,6,1.0,0.8468995477988159,0.0
20,6,0.75,0.8383151006466878,0.8584447152128138
20,6,0.5,0.8440308011880593,0.2868746610756645
20,6,0.25,0.8368933175979808,1.0006230200835131
20,6,0.0,0.8364719384769965,1.0427609321819409
20,7,1.0,0.8468995477988159,0.0
20,7,0.75,0.8223259716862917,2.45735761125242
20,7,0.5,0.8022756157387189,4.462393206009708
20,7,0.25,0.796237214638376,5.066233316043989
20,7,0.0,0.7955094126005304,5.13901351982855
20,8,1.0,0.8468995477988159,0.0
20,8,0.75,0.8464389830335902,0.04605647652257128
20,8,0.5,0.8286326896258908,1.8266858172925171
20,8,0.25,0.8209263300366866,2.5973217762129353
20,8,0.0,0.7901909619599806,5.670858583883531
21,0,1.0,0.8564549979715992,0.0
21,0,0.75,0.850221355273463,0.6233642698136199
21,0,0.5,0.8459859686799975,1.046902929160165
21,0,0.25,0.8535608954994899,0.28941024721093056
21,0,0.0,0.838237210817856,1.8217787153743226
21,1,1.0,0.8564549979715992,0.0
21,1,0.75,0.8569582606912112,-0.05032627196119854
21,1,0.5,0.8546977784952178,0.17572194763814108
21,1,0.25,0.8670833295003505,-1.0628331528751311
21,1,0.0,0.87406708445746,-1.7612086485860767
21,2,1.0,0.8564549979715992,0.0
21,2,0.75,0.855566396929322,0.08886010422771706
21,2,0.5,0.8453544576895563,1.1100540282042881
21,2,0.25,0.845809478360882,1.0645519610717136
21,2,0.0,0.854826940740925,0.16280572306741625
21,3,1.0,0.8564549979715992,0.0
21,3,0.75,0.8589846622649678,-0.252966429336865
21,3,0.5,0.8539468469256449,0.25081510459542544
21,3,0.25,0.8588283013668963,-0.2373303395297066
21,3,0.0,0.8493877920903448,0.7067205881254424
21,4,1.0,0.8564549979715992,0.0
21,4,0.75,0.8607605687054023,-0.430557073380311
21,4,0.5,0.8603857620119273,-0.3930764040328105
21,4,0.25,0.8646631336876365,-0.820813571603729
21,4,0.0,0.8313090119770274,2.514598599457174
21,5,1.0,0.8564549979715992,0.0
21,5,0.75,0.8640500913557031,-0.7595093384103913
21,5,0.5,0.8661691227214048,-0.9714124749805597
21,5,0.25,0.8773909049132723,-2.0935906941673132
21,5,0.0,0.8871129176144215,-3.0657919642822273
21,6,1.0,0.8564549979715992,0.0
21,6,0.75,0.8561107465505741,0.03442514210251213
21,6,0.5,0.8633733310536704,-0.6918333082071237
21,6,0.25,0.8553851873538505,0.10698106177486899
21,6,0.0,0.8558438316218022,0.06111663497969655
21,7,1.0,0.8564549979715992,0.0
21,7,0.75,0.8505789825450363,0.5876015426562908
21,7,0.5,0.855517337653636,0.09376603179631626
21,7,0.25,0.8525606449179829,0.3894353053616295
21,7,0.0,0.8545798537643121,0.18751442072870717
21,8,1.0,0.8564549979715992,0.0
21,8,0.75,0.8585003092145949,-0.20453112429956732
21,8,0.5,0.8610027499153299,-0.45477519437306935
21,8,0.25,0.8555765482081271,0.08784497634720667
21,8,0.0,0.8526038486183709,0.3851149353228278
22,0,1.0,0.8039063207601524,0.0
22,0,0.75,0.7913948530982656,1.2511467661886821
22,0,0.5,0.7939159958494387,0.9990324910713722
22,0,0.25,0.8013711920640316,0.2535128696120825
22,0,0.0,0.8031593037857464,0.07470169744060451
22,1,1.0,0.8039063207601524,0.0
22,1,0.75,0.8171443450420756,-1.323802428192311
22,1,0.5,0.8334591605852604,-2.9552839825107924
22,1,0.25,0.8373727502372004,-3.346642947704792
22,1,0.0,0.8343205270106613,-3.0414206250508835
22,2,1.0,0.8039063207601524,0.0
22,2,0.75,0.7989723439463801,0.49339768137723894
22,2,0.5,0.8109776235571706,-0.7071302797018175
22,2,0.25,0.7999660070555492,0.39403137046032377
22,2,0.0,0.7872362723100681,1.6670048450084352
22,3,1.0,0.8039063207601524,0.0
22,3,0.75,0.7951810558491164,0.872526491103609
22,3,0.5,0.7816770026831033,2.22293180770492
22,3,0.25,0.7679964681922254,3.5909852567927003
22,3,0.0,0.7679488792754916,3.5957441484660846
22,4,1.0,0.8039063207601524,0.0
22,4,0.75,0.7920211985986807,1.188512216147175
22,4,0.5,0.7829436181709449,2.0962702589207516
22,4,0.25,0.785829994368888,1.8076326391264441
22,4,0.0,0.7760955111093588,2.7810809650793633
22,5,1.0,0.8039063207601524,0.0
22,5,0.75,0.8078571920039475,-0.39508712437950066
22,5,0.5,0.7973251499444423,0.6581170815710191
22,5,0.25,0.8066371137497319,-0.2730792989579456
22,5,0.0,0.8083135359447253,-0.4407215184572877
22,6,1.0,0.8039063207601524,0.0
22,6,0.75,0.8063958853218488,-0.24895645616963558
22,6,0.5,0.7969523573776687,0.6953963382483774
22,6,0.25,0.7841899527538151,1.971636800633736
22,6,0.0,0.7977952032722557,0.6111117487896722
22,7,1.0,0.8039063207601524,0.0
22,7,0.75,0.808011045674636,-0.41047249144835485
22,7,0.5,0.7858123671420575,1.809395361809496
22,7,0.25,0.781068691458285,2.28376293018675
22,7,0.0,0.755715307569399,4.819101319075347
22,8,1.0,0.8039063207601524,0.0
22,8,0.75,0.7999705725905645,0.39357481695879715
22,8,0.5,0.7879985183169929,1.590780244315959
22,8,0.25,0.7763198898870718,2.758643087308066
22,8,0.0,0.7653935854325211,3.851273532763133
23,0,1.0,0.825809797044826,0.0
23,0,0.75,0.8120595097423627,1.3750287302463304
23,0,0.5,0.8076147622102811,1.8195034834544987
23,0,0.25,0.791137738311718,3.467205873310808
23,0,0.0,0.7720020388925246,5.380775815230143
23,1,1.0,0.825809797044826,0.0
23,1,0.75,0.8266194995803159,-0.08097025354898424
23,1,0.5,0.8135826332562481,1.222716378857791
23,1,0.25,0.8140968827587469,1.1712914286079124
23,1,0.0,0.8121947960652707,1.361500097955537
23,2,1.0,0.825809797044826,0.0
23,2,0.75,0.8352436113755011,-0.9433814330675028
23,2,0.5,0.8445065693353697,-1.8696772290543673
23,2,0.25,0.8374029370458945,-1.159314000106848
23,2,0.0,0.8280656942799549,-0.22558972351288675
23,3,1.0,0.825809797044826,0.0
23,3,0.75,0.8216268113222949,0.4182985722531174
23,3,0.5,0.8235360746384709,0.22737224063551498
23,3,0.25,0.8263059929536358,-0.049619590880978226
23,3,0.0,0.8095161453247884,1.6293651720037605
23,4,1.0,0.825809797044826,0.0
23,4,0.75,0.8208922118983094,0.4917585146516634
23,4,0.5,0.8097597990618917,1.6049997982934383
23,4,0.25,0.8007820510519186,2.502774599290747
23,4,0.0,0.8103052303573333,1.5504566687492782
23,5,1.0,0.825809797044826,0.0
23,5,0.75,0.8112449800403932,1.4564817004432795
23,5,0.5,0.7961427101788567,2.9667086865969305
23,5,0.25,0.8001527518546284,2.5657045190197625
23,5,0.0,0.8007113054995784,2.509849154524768
23,6,1.0,0.825809797044826,0.0
23,6,0.75,0.824567456133745,0.12423409110809969
23,6,0.5,0.811493704134066,1.431609291076008
23,6,0.25,0.8093018509498626,1.6507946094963422
23,6,0.0,0.8089124339072415,1.6897363137584498
23,7,1.0,0.825809797044826,0.0
23,7,0.75,0.8286829863934253,-0.2873189348599259
23,7,0.5,0.8355965184766792,-0.9786721431853107
23,7,0.25,0.8261223778104729,-0.0312580765646886
23,7,0.0,0.821071556971706,0.473824007312007
23,8,1.0,0.825809797044826,0.0
23,8,0.75,0.8195778202405171,0.6231976804308981
23,8,0.5,0.8120458733764299,1.3763923668396183
23,8,0.25,0.8059661564679057,1.984364057692034
23,8,0.0,0.8001170877961306,2.569270924869549
24,0,1.0,0.7772782388830823,0.0
24,0,0.75,0.7707208909947753,0.6557347888307086
24,0,0.5,0.765112558500414,1.2165680382668298
24,0,0.25,0.7546188384220847,2.265940046099768
24,0,0.0,0.7590577365678745,1.8220502315207887
24,1,1.0,0.7772782388830823,0.0
24,1,0.75,0.7797600575065662,-0.24818186234838446
24,1,0.5,0.7745710873206029,0.27071515624794706
24,1,0.25,0.7720758675512541,0.5202371331828215
24,1,0.0,0.7716466477627735,0.5631591120308865
24,2,1.0,0.7772782388830823,0.0
24,2,0.75,0.7665849256512918,1.0693313231790569
24,2,0.5,0.7651017799277149,1.2176458955367453
24,2,0.25,0.763527320576001,1.3750918307081306
24,2,0.0,0.7487839897417816,2.849424914130072
24,3,1.0,0.7772782388830823,0.0
24,3,0.75,0.8097568230279752,-3.247858414489291
24,3,0.5,0.8180254040207293,-4.074716513764698
24,3,0.25,0.8293421052631579,-5.2063866380075545
24,3,0.0,0.8123084667875583,-3.5030227904475963
24,4,1.0,0.7772782388830823,0.0
24,4,0.75,0.7764767635507436,0.08014753323387636
24,4,0.5,0.7675753832357946,0.9702855647287789
24,4,0.25,0.7588504489982779,1.8427789884804424
24,4,0.0,0.7481099530294697,2.916828585361264
24,5,1.0,0.7772782388830823,0.0
24,5,0.75,0.7563087717182609,2.09694671648214
24,5,0.5,0.7489582613158876,2.831997756719473
24,5,0.25,0.7504934717506175,2.6784767132464804
24,5,0.0,0.7500283413792037,2.724989750387863
24,6,1.0,0.7772782388830823,0.0
24,6,0.75,0.7812706936016183,-0.39924547185359316
24,6,0.5,0.7749643453007403,0.23138935823420193
24,6,0.25,0.7722144072445584,0.5063831638523975
24,6,0.0,0.760115063936257,1.7163174946825288
24,7,1.0,0.7772782388830823,0.0
24,7,0.75,0.789586497988902,-1.2308259105819674
24,7,0.5,0.7950712196775309,-1.7792980794448576
24,7,0.25,0.7819690098261527,-0.4690770943070355
24,7,0.0,0.7656405005261906,1.1637738356891747
24,8,1.0,0.7772782388830823,0.0
24,8,0.75,0.7768403476004853,0.04378912825970804
24,8,0.5,0.775556584205249,0.1721654677833362
24,8,0.25,0.7662363004370527,1.104193844602963
24,8,0.0,0.752150988889825,2.512724999325733
25,0,1.0,0.8874746515051373,0.0
25,0,0.75,0.8861946592777796,0.12799922273576403
25,0,0.5,0.893797534668257,-0.6322883163119686
25,0,0.25,0.8933372103608248,-0.5862558855687539
25,0,0.0,0.9009157852110319,-1.3441133705894615
25,1,1.0,0.8874746515051373,0.0
25,1,0.75,0.904996185399133,-1.7521533893995689
25,1,0.5,0.8989950112182463,-1.1520359713109052
25,1,0.25,0.8979290453351838,-1.0454393830046538
25,1,0.0,0.902209842393427,-1.4735190888289784
25,2,1.0,0.8874746515051373,0.0
25,2,0.75,0.880617558182337,0.6857093322800267
25,2,0.5,0.8857564199897562,0.17182315153810857
25,2,0.25,0.8824989635784211,0.497568792671621
25,2,0.0,0.8782748223684806,0.9199829136656623
25,3,1.0,0.8874746515051373,0.0
25,3,0.75,0.8862346286932239,0.12400228119133772
25,3,0.5,0.8751530606203042,1.232159088483309
25,3,0.25,0.8557668739505686,3.170777755456866
25,3,0.0,0.8413081161177184,4.616653538741888
25,4,1.0,0.8874746515051373,0.0
25,4,0.75,0.8787223818170582,0.8752269688079073
25,4,0.5,0.8625799688121121,2.4894682693025194
25,4,0.25,0.8515106232768433,3.596402822829392
25,4,0.0,0.8865558864293857,0.09187650757516153
25,5,1.0,0.8874746515051373,0.0
25,5,0.75,0.8870647550577326,0.040989644740463405
25,5,0.5,0.8859944344118281,0.1480217093309144
25,5,0.25,0.8859411913280455,0.15334601770917722
25,5,0.0,0.9031875481997007,-1.5712896694563439
25,6,1.0,0.8874746515051373,0.0
25,6,0.75,0.8984721343520126,-1.0997482846875295
25,6,0.5,0.8977722195830651,-1.029756807792781
25,6,0.25,0.9014246828063401,-1.395003130120287
25,6,0.0,0.9043285452780178,-1.685389377288049
25,7,1.0,0.8874746515051373,0.0
25,7,0.75,0.8790483372454615,0.8426314259675771
25,7,0.5,0.8760744490676863,1.140020243745099
25,7,0.25,0.8505961679426832,3.6878483562454045
25,7,0.0,0.8149990960693938,7.247555543574347
25,8,1.0,0.8874746515051373,0.0
25,8,0.75,0.9074292422109331,-1.995459070579586
25,8,0.5,0.9256670165688461,-3.819236506370882
25,8,0.25,0.9250976172314844,-3.7622965726347157
25,8,0.0,0.913938382753213,-2.6463731248075772
26,0,1.0,0.7983397075616313,0.0
26,0,0.75,0.7926548715774651,0.5684835984166248
26,0,0.5,0.7842725699002693,1.4067137661362028
26,0,0.25,0.787453625889579,1.0886081672052295
26,0,0.0,0.7804513061924345,1.7888401369196782
26,1,1.0,0.7983397075616313,0.0
26,1,0.75,0.793219245024796,0.5120462536835291
26,1,0.5,0.8002449235188245,-0.19052159571931737
26,1,0.25,0.7942401013843406,0.409960617729066
26,1,0.0,0.7903645241091867,0.7975183452444634
26,2,1.0,0.7983397075616313,0.0
26,2,0.75,0.7971209685991807,0.12187389624506162
26,2,0.5,0.7887301770739245,0.9609530487706852
26,2,0.25,0.7726143472258671,2.5725360335764225
26,2,0.0,0.7549196453943339,4.342006216729743
26,3,1.0,0.7983397075616313,0.0
26,3,0.75,0.7942197540032077,0.411995355842365
26,3,0.5,0.7899064611720394,0.8433246389591864
26,3,0.25,0.7831428688360023,1.5196838725629047
26,3,0.0,0.7689249564381783,2.9414751123453042
26,4,1.0,0.7983397075616313,0.0
26,4,0.75,0.788328598554184,1.0011109007447283
26,4,0.5,0.7756081782551159,2.2731529306515452
26,4,0.25,0.7687556517400556,2.958405582157575
26,4,0.0,0.779963650485465,1.8376057076166297
26,5,1.0,0.7983397075616313,0.0
26,5,0.75,0.7778987396784007,2.0440967883230576
26,5,0.5,0.7566902495582049,4.164945800342645
26,5,0.25,0.7643152804086564,3.4024427152974934
26,5,0.0,0.7710008295593722,2.7338878002259093
26,6,1.0,0.7983397075616313,0.0
26,6,0.75,0.7954627878551337,0.2876919706497616
26,6,0.5,0.7865826382858412,1.1757069275790122
26,6,0.25,0.7910302489136178,0.7309458648013467
26,6,0.0,0.7876482038095292,1.069150375210215
26,7,1.0,0.7983397075616313,0.0
26,7,0.75,0.795468178302343,0.28715292592883523
26,7,0.5,0.8091935003629495,-1.0853792801318152
26,7,0.25,0.7942269472971248,0.41127602645064654
26,7,0.0,0.7607669941037074,3.75727134579239
26,8,1.0,0.7983397075616313,0.0
26,8,0.75,0.7945325312684992,0.38071762931320974
26,8,0.5,0.7934638517811468,0.48758557804845504
26,8,0.25,0.7858267373777117,1.2512970183919614
26,8,0.0,0.7753486119557328,2.2991095605898515
27,0,1.0,0.85763529903342,0.0
27,0,0.75,0.8659457949102127,-0.8310495876792778
27,0,0.5,0.8712319739262241,-1.359667489280414
27,0,0.25,0.8614796886735292,-0.3844389640109247
27,0,0.0,0.8607339451059554,-0.3098646072535405
27,1,1.0,0.85763529903342,0.0
27,1,0.75,0.852597115430215,0.503818360320496
27,1,0.5,0.8478745313505917,0.9760767682828297
27,1,0.25,0.8507426258153645,0.6892673218055423
27,1,0.0,0.8546520160496593,0.29832829837606045
27,2,1.0,0.85763529903342,0.0
27,2,0.75,0.8540182658312105,0.36170332022094076
27,2,0.5,0.8513097787407038,0.6325520292716158
27,2,0.25,0.8507478898061259,0.6887409227294028
27,2,0.0,0.8186783716358937,3.895692739752621
27,3,1.0,0.85763529903342,0.0
27,3,0.75,0.8688014335136496,-1.1166134480229628
27,3,0.5,0.8668223576243556,-0.9187058590935604
27,3,0.25,0.8624525833612896,-0.4817284327869653
27,3,0.0,0.8509263544753718,0.6708944558048158
27,4,1.0,0.85763529903342,0.0
27,4,0.75,0.8484071824436631,0.9228116589756863
27,4,0.5,0.8481132850117072,0.952201402171271
27,4,0.25,0.8419687140784052,1.5666584955014717
27,4,0.0,0.8550772682274201,0.25580308059998114
27,5,1.0,0.85763529903342,0.0
27,5,0.75,0.8537303998944482,0.390489913897174
27,5,0.5,0.855693207928358,0.19420911050619383
27,5,0.25,0.8565764309119256,0.10588681214943607
27,5,0.0,0.858320724177652,-0.0685425144232088
27,6,1.0,0.85763529903342,0.0
27,6,0.75,0.8711281929968996,-1.3492893963479635
27,6,0.5,0.8695457502259845,-1.1910451192564508
27,6,0.25,0.8878373781813433,-3.020207914792339
27,6,0.0,0.8945784731080879,-3.694317407466796
27,7,1.0,0.85763529903342,0.0
27,7,0.75,0.8514890096478742,0.6146289385545733
27,7,0.5,0.8488815368333978,0.8753762200022108
27,7,0.25,0.854831380860795,0.28039181726249307
27,7,0.0,0.8355895230791145,2.2045775954305458
27,8,1.0,0.85763529903342,0.0
27,8,0.75,0.8704747390845706,-1.2839440051150675
27,8,0.5,0.8730828604936499,-1.5447561460229964
27,8,0.25,0.8696891464000429,-1.205384736662296
27,8,0.0,0.882719889844666,-2.5084590811246033
28,0,1.0,0.7290181596279697,0.0
28,0,0.75,0.7433738110739487,-1.4355651445979056
28,0,0.5,0.7548533345378785,-2.583517490990883
28,0,0.25,0.7522459203741385,-2.3227760746168835
28,0,0.0,0.7434273714126918,-1.4409211784722098
28,1,1.0,0.7290181596279697,0.0
28,1,0.75,0.7243512623670985,0.46668972608712167
28,1,0.5,0.7339418974200378,-0.4923737792068117
28,1,0.25,0.7451504637310783,-1.613230410310862
28,1,0.0,0.7392514903004174,-1.0233330672447694
28,2,1.0,0.7290181596279697,0.0
28,2,0.75,0.7259443993888401,0.30737602391295304
28,2,0.5,0.724053356827747,0.4964802800222712
28,2,0.25,0.7198328433527063,0.9185316275263422
28,2,0.0,0.722654686001453,0.636347362651668
28,3,1.0,0.7290181596279697,0.0
28,3,0.75,0.730764976761514,-0.17468171335442984
28,3,0.5,0.7379088174689206,-0.8890657840950889
28,3,0.25,0.7425963217068163,-1.3578162078846656
28,3,0.0,0.7392404473271109,-1.0222287699141241
28,4,1.0,0.7290181596279697,0.0
28,4,0.75,0.8092263247753774,-8.020816514740769
28,4,0.5,0.7953147436834195,-6.62965840554498
28,4,0.25,0.7885562840025582,-5.95381243745885
28,4,0.0,0.8204288423920645,-9.14106827640948
28,5,1.0,0.7290181596279697,0.0
28,5,0.75,0.7024576888193047,2.656047080866497
28,5,0.5,0.6870177482289852,4.200041139898447
28,5,0.25,0.7018042187334486,2.7213940894521116
28,5,0.0,0.6965962424550167,3.242191717295295
28,6,1.0,0.7290181596279697,0.0
28,6,0.75,0.7320452512054378,-0.3027091577468166
28,6,0.5,0.7392856232845195,-1.0267463656549847
28,6,0.25,0.7327761412733942,-0.3757981645424513
28,6,0.0,0.740326032441227,-1.1307872813257291
28,7,1.0,0.7290181596279697,0.0
28,7,0.75,0.7350924948139133,-0.607433518594358
28,7,0.5,0.7259767823476746,0.30413772802950767
28,7,0.25,0.7160590298374826,1.2959129790487078
28,7,0.0,0.7238538718458581,0.5164287782111532
28,8,1.0,0.7290181596279697,0.0
28,8,0.75,0.7220903372803912,0.6927822347578494
28,8,0.5,0.7282526887034177,0.07654709245519253
28,8,0.25,0.7267972047618065,0.22209548661631384
28,8,0.0,0.7148906402552566,1.412751937271306
29,0,1.0,0.8623510424189031,0.0
29,0,0.75,0.8557140551712533,0.6636987247649828
29,0,0.5,0.8416846329188122,2.066640950009091
29,0,0.25,0.8447151178174472,1.763592460145591
29,0,0.0,0.8644028226569245,-0.2051780238021328
29,1,1.0,0.8623510424189031,0.0
29,1,0.75,0.8608838992465411,0.14671431723620731
29,1,0.5,0.8659743863436411,-0.3623343924737954
29,1,0.25,0.87352495744488,-1.1173915025976866
29,1,0.0,0.8713974131828979,-0.9046370763994727
29,2,1.0,0.8623510424189031,0.0
29,2,0.75,0.8480560393031114,1.4295003115791793
29,2,0.5,0.8529091573744222,0.9441885044480958
29,2,0.25,0.85606315489242,0.6287887526483127
29,2,0.0,0.8358518805393771,2.6499161879526056
29,3,1.0,0.8623510424189031,0.0
29,3,0.75,0.8643366410808271,-0.19855986619239374
29,3,0.5,0.86130719129106,0.10438511278431095
29,3,0.25,0.8447392986285869,1.761174379031627
29,3,0.0,0.8371650834246742,2.518595899422893
29,4,1.0,0.8623510424189031,0.0
29,4,0.75,0.8517950559118992,1.0555986507003956
29,4,0.5,0.8323446128330183,3.000642958588484
29,4,0.25,0.8249470353439774,3.740400707492575
29,4,0.0,0.8134823605361453,4.886868188275784
29,5,1.0,0.8623510424189031,0.0
29,5,0.75,0.8597388018378584,0.26122405810447
29,5,0.5,0.8533646405269228,0.89864018919803
29,5,0.25,0.849934295329664,1.2416747089239122
29,5,0.0,0.8542182301776542,0.8132812241248955
29,6,1.0,0.8623510424189031,0.0
29,6,0.75,0.8700075322599384,-0.7656489841035286
29,6,0.5,0.870175831664264,-0.7824789245360897
29,6,0.25,0.8684639856557792,-0.6112943236876056
29,6,0.0,0.8670623961316524,-0.4711353712749222
29,7,1.0,0.8623510424189031,0.0
29,7,0.75,0.8547126496454194,0.7638392773483771
29,7,0.5,0.8530905714301316,0.9260470988771585
29,7,0.25,0.8523857061857426,0.9965336233160538
29,7,0.0,0.8449094963898734,1.7441546029029698
29,8,1.0,0.8623510424189031,0.0
29,8,0.75,0.8675653176965981,-0.5214275277694913
29,8,0.5,0.8704191364413716,-0.8068094022468442
29,8,0.25,0.86244921513739,-0.009817271848688858
29,8,0.0,0.8557798984137459,0.6571144005157237
30,0,1.0,0.8249925212731779,0.0
30,0,0.75,0.8435725195475507,-1.8579998274372844
30,0,0.5,0.8452717580118607,-2.0279236738682815
30,0,0.25,0.8454136580258006,-2.0421136752622693
30,0,0.0,0.8552449770188412,-3.0252455745663265
30,1,1.0,0.8249925212731779,0.0
30,1,0.75,0.8274149461162915,-0.2422424843113613
30,1,0.5,0.8192272443455463,0.5765276927631624
30,1,0.25,0.806834266696664,1.8158254576513877
30,1,0.0,0.8022239395370778,2.276858173610008
30,2,1.0,0.8249925212731779,0.0
30,2,0.75,0.8351640318270459,-1.0171510553868002
30,2,0.5,0.8466512276004521,-2.165870632727418
30,2,0.25,0.8601949640635267,-3.5202442790348787
30,2,0.0,0.8518313713193282,-2.6838850046150275
30,3,1.0,0.8249925212731779,0.0
30,3,0.75,0.8157123238810609,0.9280197392117051
30,3,0.5,0.8044787058599155,2.051381541326236
30,3,0.25,0.789089496713571,3.590302455960692
30,3,0.0,0.7982671625463345,2.672535872684345
30,4,1.0,0.8249925212731779,0.0
30,4,0.75,0.8266415456898234,-0.16490244166454948
30,4,0.5,0.8259725037163452,-0.09799824431673265
30,4,0.25,0.829233553651155,-0.42410323779771275
30,4,0.0,0.8260009798240608,-0.10084585508829402
30,5,1.0,0.8249925212731779,0.0
30,5,0.75,0.8216926232223601,0.3299898050817762
30,5,0.5,0.8137007046604958,1.1291816612682082
30,5,0.25,0.814727412799349,1.0265108473828888
30,5,0.0,0.8067975617920125,1.8194959481165451
30,6,1.0,0.8249925212731779,0.0
30,6,0.75,0.8369691487935192,-1.1976627520341343
30,6,0.5,0.8469394172955692,-2.1946896022391305
30,6,0.25,0.8499441413577201,-2.4951620084542214
30,6,0.0,0.8400313537657501,-1.5038832492572207
30,7,1.0,0.8249925212731779,0.0
30,7,0.75,0.8285686786782066,-0.35761574050287015
30,7,0.5,0.8241372213492251,0.08552999239528347
30,7,0.25,0.7974569918711586,2.753552940201931
30,7,0.0,0.7714936957680354,5.349882550514251
30,8,1.0,0.8249925212731779,0.0
30,8,0.75,0.8355448605860769,-1.0552339312899006
30,8,0.5,0.8378411780273447,-1.2848656754166798
30,8,0.25,0.8377904964352227,-1.279797516204484
30,8,0.0,0.8309557853013336,-0.5963264028155724
31,0,1.0,0.7982165703797586,0.0
31,0,0.75,0.8021286785498988,-0.3912108170140205
31,0,0.5,0.7992067729572163,-0.09902025774577439
31,0,0.25,0.7966970132166074,0.15195571631512195
31,0,0.0,0.7883918260056424,0.9824744374116179
31,1,1.0,0.7982165703797586,0.0
31,1,0.75,0.795443838353358,0.2772732026400604
31,1,0.5,0.7995130143407596,-0.1296443961001037
31,1,0.25,0.8075337898896694,-0.9317219509910823
31,1,0.0,0.801243547271349,-0.30269768915904827
31,2,1.0,0.7982165703797586,0.0
31,2,0.75,0.8081839155380428,-0.9967345158284235
31,2,0.5,0.8011934685588973,-0.29768981791387095
31,2,0.25,0.8104273573061214,-1.2210786926362793
31,2,0.0,0.8031293454775978,-0.49127750978392726
31,3,1.0,0.7982165703797586,0.0
31,3,0.75,0.8160242840860281,-1.7807713706269546
31,3,0.5,0.8124546505236513,-1.4238080143892717
31,3,0.25,0.8051300148142749,-0.6913444434516358
31,3,0.0,0.8002069798294694,-0.19904094497108504
31,4,1.0,0.7982165703797586,0.0
31,4,0.75,0.7995924926395783,-0.13759222598197507
31,4,0.5,0.7841125748014677,1.4103995578290895
31,4,0.25,0.7769666058300662,2.1249964549692413
31,4,0.0,0.7879233137036729,1.0293256676085716
31,5,1.0,0.7982165703797586,0.0
31,5,0.75,0.8092923351805837,-1.1075764800825172
31,5,0.5,0.8030708338868489,-0.4854263507090284
31,5,0.25,0.8059325662117478,-0.7715995831989231
31,5,0.0,0.8084410538059039,-1.0224483426145348
31,6,1.0,0.7982165703797586,0.0
31,6,0.75,0.7955492813511896,0.2667289028568942
31,6,0.5,0.7930525535132708,0.5164016866487819
31,6,0.25,0.7830083653119386,1.5208205067819947
31,6,0.0,0.7774183159720081,2.0798254407750516
31,7,1.0,0.7982165703797586,0.0
31,7,0.75,0.80199188874572,-0.37753183659614553
31,7,0.5,0.7905310947568281,0.7685475622930427
31,7,0.25,0.7787700422830879,1.944652809667069
31,7,0.0,0.7674635011979668,3.075306918179177
31,8,1.0,0.7982165703797586,0.0
31,8,0.75,0.7877058493903577,1.0510720989400868
31,8,0.5,0.7763762350117147,2.184033536804386
31,8,0.25,0.7581127943140167,4.010377606574189
31,8,0.0,0.7357561681302264,6.246040224953219
32,0,1.0,0.8544701635224214,0.0
32,0,0.75,0.8543462938567181,0.012386966570332447
32,0,0.5,0.8479892296255787,0.6480933896842789
32,0,0.25,0.8340127701024973,2.045739341992414
32,0,0.0,0.8272826301124049,2.718753341001656
32,1,1.0,0.8544701635224214,0.0
32,1,0.75,0.8559327384578688,-0.1462574935447325
32,1,0.5,0.8538377153078036,0.06324482146178312
32,1,0.25,0.8483633460500306,0.6106817472390835
32,1,0.0,0.8377974612846435,1.6672702237777948
32,2,1.0,0.8544701635224214,0.0
32,2,0.75,0.8556979610680259,-0.12277975456044254
32,2,0.5,0.8500537338184833,0.4416429703938185
32,2,0.25,0.8496056956424494,0.48644678799720786
32,2,0.0,0.8372756690756702,1.7194494446751252
32,3,1.0,0.8544701635224214,0.0
32,3,0.75,0.8445857875122651,0.9884376010156348
32,3,0.5,0.8392872644788034,1.5182899043618026
32,3,0.25,0.8345870097275052,1.988315379491623
32,3,0.0,0.8197672421602171,3.470292136220432
32,4,1.0,0.8544701635224214,0.0
32,4,0.75,0.8453163844223971,0.9153779100024351
32,4,0.5,0.8393399126300976,1.5130250892323893
32,4,0.25,0.8391917058463552,1.5278457676066282
32,4,0.0,0.8478259038794589,0.6644259642962558
32,5,1.0,0.8544701635224214,0.0
32,5,0.75,0.8674889181788402,-1.3018754656418774
32,5,0.5,0.8593764866753115,-0.49063231528900797
32,5,0.25,0.8466879023880447,0.7782261134376744
32,5,0.0,0.8614605551958628,-0.6990391673441398
32,6,1.0,0.8544701635224214,0.0
32,6,0.75,0.8577835645154281,-0.3313400993006699
32,6,0.5,0.8526622111090265,0.1807952413394931
32,6,0.25,0.8546086325177131,-0.01384689952916851
32,6,0.0,0.8545140895857648,-0.004392606334335802
32,7,1.0,0.8544701635224214,0.0
32,7,0.75,0.8541751771751639,0.029498634725755313
32,7,0.5,0.8297702497029431,2.4699913819478336
32,7,0.25,0.8051624169653898,4.930774655703162
32,7,0.0,0.8048532755149558,4.9616888007465665
32,8,1.0,0.8544701635224214,0.0
32,8,0.75,0.8567790610187849,-0.23088974963634268
32,8,0.5,0.8560142769557548,-0.15441134333333828
32,8,0.25,0.8523543640652211,0.2115799457200307
32,8,0.0,0.8442356781390996,1.0234485383321834
33,0,1.0,0.922382415418719,0.0
33,0,0.75,0.922490501974174,-0.010808655545502255
33,0,0.5,0.9017926051481855,2.0589810270533526
33,0,0.25,0.8964981811123494,2.588423430636966
33,0,0.0,0.8837443215353981,3.8638093883320956
33,1,1.0,0.922382415418719,0.0
33,1,0.75,0.9199825734065523,0.23998420121666975
33,1,0.5,0.901254837704869,2.1127577713849988
33,1,0.25,0.8953138605497054,2.7068554869013606
33,1,0.0,0.8854258226273334,3.6956592791385634
33,2,1.0,0.922382415418719,0.0
33,2,0.75,0.9252252651606728,-0.28428497419538123
33,2,0.5,0.9209874963429174,0.13949190758015817
33,2,0.25,0.9139182528563541,0.846416256236493
33,2,0.0,0.8882328528747966,3.414956254392243
33,3,1.0,0.922382415418719,0.0
33,3,0.75,0.9307192558857549,-0.8336840467035866
33,3,0.5,0.9309040891830763,-0.8521673764357307
33,3,0.25,0.9217178588365842,0.06645565821348232
33,3,0.0,0.9096117300630764,1.277068535564263
33,4,1.0,0.922382415418719,0.0
33,4,0.75,0.9342413267617885,-1.185891134306949
33,4,0.5,0.9219657920357347,0.04166233829843158
33,4,0.25,0.9167720974600293,0.5610317958689715
33,4,0.0,0.9253754906980713,-0.2993075279352331
33,5,1.0,0.922382415418719,0.0
33,5,0.75,0.9210348978786205,0.13475175400985417
33,5,0.5,0.9203482592609473,0.20341561577716938
33,5,0.25,0.9236813929159482,-0.12989774972291812
33,5,0.0,0.9160686546603148,0.6313760758404174
33,6,1.0,0.922382415418719,0.0
33,6,0.75,0.9209485951739032,0.14338202448158643
33,6,0.5,0.9124756838760711,0.9906731542647873
33,6,0.25,0.902283273087833,2.0099142330886055
33,6,0.0,0.8922531818265745,3.0129233592144478
33,7,1.0,0.922382415418719,0.0
33,7,0.75,0.9277606077357321,-0.5378192317013086
33,7,0.5,0.9126256483610388,0.9756767057680249
33,7,0.25,0.8928253940820703,2.9557021336648726
33,7,0.0,0.8890821405041163,3.3300274914602745
33,8,1.0,0.922382415418719,0.0
33,8,0.75,0.9197323444177409,0.2650071000978138
33,8,0.5,0.9114938643017426,1.0888551116976397
33,8,0.25,0.9032716185768919,1.911079684182715
33,8,0.0,0.8961769766249152,2.620543879380377
34,0,1.0,0.8871784812734432,0.0
34,0,0.75,0.8932065037684002,-0.602802249495693
34,0,0.5,0.8926606198034769,-0.5482138530033653
34,0,0.25,0.8971628185320871,-0.9984337258643894
34,0,0.0,0.8928218536805229,-0.5643372407079683
34,1,1.0,0.8871784812734432,0.0
34,1,0.75,0.8980574347551082,-1.087895348166501
34,1,0.5,0.900525549867635,-1.3347068594191769
34,1,0.25,0.9003731583698322,-1.3194677096388996
34,1,0.0,0.8933311610268061,-0.6152679753362866
34,2,1.0,0.8871784812734432,0.0
34,2,0.75,0.8995670294410105,-1.2388548167567293
34,2,0.5,0.9034819037782382,-1.6303422504794995
34,2,0.25,0.903158709935888,-1.598022866244475
34,2,0.0,0.903807041610216,-1.6628560336772735
34,3,1.0,0.8871784812734432,0.0
34,3,0.75,0.8930925653908999,-0.5914084117456642
34,3,0.5,0.8898454705582122,-0.2666989284768939
34,3,0.25,0.8800401568665512,0.7138324406891994
34,3,0.0,0.8710634665521884,1.6115014721254872
34,4,1.0,0.8871784812734432,0.0
34,4,0.75,0.8938311887583452,-0.6652707484901987
34,4,0.5,0.8967147779514517,-0.9536296678008482
34,4,0.25,0.8891447343074813,-0.1966253034038079
34,4,0.0,0.8873801230684437,-0.02016417950004845
34,5,1.0,0.8871784812734432,0.0
34,5,0.75,0.8897626961492654,-0.2584214875822166
34,5,0.5,0.89619140116025,-0.9012919886806747
34,5,0.25,0.8975210080669402,-1.0342526793497009
34,5,0.0,0.89310654715154,-0.59280658780968
34,6,1.0,0.8871784812734432,0.0
34,6,0.75,0.8935031628528735,-0.6324681579430225
34,6,0.5,0.8885052127442843,-0.13267314708410582
34,6,0.25,0.8900082611970535,-0.28297799236102206
34,6,0.0,0.8916101657526542,-0.443168447921094
34,7,1.0,0.8871784812734432,0.0
34,7,0.75,0.8892668207879478,-0.20883395145046002
34,7,0.5,0.8755048859518457,1.1673595321597507
34,7,0.25,0.8732132038935634,1.3965277379879848
34,7,0.0,0.8773038136719853,0.9874667601457943
34,8,1.0,0.8871784812734432,0.0
34,8,0.75,0.8897102299900005,-0.25317487165572583
34,8,0.5,0.8876195410928489,-0.044105981940567585
34,8,0.25,0.8784940815226198,0.8684399750823468
34,8,0.0,0.8666698942082522,2.0508587065190986
35,0,1.0,0.7405274381959591,0.0
35,0,0.75,0.7291414723642997,1.1385965831659406
35,0,0.5,0.7154731694731695,2.5054268722789597
35,0,0.25,0.6978256540169726,4.270178417898651
35,0,0.0,0.6807387548198011,5.978868337615806
35,1,1.0,0.7405274381959591,0.0
35,1,0.75,0.7381969170266293,0.23305211693298578
35,1,0.5,0.7411999940806059,-0.06725558846467639
35,1,0.25,0.7314736660663992,0.9053772129559934
35,1,0.0,0.7313378057450765,0.9189632450882668
35,2,1.0,0.7405274381959591,0.0
35,2,0.75,0.7423166788702784,-0.17892406743192923
35,2,0.5,0.7371660971497084,0.3361341046250743
35,2,0.25,0.7430979665299109,-0.25705283339517715
35,2,0.0,0.7485260109601347,-0.7998572764175593
35,3,1.0,0.7405274381959591,0.0
35,3,0.75,0.7357820163675306,0.474542182842852
35,3,0.5,0.7327379233529336,0.778951484302548
35,3,0.25,0.7175126500343026,2.3014788161656474
35,3,0.0,0.7106352195809246,2.989221861503455
35,4,1.0,0.7405274381959591,0.0
35,4,0.75,0.7449139210391316,-0.43864828431724456
35,4,0.5,0.7490522246729292,-0.8524786476970081
35,4,0.25,0.7620950580660109,-2.1567619870051735
35,4,0.0,0.7662366399167362,-2.5709201720777064
35,5,1.0,0.7405274381959591,0.0
35,5,0.75,0.729527244511909,1.1000193684050141
35,5,0.5,0.7238621654035187,1.6665272792440455
35,5,0.25,0.7109512541913677,2.957618400459139
35,5,0.0,0.7083284315972275,3.219900659873165
35,6,1.0,0.7405274381959591,0.0
35,6,0.75,0.7330254138414615,0.750202435449765
35,6,0.5,0.7282943564055306,1.223308179042848
35,6,0.25,0.7247040362664572,1.5823401929501935
35,6,0.0,0.7127316291489577,2.7795809047001407
35,7,1.0,0.7405274381959591,0.0
35,7,0.75,0.7418082998661534,-0.12808616701942555
35,7,0.5,0.7423121247000152,-0.17846865040560544
35,7,0.25,0.742379361164729,-0.18519229687699035
35,7,0.0,0.7430623035644351,-0.2534865368476025
35,8,1.0,0.7405274381959591,0.0
35,8,0.75,0.7353561462654802,0.5171291930478938
35,8,0.5,0.7309083126433088,0.961912555265032
35,8,0.25,0.730431676167469,1.0095762028490163
35,8,0.0,0.7094480338542779,3.1079404341681216
36,0,1.0,0.711062864336769,0.0
36,0,0.75,0.7048847718776426,0.6178092459126372
36,0,0.5,0.7051614018969501,0.5901462439818927
36,0,0.25,0.7083315849564841,0.27312793802849455
36,0,0.0,0.7131068025142981,-0.20439381775291254
36,1,1.0,0.711062864336769,0.0
36,1,0.75,0.7028226592511897,0.8240205085579322
36,1,0.5,0.6916740774091372,1.9388786927631796
36,1,0.25,0.684141244315976,2.6921620020793013
36,1,0.0,0.6597811550107033,5.128170932606569
36,2,1.0,0.711062864336769,0.0
36,2,0.75,0.706388986768256,0.46738775685130074
36,2,0.5,0.6989435397049699,1.21193246317991
36,2,0.25,0.6807122656674366,3.035059866933243
36,2,0.0,0.6627964534963996,4.826641084036942
36,3,1.0,0.711062864336769,0.0
36,3,0.75,0.7006809246603098,1.0381939676459173
36,3,0.5,0.697853142284306,1.3209722052463069
36,3,0.25,0.6717826914087016,3.9280172928067403
36,3,0.0,0.6404054376169223,7.065742671984676
36,4,1.0,0.711062864336769,0.0
36,4,0.75,0.708254592758734,0.2808271578034982
36,4,0.5,0.7077446332252244,0.33182311115446117
36,4,0.25,0.7245063233776237,-1.3443459040854644
36,4,0.0,0.7378807200604536,-2.681785572368456
36,5,1.0,0.711062864336769,0.0
36,5,0.75,0.7243694872458903,-1.3306622909121324
36,5,0.5,0.7134428488584847,-0.23799845217157278
36,5,0.25,0.7192215665444746,-0.8158702207705537
36,5,0.0,0.7279662162443165,-1.6903351907547437
36,6,1.0,0.711062864336769,0.0
36,6,0.75,0.699414820609761,1.1648043727008006
36,6,0.5,0.6969314317860926,1.4131432550676393
36,6,0.25,0.6902656052616485,2.0797259075120533
36,6,0.0,0.6919776370402646,1.9085227296504415
36,7,1.0,0.711062864336769,0.0
36,7,0.75,0.7021391350442748,0.8923729292494187
36,7,0.5,0.6853430449936331,2.571981934313594
36,7,0.25,0.6731015761738274,3.796128816294164
36,7,0.0,0.6383996909708014,7.266317336596762
36,8,1.0,0.711062864336769,0.0
36,8,0.75,0.6962849214046205,1.4777942932148513
36,8,0.5,0.6867940292940886,2.4268835042680403
36,8,0.25,0.6604340720223191,5.062879231444994
36,8,0.0,0.6563486282079622,5.4714236128806775
37,0,1.0,0.8619342572599179,0.0
37,0,0.75,0.847794061715476,1.4140195544441903
37,0,0.5,0.8346019898750403,2.7332267384877595
37,0,0.25,0.8291660844563067,3.2768172803611217
37,0,0.0,0.834353347779585,2.758090948033287
37,1,1.0,0.8619342572599179,0.0
37,1,0.75,0.8497073772902062,1.2226879969711724
37,1,0.5,0.845387389824139,1.6546867435778934
37,1,0.25,0.8361826570558628,2.575160020405509
37,1,0.0,0.8432328656192293,1.8701391640688625
37,2,1.0,0.8619342572599179,0.0
37,2,0.75,0.8510734531800848,1.0860804079833142
37,2,0.5,0.8403637637934818,2.1570493466436136
37,2,0.25,0.8453267973856209,1.6607459874297015
37,2,0.0,0.8477976697925547,1.4136587467363237
37,3,1.0,0.8619342572599179,0.0
37,3,0.75,0.85087857588273,1.1055681377187931
37,3,0.5,0.8607536197156439,0.11806375442739991
37,3,0.25,0.855794078870122,0.6140178389795858
37,3,0.0,0.8524290840630251,0.9505173196892813
37,4,1.0,0.8619342572599179,0.0
37,4,0.75,0.8491437400230919,1.2790517236826004
37,4,0.5,0.8425034476965843,1.943080956333365
37,4,0.25,0.8281617649749518,3.377249228496615
37,4,0.0,0.8451592473502112,1.6775009909706706
37,5,1.0,0.8619342572599179,0.0
37,5,0.75,0.8549942030661073,0.6940054193810608
37,5,0.5,0.8608291948650535,0.1105062394864409
37,5,0.25,0.85771124872582,0.42230085340978496
37,5,0.0,0.8600480519022291,0.18862053576887972
37,6,1.0,0.8619342572599179,0.0
37,6,0.75,0.8467065614124438,1.5227695847474076
37,6,0.5,0.842558611947333,1.9375645312584955
37,6,0.25,0.8395607659263118,2.237349133360611
37,6,0.0,0.8356485922879975,2.628566497192042
37,7,1.0,0.8619342572599179,0.0
37,7,0.75,0.8298930547531482,3.2041202506769673
37,7,0.5,0.8058076933092186,5.612656395069926
37,7,0.25,0.8149380382211882,4.699621903872975
37,7,0.0,0.8002978533914988,6.163640386841907
37,8,1.0,0.8619342572599179,0.0
37,8,0.75,0.845411719950397,1.6522537309520913
37,8,0.5,0.8425439826996337,1.9390274560284193
37,8,0.25,0.8359512923990138,2.5982964860904123
37,8,0.0,0.8496150302936469,1.2319226966270969
38,0,1.0,0.8849637660673146,0.0
38,0,0.75,0.8679046657744095,1.7059100292905138
38,0,0.5,0.846612879223521,3.835088684379362
38,0,0.25,0.831834594312389,5.31291717549256
38,0,0.0,0.8299554859871299,5.500828008018477
38,1,1.0,0.8849637660673146,0.0
38,1,0.75,0.8965849626364887,-1.1621196569174042
38,1,0.5,0.8810962707226879,0.38674953446267146
38,1,0.25,0.8715832822830624,1.3380483784252273
38,1,0.0,0.8501482122260668,3.4815553841247793
38,2,1.0,0.8849637660673146,0.0
38,2,0.75,0.8868544411006414,-0.18906750333267386
38,2,0.5,0.8828060535445992,0.21577125227154603
38,2,0.25,0.8663915119712854,1.857225409602925
38,2,0.0,0.8460758925892865,3.8887873478028134
38,3,1.0,0.8849637660673146,0.0
38,3,0.75,0.888657737247079,-0.36939711797643326
38,3,0.5,0.8917507640096103,-0.6786997942295647
38,3,0.25,0.8786038800906204,0.6359885976694235
38,3,0.0,0.8636409263241196,2.1322839743195043
38,4,1.0,0.8849637660673146,0.0
38,4,0.75,0.8720851244704689,1.2878641596845708
38,4,0.5,0.8691103496212786,1.5853416446035995
38,4,0.25,0.8580492485400374,2.691451752727725
38,4,0.0,0.8506560474758512,3.430771859146342
38,5,1.0,0.8849637660673146,0.0
38,5,0.75,0.8864913438372948,-0.15275777699801374
38,5,0.5,0.8693325503608319,1.5631215706482737
38,5,0.25,0.8675861100442934,1.7377656023021215
38,5,0.0,0.869527417028128,1.543634903918667
38,6,1.0,0.8849637660673146,0.0
38,6,0.75,0.8835834412102652,0.13803248570494198
38,6,0.5,0.8777634017938041,0.7200364273510562
38,6,0.25,0.8699119403760791,1.5051825691235532
38,6,0.0,0.8703651125371166,1.459865353019807
38,7,1.0,0.8849637660673146,0.0
38,7,0.75,0.8790666155223117,0.5897150545002949
38,7,0.5,0.8783794162826422,0.6584349784672483
38,7,0.25,0.8597674569298304,2.5196309137484274
38,7,0.0,0.8430287457026246,4.193502036468999
38,8,1.0,0.8849637660673146,0.0
38,8,0.75,0.8804721341229522,0.44916319443624175
38,8,0.5,0.8728609744609908,1.2102791606323882
38,8,0.25,0.8735542653840707,1.1409500683243978
38,8,0.0,0.8709422502276203,1.4021515839694354
39,0,1.0,0.8481107519980998,0.0
39,0,0.75,0.8418234000449248,0.628735195317498
39,0,0.5,0.8431145030426204,0.4996248955479454
39,0,0.25,0.8353198228152974,1.2790929182802446
39,0,0.0,0.8311126964244134,1.6998055573686388
39,1,1.0,0.8481107519980998,0.0
39,1,0.75,0.8526419263807092,-0.45311743826094153
39,1,0.5,0.8436563025004598,0.4454449497640067
39,1,0.25,0.8357248687265666,1.2385883271533227
39,1,0.0,0.8339529616444289,1.415779035367093
39,2,1.0,0.8481107519980998,0.0
39,2,0.75,0.8521095367770604,-0.399878477896054
39,2,0.5,0.8631832651994915,-1.507251320139169
39,2,0.25,0.8596426927040214,-1.1531940705921562
39,2,0.0,0.8585119993391808,-1.0401247341080944
39,3,1.0,0.8481107519980998,0.0
39,3,0.75,0.8445673431928304,0.3543408805269377
39,3,0.5,0.8463121510214533,0.1798600976646525
39,3,0.25,0.8364356337906299,1.1675118207469914
39,3,0.0,0.816639084519671,3.1471667478428778
39,4,1.0,0.8481107519980998,0.0
39,4,0.75,0.8392464910273801,0.8864260970719684
39,4,0.5,0.8309866374232511,1.7124114574848748
39,4,0.25,0.8063638817013175,4.174687029678237
39,4,0.0,0.813156673172996,3.495407882510382
39,5,1.0,0.8481107519980998,0.0
39,5,0.75,0.8482962332678514,-0.01854812697515973
39,5,0.5,0.8611426120678518,-1.3031860069751988
39,5,0.25,0.8524527250560044,-0.43419730579046245
39,5,0.0,0.8528758248901553,-0.4765072892055522
39,6,1.0,0.8481107519980998,0.0
39,6,0.75,0.8541168249650433,-0.6006072966943443
39,6,0.5,0.857772371949213,-0.9661619951113143
39,6,0.25,0.8628296138663438,-1.4718861868244004
39,6,0.0,0.8610985341844232,-1.298778218632335
39,7,1.0,0.8481107519980998,0.0
39,7,0.75,0.8493503874768844,-0.12396354787845842
39,7,0.5,0.8444487925125573,0.36619594855424875
39,7,0.25,0.8343840335140209,1.3726718484078915
39,7,0.0,0.8226100261429453,2.5500725855154505
39,8,1.0,0.8481107519980998,0.0
39,8,0.75,0.861554707037026,-1.3443955038926148
39,8,0.5,0.8797373717676873,-3.162661976958747
39,8,0.25,0.8720436926426037,-2.393294064450391
39,8,0.0,0.8591820687023086,-1.10713167042088
40,0,1.0,0.8572765111001703,0.0
40,0,0.75,0.8492696716710781,0.8006839429092194
40,0,0.5,0.8488339036221652,0.8442607478005182
40,0,0.25,0.8392439218878701,1.803258921230022
40,0,0.0,0.8274016252205706,2.9874885879599744
40,1,1.0,0.8572765111001703,0.0
40,1,0.75,0.8478108335860696,0.9465677514100768
40,1,0.5,0.8364545540849269,2.0821957015243475
40,1,0.25,0.8408462168668164,1.643029423335396
40,1,0.0,0.8466189848835856,1.0657526216584778
40,2,1.0,0.8572765111001703,0.0
40,2,0.75,0.8662452557435815,-0.8968744643411131
40,2,0.5,0.8666933630144769,-0.9416851914306523
40,2,0.25,0.8733278903809389,-1.6051379280768607
40,2,0.0,0.8700114137510485,-1.2734902650878177
40,3,1.0,0.8572765111001703,0.0
40,3,0.75,0.8639126076000381,-0.6636096499867739
40,3,0.5,0.846104172207712,1.1172338892458389
40,3,0.25,0.8404197527595709,1.685675834059941
40,3,0.0,0.8388738102277462,1.8402700872424127
40,4,1.0,0.8572765111001703,0.0
40,4,0.75,0.8559791076899778,0.1297403410192577
40,4,0.5,0.8502554355994378,0.7021075500732499
40,4,0.25,0.8336810667465682,2.359544435360217
40,4,0.0,0.8378445113545472,1.9431999745623152
40,5,1.0,0.8572765111001703,0.0
40,5,0.75,0.8593291459649812,-0.20526348648108872
40,5,0.5,0.8608740982675769,-0.3597587167406546
40,5,0.25,0.8607729290094183,-0.34964179092479286
40,5,0.0,0.8586426102495391,-0.13660991493688046
40,6,1.0,0.8572765111001703,0.0
40,6,0.75,0.8577212360135841,-0.0444724913413741
40,6,0.5,0.8545825207269644,0.26939903732059456
40,6,0.25,0.8660706174698712,-0.8794106369700905
40,6,0.0,0.8632713958834103,-0.5994884783239951
40,7,1.0,0.8572765111001703,0.0
40,7,0.75,0.8531461525390127,0.4130358561157621
40,7,0.5,0.8514630771647165,0.581343393545386
40,7,0.25,0.8333068793844185,2.396963171575184
40,7,0.0,0.8309266033626315,2.634990773753887
40,8,1.0,0.8572765111001703,0.0
40,8,0.75,0.8618267201884187,-0.4550209088248325
40,8,0.5,0.8566053135752268,0.06711975249434898
40,8,0.25,0.855862722119646,0.14137889805243553
40,8,0.0,0.8397077003764924,1.7568810723677886
