subject,channel,f1_full,f1_occluded,drop_pp
1,0,0.6459517592183674,0.6014088049069134,4.454295431145406
1,1,0.6459517592183674,0.6218709655621075,2.4080793656259925
1,2,0.6459517592183674,0.6398926482203425,0.6059110998024919
1,3,0.6459517592183674,0.5944742270864483,5.147753213191919
1,4,0.6459517592183674,0.68756040285038,-4.160864363201256
1,5,0.6459517592183674,0.599302193044038,4.6649566174329475
1,6,0.6459517592183674,0.7091399877212976,-6.3188228502930155
1,7,0.6459517592183674,0.6016772647287354,4.4274494489632055
1,8,0.6459517592183674,0.6549455421716672,-0.8993782953299778
2,0,0.871528913288442,0.8722503562338978,-0.07214429454558413
2,1,0.871528913288442,0.8265429223009089,4.498599098753308
2,2,0.871528913288442,0.8548950008325008,1.6633912455941147
2,3,0.871528913288442,0.8402298076952577,3.1299105593184273
2,4,0.871528913288442,0.8697818960434742,0.17470172449677301
2,5,0.871528913288442,0.8388812033176768,3.264770997076516
2,6,0.871528913288442,0.8545613081551384,1.6967605133303532
2,7,0.871528913288442,0.8039230510073445,6.760586228109744
2,8,0.871528913288442,0.8452051747899535,2.632373849848846
3,0,0.9125878970889976,0.9179054697922623,-0.5317572703264717
3,1,0.9125878970889976,0.873141589772491,3.9446307316506557
3,2,0.9125878970889976,0.9123241207051926,0.026377638380492563
3,3,0.9125878970889976,0.8407095959043762,7.187830118462135
3,4,0.9125878970889976,0.9120073353082241,0.058056178077348086
3,5,0.9125878970889976,0.9180291900325673,-0.5441292943569764
3,6,0.9125878970889976,0.9076363295185383,0.49515675704592255
3,7,0.9125878970889976,0.8856452574930778,2.6942639595919804
3,8,0.9125878970889976,0.9033740038651328,0.9213893223864789
4,0,0.8822798612067351,0.8961173764337812,-1.3837515227046127
4,1,0.8822798612067351,0.8659158540465197,1.6364007160215355
4,2,0.8822798612067351,0.8693666518968921,1.2913209309842966
4,3,0.8822798612067351,0.8566787138064882,2.560114740024688
4,4,0.8822798612067351,0.8778591794532075,0.4420681753527611
4,5,0.8822798612067351,0.8684373784853865,1.3842482721348581
4,6,0.8822798612067351,0.888905967891475,-0.6626106684739952
4,7,0.8822798612067351,0.9131352931435007,-3.0855431936765654
4,8,0.8822798612067351,0.9014102783216336,-1.913041711489849
5,0,0.6560416850897812,0.6345259332539516,2.1515751835829655
5,1,0.6560416850897812,0.6716725883048057,-1.5630903215024472
5,2,0.6560416850897812,0.6801795379241014,-2.413785283432013
5,3,0.6560416850897812,0.6877253325138517,-3.1683647424070482
5,4,0.6560416850897812,0.6342314991768535,2.1810185912927715
5,5,0.6560416850897812,0.6339742447894114,2.206744030036978
5,6,0.6560416850897812,0.6642547569693511,-0.8213071879569878
5,7,0.6560416850897812,0.6737734205173478,-1.7731735427566564
5,8,0.6560416850897812,0.6462660409836478,0.9775644106133408
6,0,0.8034369730798302,0.7634605734090552,3.9976399670775042
6,1,0.8034369730798302,0.7705836826262785,3.2853290453551676
6,2,0.8034369730798302,0.8123307964458499,-0.8893823366019737
6,3,0.8034369730798302,0.8315296102063554,-2.809263712652521
6,4,0.8034369730798302,0.7903827752736565,1.3054197806173673
6,5,0.8034369730798302,0.808309579911634,-0.4872606831803794
6,6,0.8034369730798302,0.7959899253260035,0.7447047753826652
6,7,0.8034369730798302,0.7470466282658326,5.639034481399763
6,8,0.8034369730798302,0.7326738868343874,7.07630862454428
7,0,0.8025031679813759,0.7861711479648833,1.6332020016492588
7,1,0.8025031679813759,0.764457712051699,3.8045455929676897
7,2,0.8025031679813759,0.7814680221514523,2.1035145829923607
7,3,0.8025031679813759,0.7991185016649677,0.33846663164082136
7,4,0.8025031679813759,0.7754427400171886,2.7060427964187284
7,5,0.8025031679813759,0.7198734120436405,8.262975593773536
7,6,0.8025031679813759,0.7763340593886772,2.616910859269872
7,7,0.8025031679813759,0.7787769139516694,2.3726254029706517
7,8,0.8025031679813759,0.7828118873445548,1.969128063682113
8,0,0.8041774943628918,0.7995004932707268,0.46770010921649563
8,1,0.8041774943628918,0.8020794666575461,0.20980277053456176
8,2,0.8041774943628918,0.8255951988823813,-2.1417704519489544
8,3,0.8041774943628918,0.7870613669348154,1.7116127428076333
8,4,0.8041774943628918,0.7810778878621507,2.3099606500741054
8,5,0.8041774943628918,0.7905787429821491,1.3598751380742624
8,6,0.8041774943628918,0.804896370024442,-0.07188756615502667
8,7,0.8041774943628918,0.770311058253067,3.386643610982476
8,8,0.8041774943628918,0.7855355095992514,1.8641984763640318
9,0,0.8205965825553186,0.8270043758531413,-0.6407793297822706
9,1,0.8205965825553186,0.8002971401145097,2.0299442440808946
9,2,0.8205965825553186,0.8241984364224415,-0.36018538671228617
9,3,0.8205965825553186,0.8062211309376036,1.437545161771503
9,4,0.8205965825553186,0.8184018535851265,0.2194728970192128
9,5,0.8205965825553186,0.8148044016133991,0.5792180941919578
9,6,0.8205965825553186,0.8118210071321751,0.8775575423143556
9,7,0.8205965825553186,0.7765079539237185,4.408862863160012
9,8,0.8205965825553186,0.8356673393344368,-1.5070756779118177
10,0,0.8107203264004597,0.7492668531122941,6.145347328816553
10,1,0.8107203264004597,0.7796486557605389,3.107167063992078
10,2,0.8107203264004597,0.7827882658948458,2.793206050561381
10,3,0.8107203264004597,0.7071548848438383,10.356544155662139
10,4,0.8107203264004597,0.7635025792920529,4.721774710840676
10,5,0.8107203264004597,0.779666622083616,3.105370431684362
10,6,0.8107203264004597,0.7790058369452415,3.1714489455218153
10,7,0.8107203264004597,0.7151485543654887,9.55717720349709
10,8,0.8107203264004597,0.7868596304596758,2.3860695940783883
11,0,0.9105483046504481,0.9050633285064047,0.5484976144043419
11,1,0.9105483046504481,0.8798943192891798,3.0653985361268288
11,2,0.9105483046504481,0.8855689128208469,2.4979391829601183
11,3,0.9105483046504481,0.8635897176030956,4.695858704735256
11,4,0.9105483046504481,0.9190887118731708,-0.8540407222722646
11,5,0.9105483046504481,0.9169412025444641,-0.6392897894015981
11,6,0.9105483046504481,0.93469797284866,-2.414966819821185
11,7,0.9105483046504481,0.9357968608829029,-2.524855623245481
11,8,0.9105483046504481,0.9229886056668966,-1.244030101644844
12,0,0.9126217657603408,0.9060146086652334,0.6607157095107397
12,1,0.9126217657603408,0.8945495846797942,1.8072181080546645
12,2,0.9126217657603408,0.8803537085451979,3.226805721514292
12,3,0.9126217657603408,0.8363687993471551,7.6252966413185685
12,4,0.9126217657603408,0.9024433118546036,1.017845390573724
12,5,0.9126217657603408,0.9209171455938697,-0.8295379833528904
12,6,0.9126217657603408,0.9042076160568422,0.841414970349863
12,7,0.9126217657603408,0.899813416932056,1.2808348828284855
12,8,0.9126217657603408,0.8814703417910636,3.115142396927717
13,0,0.9303113564735046,0.9021940596074003,2.8117296866104313
13,1,0.9303113564735046,0.8969811239312783,3.3330232542226335
13,2,0.9303113564735046,0.9158136036473113,1.4497752826193255
13,3,0.9303113564735046,0.9042112094213264,2.6100147052178224
13,4,0.9303113564735046,0.9164786527010056,1.383270377249901
13,5,0.9303113564735046,0.8967978247311242,3.3513531742380365
13,6,0.9303113564735046,0.9187863401882032,1.1525016285301448
13,7,0.9303113564735046,0.8909870259985182,3.93243304749864
13,8,0.9303113564735046,0.9171936529592509,1.3117703514253676
14,0,0.8258604529218432,0.8181396746334463,0.7720778288396901
14,1,0.8258604529218432,0.8189621444403586,0.6898308481484539
14,2,0.8258604529218432,0.8462145135173511,-2.035406059550793
14,3,0.8258604529218432,0.7690045518208378,5.685590110100536
14,4,0.8258604529218432,0.8237826947634102,0.20777581584330296
14,5,0.8258604529218432,0.8244593060145812,0.14011469072620075
14,6,0.8258604529218432,0.8187782805429864,0.7082172378856777
14,7,0.8258604529218432,0.7785642910518827,4.729616186996044
14,8,0.8258604529218432,0.7842616491146254,4.159880380721781
15,0,0.8905101830239927,0.8561911858790724,3.431899714492026
15,1,0.8905101830239927,0.8887170575322254,0.17931254917672446
15,2,0.8905101830239927,0.8555773197813987,3.4932863242593926
15,3,0.8905101830239927,0.8491156682786671,4.139451474532551
15,4,0.8905101830239927,0.899679629187826,-0.9169446163833306
15,5,0.8905101830239927,0.883440564119721,0.7069618904271602
15,6,0.8905101830239927,0.8786478737501149,1.186230927387777
15,7,0.8905101830239927,0.8577848271372124,3.272535588678027
15,8,0.8905101830239927,0.8921123715971508,-0.1602188573158192
16,0,0.8542836069607713,0.8522287933026029,0.20548136581683973
16,1,0.8542836069607713,0.8676883679695525,-1.3404761008781185
16,2,0.8542836069607713,0.8622905226276947,-0.8006915666923353
16,3,0.8542836069607713,0.8735416310954917,-1.925802413472033
16,4,0.8542836069607713,0.8423732088071272,1.1910398153644142
16,5,0.8542836069607713,0.8443807825551564,0.9902824405614963
16,6,0.8542836069607713,0.8575984251255991,-0.3314818164827815
16,7,0.8542836069607713,0.8094792403173815,4.480436664338983
16,8,0.8542836069607713,0.8460894511029554,0.819415585781591
17,0,0.8781659270173563,0.8629277650145187,1.5238162002837563
17,1,0.8781659270173563,0.8918651832754176,-1.3699256258061343
17,2,0.8781659270173563,0.856238077376487,2.1927849640869246
17,3,0.8781659270173563,0.8633908778842475,1.4775049133108786
17,4,0.8781659270173563,0.8673241642293592,1.084176278799709
17,5,0.8781659270173563,0.8572601295342293,2.090579748312704
17,6,0.8781659270173563,0.8723659232616892,0.5800003755667138
17,7,0.8781659270173563,0.8495372948354101,2.8628632181946223
17,8,0.8781659270173563,0.8110831753002299,6.708275171712641
18,0,0.9114871884804641,0.9005235821409141,1.0963606339549958
18,1,0.9114871884804641,0.916771651588508,-0.528446310804398
18,2,0.9114871884804641,0.8907539671367729,2.0733221343691155
18,3,0.9114871884804641,0.8139570555830828,9.75301328973812
18,4,0.9114871884804641,0.8834182209607957,2.8068967519668364
18,5,0.9114871884804641,0.8966586784918245,1.4828509988639604
18,6,0.9114871884804641,0.904677236786228,0.6809951694236038
18,7,0.9114871884804641,0.8847785035925037,2.670868488796041
18,8,0.9114871884804641,0.9016160843332481,0.9871104147215926
19,0,0.8465288370920727,0.8315019639451458,1.5026873146926967
19,1,0.8465288370920727,0.8313960041352328,1.513283295683987
19,2,0.8465288370920727,0.8375528806373715,0.8975956454701173
19,3,0.8465288370920727,0.7906314917005055,5.589734539156721
19,4,0.8465288370920727,0.8238360753488768,2.26927617431959
19,5,0.8465288370920727,0.8171843267570238,2.9344510335048923
19,6,0.8465288370920727,0.8375833500066916,0.8945487085381121
19,7,0.8465288370920727,0.8252754410779424,2.1253396014130344
19,8,0.8465288370920727,0.8261525679402268,2.037626915184587
20,0,0.8468995477988159,0.8295453157314864,1.7354232067329556
20,1,0.8468995477988159,0.8483749862142083,-0.14754384153923272
20,2,0.8468995477988159,0.8177249432459253,2.917460455289067
20,3,0.8468995477988159,0.8475177196262955,-0.061817182747958555
20,4,0.8468995477988159,0.8619758235677251,-1.507627576890913
20,5,0.8468995477988159,0.866194839637603,-1.9295291838787088
20,6,0.8468995477988159,0.8364719384769965,1.0427609321819409
20,7,0.8468995477988159,0.7955094126005304,5.13901351982855
20,8,0.8468995477988159,0.7901909619599806,5.670858583883531
21,0,0.8564549979715992,0.838237210817856,1.8217787153743226
21,1,0.8564549979715992,0.87406708445746,-1.7612086485860767
21,2,0.8564549979715992,0.854826940740925,0.16280572306741625
21,3,0.8564549979715992,0.8493877920903448,0.7067205881254424
21,4,0.8564549979715992,0.8313090119770274,2.514598599457174
21,5,0.8564549979715992,0.8871129176144215,-3.0657919642822273
21,6,0.8564549979715992,0.8558438316218022,0.06111663497969655
21,7,0.8564549979715992,0.8545798537643121,0.18751442072870717
21,8,0.8564549979715992,0.8526038486183709,0.3851149353228278
22,0,0.8039063207601524,0.8031593037857464,0.07470169744060451
22,1,0.8039063207601524,0.8343205270106613,-3.0414206250508835
22,2,0.8039063207601524,0.7872362723100681,1.6670048450084352
22,3,0.8039063207601524,0.7679488792754916,3.5957441484660846
22,4,0.8039063207601524,0.7760955111093588,2.7810809650793633
22,5,0.8039063207601524,0.8083135359447253,-0.4407215184572877
22,6,0.8039063207601524,0.7977952032722557,0.6111117487896722
22,7,0.8039063207601524,0.755715307569399,4.819101319075347
22,8,0.8039063207601524,0.7653935854325211,3.851273532763133
23,0,0.825809797044826,0.7720020388925246,5.380775815230143
23,1,0.825809797044826,0.8121947960652707,1.361500097955537
23,2,0.825809797044826,0.8280656942799549,-0.22558972351288675
23,3,0.825809797044826,0.8095161453247884,1.6293651720037605
23,4,0.825809797044826,0.8103052303573333,1.5504566687492782
23,5,0.825809797044826,0.8007113054995784,2.509849154524768
23,6,0.825809797044826,0.8089124339072415,1.6897363137584498
23,7,0.825809797044826,0.821071556971706,0.473824007312007
23,8,0.825809797044826,0.8001170877961306,2.569270924869549
24,0,0.7772782388830823,0.7590577365678745,1.8220502315207887
24,1,0.7772782388830823,0.7716466477627735,0.5631591120308865
24,2,0.7772782388830823,0.7487839897417816,2.849424914130072
24,3,0.7772782388830823,0.8123084667875583,-3.5030227904475963
24,4,0.7772782388830823,0.7481099530294697,2.916828585361264
24,5,0.7772782388830823,0.7500283413792037,2.724989750387863
24,6,0.7772782388830823,0.760115063936257,1.7163174946825288
24,7,0.7772782388830823,0.7656405005261906,1.1637738356891747
24,8,0.7772782388830823,0.752150988889825,2.512724999325733
25,0,0.8874746515051373,0.9009157852110319,-1.3441133705894615
25,1,0.8874746515051373,0.902209842393427,-1.4735190888289784
25,2,0.8874746515051373,0.8782748223684806,0.9199829136656623
25,3,0.8874746515051373,0.8413081161177184,4.616653538741888
25,4,0.8874746515051373,0.8865558864293857,0.09187650757516153
25,5,0.8874746515051373,0.9031875481997007,-1.5712896694563439
25,6,0.8874746515051373,0.9043285452780178,-1.685389377288049
25,7,0.8874746515051373,0.8149990960693938,7.247555543574347
25,8,0.8874746515051373,0.913938382753213,-2.6463731248075772
26,0,0.7983397075616313,0.7804513061924345,1.7888401369196782
26,1,0.7983397075616313,0.7903645241091867,0.7975183452444634
26,2,0.7983397075616313,0.7549196453943339,4.342006216729743
26,3,0.7983397075616313,0.7689249564381783,2.9414751123453042
26,4,0.7983397075616313,0.779963650485465,1.8376057076166297
26,5,0.7983397075616313,0.7710008295593722,2.7338878002259093
26,6,0.7983397075616313,0.7876482038095292,1.069150375210215
26,7,0.7983397075616313,0.7607669941037074,3.75727134579239
26,8,0.7983397075616313,0.7753486119557328,2.2991095605898515
27,0,0.85763529903342,0.8607339451059554,-0.3098646072535405
27,1,0.85763529903342,0.8546520160496593,0.29832829837606045
27,2,0.85763529903342,0.8186783716358937,3.895692739752621
27,3,0.85763529903342,0.8509263544753718,0.6708944558048158
27,4,0.85763529903342,0.8550772682274201,0.25580308059998114
27,5,0.85763529903342,0.858320724177652,-0.0685425144232088
27,6,0.85763529903342,0.8945784731080879,-3.694317407466796
27,7,0.85763529903342,0.8355895230791145,2.2045775954305458
27,8,0.85763529903342,0.882719889844666,-2.5084590811246033
28,0,0.7290181596279697,0.7434273714126918,-1.4409211784722098
28,1,0.7290181596279697,0.7392514903004174,-1.0233330672447694
28,2,0.7290181596279697,0.722654686001453,0.636347362651668
28,3,0.7290181596279697,0.7392404473271109,-1.0222287699141241
28,4,0.7290181596279697,0.8204288423920645,-9.14106827640948
28,5,0.7290181596279697,0.6965962424550167,3.242191717295295
28,6,0.7290181596279697,0.740326032441227,-1.1307872813257291
28,7,0.7290181596279697,0.7238538718458581,0.5164287782111532
28,8,0.7290181596279697,0.7148906402552566,1.412751937271306
29,0,0.8623510424189031,0.8644028226569245,-0.2051780238021328
29,1,0.8623510424189031,0.8713974131828979,-0.9046370763994727
29,2,0.8623510424189031,0.8358518805393771,2.6499161879526056
29,3,0.8623510424189031,0.8371650834246742,2.518595899422893
29,4,0.8623510424189031,0.8134823605361453,4.886868188275784
29,5,0.8623510424189031,0.8542182301776542,0.8132812241248955
29,6,0.8623510424189031,0.8670623961316524,-0.4711353712749222
29,7,0.8623510424189031,0.8449094963898734,1.7441546029029698
29,8,0.8623510424189031,0.8557798984137459,0.6571144005157237
30,0,0.8249925212731779,0.8552449770188412,-3.0252455745663265
30,1,0.8249925212731779,0.8022239395370778,2.276858173610008
30,2,0.8249925212731779,0.8518313713193282,-2.6838850046150275
30,3,0.8249925212731779,0.7982671625463345,2.672535872684345
30,4,0.8249925212731779,0.8260009798240608,-0.10084585508829402
30,5,0.8249925212731779,0.8067975617920125,1.8194959481165451
30,6,0.8249925212731779,0.8400313537657501,-1.5038832492572207
30,7,0.8249925212731779,0.7714936957680354,5.349882550514251
30,8,0.8249925212731779,0.8309557853013336,-0.5963264028155724
31,0,0.7982165703797586,0.7883918260056424,0.9824744374116179
31,1,0.7982165703797586,0.801243547271349,-0.30269768915904827
31,2,0.7982165703797586,0.8031293454775978,-0.49127750978392726
31,3,0.7982165703797586,0.8002069798294694,-0.19904094497108504
31,4,0.7982165703797586,0.7879233137036729,1.0293256676085716
31,5,0.7982165703797586,0.8084410538059039,-1.0224483426145348
31,6,0.7982165703797586,0.7774183159720081,2.0798254407750516
31,7,0.7982165703797586,0.7674635011979668,3.075306918179177
31,8,0.7982165703797586,0.7357561681302264,6.246040224953219
32,0,0.8544701635224214,0.8272826301124049,2.718753341001656
32,1,0.8544701635224214,0.8377974612846435,1.6672702237777948
32,2,0.8544701635224214,0.8372756690756702,1.7194494446751252
32,3,0.8544701635224214,0.8197672421602171,3.470292136220432
32,4,0.8544701635224214,0.8478259038794589,0.6644259642962558
32,5,0.8544701635224214,0.8614605551958628,-0.6990391673441398
32,6,0.8544701635224214,0.8545140895857648,-0.004392606334335802
32,7,0.8544701635224214,0.8048532755149558,4.9616888007465665
32,8,0.8544701635224214,0.8442356781390996,1.0234485383321834
33,0,0.922382415418719,0.8837443215353981,3.8638093883320956
33,1,0.922382415418719,0.8854258226273334,3.6956592791385634
33,2,0.922382415418719,0.8882328528747966,3.414956254392243
33,3,0.922382415418719,0.9096117300630764,1.277068535564263
33,4,0.922382415418719,0.9253754906980713,-0.2993075279352331
33,5,0.922382415418719,0.9160686546603148,0.6313760758404174
33,6,0.922382415418719,0.8922531818265745,3.0129233592144478
33,7,0.922382415418719,0.8890821405041163,3.3300274914602745
33,8,0.922382415418719,0.8961769766249152,2.620543879380377
34,0,0.8871784812734432,0.8928218536805229,-0.5643372407079683
34,1,0.8871784812734432,0.8933311610268061,-0.6152679753362866
34,2,0.8871784812734432,0.903807041610216,-1.6628560336772735
34,3,0.8871784812734432,0.8710634665521884,1.6115014721254872
34,4,0.8871784812734432,0.8873801230684437,-0.02016417950004845
34,5,0.8871784812734432,0.89310654715154,-0.59280658780968
34,6,0.8871784812734432,0.8916101657526542,-0.443168447921094
34,7,0.8871784812734432,0.8773038136719853,0.9874667601457943
34,8,0.8871784812734432,0.8666698942082522,2.0508587065190986
35,0,0.7405274381959591,0.6807387548198011,5.978868337615806
35,1,0.7405274381959591,0.7313378057450765,0.9189632450882668
35,2,0.7405274381959591,0.7485260109601347,-0.7998572764175593
35,3,0.7405274381959591,0.7106352195809246,2.989221861503455
35,4,0.7405274381959591,0.7662366399167362,-2.5709201720777064
35,5,0.7405274381959591,0.7083284315972275,3.219900659873165
35,6,0.7405274381959591,0.7127316291489577,2.7795809047001407
35,7,0.7405274381959591,0.7430623035644351,-0.2534865368476025
35,8,0.7405274381959591,0.7094480338542779,3.1079404341681216
36,0,0.711062864336769,0.7131068025142981,-0.20439381775291254
36,1,0.711062864336769,0.6597811550107033,5.128170932606569
36,2,0.711062864336769,0.6627964534963996,4.826641084036942
36,3,0.711062864336769,0.6404054376169223,7.065742671984676
36,4,0.711062864336769,0.7378807200604536,-2.681785572368456
36,5,0.711062864336769,0.7279662162443165,-1.6903351907547437
36,6,0.711062864336769,0.6919776370402646,1.9085227296504415
36,7,0.711062864336769,0.6383996909708014,7.266317336596762
36,8,0.711062864336769,0.6563486282079622,5.4714236128806775
37,0,0.8619342572599179,0.834353347779585,2.758090948033287
37,1,0.8619342572599179,0.8432328656192293,1.8701391640688625
37,2,0.8619342572599179,0.8477976697925547,1.4136587467363237
37,3,0.8619342572599179,0.8524290840630251,0.9505173196892813
37,4,0.8619342572599179,0.8451592473502112,1.6775009909706706
37,5,0.8619342572599179,0.8600480519022291,0.18862053576887972
37,6,0.8619342572599179,0.8356485922879975,2.628566497192042
37,7,0.8619342572599179,0.8002978533914988,6.163640386841907
37,8,0.8619342572599179,0.8496150302936469,1.2319226966270969
38,0,0.8849637660673146,0.8299554859871299,5.500828008018477
38,1,0.8849637660673146,0.8501482122260668,3.4815553841247793
38,2,0.8849637660673146,0.8460758925892865,3.8887873478028134
38,3,0.8849637660673146,0.8636409263241196,2.1322839743195043
38,4,0.8849637660673146,0.8506560474758512,3.430771859146342
38,5,0.8849637660673146,0.869527417028128,1.543634903918667
38,6,0.8849637660673146,0.8703651125371166,1.459865353019807
38,7,0.8849637660673146,0.8430287457026246,4.193502036468999
38,8,0.8849637660673146,0.8709422502276203,1.4021515839694354
39,0,0.8481107519980998,0.8311126964244134,1.6998055573686388
39,1,0.8481107519980998,0.8339529616444289,1.415779035367093
39,2,0.8481107519980998,0.8585119993391808,-1.0401247341080944
39,3,0.8481107519980998,0.816639084519671,3.1471667478428778
39,4,0.8481107519980998,0.813156673172996,3.495407882510382
39,5,0.8481107519980998,0.8528758248901553,-0.4765072892055522
39,6,0.8481107519980998,0.8610985341844232,-1.298778218632335
39,7,0.8481107519980998,0.8226100261429453,2.5500725855154505
39,8,0.8481107519980998,0.8591820687023086,-1.10713167042088
40,0,0.8572765111001703,0.8274016252205706,2.9874885879599744
40,1,0.8572765111001703,0.8466189848835856,1.0657526216584778
40,2,0.8572765111001703,0.8700114137510485,-1.2734902650878177
40,3,0.8572765111001703,0.8388738102277462,1.8402700872424127
40,4,0.8572765111001703,0.8378445113545472,1.9431999745623152
40,5,0.8572765111001703,0.8586426102495391,-0.13660991493688046
40,6,0.8572765111001703,0.8632713958834103,-0.5994884783239951
40,7,0.8572765111001703,0.8309266033626315,2.634990773753887
40,8,0.8572765111001703,0.8397077003764924,1.7568810723677886
