subject,block,block_width,feature_channel,gate_mean,gate_sd
1,0,32,0,0.4744413197040558,0.2606525719165802
1,0,32,1,0.4708413779735565,0.21423783898353577
1,0,32,2,0.3480165898799896,0.12361235171556473
1,0,32,3,0.44765037298202515,0.19320088624954224
1,0,32,4,0.5265632271766663,0.11335249245166779
1,0,32,5,0.36041563749313354,0.15165188908576965
1,0,32,6,0.4964388310909271,0.1052178367972374
1,0,32,7,0.46299242973327637,0.24948547780513763
1,0,32,8,0.3527499735355377,0.0941808894276619
1,0,32,9,0.45030489563941956,0.18184509873390198
1,0,32,10,0.513685941696167,0.057061485946178436
1,0,32,11,0.4773938059806824,0.1526736468076706
1,0,32,12,0.6018564105033875,0.1532621681690216
1,0,32,13,0.21600888669490814,0.09050524979829788
1,0,32,14,0.4583989977836609,0.05687166005373001
1,0,32,15,0.5168637633323669,0.1633484959602356
1,0,32,16,0.4001745581626892,0.07134537398815155
1,0,32,17,0.39880990982055664,0.1492460072040558
1,0,32,18,0.5529828667640686,0.17564664781093597
1,0,32,19,0.46109071373939514,0.10444718599319458
1,0,32,20,0.5014986395835876,0.10305008292198181
1,0,32,21,0.465816468000412,0.06503086537122726
1,0,32,22,0.4149395823478699,0.16322465240955353
1,0,32,23,0.42992615699768066,0.1984117478132248
1,0,32,24,0.6409589648246765,0.04096756875514984
1,0,32,25,0.40467000007629395,0.16651320457458496
1,0,32,26,0.49851375818252563,0.19179147481918335
1,0,32,27,0.438148558139801,0.055699244141578674
1,0,32,28,0.3699840307235718,0.05193842574954033
1,0,32,29,0.5097764134407043,0.1244175136089325
1,0,32,30,0.5674578547477722,0.1001732125878334
1,0,32,31,0.4962490499019623,0.06879293918609619
1,1,32,0,0.6170173287391663,0.07952570915222168
1,1,32,1,0.4638946056365967,0.06947462260723114
1,1,32,2,0.5913010835647583,0.1507456749677658
1,1,32,3,0.5101109743118286,0.06086968630552292
1,1,32,4,0.46883898973464966,0.0713445246219635
1,1,32,5,0.5347788333892822,0.05589160695672035
1,1,32,6,0.5557770133018494,0.08519961684942245
1,1,32,7,0.5607185959815979,0.06339932233095169
1,1,32,8,0.47486403584480286,0.05268588289618492
1,1,32,9,0.502723753452301,0.12862741947174072
1,1,32,10,0.4597015380859375,0.1511204093694687
1,1,32,11,0.3872271180152893,0.09121787548065186
1,1,32,12,0.339874267578125,0.030848095193505287
1,1,32,13,0.5438928008079529,0.12031415849924088
1,1,32,14,0.37753623723983765,0.11634129285812378
1,1,32,15,0.626342236995697,0.08285775780677795
1,1,32,16,0.43557554483413696,0.08057289570569992
1,1,32,17,0.5535092949867249,0.12087173014879227
1,1,32,18,0.4281310737133026,0.07158110290765762
1,1,32,19,0.3517652451992035,0.06801265478134155
1,1,32,20,0.6148471236228943,0.07501131296157837
1,1,32,21,0.5695620179176331,0.056737326085567474
1,1,32,22,0.3839101195335388,0.11980331689119339
1,1,32,23,0.5793178677558899,0.07792527228593826
1,1,32,24,0.4712681770324707,0.0513046532869339
1,1,32,25,0.5587956309318542,0.0731436237692833
1,1,32,26,0.622824490070343,0.11693678051233292
1,1,32,27,0.5230463147163391,0.11480031907558441
1,1,32,28,0.42845839262008667,0.1667982041835785
1,1,32,29,0.5037149786949158,0.11974850296974182
1,1,32,30,0.6493483781814575,0.060786571353673935
1,1,32,31,0.6000547409057617,0.08914293348789215
1,2,64,0,0.5823545455932617,0.2385067343711853
1,2,64,1,0.5729862451553345,0.16747550666332245
1,2,64,2,0.4610711932182312,0.16094449162483215
1,2,64,3,0.294370174407959,0.16329160332679749
1,2,64,4,0.5249661803245544,0.16944891214370728
1,2,64,5,0.522594153881073,0.12820543348789215
1,2,64,6,0.26909053325653076,0.08898533135652542
1,2,64,7,0.6066084504127502,0.1069723442196846
1,2,64,8,0.6654118895530701,0.11608828604221344
1,2,64,9,0.5432546138763428,0.11894246190786362
1,2,64,10,0.5478729605674744,0.08223346620798111
1,2,64,11,0.4376980662345886,0.14796678721904755
1,2,64,12,0.5152581930160522,0.17710945010185242
1,2,64,13,0.577476978302002,0.24978007376194
1,2,64,14,0.47970378398895264,0.15202245116233826
1,2,64,15,0.5027506351470947,0.19371852278709412
1,2,64,16,0.48786312341690063,0.18400482833385468
1,2,64,17,0.40446436405181885,0.19213446974754333
1,2,64,18,0.5441727638244629,0.19803038239479065
1,2,64,19,0.3313297927379608,0.08976869285106659
1,2,64,20,0.4771226644515991,0.12639856338500977
1,2,64,21,0.5979793071746826,0.1962965428829193
1,2,64,22,0.5967418551445007,0.16657781600952148
1,2,64,23,0.30666622519493103,0.1492663025856018
1,2,64,24,0.5481246113777161,0.1430014967918396
1,2,64,25,0.578063428401947,0.15496717393398285
1,2,64,26,0.5897985696792603,0.23762907087802887
1,2,64,27,0.32052692770957947,0.17290595173835754
1,2,64,28,0.4625251293182373,0.22148765623569489
1,2,64,29,0.5686138868331909,0.25446653366088867
1,2,64,30,0.5388476252555847,0.10867880284786224
1,2,64,31,0.5181753039360046,0.14494934678077698
1,2,64,32,0.5499275326728821,0.1033828854560852
1,2,64,33,0.651589035987854,0.1439698040485382
1,2,64,34,0.5072999000549316,0.18098708987236023
1,2,64,35,0.3022342920303345,0.10362067818641663
1,2,64,36,0.4387889504432678,0.21475569903850555
1,2,64,37,0.4607582986354828,0.15577031672000885
1,2,64,38,0.45110461115837097,0.10212737321853638
1,2,64,39,0.6397333741188049,0.06298375129699707
1,2,64,40,0.5541264414787292,0.14760348200798035
1,2,64,41,0.6122063398361206,0.23324964940547943
1,2,64,42,0.6086798906326294,0.101573146879673
1,2,64,43,0.33185115456581116,0.19628478586673737
1,2,64,44,0.5206567049026489,0.11039889603853226
1,2,64,45,0.715053379535675,0.12939271330833435
1,2,64,46,0.482332706451416,0.10446567088365555
1,2,64,47,0.5827711224555969,0.18235014379024506
1,2,64,48,0.5254930853843689,0.1473592072725296
1,2,64,49,0.46920353174209595,0.14194796979427338
1,2,64,50,0.5324529409408569,0.12583045661449432
1,2,64,51,0.49937310814857483,0.0946722999215126
1,2,64,52,0.32393762469291687,0.09093950688838959
1,2,64,53,0.5556151866912842,0.07806117087602615
1,2,64,54,0.6628710031509399,0.10908036679029465
1,2,64,55,0.38444235920906067,0.12234491854906082
1,2,64,56,0.483210027217865,0.07005049288272858
1,2,64,57,0.37498557567596436,0.15039268136024475
1,2,64,58,0.48658084869384766,0.15766020119190216
1,2,64,59,0.6367958784103394,0.16342931985855103
1,2,64,60,0.5657371878623962,0.1566774696111679
1,2,64,61,0.39864581823349,0.1409364938735962
1,2,64,62,0.6079181432723999,0.24282550811767578
1,2,64,63,0.4424074590206146,0.20267008244991302
1,3,64,0,0.5184623599052429,0.1300714910030365
1,3,64,1,0.6669424772262573,0.200494647026062
1,3,64,2,0.6888834238052368,0.14155900478363037
1,3,64,3,0.6131712794303894,0.10469789057970047
1,3,64,4,0.5524078011512756,0.07459740340709686
1,3,64,5,0.5215197205543518,0.11924240738153458
1,3,64,6,0.5979219675064087,0.11017879843711853
1,3,64,7,0.4785124957561493,0.12355278432369232
1,3,64,8,0.45936182141304016,0.13818231225013733
1,3,64,9,0.6535977125167847,0.15007299184799194
1,3,64,10,0.5982210636138916,0.22209426760673523
1,3,64,11,0.4007243812084198,0.10584044456481934
1,3,64,12,0.395765095949173,0.13370928168296814
1,3,64,13,0.7143937945365906,0.07461754977703094
1,3,64,14,0.6117760539054871,0.16184046864509583
1,3,64,15,0.5892729759216309,0.18017511069774628
1,3,64,16,0.6160829663276672,0.09447328001260757
1,3,64,17,0.5601039528846741,0.163163423538208
1,3,64,18,0.6172758936882019,0.09311027079820633
1,3,64,19,0.35036706924438477,0.1143767386674881
1,3,64,20,0.546298086643219,0.10413623601198196
1,3,64,21,0.4729534983634949,0.0927753672003746
1,3,64,22,0.45283234119415283,0.09710240364074707
1,3,64,23,0.4538986384868622,0.16008210182189941
1,3,64,24,0.5196765065193176,0.1310071349143982
1,3,64,25,0.48871299624443054,0.08789731562137604
1,3,64,26,0.4035964608192444,0.11804700642824173
1,3,64,27,0.6680829524993896,0.10693827271461487
1,3,64,28,0.5608673691749573,0.14512880146503448
1,3,64,29,0.43392202258110046,0.19022397696971893
1,3,64,30,0.3786090016365051,0.12010587751865387
1,3,64,31,0.6279860734939575,0.13397042453289032
1,3,64,32,0.5841080546379089,0.0745391845703125
1,3,64,33,0.5861731767654419,0.05272920802235603
1,3,64,34,0.44284823536872864,0.08775288611650467
1,3,64,35,0.4707542061805725,0.14835689961910248
1,3,64,36,0.5242000222206116,0.0755375474691391
1,3,64,37,0.461731493473053,0.15490470826625824
1,3,64,38,0.4607144594192505,0.0748916044831276
1,3,64,39,0.4976073205471039,0.152397021651268
1,3,64,40,0.5344614386558533,0.12444878369569778
1,3,64,41,0.454994261264801,0.09029544144868851
1,3,64,42,0.5722585320472717,0.10176494717597961
1,3,64,43,0.5423651933670044,0.19924935698509216
1,3,64,44,0.49291911721229553,0.16831853985786438
1,3,64,45,0.40564778447151184,0.11290161311626434
1,3,64,46,0.5308043360710144,0.13365955650806427
1,3,64,47,0.6331362724304199,0.11168301850557327
1,3,64,48,0.6574649810791016,0.08646354079246521
1,3,64,49,0.45233792066574097,0.07165052741765976
1,3,64,50,0.5240398645401001,0.08553917706012726
1,3,64,51,0.525237500667572,0.13580326735973358
1,3,64,52,0.42403262853622437,0.07830354571342468
1,3,64,53,0.47440555691719055,0.09802524000406265
1,3,64,54,0.34307289123535156,0.0689535066485405
1,3,64,55,0.5636866688728333,0.11012003570795059
1,3,64,56,0.4580942690372467,0.14812341332435608
1,3,64,57,0.6382672786712646,0.11353831738233566
1,3,64,58,0.5515337586402893,0.2182929664850235
1,3,64,59,0.26140788197517395,0.0908312126994133
1,3,64,60,0.5892547369003296,0.18619444966316223
1,3,64,61,0.5049038529396057,0.14455895125865936
1,3,64,62,0.4825403094291687,0.12793771922588348
1,3,64,63,0.38247808814048767,0.07026511430740356
1,4,128,0,0.47117313742637634,0.10711036622524261
1,4,128,1,0.4174855649471283,0.26359784603118896
1,4,128,2,0.5429724454879761,0.31395477056503296
1,4,128,3,0.6230366230010986,0.08550502359867096
1,4,128,4,0.5131848454475403,0.11450295150279999
1,4,128,5,0.4452344477176666,0.17399896681308746
1,4,128,6,0.6314533352851868,0.14489436149597168
1,4,128,7,0.6781565546989441,0.09248674660921097
1,4,128,8,0.38073381781578064,0.20286887884140015
1,4,128,9,0.3643563985824585,0.11591298133134842
1,4,128,10,0.4549044370651245,0.2087317258119583
1,4,128,11,0.624138355255127,0.17297756671905518
1,4,128,12,0.35710838437080383,0.21313954889774323
1,4,128,13,0.4652539789676666,0.17559705674648285
1,4,128,14,0.5775220990180969,0.287041574716568
1,4,128,15,0.4702000617980957,0.25451016426086426
1,4,128,16,0.5490147471427917,0.1788981854915619
1,4,128,17,0.6391610503196716,0.18405060470104218
1,4,128,18,0.5332378149032593,0.24035964906215668
1,4,128,19,0.4694697856903076,0.1467343270778656
1,4,128,20,0.5571727156639099,0.16434936225414276
1,4,128,21,0.415314257144928,0.3221192955970764
1,4,128,22,0.6528193950653076,0.08814564347267151
1,4,128,23,0.45558688044548035,0.1567905992269516
1,4,128,24,0.5435553193092346,0.19995760917663574
1,4,128,25,0.7270539402961731,0.12682758271694183
1,4,128,26,0.6450695991516113,0.11085901409387589
1,4,128,27,0.4686983525753021,0.10522287338972092
1,4,128,28,0.6698551774024963,0.08958493173122406
1,4,128,29,0.6166934370994568,0.16202500462532043
1,4,128,30,0.5482444167137146,0.3188573122024536
1,4,128,31,0.5454757213592529,0.15208162367343903
1,4,128,32,0.49140554666519165,0.291650652885437
1,4,128,33,0.4290345013141632,0.16825148463249207
1,4,128,34,0.6078097224235535,0.23199541866779327
1,4,128,35,0.49478477239608765,0.30398011207580566
1,4,128,36,0.6123155951499939,0.2404896318912506
1,4,128,37,0.4400804936885834,0.07204702496528625
1,4,128,38,0.5347840189933777,0.18828566372394562
1,4,128,39,0.3571223318576813,0.08785935491323471
1,4,128,40,0.5436911582946777,0.22952726483345032
1,4,128,41,0.4997333884239197,0.08315020799636841
1,4,128,42,0.5558624267578125,0.11297000199556351
1,4,128,43,0.5666322112083435,0.05664675682783127
1,4,128,44,0.5231202840805054,0.15476514399051666
1,4,128,45,0.479657381772995,0.2489454597234726
1,4,128,46,0.5090400576591492,0.16036581993103027
1,4,128,47,0.6230788826942444,0.1889411062002182
1,4,128,48,0.5144363045692444,0.19969411194324493
1,4,128,49,0.5234073996543884,0.20161370933055878
1,4,128,50,0.5294692516326904,0.2566269338130951
1,4,128,51,0.6557167172431946,0.1427796632051468
1,4,128,52,0.426061749458313,0.24601393938064575
1,4,128,53,0.6553264856338501,0.11577486991882324
1,4,128,54,0.39443323016166687,0.18201790750026703
1,4,128,55,0.5548245310783386,0.28293025493621826
1,4,128,56,0.4645412862300873,0.13911405205726624
1,4,128,57,0.6392803192138672,0.13312886655330658
1,4,128,58,0.5132617950439453,0.2263549566268921
1,4,128,59,0.354809433221817,0.12230262160301208
1,4,128,60,0.6246577501296997,0.1518072932958603
1,4,128,61,0.46727055311203003,0.20903660356998444
1,4,128,62,0.6764916181564331,0.1428598314523697
1,4,128,63,0.7096179723739624,0.11733458936214447
1,4,128,64,0.6441415548324585,0.2012188732624054
1,4,128,65,0.6512047052383423,0.11330180615186691
1,4,128,66,0.40166521072387695,0.13321152329444885
1,4,128,67,0.6376343965530396,0.10068372637033463
1,4,128,68,0.4913334548473358,0.10423029214143753
1,4,128,69,0.47537922859191895,0.35043585300445557
1,4,128,70,0.7371131777763367,0.11844513565301895
1,4,128,71,0.45389288663864136,0.2449793517589569
1,4,128,72,0.616771399974823,0.23423507809638977
1,4,128,73,0.42345836758613586,0.17618517577648163
1,4,128,74,0.578546941280365,0.15278741717338562
1,4,128,75,0.5464126467704773,0.3205077350139618
1,4,128,76,0.5361229181289673,0.09395860135555267
1,4,128,77,0.564361035823822,0.24146611988544464
1,4,128,78,0.47008299827575684,0.2910235822200775
1,4,128,79,0.6061350703239441,0.20373143255710602
1,4,128,80,0.5600350499153137,0.19149161875247955
1,4,128,81,0.6985114812850952,0.1298753023147583
1,4,128,82,0.4813172221183777,0.16519182920455933
1,4,128,83,0.6338273882865906,0.23097151517868042
1,4,128,84,0.6267536878585815,0.12783782184123993
1,4,128,85,0.6784198880195618,0.14196676015853882
1,4,128,86,0.6238719820976257,0.22510597109794617
1,4,128,87,0.4166874885559082,0.1984730362892151
1,4,128,88,0.5622411966323853,0.2512880563735962
1,4,128,89,0.5904587507247925,0.20628954470157623
1,4,128,90,0.4639931917190552,0.20225021243095398
1,4,128,91,0.47665220499038696,0.0811576396226883
1,4,128,92,0.590728759765625,0.11077596992254257
1,4,128,93,0.6147791147232056,0.1990133672952652
1,4,128,94,0.47111275792121887,0.2122676819562912
1,4,128,95,0.6111320853233337,0.1155364140868187
1,4,128,96,0.5430792570114136,0.2121935337781906
1,4,128,97,0.5966818332672119,0.19763222336769104
1,4,128,98,0.556959867477417,0.20100586116313934
1,4,128,99,0.518665075302124,0.30166423320770264
1,4,128,100,0.5951964259147644,0.2550445795059204
1,4,128,101,0.47319677472114563,0.32311394810676575
1,4,128,102,0.5476623773574829,0.09910247474908829
1,4,128,103,0.7208588719367981,0.10580538213253021
1,4,128,104,0.39947253465652466,0.09519977867603302
1,4,128,105,0.6634587049484253,0.07243982702493668
1,4,128,106,0.5843347311019897,0.20110128819942474
1,4,128,107,0.5690287947654724,0.2559507191181183
1,4,128,108,0.6730268597602844,0.13981382548809052
1,4,128,109,0.6136792898178101,0.1998147964477539
1,4,128,110,0.36122846603393555,0.07764861732721329
1,4,128,111,0.44225966930389404,0.30231907963752747
1,4,128,112,0.5843831300735474,0.227486252784729
1,4,128,113,0.4021957516670227,0.27072662115097046
1,4,128,114,0.5483586192131042,0.293091356754303
1,4,128,115,0.5873300433158875,0.23008404672145844
1,4,128,116,0.39864903688430786,0.09877007454633713
1,4,128,117,0.3459395170211792,0.14519667625427246
1,4,128,118,0.628794252872467,0.11698812246322632
1,4,128,119,0.5491786599159241,0.24314971268177032
1,4,128,120,0.3678000271320343,0.25035834312438965
1,4,128,121,0.7056180834770203,0.10737346857786179
1,4,128,122,0.5150457620620728,0.17505605518817902
1,4,128,123,0.5433847308158875,0.19742721319198608
1,4,128,124,0.4809791147708893,0.22201941907405853
1,4,128,125,0.35356926918029785,0.13505345582962036
1,4,128,126,0.40118828415870667,0.06070433557033539
1,4,128,127,0.7004532814025879,0.10817992687225342
1,5,128,0,0.7135900259017944,0.19658517837524414
1,5,128,1,0.8059498071670532,0.10158607363700867
1,5,128,2,0.8381285667419434,0.08570756018161774
1,5,128,3,0.5559738874435425,0.2522393465042114
1,5,128,4,0.5431874394416809,0.1304398626089096
1,5,128,5,0.7288824319839478,0.10273151844739914
1,5,128,6,0.8478310108184814,0.10289644449949265
1,5,128,7,0.7664927840232849,0.164347305893898
1,5,128,8,0.4567292630672455,0.3155425190925598
1,5,128,9,0.576486349105835,0.22406649589538574
1,5,128,10,0.6172378063201904,0.1690964549779892
1,5,128,11,0.7578885555267334,0.20617470145225525
1,5,128,12,0.44814416766166687,0.22601142525672913
1,5,128,13,0.8266088366508484,0.08274605870246887
1,5,128,14,0.7427700757980347,0.23057226836681366
1,5,128,15,0.7624891996383667,0.11675166338682175
1,5,128,16,0.8233041167259216,0.12043026834726334
1,5,128,17,0.6665998697280884,0.0731695145368576
1,5,128,18,0.8248088359832764,0.0994647890329361
1,5,128,19,0.727550745010376,0.1601189374923706
1,5,128,20,0.3788299858570099,0.14321817457675934
1,5,128,21,0.2594701945781708,0.09723154455423355
1,5,128,22,0.7623137831687927,0.14486967027187347
1,5,128,23,0.5310878753662109,0.13719266653060913
1,5,128,24,0.8038222193717957,0.087279312312603
1,5,128,25,0.7064129114151001,0.20105494558811188
1,5,128,26,0.7351146936416626,0.08965075016021729
1,5,128,27,0.7176157236099243,0.12135916948318481
1,5,128,28,0.6560273170471191,0.10588323324918747
1,5,128,29,0.7340189814567566,0.17221318185329437
1,5,128,30,0.7937528491020203,0.13711018860340118
1,5,128,31,0.7874271273612976,0.1116507425904274
1,5,128,32,0.8136402368545532,0.12919732928276062
1,5,128,33,0.6264632344245911,0.27812331914901733
1,5,128,34,0.6799855828285217,0.15110468864440918
1,5,128,35,0.8328242897987366,0.09472242742776871
1,5,128,36,0.6696240305900574,0.1657009720802307
1,5,128,37,0.7607589960098267,0.13026539981365204
1,5,128,38,0.3669179379940033,0.26909807324409485
1,5,128,39,0.31308695673942566,0.24026533961296082
1,5,128,40,0.790276825428009,0.14656613767147064
1,5,128,41,0.5040408372879028,0.15010185539722443
1,5,128,42,0.6699844002723694,0.22960099577903748
1,5,128,43,0.4646509289741516,0.2662465274333954
1,5,128,44,0.5958119034767151,0.24508552253246307
1,5,128,45,0.5414698719978333,0.2651344835758209
1,5,128,46,0.7564439177513123,0.10008924454450607
1,5,128,47,0.7866185903549194,0.0998101755976677
1,5,128,48,0.670661449432373,0.18836677074432373
1,5,128,49,0.826215922832489,0.09492480009794235
1,5,128,50,0.703676164150238,0.2831556499004364
1,5,128,51,0.85892653465271,0.07192385196685791
1,5,128,52,0.6551893353462219,0.09627451747655869
1,5,128,53,0.6744989156723022,0.1744576245546341
1,5,128,54,0.7666441798210144,0.09969732165336609
1,5,128,55,0.7904084324836731,0.12962086498737335
1,5,128,56,0.6646523475646973,0.20494157075881958
1,5,128,57,0.7798959016799927,0.137468159198761
1,5,128,58,0.4629839360713959,0.26530635356903076
1,5,128,59,0.788275957107544,0.0893949344754219
1,5,128,60,0.8186008334159851,0.11038626730442047
1,5,128,61,0.6108148694038391,0.1967732310295105
1,5,128,62,0.8334377408027649,0.08174613118171692
1,5,128,63,0.819786012172699,0.08874433487653732
1,5,128,64,0.7155816555023193,0.15050557255744934
1,5,128,65,0.6481752395629883,0.24087195098400116
1,5,128,66,0.4834004342556,0.30252715945243835
1,5,128,67,0.7475989460945129,0.14746835827827454
1,5,128,68,0.6992198824882507,0.25635555386543274
1,5,128,69,0.783402144908905,0.1159152016043663
1,5,128,70,0.7931946516036987,0.07941168546676636
1,5,128,71,0.6872631907463074,0.09716702252626419
1,5,128,72,0.764809250831604,0.10780198127031326
1,5,128,73,0.5447943210601807,0.20614901185035706
1,5,128,74,0.813658595085144,0.10263077914714813
1,5,128,75,0.8038398027420044,0.08390914648771286
1,5,128,76,0.7278559803962708,0.1465388536453247
1,5,128,77,0.7413057088851929,0.18651512265205383
1,5,128,78,0.3911104202270508,0.184334397315979
1,5,128,79,0.6894477009773254,0.10000284016132355
1,5,128,80,0.6183993220329285,0.1490870863199234
1,5,128,81,0.733772873878479,0.17190051078796387
1,5,128,82,0.6992560029029846,0.15155813097953796
1,5,128,83,0.7911203503608704,0.09287568926811218
1,5,128,84,0.5887200236320496,0.14377669990062714
1,5,128,85,0.7869609594345093,0.14005403220653534
1,5,128,86,0.7125157713890076,0.12748515605926514
1,5,128,87,0.47799864411354065,0.2760482430458069
1,5,128,88,0.6949445009231567,0.20174379646778107
1,5,128,89,0.6773349642753601,0.2548061013221741
1,5,128,90,0.6577430963516235,0.13659170269966125
1,5,128,91,0.716479480266571,0.08926814049482346
1,5,128,92,0.7030750513076782,0.19842880964279175
1,5,128,93,0.8119887113571167,0.11313614249229431
1,5,128,94,0.7118577361106873,0.11624250560998917
1,5,128,95,0.5062762498855591,0.3029845058917999
1,5,128,96,0.7741381525993347,0.11885344982147217
1,5,128,97,0.805670976638794,0.09586060047149658
1,5,128,98,0.5669609904289246,0.2803633213043213
1,5,128,99,0.7424702048301697,0.1834816187620163
1,5,128,100,0.49091771245002747,0.2204292118549347
1,5,128,101,0.4501228630542755,0.2762371003627777
1,5,128,102,0.6875404119491577,0.23894192278385162
1,5,128,103,0.5967788696289062,0.19981041550636292
1,5,128,104,0.8739749789237976,0.07504962384700775
1,5,128,105,0.8115643262863159,0.10413879156112671
1,5,128,106,0.3528762459754944,0.26357701420783997
1,5,128,107,0.7580869793891907,0.0899462103843689
1,5,128,108,0.8051191568374634,0.07924141734838486
1,5,128,109,0.5852134227752686,0.2766339182853699
1,5,128,110,0.45170319080352783,0.15439382195472717
1,5,128,111,0.7662603259086609,0.08850479125976562
1,5,128,112,0.5328994989395142,0.17128083109855652
1,5,128,113,0.6712014675140381,0.16210635006427765
1,5,128,114,0.737583577632904,0.07976076751947403
1,5,128,115,0.7319018840789795,0.1709064245223999
1,5,128,116,0.75541090965271,0.09402969479560852
1,5,128,117,0.5563954710960388,0.17594367265701294
1,5,128,118,0.6343012452125549,0.2648736536502838
1,5,128,119,0.6511315703392029,0.23558245599269867
1,5,128,120,0.7379902005195618,0.15881676971912384
1,5,128,121,0.42808306217193604,0.13382086157798767
1,5,128,122,0.5312166213989258,0.282158225774765
1,5,128,123,0.6137714982032776,0.16879279911518097
1,5,128,124,0.839333176612854,0.09472969174385071
1,5,128,125,0.6267675161361694,0.2660444974899292
1,5,128,126,0.38826072216033936,0.2350919246673584
1,5,128,127,0.7036420106887817,0.25791308283805847
2,0,32,0,0.4704740643501282,0.065226711332798
2,0,32,1,0.43274998664855957,0.05245503783226013
2,0,32,2,0.5312331914901733,0.06670358777046204
2,0,32,3,0.6073395609855652,0.1020282506942749
2,0,32,4,0.44443878531455994,0.08700312674045563
2,0,32,5,0.5742595791816711,0.05647320672869682
2,0,32,6,0.3001255691051483,0.10042998939752579
2,0,32,7,0.3532960116863251,0.06908875703811646
2,0,32,8,0.32716885209083557,0.0822131335735321
2,0,32,9,0.36633720993995667,0.08716201782226562
2,0,32,10,0.53006511926651,0.055492475628852844
2,0,32,11,0.47015416622161865,0.05832093954086304
2,0,32,12,0.45298513770103455,0.026843752712011337
2,0,32,13,0.49204757809638977,0.04920908436179161
2,0,32,14,0.5749989151954651,0.07414580881595612
2,0,32,15,0.3824966549873352,0.044396232813596725
2,0,32,16,0.42504701018333435,0.03410786762833595
2,0,32,17,0.4662598669528961,0.05984821543097496
2,0,32,18,0.47215038537979126,0.0893796980381012
2,0,32,19,0.436859667301178,0.06728838384151459
2,0,32,20,0.6277846693992615,0.05639897286891937
2,0,32,21,0.4922051727771759,0.07445306330919266
2,0,32,22,0.3506070673465729,0.06806311011314392
2,0,32,23,0.5132098197937012,0.06516846269369125
2,0,32,24,0.4634973704814911,0.11958810687065125
2,0,32,25,0.36756059527397156,0.07757295668125153
2,0,32,26,0.5412921905517578,0.07200001925230026
2,0,32,27,0.4008454382419586,0.019299566745758057
2,0,32,28,0.5215006470680237,0.04356556758284569
2,0,32,29,0.5425713062286377,0.09909313917160034
2,0,32,30,0.46522408723831177,0.0596378855407238
2,0,32,31,0.473502516746521,0.09050855040550232
2,1,32,0,0.4568363428115845,0.18965275585651398
2,1,32,1,0.6592175960540771,0.1020146831870079
2,1,32,2,0.5386455059051514,0.21467992663383484
2,1,32,3,0.4360148310661316,0.050794798880815506
2,1,32,4,0.4846856892108917,0.03873535618185997
2,1,32,5,0.5549735426902771,0.13353191316127777
2,1,32,6,0.4519940912723541,0.2221556305885315
2,1,32,7,0.3284568190574646,0.116542287170887
2,1,32,8,0.49101874232292175,0.14557062089443207
2,1,32,9,0.5975403785705566,0.0795149877667427
2,1,32,10,0.4850733280181885,0.14910340309143066
2,1,32,11,0.47050219774246216,0.09499093890190125
2,1,32,12,0.42504793405532837,0.05163944885134697
2,1,32,13,0.5114632844924927,0.13103000819683075
2,1,32,14,0.4993970990180969,0.09492700546979904
2,1,32,15,0.5510616302490234,0.0765823945403099
2,1,32,16,0.6216092109680176,0.14054222404956818
2,1,32,17,0.33565181493759155,0.1545286625623703
2,1,32,18,0.5936148166656494,0.1291055679321289
2,1,32,19,0.6420397758483887,0.18333809077739716
2,1,32,20,0.4854419529438019,0.21052101254463196
2,1,32,21,0.5328869223594666,0.2191723734140396
2,1,32,22,0.4645642340183258,0.11780109256505966
2,1,32,23,0.5262458920478821,0.19397684931755066
2,1,32,24,0.5576725006103516,0.1696358174085617
2,1,32,25,0.48740699887275696,0.05054919049143791
2,1,32,26,0.5009694695472717,0.17155338823795319
2,1,32,27,0.4495374262332916,0.21346338093280792
2,1,32,28,0.4549449384212494,0.09935503453016281
2,1,32,29,0.33940932154655457,0.11895119398832321
2,1,32,30,0.5780459642410278,0.1270352154970169
2,1,32,31,0.34360766410827637,0.14034070074558258
2,2,64,0,0.4113721251487732,0.10404703766107559
2,2,64,1,0.4407747983932495,0.1348375678062439
2,2,64,2,0.47765615582466125,0.1710141897201538
2,2,64,3,0.47014695405960083,0.0719987154006958
2,2,64,4,0.5618734955787659,0.14607638120651245
2,2,64,5,0.430070161819458,0.2226308286190033
2,2,64,6,0.5099029541015625,0.15580818057060242
2,2,64,7,0.6653112769126892,0.14415881037712097
2,2,64,8,0.40123996138572693,0.13424234092235565
2,2,64,9,0.46337491273880005,0.1628200113773346
2,2,64,10,0.5302534699440002,0.18428069353103638
2,2,64,11,0.5648913383483887,0.14137491583824158
2,2,64,12,0.44816288352012634,0.20924778282642365
2,2,64,13,0.38611581921577454,0.05021539330482483
2,2,64,14,0.48612672090530396,0.19958214461803436
2,2,64,15,0.4891190528869629,0.1143743023276329
2,2,64,16,0.5843803882598877,0.13772539794445038
2,2,64,17,0.3882797062397003,0.12091059982776642
2,2,64,18,0.38176095485687256,0.1383972316980362
2,2,64,19,0.38774144649505615,0.16688655316829681
2,2,64,20,0.542238712310791,0.10479222238063812
2,2,64,21,0.3689088821411133,0.12001748383045197
2,2,64,22,0.4927518367767334,0.18365339934825897
2,2,64,23,0.5155535936355591,0.12793585658073425
2,2,64,24,0.6403176784515381,0.12287235260009766
2,2,64,25,0.3684675991535187,0.1424691528081894
2,2,64,26,0.43574538826942444,0.08497830480337143
2,2,64,27,0.5090551376342773,0.13864563405513763
2,2,64,28,0.604252815246582,0.1150798499584198
2,2,64,29,0.48729178309440613,0.07904911786317825
2,2,64,30,0.5126326084136963,0.15230949223041534
2,2,64,31,0.29232820868492126,0.12552127242088318
2,2,64,32,0.565751850605011,0.11351294070482254
2,2,64,33,0.581318199634552,0.19801241159439087
2,2,64,34,0.4973800778388977,0.17877314984798431
2,2,64,35,0.40269410610198975,0.09931360185146332
2,2,64,36,0.5549197196960449,0.18560253083705902
2,2,64,37,0.5069060325622559,0.20663608610630035
2,2,64,38,0.4741157591342926,0.11013651639223099
2,2,64,39,0.4810907542705536,0.08728819340467453
2,2,64,40,0.4247475266456604,0.12814149260520935
2,2,64,41,0.387363076210022,0.18336021900177002
2,2,64,42,0.44797876477241516,0.08944007754325867
2,2,64,43,0.561626672744751,0.11517226696014404
2,2,64,44,0.49404066801071167,0.15057913959026337
2,2,64,45,0.4798496663570404,0.15331541001796722
2,2,64,46,0.6488709449768066,0.16819517314434052
2,2,64,47,0.4560857117176056,0.1091139167547226
2,2,64,48,0.6761038899421692,0.11059212684631348
2,2,64,49,0.44228678941726685,0.110316202044487
2,2,64,50,0.4736206531524658,0.151197150349617
2,2,64,51,0.6310134530067444,0.15960121154785156
2,2,64,52,0.7092910408973694,0.15534217655658722
2,2,64,53,0.38715532422065735,0.12952974438667297
2,2,64,54,0.4477507174015045,0.17152675986289978
2,2,64,55,0.6156161427497864,0.16756156086921692
2,2,64,56,0.4926721453666687,0.17095519602298737
2,2,64,57,0.42657002806663513,0.07912574708461761
2,2,64,58,0.410187304019928,0.1437343806028366
2,2,64,59,0.43348345160484314,0.06395617127418518
2,2,64,60,0.5185970067977905,0.1286538988351822
2,2,64,61,0.47739091515541077,0.14736014604568481
2,2,64,62,0.4052357077598572,0.14191457629203796
2,2,64,63,0.4212374687194824,0.16512492299079895
2,3,64,0,0.501196563243866,0.23159505426883698
2,3,64,1,0.5121797919273376,0.09574437141418457
2,3,64,2,0.5239181518554688,0.07937093824148178
2,3,64,3,0.45062410831451416,0.08308141678571701
2,3,64,4,0.5672248005867004,0.1883615404367447
2,3,64,5,0.4515819251537323,0.13111793994903564
2,3,64,6,0.4244441092014313,0.08232595771551132
2,3,64,7,0.5057386755943298,0.08652902394533157
2,3,64,8,0.4201906621456146,0.14309680461883545
2,3,64,9,0.47383826971054077,0.08934511244297028
2,3,64,10,0.6312034726142883,0.0942816510796547
2,3,64,11,0.47137948870658875,0.11100761592388153
2,3,64,12,0.3266044557094574,0.08675585687160492
2,3,64,13,0.6413841247558594,0.14953307807445526
2,3,64,14,0.547657310962677,0.14722007513046265
2,3,64,15,0.6005549430847168,0.053535424172878265
2,3,64,16,0.5119147896766663,0.06533870846033096
2,3,64,17,0.4688015580177307,0.06422504037618637
2,3,64,18,0.3953878879547119,0.07719770818948746
2,3,64,19,0.35904818773269653,0.06549650430679321
2,3,64,20,0.5717809200286865,0.1798550933599472
2,3,64,21,0.5300112366676331,0.06527277827262878
2,3,64,22,0.47877708077430725,0.15395793318748474
2,3,64,23,0.5025008916854858,0.1142110526561737
2,3,64,24,0.510648250579834,0.07454424351453781
2,3,64,25,0.5280405879020691,0.1375400424003601
2,3,64,26,0.5635871291160583,0.1213630959391594
2,3,64,27,0.5369893908500671,0.08878634124994278
2,3,64,28,0.5049928426742554,0.10727670043706894
2,3,64,29,0.5761948823928833,0.10200171172618866
2,3,64,30,0.4926232695579529,0.1324394941329956
2,3,64,31,0.4106626510620117,0.21379457414150238
2,3,64,32,0.3695968985557556,0.09731408208608627
2,3,64,33,0.36051884293556213,0.08912108093500137
2,3,64,34,0.6169989109039307,0.07764396071434021
2,3,64,35,0.4340932369232178,0.17406772077083588
2,3,64,36,0.4694165885448456,0.1239742562174797
2,3,64,37,0.461610347032547,0.14578869938850403
2,3,64,38,0.5170093178749084,0.17245791852474213
2,3,64,39,0.5911195278167725,0.1749744862318039
2,3,64,40,0.5233525037765503,0.12258903682231903
2,3,64,41,0.4395371079444885,0.07591114938259125
2,3,64,42,0.6713355183601379,0.10363002121448517
2,3,64,43,0.554282009601593,0.14189249277114868
2,3,64,44,0.4316524267196655,0.09427987039089203
2,3,64,45,0.46782970428466797,0.08452717214822769
2,3,64,46,0.38354894518852234,0.06671860814094543
2,3,64,47,0.5923681855201721,0.1451672464609146
2,3,64,48,0.4552280604839325,0.07687688618898392
2,3,64,49,0.43559205532073975,0.08371219038963318
2,3,64,50,0.602665364742279,0.12336502224206924
2,3,64,51,0.2961803376674652,0.17396040260791779
2,3,64,52,0.5192131996154785,0.0739772617816925
2,3,64,53,0.37618350982666016,0.14480306208133698
2,3,64,54,0.4016916751861572,0.07935460656881332
2,3,64,55,0.42163562774658203,0.10463272035121918
2,3,64,56,0.3455781936645508,0.11468882858753204
2,3,64,57,0.5570378303527832,0.20796002447605133
2,3,64,58,0.48937055468559265,0.13491979241371155
2,3,64,59,0.5648244023323059,0.18986551463603973
2,3,64,60,0.42880332469940186,0.1195799931883812
2,3,64,61,0.6397486329078674,0.08359172195196152
2,3,64,62,0.4535278081893921,0.13026005029678345
2,3,64,63,0.42805737257003784,0.12071168422698975
2,4,128,0,0.704919159412384,0.11340328305959702
2,4,128,1,0.7241628766059875,0.10557178407907486
2,4,128,2,0.6325775980949402,0.3332597017288208
2,4,128,3,0.40686124563217163,0.13764120638370514
2,4,128,4,0.6813650131225586,0.1455342024564743
2,4,128,5,0.6160168051719666,0.15147581696510315
2,4,128,6,0.3609992265701294,0.09166979789733887
2,4,128,7,0.7010229825973511,0.17498372495174408
2,4,128,8,0.5629618763923645,0.23028689622879028
2,4,128,9,0.6074205636978149,0.29718324542045593
2,4,128,10,0.3615185022354126,0.08681242167949677
2,4,128,11,0.6924737691879272,0.06505133956670761
2,4,128,12,0.6229377388954163,0.2259528636932373
2,4,128,13,0.6159226298332214,0.11589781939983368
2,4,128,14,0.48204827308654785,0.0841822624206543
2,4,128,15,0.42564672231674194,0.16649292409420013
2,4,128,16,0.615207850933075,0.12114617228507996
2,4,128,17,0.6713528037071228,0.08961762487888336
2,4,128,18,0.6751133799552917,0.13527727127075195
2,4,128,19,0.45823535323143005,0.25587698817253113
2,4,128,20,0.47417154908180237,0.22573763132095337
2,4,128,21,0.5812922120094299,0.16481779515743256
2,4,128,22,0.5608838796615601,0.07026618719100952
2,4,128,23,0.6436312198638916,0.3306228518486023
2,4,128,24,0.6321788430213928,0.21234652400016785
2,4,128,25,0.47705960273742676,0.10916557908058167
2,4,128,26,0.6433519124984741,0.33004307746887207
2,4,128,27,0.6036576628684998,0.2145979255437851
2,4,128,28,0.6186037659645081,0.38275769352912903
2,4,128,29,0.6929335594177246,0.08794315904378891
2,4,128,30,0.5027116537094116,0.09254103899002075
2,4,128,31,0.5204535126686096,0.04445960372686386
2,4,128,32,0.640534520149231,0.34644103050231934
2,4,128,33,0.593411922454834,0.33763861656188965
2,4,128,34,0.49601006507873535,0.1255723387002945
2,4,128,35,0.6410835981369019,0.28441596031188965
2,4,128,36,0.47264787554740906,0.2899812161922455
2,4,128,37,0.6583905816078186,0.18533937633037567
2,4,128,38,0.5625807046890259,0.22958995401859283
2,4,128,39,0.5510694980621338,0.15927958488464355
2,4,128,40,0.49446597695350647,0.22478638589382172
2,4,128,41,0.43158799409866333,0.2784062922000885
2,4,128,42,0.6037485599517822,0.22426950931549072
2,4,128,43,0.5722977519035339,0.08559877425432205
2,4,128,44,0.722018301486969,0.11207393556833267
2,4,128,45,0.581353485584259,0.2654787600040436
2,4,128,46,0.711423397064209,0.10936819761991501
2,4,128,47,0.5933288335800171,0.34332773089408875
2,4,128,48,0.6563712954521179,0.08410900086164474
2,4,128,49,0.6734428405761719,0.1964125633239746
2,4,128,50,0.7124350666999817,0.11993057280778885
2,4,128,51,0.6549957990646362,0.07677984237670898
2,4,128,52,0.47768262028694153,0.2652238607406616
2,4,128,53,0.7177274823188782,0.11562865227460861
2,4,128,54,0.6922902464866638,0.06947102397680283
2,4,128,55,0.3814370930194855,0.12641826272010803
2,4,128,56,0.37534400820732117,0.0664743110537529
2,4,128,57,0.5200403332710266,0.18562395870685577
2,4,128,58,0.47965410351753235,0.06246384233236313
2,4,128,59,0.43024682998657227,0.12187175452709198
2,4,128,60,0.44904625415802,0.030663885176181793
2,4,128,61,0.4089862108230591,0.32364195585250854
2,4,128,62,0.7910786867141724,0.09728381037712097
2,4,128,63,0.7943981885910034,0.0926080122590065
2,4,128,64,0.7342506051063538,0.06511309742927551
2,4,128,65,0.5342292189598083,0.15283899009227753
2,4,128,66,0.2971702516078949,0.12317562848329544
2,4,128,67,0.5524969100952148,0.30558034777641296
2,4,128,68,0.5038254857063293,0.07644899934530258
2,4,128,69,0.7179273962974548,0.11481984704732895
2,4,128,70,0.5904474258422852,0.11647000163793564
2,4,128,71,0.4609912931919098,0.25783953070640564
2,4,128,72,0.6941810250282288,0.08156024664640427
2,4,128,73,0.5527024269104004,0.2429075688123703
2,4,128,74,0.6741144061088562,0.08222027122974396
2,4,128,75,0.4999412000179291,0.11899366974830627
2,4,128,76,0.7070097923278809,0.10138563811779022
2,4,128,77,0.40363919734954834,0.19284914433956146
2,4,128,78,0.5141602158546448,0.20986396074295044
2,4,128,79,0.39459124207496643,0.2830304801464081
2,4,128,80,0.574134886264801,0.17381872236728668
2,4,128,81,0.5843434929847717,0.12968046963214874
2,4,128,82,0.5597941279411316,0.10089248418807983
2,4,128,83,0.3697317838668823,0.3290253281593323
2,4,128,84,0.44830018281936646,0.21001817286014557
2,4,128,85,0.7804147005081177,0.07699491083621979
2,4,128,86,0.4103394150733948,0.2643231451511383
2,4,128,87,0.5830990076065063,0.2275092750787735
2,4,128,88,0.6088023781776428,0.36926886439323425
2,4,128,89,0.6970161199569702,0.07617170363664627
2,4,128,90,0.48724737763404846,0.3015320897102356
2,4,128,91,0.41620394587516785,0.27866312861442566
2,4,128,92,0.5628547668457031,0.21900120377540588
2,4,128,93,0.7200791239738464,0.21791617572307587
2,4,128,94,0.5257893800735474,0.1515769213438034
2,4,128,95,0.5754197835922241,0.06445887684822083
2,4,128,96,0.6060803532600403,0.21232011914253235
2,4,128,97,0.7112860083580017,0.171055406332016
2,4,128,98,0.5239676237106323,0.15978042781352997
2,4,128,99,0.5710798501968384,0.20876061916351318
2,4,128,100,0.4222595989704132,0.08609699457883835
2,4,128,101,0.6666005849838257,0.177658349275589
2,4,128,102,0.29024428129196167,0.10368401557207108
2,4,128,103,0.7319108247756958,0.07507157325744629
2,4,128,104,0.4386349022388458,0.3452455401420593
2,4,128,105,0.5069578886032104,0.08309538662433624
2,4,128,106,0.5869112610816956,0.11259310692548752
2,4,128,107,0.4953117370605469,0.14928796887397766
2,4,128,108,0.6537742614746094,0.08108625560998917
2,4,128,109,0.3858206570148468,0.2767185568809509
2,4,128,110,0.5209242105484009,0.01973850652575493
2,4,128,111,0.44817280769348145,0.25984451174736023
2,4,128,112,0.5591678619384766,0.257233589887619
2,4,128,113,0.49012187123298645,0.22249484062194824
2,4,128,114,0.7250993847846985,0.0958426371216774
2,4,128,115,0.5632719993591309,0.29839590191841125
2,4,128,116,0.43102991580963135,0.2815188765525818
2,4,128,117,0.5129932761192322,0.039875272661447525
2,4,128,118,0.42532676458358765,0.28847482800483704
2,4,128,119,0.41057151556015015,0.3097030818462372
2,4,128,120,0.5109649300575256,0.3266034424304962
2,4,128,121,0.48197880387306213,0.06525859236717224
2,4,128,122,0.5303716659545898,0.18467646837234497
2,4,128,123,0.6514012813568115,0.28573939204216003
2,4,128,124,0.42963239550590515,0.15723341703414917
2,4,128,125,0.7236319780349731,0.11117273569107056
2,4,128,126,0.49449867010116577,0.1750747710466385
2,4,128,127,0.4478214383125305,0.29011496901512146
2,5,128,0,0.8826199769973755,0.091196708381176
2,5,128,1,0.7298940420150757,0.09798885136842728
2,5,128,2,0.8799585700035095,0.051151908934116364
2,5,128,3,0.6874145269393921,0.06287022680044174
2,5,128,4,0.6347092390060425,0.09978124499320984
2,5,128,5,0.837961733341217,0.06551683694124222
2,5,128,6,0.6507611870765686,0.18608340620994568
2,5,128,7,0.8800774812698364,0.10001485794782639
2,5,128,8,0.7642932534217834,0.06336728483438492
2,5,128,9,0.7804549932479858,0.15418948233127594
2,5,128,10,0.17735826969146729,0.07461470365524292
2,5,128,11,0.8507445454597473,0.14098337292671204
2,5,128,12,0.7481812238693237,0.05735138803720474
2,5,128,13,0.7870758771896362,0.09068294614553452
2,5,128,14,0.6518676280975342,0.3198283314704895
2,5,128,15,0.5880011916160583,0.2191089689731598
2,5,128,16,0.7554087042808533,0.0774955004453659
2,5,128,17,0.7300456166267395,0.1568729430437088
2,5,128,18,0.4454925060272217,0.09857799112796783
2,5,128,19,0.832338809967041,0.13128472864627838
2,5,128,20,0.4612783193588257,0.14182406663894653
2,5,128,21,0.7313509583473206,0.12732869386672974
2,5,128,22,0.562942624092102,0.2461075782775879
2,5,128,23,0.7364122271537781,0.20778287947177887
2,5,128,24,0.8541511297225952,0.11253799498081207
2,5,128,25,0.8958445191383362,0.049278341233730316
2,5,128,26,0.7481997609138489,0.24283039569854736
2,5,128,27,0.71242356300354,0.11925873160362244
2,5,128,28,0.8639790415763855,0.06118738278746605
2,5,128,29,0.8367331624031067,0.10066578537225723
2,5,128,30,0.6324535608291626,0.10415803641080856
2,5,128,31,0.6585167646408081,0.18071024119853973
2,5,128,32,0.8550004959106445,0.12036298960447311
2,5,128,33,0.8096987009048462,0.1702703833580017
2,5,128,34,0.7273579239845276,0.07177765667438507
2,5,128,35,0.6763784289360046,0.22747890651226044
2,5,128,36,0.8498366475105286,0.09381400793790817
2,5,128,37,0.8799809813499451,0.07983922213315964
2,5,128,38,0.723990797996521,0.2484000325202942
2,5,128,39,0.9051076173782349,0.09654552489519119
2,5,128,40,0.7926005721092224,0.07959692925214767
2,5,128,41,0.5578763484954834,0.16626039147377014
2,5,128,42,0.6888492107391357,0.17279741168022156
2,5,128,43,0.6277506947517395,0.380907267332077
2,5,128,44,0.8020258545875549,0.09106925874948502
2,5,128,45,0.7428430318832397,0.17319037020206451
2,5,128,46,0.8573055863380432,0.10434839874505997
2,5,128,47,0.8277459740638733,0.050122421234846115
2,5,128,48,0.7740744948387146,0.19535517692565918
2,5,128,49,0.690507709980011,0.1084107905626297
2,5,128,50,0.6600973606109619,0.1442755162715912
2,5,128,51,0.6421520113945007,0.038284800946712494
2,5,128,52,0.818558394908905,0.12297544628381729
2,5,128,53,0.7929851412773132,0.05398869886994362
2,5,128,54,0.8572708368301392,0.08393357694149017
2,5,128,55,0.7138374447822571,0.2225387841463089
2,5,128,56,0.3188202977180481,0.23263907432556152
2,5,128,57,0.7800394892692566,0.09748926013708115
2,5,128,58,0.7519161105155945,0.1963558793067932
2,5,128,59,0.7197195887565613,0.1250394731760025
2,5,128,60,0.8214476704597473,0.05875616893172264
2,5,128,61,0.708432137966156,0.2819713354110718
2,5,128,62,0.8728693127632141,0.05311165377497673
2,5,128,63,0.7798547744750977,0.05497800186276436
2,5,128,64,0.8899748921394348,0.07563706487417221
2,5,128,65,0.7960946559906006,0.15554410219192505
2,5,128,66,0.6838895678520203,0.13024160265922546
2,5,128,67,0.7213624715805054,0.21221788227558136
2,5,128,68,0.6065889596939087,0.062487490475177765
2,5,128,69,0.6066291332244873,0.38826170563697815
2,5,128,70,0.7014313340187073,0.16818562150001526
2,5,128,71,0.41687947511672974,0.3480398654937744
2,5,128,72,0.849725067615509,0.062417153269052505
2,5,128,73,0.3249829411506653,0.2603999078273773
2,5,128,74,0.616126537322998,0.34465309977531433
2,5,128,75,0.5591213703155518,0.1612781435251236
2,5,128,76,0.8566767573356628,0.10792634636163712
2,5,128,77,0.6048311591148376,0.13937704265117645
2,5,128,78,0.7639987468719482,0.06282531470060349
2,5,128,79,0.7323353290557861,0.20369309186935425
2,5,128,80,0.3087117373943329,0.1977282166481018
2,5,128,81,0.8602117896080017,0.06566590070724487
2,5,128,82,0.8533329367637634,0.07369087636470795
2,5,128,83,0.720359206199646,0.052741773426532745
2,5,128,84,0.6945856213569641,0.07513867318630219
2,5,128,85,0.7769935727119446,0.15283843874931335
2,5,128,86,0.7930313944816589,0.06935957074165344
2,5,128,87,0.5886214375495911,0.12489533424377441
2,5,128,88,0.8207889795303345,0.1179322898387909
2,5,128,89,0.886256217956543,0.04746630787849426
2,5,128,90,0.8115141987800598,0.08150691539049149
2,5,128,91,0.3789026439189911,0.3712351620197296
2,5,128,92,0.8025742769241333,0.13488292694091797
2,5,128,93,0.6786542534828186,0.14862801134586334
2,5,128,94,0.8025075793266296,0.13782326877117157
2,5,128,95,0.7747142910957336,0.1669439673423767
2,5,128,96,0.842078685760498,0.09862491488456726
2,5,128,97,0.8515666127204895,0.06456383317708969
2,5,128,98,0.8736881613731384,0.09648068994283676
2,5,128,99,0.871536135673523,0.07401268184185028
2,5,128,100,0.7722465395927429,0.1676795333623886
2,5,128,101,0.615892231464386,0.31095534563064575
2,5,128,102,0.47262418270111084,0.28961485624313354
2,5,128,103,0.7711312174797058,0.11686913669109344
2,5,128,104,0.8466159105300903,0.06821498274803162
2,5,128,105,0.802239716053009,0.19332952797412872
2,5,128,106,0.7433981895446777,0.15181203186511993
2,5,128,107,0.68340665102005,0.0810856968164444
2,5,128,108,0.6007882952690125,0.15159660577774048
2,5,128,109,0.6642490029335022,0.08638720214366913
2,5,128,110,0.8222110867500305,0.11098489165306091
2,5,128,111,0.8437944650650024,0.06912847608327866
2,5,128,112,0.3913719952106476,0.2803184688091278
2,5,128,113,0.8429657816886902,0.13334864377975464
2,5,128,114,0.790869951248169,0.14099907875061035
2,5,128,115,0.7540441751480103,0.11905226111412048
2,5,128,116,0.36281266808509827,0.34742552042007446
2,5,128,117,0.7757083177566528,0.1113419160246849
2,5,128,118,0.475643128156662,0.3267180621623993
2,5,128,119,0.6850208640098572,0.22593222558498383
2,5,128,120,0.8824276328086853,0.047980617731809616
2,5,128,121,0.8328229188919067,0.05819154158234596
2,5,128,122,0.8025118112564087,0.060347337275743484
2,5,128,123,0.7503714561462402,0.13916657865047455
2,5,128,124,0.7581163048744202,0.24405819177627563
2,5,128,125,0.8469638824462891,0.05610983446240425
2,5,128,126,0.8560947775840759,0.05455910414457321
2,5,128,127,0.7204696536064148,0.0729459598660469
3,0,32,0,0.48655253648757935,0.10302466154098511
3,0,32,1,0.6233870983123779,0.14943809807300568
3,0,32,2,0.5050403475761414,0.1567932814359665
3,0,32,3,0.5551124215126038,0.05539802089333534
3,0,32,4,0.4980529248714447,0.16524788737297058
3,0,32,5,0.6266907453536987,0.10400065779685974
3,0,32,6,0.39754801988601685,0.058153316378593445
3,0,32,7,0.5811334252357483,0.059919051826000214
3,0,32,8,0.5362581610679626,0.18785728514194489
3,0,32,9,0.304143488407135,0.13274763524532318
3,0,32,10,0.5057169795036316,0.13161490857601166
3,0,32,11,0.4476322531700134,0.15659703314304352
3,0,32,12,0.6787183284759521,0.10862122476100922
3,0,32,13,0.5638698935508728,0.0946924239397049
3,0,32,14,0.45472171902656555,0.19569987058639526
3,0,32,15,0.3740953207015991,0.0671878531575203
3,0,32,16,0.5023270845413208,0.10987146198749542
3,0,32,17,0.388544499874115,0.08378009498119354
3,0,32,18,0.41352537274360657,0.084672711789608
3,0,32,19,0.3969714343547821,0.10225623100996017
3,0,32,20,0.5045057535171509,0.12385853379964828
3,0,32,21,0.37044641375541687,0.10304781049489975
3,0,32,22,0.3911849856376648,0.15481193363666534
3,0,32,23,0.32111144065856934,0.14858677983283997
3,0,32,24,0.4669255316257477,0.11314144730567932
3,0,32,25,0.6182815432548523,0.1847289651632309
3,0,32,26,0.5235370397567749,0.03420204296708107
3,0,32,27,0.34299296140670776,0.07423052936792374
3,0,32,28,0.3810020387172699,0.05649060010910034
3,0,32,29,0.4060421288013458,0.03485242277383804
3,0,32,30,0.559311032295227,0.10697459429502487
3,0,32,31,0.4215129017829895,0.14426596462726593
3,1,32,0,0.35738813877105713,0.07190511375665665
3,1,32,1,0.49448198080062866,0.07434474676847458
3,1,32,2,0.38127583265304565,0.07211051881313324
3,1,32,3,0.4306505620479584,0.12321950495243073
3,1,32,4,0.5947167277336121,0.1331087201833725
3,1,32,5,0.4823733866214752,0.05792443826794624
3,1,32,6,0.501567006111145,0.14021433889865875
3,1,32,7,0.4530191719532013,0.059374790638685226
3,1,32,8,0.5882893204689026,0.0818219929933548
3,1,32,9,0.6716987490653992,0.058229316025972366
3,1,32,10,0.5728863477706909,0.03293052315711975
3,1,32,11,0.5066320896148682,0.03756027668714523
3,1,32,12,0.5937914848327637,0.10194840282201767
3,1,32,13,0.3971221148967743,0.017753100022673607
3,1,32,14,0.39907461404800415,0.1287444680929184
3,1,32,15,0.45764684677124023,0.08576319366693497
3,1,32,16,0.43036073446273804,0.042517662048339844
3,1,32,17,0.6218078136444092,0.08545175939798355
3,1,32,18,0.6093405485153198,0.030907178297638893
3,1,32,19,0.6134824156761169,0.08162251114845276
3,1,32,20,0.41374483704566956,0.12068679183721542
3,1,32,21,0.45353150367736816,0.07250523567199707
3,1,32,22,0.515460729598999,0.13041828572750092
3,1,32,23,0.5025822520256042,0.12727221846580505
3,1,32,24,0.6364669799804688,0.0556279718875885
3,1,32,25,0.5491843819618225,0.1274484544992447
3,1,32,26,0.41298508644104004,0.08724397420883179
3,1,32,27,0.6011171936988831,0.0740918219089508
3,1,32,28,0.5827831029891968,0.07707837969064713
3,1,32,29,0.5518044233322144,0.08195646852254868
3,1,32,30,0.4915446639060974,0.1009378433227539
3,1,32,31,0.4271875023841858,0.034599419683218
3,2,64,0,0.5707391500473022,0.08062555640935898
3,2,64,1,0.4396613538265228,0.21671633422374725
3,2,64,2,0.3586413860321045,0.13370585441589355
3,2,64,3,0.4919639229774475,0.18130813539028168
3,2,64,4,0.554012656211853,0.08076821267604828
3,2,64,5,0.5408400297164917,0.1860802322626114
3,2,64,6,0.6275231242179871,0.1928769201040268
3,2,64,7,0.5807691812515259,0.11429722607135773
3,2,64,8,0.431069940328598,0.2544477581977844
3,2,64,9,0.6442076563835144,0.2327011078596115
3,2,64,10,0.5419168472290039,0.08659088611602783
3,2,64,11,0.5014359951019287,0.16006235778331757
3,2,64,12,0.3517640233039856,0.25454220175743103
3,2,64,13,0.40184053778648376,0.1642652302980423
3,2,64,14,0.6302235126495361,0.1075136587023735
3,2,64,15,0.5803525447845459,0.18894603848457336
3,2,64,16,0.3097585439682007,0.14152121543884277
3,2,64,17,0.6388593316078186,0.18918754160404205
3,2,64,18,0.5886643528938293,0.1514381617307663
3,2,64,19,0.5007798671722412,0.30856212973594666
3,2,64,20,0.328872948884964,0.16026368737220764
3,2,64,21,0.5629174113273621,0.2936847507953644
3,2,64,22,0.28144538402557373,0.09413503110408783
3,2,64,23,0.5237622261047363,0.27170971035957336
3,2,64,24,0.3953171968460083,0.17750395834445953
3,2,64,25,0.335482656955719,0.13140100240707397
3,2,64,26,0.37740862369537354,0.19835086166858673
3,2,64,27,0.563316285610199,0.23465101420879364
3,2,64,28,0.49628886580467224,0.1411580890417099
3,2,64,29,0.4815311133861542,0.11582667380571365
3,2,64,30,0.6514228582382202,0.10779142379760742
3,2,64,31,0.53848797082901,0.2327570617198944
3,2,64,32,0.5389390587806702,0.2283138930797577
3,2,64,33,0.39872226119041443,0.17577265202999115
3,2,64,34,0.5883691906929016,0.24633322656154633
3,2,64,35,0.7542356848716736,0.08404355496168137
3,2,64,36,0.49519774317741394,0.1685994565486908
3,2,64,37,0.3640233278274536,0.12059728056192398
3,2,64,38,0.43269672989845276,0.21841566264629364
3,2,64,39,0.6220208406448364,0.11372092366218567
3,2,64,40,0.7317094206809998,0.08804687112569809
3,2,64,41,0.5210886001586914,0.284547358751297
3,2,64,42,0.6110473275184631,0.1936679631471634
3,2,64,43,0.5946269035339355,0.3026384115219116
3,2,64,44,0.4367636740207672,0.19545508921146393
3,2,64,45,0.5666655898094177,0.18469327688217163
3,2,64,46,0.6348242163658142,0.2305375337600708
3,2,64,47,0.5065013766288757,0.15472078323364258
3,2,64,48,0.3489076495170593,0.08675209432840347
3,2,64,49,0.5324591994285583,0.1253156214952469
3,2,64,50,0.416560560464859,0.17622767388820648
3,2,64,51,0.6331936120986938,0.1533244252204895
3,2,64,52,0.5833864808082581,0.1415291577577591
3,2,64,53,0.5286160111427307,0.2770611047744751
3,2,64,54,0.5292763113975525,0.20859114825725555
3,2,64,55,0.5162573456764221,0.30904707312583923
3,2,64,56,0.399919718503952,0.18503472208976746
3,2,64,57,0.39104098081588745,0.18163712322711945
3,2,64,58,0.5626851320266724,0.14094527065753937
3,2,64,59,0.7249373197555542,0.14766475558280945
3,2,64,60,0.6087883710861206,0.10019440203905106
3,2,64,61,0.4861130118370056,0.1976276934146881
3,2,64,62,0.4687625467777252,0.15978795289993286
3,2,64,63,0.6377378106117249,0.20365244150161743
3,3,64,0,0.5374424457550049,0.07845517992973328
3,3,64,1,0.3896794617176056,0.19908414781093597
3,3,64,2,0.37386274337768555,0.1561828851699829
3,3,64,3,0.6727980375289917,0.1375986635684967
3,3,64,4,0.521354615688324,0.07235492020845413
3,3,64,5,0.41510334610939026,0.2481023371219635
3,3,64,6,0.28325870633125305,0.11972763389348984
3,3,64,7,0.46644434332847595,0.14394506812095642
3,3,64,8,0.44016844034194946,0.11525749415159225
3,3,64,9,0.4715958833694458,0.22311265766620636
3,3,64,10,0.5707788467407227,0.08315153419971466
3,3,64,11,0.7269201874732971,0.10984717309474945
3,3,64,12,0.44620466232299805,0.15143319964408875
3,3,64,13,0.3925677537918091,0.08393073081970215
3,3,64,14,0.3748477101325989,0.18969912827014923
3,3,64,15,0.40056857466697693,0.26987430453300476
3,3,64,16,0.3521904945373535,0.23934446275234222
3,3,64,17,0.5949180722236633,0.15544037520885468
3,3,64,18,0.3549799621105194,0.08311477303504944
3,3,64,19,0.3753894567489624,0.2608177661895752
3,3,64,20,0.5064845681190491,0.07356180250644684
3,3,64,21,0.6062479019165039,0.2929976284503937
3,3,64,22,0.4118511974811554,0.32143890857696533
3,3,64,23,0.4284270703792572,0.2044207602739334
3,3,64,24,0.5989878177642822,0.1392635554075241
3,3,64,25,0.5641795992851257,0.2572341859340668
3,3,64,26,0.3898162841796875,0.15795330703258514
3,3,64,27,0.43730610609054565,0.3083451986312866
3,3,64,28,0.39899617433547974,0.09946209192276001
3,3,64,29,0.4443250596523285,0.2056155949831009
3,3,64,30,0.4985659718513489,0.1721474975347519
3,3,64,31,0.47372543811798096,0.0857786014676094
3,3,64,32,0.5000898241996765,0.0680030956864357
3,3,64,33,0.6038146615028381,0.2756924033164978
3,3,64,34,0.6615353226661682,0.1862545609474182
3,3,64,35,0.5908356308937073,0.11432480067014694
3,3,64,36,0.6333009600639343,0.2347097545862198
3,3,64,37,0.4191230237483978,0.23203282058238983
3,3,64,38,0.6463159918785095,0.08727006614208221
3,3,64,39,0.37670066952705383,0.2989254891872406
3,3,64,40,0.5420948266983032,0.08753465861082077
3,3,64,41,0.4080139994621277,0.08881612122058868
3,3,64,42,0.4119459390640259,0.0859806090593338
3,3,64,43,0.5691049695014954,0.07638565450906754
3,3,64,44,0.2507329285144806,0.12480451166629791
3,3,64,45,0.6302008032798767,0.15561343729496002
3,3,64,46,0.6325945854187012,0.25842851400375366
3,3,64,47,0.48586881160736084,0.1952381134033203
3,3,64,48,0.5436829328536987,0.08208714425563812
3,3,64,49,0.5904167294502258,0.2658003866672516
3,3,64,50,0.6326138377189636,0.2497921735048294
3,3,64,51,0.3542254865169525,0.22942298650741577
3,3,64,52,0.36663827300071716,0.20727379620075226
3,3,64,53,0.5325310230255127,0.15192395448684692
3,3,64,54,0.40825939178466797,0.1370013803243637
3,3,64,55,0.5846708416938782,0.3152197301387787
3,3,64,56,0.36304986476898193,0.10048413276672363
3,3,64,57,0.5821664929389954,0.215861976146698
3,3,64,58,0.37863287329673767,0.21269243955612183
3,3,64,59,0.3844154477119446,0.2810298800468445
3,3,64,60,0.4118642807006836,0.15327619016170502
3,3,64,61,0.48395195603370667,0.18991249799728394
3,3,64,62,0.5049164891242981,0.1706155240535736
3,3,64,63,0.31813234090805054,0.18101511895656586
3,4,128,0,0.5643003582954407,0.07410286366939545
3,4,128,1,0.7019868493080139,0.13436368107795715
3,4,128,2,0.5049499869346619,0.08447951823472977
3,4,128,3,0.4020300805568695,0.28175249695777893
3,4,128,4,0.36172476410865784,0.3170177638530731
3,4,128,5,0.3673422336578369,0.14602725207805634
3,4,128,6,0.6512476205825806,0.25340744853019714
3,4,128,7,0.48840856552124023,0.3063119351863861
3,4,128,8,0.4072273373603821,0.1077956110239029
3,4,128,9,0.6187654733657837,0.24082830548286438
3,4,128,10,0.47425296902656555,0.14010700583457947
3,4,128,11,0.5343278050422668,0.17369617521762848
3,4,128,12,0.7710817456245422,0.1184311956167221
3,4,128,13,0.36231595277786255,0.32268527150154114
3,4,128,14,0.6758866906166077,0.20403146743774414
3,4,128,15,0.7098425030708313,0.15759782493114471
3,4,128,16,0.6572643518447876,0.1807062178850174
3,4,128,17,0.6713765263557434,0.14695365726947784
3,4,128,18,0.5667042136192322,0.15999875962734222
3,4,128,19,0.45021483302116394,0.1585637778043747
3,4,128,20,0.7457106113433838,0.1229720413684845
3,4,128,21,0.2721168100833893,0.18396669626235962
3,4,128,22,0.6185364723205566,0.30274567008018494
3,4,128,23,0.6316444277763367,0.11362447589635849
3,4,128,24,0.6808031797409058,0.16095039248466492
3,4,128,25,0.38527724146842957,0.2178976982831955
3,4,128,26,0.5140560269355774,0.19777339696884155
3,4,128,27,0.403424471616745,0.1798676699399948
3,4,128,28,0.5283240079879761,0.2230921983718872
3,4,128,29,0.5791434049606323,0.10507293790578842
3,4,128,30,0.488341361284256,0.20975030958652496
3,4,128,31,0.5603244304656982,0.04689225181937218
3,4,128,32,0.3546261191368103,0.19677121937274933
3,4,128,33,0.5489943027496338,0.25530746579170227
3,4,128,34,0.5781110525131226,0.13243220746517181
3,4,128,35,0.5828762054443359,0.2454407960176468
3,4,128,36,0.613763153553009,0.26751700043678284
3,4,128,37,0.5728772878646851,0.05565270408987999
3,4,128,38,0.6504489779472351,0.0997932180762291
3,4,128,39,0.48359501361846924,0.24779550731182098
3,4,128,40,0.667249321937561,0.22966107726097107
3,4,128,41,0.5281168818473816,0.05817866325378418
3,4,128,42,0.49668821692466736,0.04665311798453331
3,4,128,43,0.6763588190078735,0.2838234305381775
3,4,128,44,0.40968653559684753,0.30169177055358887
3,4,128,45,0.5095650553703308,0.22116748988628387
3,4,128,46,0.6650568842887878,0.28514593839645386
3,4,128,47,0.4537680149078369,0.12385078519582748
3,4,128,48,0.597146213054657,0.23996679484844208
3,4,128,49,0.3930303752422333,0.2680431008338928
3,4,128,50,0.3020876348018646,0.0835074856877327
3,4,128,51,0.7912241220474243,0.06888607144355774
3,4,128,52,0.6617042422294617,0.20914043486118317
3,4,128,53,0.5841419696807861,0.08573702722787857
3,4,128,54,0.6613575220108032,0.20449408888816833
3,4,128,55,0.781225323677063,0.0737609937787056
3,4,128,56,0.6154730916023254,0.2661881148815155
3,4,128,57,0.6360384225845337,0.08147040009498596
3,4,128,58,0.2529725730419159,0.12805293500423431
3,4,128,59,0.5553662180900574,0.19174040853977203
3,4,128,60,0.6305979490280151,0.14945244789123535
3,4,128,61,0.2694838345050812,0.15038229525089264
3,4,128,62,0.7060453295707703,0.2960430085659027
3,4,128,63,0.3866814076900482,0.3017817437648773
3,4,128,64,0.32689279317855835,0.28899580240249634
3,4,128,65,0.6352641582489014,0.26945483684539795
3,4,128,66,0.6090558171272278,0.26443400979042053
3,4,128,67,0.6659802794456482,0.31389665603637695
3,4,128,68,0.43625736236572266,0.11147838085889816
3,4,128,69,0.4874751567840576,0.1309339553117752
3,4,128,70,0.36738795042037964,0.07866501808166504
3,4,128,71,0.7138473391532898,0.27846768498420715
3,4,128,72,0.42788073420524597,0.16937245428562164
3,4,128,73,0.4492602050304413,0.23090361058712006
3,4,128,74,0.4340699017047882,0.33424001932144165
3,4,128,75,0.583610475063324,0.2593473196029663
3,4,128,76,0.601843535900116,0.046521931886672974
3,4,128,77,0.4706401228904724,0.2112921178340912
3,4,128,78,0.5573337078094482,0.06857120990753174
3,4,128,79,0.5665200352668762,0.14232571423053741
3,4,128,80,0.5112183690071106,0.16877348721027374
3,4,128,81,0.39587298035621643,0.17319552600383759
3,4,128,82,0.5515050888061523,0.1753746122121811
3,4,128,83,0.5547858476638794,0.15996167063713074
3,4,128,84,0.6666993498802185,0.29934126138687134
3,4,128,85,0.3809433579444885,0.27578023076057434
3,4,128,86,0.7061908841133118,0.25269100069999695
3,4,128,87,0.4226573705673218,0.31269118189811707
3,4,128,88,0.6940641403198242,0.2755337059497833
3,4,128,89,0.5926699638366699,0.19269254803657532
3,4,128,90,0.3519148826599121,0.2380654215812683
3,4,128,91,0.40879133343696594,0.12944915890693665
3,4,128,92,0.7026423811912537,0.30379846692085266
3,4,128,93,0.6503771543502808,0.31894394755363464
3,4,128,94,0.3031498193740845,0.14986297488212585
3,4,128,95,0.552507221698761,0.16594943404197693
3,4,128,96,0.6385937929153442,0.13617117702960968
3,4,128,97,0.4881523847579956,0.056218456476926804
3,4,128,98,0.3738930821418762,0.30427420139312744
3,4,128,99,0.5717494487762451,0.11158422380685806
3,4,128,100,0.5821487903594971,0.16812774538993835
3,4,128,101,0.7331943511962891,0.092853844165802
3,4,128,102,0.6008210778236389,0.30829522013664246
3,4,128,103,0.5812695622444153,0.2298428863286972
3,4,128,104,0.5638991594314575,0.1902875155210495
3,4,128,105,0.48001524806022644,0.1390608847141266
3,4,128,106,0.36438024044036865,0.17946957051753998
3,4,128,107,0.6792453527450562,0.30671244859695435
3,4,128,108,0.41224539279937744,0.2549567222595215
3,4,128,109,0.684285044670105,0.17180781066417694
3,4,128,110,0.6347087621688843,0.1695035994052887
3,4,128,111,0.6098949313163757,0.09679681062698364
3,4,128,112,0.4215373396873474,0.051783494651317596
3,4,128,113,0.44099071621894836,0.14657491445541382
3,4,128,114,0.644584059715271,0.10465835779905319
3,4,128,115,0.3050788342952728,0.09332496672868729
3,4,128,116,0.4584781527519226,0.2055656909942627
3,4,128,117,0.43058693408966064,0.2001960575580597
3,4,128,118,0.5102324485778809,0.18127447366714478
3,4,128,119,0.4219387471675873,0.1719791442155838
3,4,128,120,0.5892835259437561,0.23257297277450562
3,4,128,121,0.346813440322876,0.09794168174266815
3,4,128,122,0.6757630705833435,0.21263711154460907
3,4,128,123,0.487663596868515,0.0978878065943718
3,4,128,124,0.5421233773231506,0.23454834520816803
3,4,128,125,0.6185391545295715,0.24125990271568298
3,4,128,126,0.7209615111351013,0.11067284643650055
3,4,128,127,0.6379623413085938,0.08517196029424667
3,5,128,0,0.5465573072433472,0.12079519033432007
3,5,128,1,0.7605748772621155,0.09841174632310867
3,5,128,2,0.4867149889469147,0.18368740379810333
3,5,128,3,0.8416794538497925,0.0885501280426979
3,5,128,4,0.5958994030952454,0.1598319709300995
3,5,128,5,0.34927621483802795,0.3132081627845764
3,5,128,6,0.8257364630699158,0.13093994557857513
3,5,128,7,0.8410443067550659,0.10832822322845459
3,5,128,8,0.43226075172424316,0.0973382368683815
3,5,128,9,0.6972817778587341,0.3195352554321289
3,5,128,10,0.7875492572784424,0.21176263689994812
3,5,128,11,0.4874458611011505,0.28230732679367065
3,5,128,12,0.7994832396507263,0.11390991508960724
3,5,128,13,0.4922490417957306,0.2320483922958374
3,5,128,14,0.7118293642997742,0.2715287208557129
3,5,128,15,0.8548998832702637,0.1301223784685135
3,5,128,16,0.8655418157577515,0.10460130870342255
3,5,128,17,0.5908770561218262,0.1260296255350113
3,5,128,18,0.5350844860076904,0.17336077988147736
3,5,128,19,0.8745962977409363,0.09120632708072662
3,5,128,20,0.2955305278301239,0.23775829374790192
3,5,128,21,0.6449827551841736,0.33234527707099915
3,5,128,22,0.8402309417724609,0.1238875687122345
3,5,128,23,0.7335116267204285,0.25122424960136414
3,5,128,24,0.7774013876914978,0.21732661128044128
3,5,128,25,0.38499894738197327,0.3094552457332611
3,5,128,26,0.8543248176574707,0.09203816205263138
3,5,128,27,0.7550565004348755,0.22521495819091797
3,5,128,28,0.6282854676246643,0.11410670727491379
3,5,128,29,0.48444560170173645,0.20587405562400818
3,5,128,30,0.6919534206390381,0.3255038857460022
3,5,128,31,0.7561331987380981,0.24096651375293732
3,5,128,32,0.6705901026725769,0.15408234298229218
3,5,128,33,0.4973476827144623,0.18465934693813324
3,5,128,34,0.784287691116333,0.18532611429691315
3,5,128,35,0.5882912278175354,0.19649848341941833
3,5,128,36,0.8610156774520874,0.13634119927883148
3,5,128,37,0.6983402967453003,0.296694815158844
3,5,128,38,0.8538109064102173,0.13471634685993195
3,5,128,39,0.6931373476982117,0.18428227305412292
3,5,128,40,0.7811974883079529,0.23081940412521362
3,5,128,41,0.8696990609169006,0.09764306247234344
3,5,128,42,0.6452481746673584,0.10041491687297821
3,5,128,43,0.6090112328529358,0.22561237215995789
3,5,128,44,0.6380034685134888,0.3480910062789917
3,5,128,45,0.581689715385437,0.2150418609380722
3,5,128,46,0.8477364182472229,0.16104142367839813
3,5,128,47,0.7427013516426086,0.2466559112071991
3,5,128,48,0.7991406321525574,0.18575827777385712
3,5,128,49,0.7578327059745789,0.12617641687393188
3,5,128,50,0.7371986508369446,0.12686878442764282
3,5,128,51,0.8040854930877686,0.18082518875598907
3,5,128,52,0.8064363598823547,0.13216564059257507
3,5,128,53,0.5818423628807068,0.08391977846622467
3,5,128,54,0.8091911673545837,0.14622513949871063
3,5,128,55,0.8375986814498901,0.14275269210338593
3,5,128,56,0.8222695589065552,0.11757997423410416
3,5,128,57,0.4646639823913574,0.304658442735672
3,5,128,58,0.5932146310806274,0.0920494943857193
3,5,128,59,0.8621370792388916,0.12489157170057297
3,5,128,60,0.8648119568824768,0.09716904908418655
3,5,128,61,0.6058387160301208,0.05669809505343437
3,5,128,62,0.8463037014007568,0.1414794623851776
3,5,128,63,0.5450775027275085,0.1625751107931137
3,5,128,64,0.8202491998672485,0.12255069613456726
3,5,128,65,0.8334315419197083,0.1399814784526825
3,5,128,66,0.7828564643859863,0.16063192486763
3,5,128,67,0.858924150466919,0.14365676045417786
3,5,128,68,0.8125857710838318,0.10958252847194672
3,5,128,69,0.7449840307235718,0.24123357236385345
3,5,128,70,0.5211178660392761,0.18428395688533783
3,5,128,71,0.7997948527336121,0.21277578175067902
3,5,128,72,0.7814301252365112,0.15940038859844208
3,5,128,73,0.6525344252586365,0.27577346563339233
3,5,128,74,0.8243409395217896,0.07493140548467636
3,5,128,75,0.38729166984558105,0.3495485186576843
3,5,128,76,0.6955171823501587,0.2435510903596878
3,5,128,77,0.7900775671005249,0.16530948877334595
3,5,128,78,0.375464528799057,0.19138386845588684
3,5,128,79,0.7464009523391724,0.1968991607427597
3,5,128,80,0.8635895848274231,0.11871159821748734
3,5,128,81,0.5315487384796143,0.16919715702533722
3,5,128,82,0.6169941425323486,0.1638532131910324
3,5,128,83,0.39441749453544617,0.3803386390209198
3,5,128,84,0.8373504281044006,0.15801793336868286
3,5,128,85,0.8564988374710083,0.09715239703655243
3,5,128,86,0.773581326007843,0.22025565803050995
3,5,128,87,0.7520375847816467,0.10043204575777054
3,5,128,88,0.790696918964386,0.22046394646167755
3,5,128,89,0.8287927508354187,0.09983357787132263
3,5,128,90,0.7004247307777405,0.11782969534397125
3,5,128,91,0.5927412509918213,0.16402766108512878
3,5,128,92,0.8379641175270081,0.10812243819236755
3,5,128,93,0.8508425951004028,0.128616064786911
3,5,128,94,0.5260388851165771,0.16134969890117645
3,5,128,95,0.73304283618927,0.1777813881635666
3,5,128,96,0.8419169783592224,0.12942981719970703
3,5,128,97,0.8382337689399719,0.14632068574428558
3,5,128,98,0.6231071949005127,0.11500464379787445
3,5,128,99,0.8029541373252869,0.1875835806131363
3,5,128,100,0.43105369806289673,0.31588414311408997
3,5,128,101,0.8310572504997253,0.09245587885379791
3,5,128,102,0.6842117309570312,0.32086899876594543
3,5,128,103,0.4599965512752533,0.064823679625988
3,5,128,104,0.5285748243331909,0.13708676397800446
3,5,128,105,0.36503058671951294,0.1327158361673355
3,5,128,106,0.861538290977478,0.1086762547492981
3,5,128,107,0.7624071836471558,0.10384339094161987
3,5,128,108,0.8177284002304077,0.14922010898590088
3,5,128,109,0.8262271285057068,0.13543029129505157
3,5,128,110,0.865543782711029,0.10414198786020279
3,5,128,111,0.7466955780982971,0.10280989110469818
3,5,128,112,0.7538947463035583,0.22427746653556824
3,5,128,113,0.8244673609733582,0.1292261928319931
3,5,128,114,0.7967693209648132,0.08956052362918854
3,5,128,115,0.7103196382522583,0.19346828758716583
3,5,128,116,0.3745470643043518,0.3576980233192444
3,5,128,117,0.8536592721939087,0.10796047747135162
3,5,128,118,0.5620116591453552,0.1140548512339592
3,5,128,119,0.6501677632331848,0.23622477054595947
3,5,128,120,0.8410922884941101,0.13916364312171936
3,5,128,121,0.7549536228179932,0.14396224915981293
3,5,128,122,0.7934290766716003,0.10709628462791443
3,5,128,123,0.7278671264648438,0.2480035126209259
3,5,128,124,0.8736221790313721,0.10313946008682251
3,5,128,125,0.7115103602409363,0.28918367624282837
3,5,128,126,0.32122358679771423,0.33292266726493835
3,5,128,127,0.7749064564704895,0.18488837778568268
4,0,32,0,0.5336703658103943,0.09929201751947403
4,0,32,1,0.46761372685432434,0.08616611361503601
4,0,32,2,0.547005295753479,0.07824524492025375
4,0,32,3,0.342622309923172,0.12973031401634216
4,0,32,4,0.28862422704696655,0.09884759783744812
4,0,32,5,0.3165874481201172,0.10205313563346863
4,0,32,6,0.46100813150405884,0.10788853466510773
4,0,32,7,0.5309768915176392,0.20478416979312897
4,0,32,8,0.5643375515937805,0.04033372178673744
4,0,32,9,0.6112800240516663,0.04976855218410492
4,0,32,10,0.42692625522613525,0.05268659442663193
4,0,32,11,0.6008263230323792,0.06609638035297394
4,0,32,12,0.6018874645233154,0.10789737850427628
4,0,32,13,0.4975351095199585,0.08773242682218552
4,0,32,14,0.4711626470088959,0.10647346079349518
4,0,32,15,0.38926976919174194,0.131464883685112
4,0,32,16,0.4112774431705475,0.07549556344747543
4,0,32,17,0.4802950918674469,0.08381400257349014
4,0,32,18,0.38933002948760986,0.15818555653095245
4,0,32,19,0.33321627974510193,0.10502874851226807
4,0,32,20,0.4300116002559662,0.09353917837142944
4,0,32,21,0.49781668186187744,0.16057352721691132
4,0,32,22,0.3849901258945465,0.10215394198894501
4,0,32,23,0.5506536364555359,0.0840977132320404
4,0,32,24,0.6099522113800049,0.1011139303445816
4,0,32,25,0.5886845588684082,0.13319271802902222
4,0,32,26,0.42456522583961487,0.135161355137825
4,0,32,27,0.3996550440788269,0.08377048373222351
4,0,32,28,0.5664038062095642,0.15345324575901031
4,0,32,29,0.47157061100006104,0.08078458905220032
4,0,32,30,0.2844691574573517,0.12555451691150665
4,0,32,31,0.40988418459892273,0.1108502745628357
4,1,32,0,0.4399958848953247,0.10579188913106918
4,1,32,1,0.5183675289154053,0.07637222111225128
4,1,32,2,0.4880819022655487,0.14026229083538055
4,1,32,3,0.48485055565834045,0.0751599669456482
4,1,32,4,0.5971891283988953,0.1864507496356964
4,1,32,5,0.30398857593536377,0.09413599222898483
4,1,32,6,0.6075921058654785,0.06612997502088547
4,1,32,7,0.5766440033912659,0.13650628924369812
4,1,32,8,0.6373118162155151,0.03803173452615738
4,1,32,9,0.4668920934200287,0.08041492104530334
4,1,32,10,0.48580652475357056,0.10452024638652802
4,1,32,11,0.6727660298347473,0.15139658749103546
4,1,32,12,0.37902528047561646,0.08931256085634232
4,1,32,13,0.5732294917106628,0.14029386639595032
4,1,32,14,0.4841780662536621,0.09567839652299881
4,1,32,15,0.7141721248626709,0.08882900327444077
4,1,32,16,0.507324755191803,0.04995623603463173
4,1,32,17,0.43226322531700134,0.11390279978513718
4,1,32,18,0.44096192717552185,0.16272400319576263
4,1,32,19,0.43296343088150024,0.1807669699192047
4,1,32,20,0.7182152271270752,0.07462586462497711
4,1,32,21,0.6101652979850769,0.06208972632884979
4,1,32,22,0.359306663274765,0.07038772106170654
4,1,32,23,0.5790150761604309,0.09691950678825378
4,1,32,24,0.40064355731010437,0.07638677954673767
4,1,32,25,0.5429054498672485,0.08456013351678848
4,1,32,26,0.41714534163475037,0.07851441949605942
4,1,32,27,0.5623389482498169,0.07709895074367523
4,1,32,28,0.47196120023727417,0.08533332496881485
4,1,32,29,0.5818604826927185,0.08939635008573532
4,1,32,30,0.3878789246082306,0.05098559334874153
4,1,32,31,0.6122726798057556,0.0847625732421875
4,2,64,0,0.5442373752593994,0.2031371295452118
4,2,64,1,0.453125,0.1940748393535614
4,2,64,2,0.4973449110984802,0.2180076390504837
4,2,64,3,0.4692271947860718,0.1055496409535408
4,2,64,4,0.538057267665863,0.059683769941329956
4,2,64,5,0.5812854766845703,0.16482004523277283
4,2,64,6,0.5900830626487732,0.124859519302845
4,2,64,7,0.24952156841754913,0.10588563233613968
4,2,64,8,0.5787407755851746,0.21380463242530823
4,2,64,9,0.5788509845733643,0.1281975507736206
4,2,64,10,0.521990180015564,0.24004751443862915
4,2,64,11,0.33898046612739563,0.17664498090744019
4,2,64,12,0.5709631443023682,0.1264324188232422
4,2,64,13,0.27402132749557495,0.1337529718875885
4,2,64,14,0.5858316421508789,0.15216444432735443
4,2,64,15,0.3723204731941223,0.12400531768798828
4,2,64,16,0.5020936131477356,0.13303449749946594
4,2,64,17,0.43979281187057495,0.20744891464710236
4,2,64,18,0.5766035914421082,0.14539498090744019
4,2,64,19,0.41375330090522766,0.13384217023849487
4,2,64,20,0.5200842618942261,0.22694072127342224
4,2,64,21,0.6057144999504089,0.12014896422624588
4,2,64,22,0.598727822303772,0.12299592047929764
4,2,64,23,0.4873858094215393,0.12412808835506439
4,2,64,24,0.30721452832221985,0.12284866720438004
4,2,64,25,0.5660586357116699,0.06635437905788422
4,2,64,26,0.6542750000953674,0.09588201344013214
4,2,64,27,0.521747350692749,0.1317424774169922
4,2,64,28,0.43402940034866333,0.1477549821138382
4,2,64,29,0.3089063763618469,0.13455648720264435
4,2,64,30,0.47811707854270935,0.14064878225326538
4,2,64,31,0.6918540000915527,0.12848789989948273
4,2,64,32,0.5136934518814087,0.20763766765594482
4,2,64,33,0.49216586351394653,0.1719944179058075
4,2,64,34,0.5895547866821289,0.16692158579826355
4,2,64,35,0.5278609991073608,0.13536645472049713
4,2,64,36,0.554090142250061,0.1547762006521225
4,2,64,37,0.5583143830299377,0.16500508785247803
4,2,64,38,0.5054576396942139,0.1552530974149704
4,2,64,39,0.37414970993995667,0.09846529364585876
4,2,64,40,0.5992740988731384,0.1508292257785797
4,2,64,41,0.4228619337081909,0.09935609251260757
4,2,64,42,0.6141144633293152,0.136444553732872
4,2,64,43,0.5166740417480469,0.1556926816701889
4,2,64,44,0.5700893402099609,0.1809689849615097
4,2,64,45,0.4433336853981018,0.272332102060318
4,2,64,46,0.537139356136322,0.23514729738235474
4,2,64,47,0.4743529260158539,0.11681661009788513
4,2,64,48,0.4410687983036041,0.10712242126464844
4,2,64,49,0.5708249807357788,0.06026385724544525
4,2,64,50,0.5849373936653137,0.10897558927536011
4,2,64,51,0.5008973479270935,0.08839569985866547
4,2,64,52,0.47731029987335205,0.17723403871059418
4,2,64,53,0.42631280422210693,0.11301716417074203
4,2,64,54,0.704235315322876,0.12126412987709045
4,2,64,55,0.5459162592887878,0.1778772473335266
4,2,64,56,0.44853436946868896,0.1374981850385666
4,2,64,57,0.4771897494792938,0.15348690748214722
4,2,64,58,0.49664536118507385,0.1312946081161499
4,2,64,59,0.584184467792511,0.2007734775543213
4,2,64,60,0.48922279477119446,0.12895874679088593
4,2,64,61,0.5380738973617554,0.2032870352268219
4,2,64,62,0.47704505920410156,0.09266573190689087
4,2,64,63,0.40819868445396423,0.14362101256847382
4,3,64,0,0.43112459778785706,0.09924522787332535
4,3,64,1,0.4619031846523285,0.070818692445755
4,3,64,2,0.734104335308075,0.1711738556623459
4,3,64,3,0.5164913535118103,0.12298601865768433
4,3,64,4,0.3416900038719177,0.12504130601882935
4,3,64,5,0.5133760571479797,0.06633368134498596
4,3,64,6,0.2928289473056793,0.09786383807659149
4,3,64,7,0.24193061888217926,0.12012344598770142
4,3,64,8,0.6441329717636108,0.06591009348630905
4,3,64,9,0.37788259983062744,0.23984168469905853
4,3,64,10,0.5085026621818542,0.11459830403327942
4,3,64,11,0.622692346572876,0.2753622829914093
4,3,64,12,0.5106978416442871,0.1195453628897667
4,3,64,13,0.46305516362190247,0.11347933113574982
4,3,64,14,0.4687582850456238,0.06740287691354752
4,3,64,15,0.6259313821792603,0.14302213490009308
4,3,64,16,0.5448011159896851,0.1716918647289276
4,3,64,17,0.6151918172836304,0.18057769536972046
4,3,64,18,0.6645159721374512,0.23698930442333221
4,3,64,19,0.39518803358078003,0.18799705803394318
4,3,64,20,0.3906098008155823,0.19871607422828674
4,3,64,21,0.4265999495983124,0.07220280915498734
4,3,64,22,0.45198607444763184,0.13946960866451263
4,3,64,23,0.5055825710296631,0.21442405879497528
4,3,64,24,0.6528943777084351,0.22232450544834137
4,3,64,25,0.5575289130210876,0.13709577918052673
4,3,64,26,0.5629863142967224,0.07917984575033188
4,3,64,27,0.6855416893959045,0.08558055758476257
4,3,64,28,0.4495495855808258,0.20108076930046082
4,3,64,29,0.5251798033714294,0.08400154858827591
4,3,64,30,0.3235624432563782,0.16132867336273193
4,3,64,31,0.6228890419006348,0.133876770734787
4,3,64,32,0.5401070713996887,0.1833982914686203
4,3,64,33,0.5915672779083252,0.2128131240606308
4,3,64,34,0.49706411361694336,0.19458520412445068
4,3,64,35,0.6072114109992981,0.2002355307340622
4,3,64,36,0.6318143606185913,0.10323366522789001
4,3,64,37,0.5856717824935913,0.08664076030254364
4,3,64,38,0.5044226050376892,0.1264050453901291
4,3,64,39,0.5412429571151733,0.15106609463691711
4,3,64,40,0.6151041984558105,0.27157947421073914
4,3,64,41,0.615992546081543,0.07113619893789291
4,3,64,42,0.3565536439418793,0.12149899452924728
4,3,64,43,0.3338193893432617,0.10102245956659317
4,3,64,44,0.5527307987213135,0.1691061556339264
4,3,64,45,0.4318995177745819,0.0879596695303917
4,3,64,46,0.6302677989006042,0.1362067610025406
4,3,64,47,0.41767457127571106,0.13948652148246765
4,3,64,48,0.5750174522399902,0.21054810285568237
4,3,64,49,0.4561260938644409,0.06367528438568115
4,3,64,50,0.5905044078826904,0.15952573716640472
4,3,64,51,0.32121410965919495,0.1076711118221283
4,3,64,52,0.3441787660121918,0.15167324244976044
4,3,64,53,0.5031052231788635,0.23721428215503693
4,3,64,54,0.3462342619895935,0.23581723868846893
4,3,64,55,0.45777589082717896,0.08777210116386414
4,3,64,56,0.5061321258544922,0.10581988096237183
4,3,64,57,0.4200722277164459,0.07315649092197418
4,3,64,58,0.5677866339683533,0.18167825043201447
4,3,64,59,0.6576205492019653,0.09454178810119629
4,3,64,60,0.5827281475067139,0.08040953427553177
4,3,64,61,0.3513529300689697,0.11633021384477615
4,3,64,62,0.539892315864563,0.08642659336328506
4,3,64,63,0.5708016753196716,0.05105815827846527
4,4,128,0,0.6274825930595398,0.09501928836107254
4,4,128,1,0.5294755697250366,0.13384579122066498
4,4,128,2,0.3456258177757263,0.21288618445396423
4,4,128,3,0.5531525611877441,0.22797571122646332
4,4,128,4,0.6901266574859619,0.08615697175264359
4,4,128,5,0.5622991919517517,0.10257366299629211
4,4,128,6,0.46336832642555237,0.2031235247850418
4,4,128,7,0.6865029335021973,0.11421152949333191
4,4,128,8,0.3372451663017273,0.13577018678188324
4,4,128,9,0.3604506254196167,0.34835782647132874
4,4,128,10,0.5490512847900391,0.12112430483102798
4,4,128,11,0.4033184349536896,0.1962956339120865
4,4,128,12,0.6771941781044006,0.07336700707674026
4,4,128,13,0.5152678489685059,0.20388704538345337
4,4,128,14,0.7474026083946228,0.24424560368061066
4,4,128,15,0.6490472555160522,0.19707569479942322
4,4,128,16,0.6504490971565247,0.19970431923866272
4,4,128,17,0.6624284982681274,0.1926020383834839
4,4,128,18,0.5182132124900818,0.16975408792495728
4,4,128,19,0.6693339943885803,0.2059098780155182
4,4,128,20,0.5698738098144531,0.20152495801448822
4,4,128,21,0.642081618309021,0.16908922791481018
4,4,128,22,0.6151856184005737,0.18918032944202423
4,4,128,23,0.6134938597679138,0.18649592995643616
4,4,128,24,0.4852774143218994,0.2025122195482254
4,4,128,25,0.6671530604362488,0.17464104294776917
4,4,128,26,0.6661595702171326,0.30519402027130127
4,4,128,27,0.6624923348426819,0.32019346952438354
4,4,128,28,0.6192820072174072,0.18909531831741333
4,4,128,29,0.4828180968761444,0.1993078738451004
4,4,128,30,0.6848772168159485,0.10936597734689713
4,4,128,31,0.3688567578792572,0.07752899825572968
4,4,128,32,0.357055127620697,0.1437280774116516
4,4,128,33,0.3953510522842407,0.11316080391407013
4,4,128,34,0.8053365349769592,0.07511338591575623
4,4,128,35,0.7790353894233704,0.2197948545217514
4,4,128,36,0.6260448098182678,0.11441636085510254
4,4,128,37,0.6883760094642639,0.2175518125295639
4,4,128,38,0.6601310968399048,0.2286924421787262
4,4,128,39,0.43510037660598755,0.2166825532913208
4,4,128,40,0.6518300771713257,0.1505613476037979
4,4,128,41,0.5726733207702637,0.15817765891551971
4,4,128,42,0.4117112159729004,0.2097872644662857
4,4,128,43,0.6755607724189758,0.19307541847229004
4,4,128,44,0.40350741147994995,0.3103785514831543
4,4,128,45,0.545291543006897,0.22482122480869293
4,4,128,46,0.5196079015731812,0.15636692941188812
4,4,128,47,0.657977819442749,0.10714469850063324
4,4,128,48,0.5410648584365845,0.22468969225883484
4,4,128,49,0.527172863483429,0.1564197987318039
4,4,128,50,0.38124585151672363,0.2195609211921692
4,4,128,51,0.6201868057250977,0.22226129472255707
4,4,128,52,0.8224247097969055,0.10529828071594238
4,4,128,53,0.6142406463623047,0.12067654728889465
4,4,128,54,0.720780074596405,0.14700786769390106
4,4,128,55,0.6089083552360535,0.12557819485664368
4,4,128,56,0.47305572032928467,0.08815564215183258
4,4,128,57,0.3605886399745941,0.1342664510011673
4,4,128,58,0.5830849409103394,0.12142934650182724
4,4,128,59,0.34578803181648254,0.22021320462226868
4,4,128,60,0.6950191259384155,0.3365972638130188
4,4,128,61,0.2487839311361313,0.05902552604675293
4,4,128,62,0.41743093729019165,0.169732928276062
4,4,128,63,0.6487494707107544,0.09613146632909775
4,4,128,64,0.3319031298160553,0.3214557468891144
4,4,128,65,0.48637786507606506,0.1628023087978363
4,4,128,66,0.5201013088226318,0.24858799576759338
4,4,128,67,0.48213931918144226,0.0698663517832756
4,4,128,68,0.6767913699150085,0.1341153234243393
4,4,128,69,0.7203621864318848,0.0694146379828453
4,4,128,70,0.6473001837730408,0.11368418484926224
4,4,128,71,0.5817388296127319,0.20677247643470764
4,4,128,72,0.4256737232208252,0.0958416685461998
4,4,128,73,0.6299065351486206,0.15028326213359833
4,4,128,74,0.2609144151210785,0.2098454236984253
4,4,128,75,0.6534461975097656,0.153763547539711
4,4,128,76,0.5559049248695374,0.1964968889951706
4,4,128,77,0.6364766955375671,0.15766862034797668
4,4,128,78,0.7437247037887573,0.13276872038841248
4,4,128,79,0.6212169528007507,0.11660511791706085
4,4,128,80,0.5961604118347168,0.1803768128156662
4,4,128,81,0.5267906785011292,0.0838409960269928
4,4,128,82,0.6676812767982483,0.2314261645078659
4,4,128,83,0.5914735198020935,0.1728222519159317
4,4,128,84,0.6406079530715942,0.18309086561203003
4,4,128,85,0.6795452237129211,0.32253140211105347
4,4,128,86,0.6184757351875305,0.19975367188453674
4,4,128,87,0.4932228922843933,0.2658165693283081
4,4,128,88,0.400703489780426,0.16394978761672974
4,4,128,89,0.6903417706489563,0.09288442879915237
4,4,128,90,0.2779252529144287,0.09861592948436737
4,4,128,91,0.6631733179092407,0.14357078075408936
4,4,128,92,0.40061646699905396,0.24749930202960968
4,4,128,93,0.312017023563385,0.21428552269935608
4,4,128,94,0.5695444941520691,0.14171727001667023
4,4,128,95,0.7477537393569946,0.1086919829249382
4,4,128,96,0.7551783323287964,0.07184958457946777
4,4,128,97,0.7314122915267944,0.0788128599524498
4,4,128,98,0.7079905867576599,0.23808865249156952
4,4,128,99,0.2877672016620636,0.17776896059513092
4,4,128,100,0.4848940670490265,0.10928066074848175
4,4,128,101,0.7579466104507446,0.1920737624168396
4,4,128,102,0.3713800311088562,0.11445280909538269
4,4,128,103,0.47775378823280334,0.1324673295021057
4,4,128,104,0.4543161988258362,0.16228114068508148
4,4,128,105,0.7102473378181458,0.10424288362264633
4,4,128,106,0.4691930413246155,0.22732871770858765
4,4,128,107,0.6815493106842041,0.1864992380142212
4,4,128,108,0.42608144879341125,0.17218710482120514
4,4,128,109,0.6075192093849182,0.1454571634531021
4,4,128,110,0.6081141233444214,0.22122371196746826
4,4,128,111,0.41134709119796753,0.24228723347187042
4,4,128,112,0.6465811133384705,0.1281810849905014
4,4,128,113,0.4376614987850189,0.12466474622488022
4,4,128,114,0.6078882813453674,0.09109081327915192
4,4,128,115,0.5275205969810486,0.22554297745227814
4,4,128,116,0.48908376693725586,0.25133731961250305
4,4,128,117,0.6684255003929138,0.25457653403282166
4,4,128,118,0.4067751169204712,0.20822745561599731
4,4,128,119,0.5039483904838562,0.22120198607444763
4,4,128,120,0.5312619209289551,0.16072598099708557
4,4,128,121,0.4575079083442688,0.26648008823394775
4,4,128,122,0.7362550497055054,0.17284798622131348
4,4,128,123,0.597295880317688,0.14208470284938812
4,4,128,124,0.6877530217170715,0.25201496481895447
4,4,128,125,0.5607534050941467,0.11492715775966644
4,4,128,126,0.6871541142463684,0.07180410623550415
4,4,128,127,0.628096342086792,0.22569791972637177
4,5,128,0,0.6205576062202454,0.04967628791928291
4,5,128,1,0.43415194749832153,0.3051513135433197
4,5,128,2,0.7465245127677917,0.2008705735206604
4,5,128,3,0.3720593750476837,0.31959035992622375
4,5,128,4,0.8119255304336548,0.2167535424232483
4,5,128,5,0.6619824171066284,0.1620059460401535
4,5,128,6,0.8077628016471863,0.11872759461402893
4,5,128,7,0.7275636196136475,0.1048286110162735
4,5,128,8,0.636757493019104,0.24339993298053741
4,5,128,9,0.5120391249656677,0.1679939180612564
4,5,128,10,0.5399063229560852,0.20510724186897278
4,5,128,11,0.7262647151947021,0.24158048629760742
4,5,128,12,0.7883018255233765,0.2321397066116333
4,5,128,13,0.8006454110145569,0.1469898223876953
4,5,128,14,0.9210390448570251,0.059777986258268356
4,5,128,15,0.8221682906150818,0.08569133281707764
4,5,128,16,0.8144292831420898,0.16048890352249146
4,5,128,17,0.76786869764328,0.2193775624036789
4,5,128,18,0.6485409736633301,0.2541336119174957
4,5,128,19,0.5888744592666626,0.18226122856140137
4,5,128,20,0.6847869157791138,0.25487220287323
4,5,128,21,0.8741479516029358,0.06461714208126068
4,5,128,22,0.6132219433784485,0.09397917240858078
4,5,128,23,0.800471305847168,0.17455853521823883
4,5,128,24,0.850400984287262,0.10872258245944977
4,5,128,25,0.8049528002738953,0.166044682264328
4,5,128,26,0.8092592358589172,0.14092272520065308
4,5,128,27,0.8579161763191223,0.06430841982364655
4,5,128,28,0.7950695157051086,0.121131032705307
4,5,128,29,0.7467538118362427,0.17508018016815186
4,5,128,30,0.7997002005577087,0.138789102435112
4,5,128,31,0.6887156367301941,0.25342315435409546
4,5,128,32,0.695083737373352,0.18314380943775177
4,5,128,33,0.6646329760551453,0.22855955362319946
4,5,128,34,0.7848395109176636,0.12939047813415527
4,5,128,35,0.8310471773147583,0.08172310888767242
4,5,128,36,0.7286999821662903,0.20179274678230286
4,5,128,37,0.8209667205810547,0.06215493381023407
4,5,128,38,0.8282580375671387,0.10818937420845032
4,5,128,39,0.6445915102958679,0.18821310997009277
4,5,128,40,0.7608538269996643,0.15777374804019928
4,5,128,41,0.8020992279052734,0.11865094304084778
4,5,128,42,0.760887622833252,0.12080607563257217
4,5,128,43,0.7782616019248962,0.13625206053256989
4,5,128,44,0.7988355159759521,0.09487274289131165
4,5,128,45,0.8736307621002197,0.06571382284164429
4,5,128,46,0.730668306350708,0.19805306196212769
4,5,128,47,0.7372654676437378,0.27152925729751587
4,5,128,48,0.5406537055969238,0.23598524928092957
4,5,128,49,0.6673492193222046,0.07827036827802658
4,5,128,50,0.7549428343772888,0.11375676840543747
4,5,128,51,0.7114726305007935,0.19631506502628326
4,5,128,52,0.8166839480400085,0.16319626569747925
4,5,128,53,0.8105418086051941,0.19197653234004974
4,5,128,54,0.8125707507133484,0.11418582499027252
4,5,128,55,0.6808868646621704,0.24387285113334656
4,5,128,56,0.6228604912757874,0.22735506296157837
4,5,128,57,0.6779258251190186,0.29365241527557373
4,5,128,58,0.8217922449111938,0.14790183305740356
4,5,128,59,0.7588058710098267,0.07248830795288086
4,5,128,60,0.8216364979743958,0.16873691976070404
4,5,128,61,0.6234431266784668,0.20583099126815796
4,5,128,62,0.8712084293365479,0.06502712517976761
4,5,128,63,0.5611073970794678,0.1836077868938446
4,5,128,64,0.7633053064346313,0.14720913767814636
4,5,128,65,0.44383352994918823,0.3544011414051056
4,5,128,66,0.8693644404411316,0.057702261954545975
4,5,128,67,0.8133175373077393,0.07628652453422546
4,5,128,68,0.6059157252311707,0.199555441737175
4,5,128,69,0.8409436941146851,0.06911993026733398
4,5,128,70,0.6427600979804993,0.16542689502239227
4,5,128,71,0.6248782277107239,0.12331748753786087
4,5,128,72,0.6471903324127197,0.14257586002349854
4,5,128,73,0.7049828767776489,0.24410653114318848
4,5,128,74,0.49329808354377747,0.21414947509765625
4,5,128,75,0.7740278840065002,0.1681339293718338
4,5,128,76,0.7896780371665955,0.2019893378019333
4,5,128,77,0.46250173449516296,0.334248811006546
4,5,128,78,0.7814574837684631,0.13194206357002258
4,5,128,79,0.7411905527114868,0.09527812153100967
4,5,128,80,0.6325747966766357,0.2881772518157959
4,5,128,81,0.7500543594360352,0.1951545625925064
4,5,128,82,0.7426738142967224,0.20887331664562225
4,5,128,83,0.8093087077140808,0.20575207471847534
4,5,128,84,0.8670737147331238,0.10620315372943878
4,5,128,85,0.8894317746162415,0.08698096871376038
4,5,128,86,0.7930527329444885,0.1388535052537918
4,5,128,87,0.8232163786888123,0.12197818607091904
4,5,128,88,0.7775333523750305,0.11257655918598175
4,5,128,89,0.5804729461669922,0.1939546763896942
4,5,128,90,0.5558333992958069,0.18910111486911774
4,5,128,91,0.859307587146759,0.07909560948610306
4,5,128,92,0.6449207663536072,0.25476667284965515
4,5,128,93,0.8086338043212891,0.12888863682746887
4,5,128,94,0.742038905620575,0.12170323729515076
4,5,128,95,0.8112743496894836,0.1286158263683319
4,5,128,96,0.8099571466445923,0.08672209084033966
4,5,128,97,0.8144226670265198,0.09233979880809784
4,5,128,98,0.8967499136924744,0.06070385500788689
4,5,128,99,0.6990394592285156,0.11853329092264175
4,5,128,100,0.7260426878929138,0.28927847743034363
4,5,128,101,0.8824218511581421,0.06761956959962845
4,5,128,102,0.7130269408226013,0.19041290879249573
4,5,128,103,0.8536799550056458,0.07947780191898346
4,5,128,104,0.7195651531219482,0.11271344870328903
4,5,128,105,0.6811031699180603,0.352414071559906
4,5,128,106,0.5409250855445862,0.23118765652179718
4,5,128,107,0.7136878371238708,0.22248226404190063
4,5,128,108,0.8331253528594971,0.0713745579123497
4,5,128,109,0.7337228059768677,0.18722975254058838
4,5,128,110,0.7312740683555603,0.26646724343299866
4,5,128,111,0.7311966419219971,0.12055269628763199
4,5,128,112,0.8238129019737244,0.14188118278980255
4,5,128,113,0.833715558052063,0.10358057916164398
4,5,128,114,0.7674387097358704,0.2803613543510437
4,5,128,115,0.5249228477478027,0.21880285441875458
4,5,128,116,0.7325879335403442,0.16267035901546478
4,5,128,117,0.9076388478279114,0.06912193447351456
4,5,128,118,0.6174701452255249,0.17892980575561523
4,5,128,119,0.52823805809021,0.253519743680954
4,5,128,120,0.8556774258613586,0.060748033225536346
4,5,128,121,0.47438761591911316,0.3843912184238434
4,5,128,122,0.8569148182868958,0.0873333215713501
4,5,128,123,0.7645924687385559,0.21253171563148499
4,5,128,124,0.7294541597366333,0.2612916827201843
4,5,128,125,0.6156033873558044,0.13523751497268677
4,5,128,126,0.7620056867599487,0.10855390876531601
4,5,128,127,0.6595858335494995,0.20240142941474915
5,0,32,0,0.5628792643547058,0.09491491317749023
5,0,32,1,0.48678383231163025,0.055713579058647156
5,0,32,2,0.5607121586799622,0.0646316334605217
5,0,32,3,0.32512763142585754,0.12564042210578918
5,0,32,4,0.3338140845298767,0.05620599165558815
5,0,32,5,0.3353217840194702,0.10527541488409042
5,0,32,6,0.39920809864997864,0.03925401717424393
5,0,32,7,0.47817355394363403,0.19535468518733978
5,0,32,8,0.5532604455947876,0.024977965280413628
5,0,32,9,0.554439127445221,0.07127799093723297
5,0,32,10,0.39602750539779663,0.07838337123394012
5,0,32,11,0.6268816590309143,0.062179453670978546
5,0,32,12,0.5978723764419556,0.08630003035068512
5,0,32,13,0.515363872051239,0.13920454680919647
5,0,32,14,0.49645841121673584,0.06559867411851883
5,0,32,15,0.42437615990638733,0.10199624300003052
5,0,32,16,0.42449751496315,0.11940765380859375
5,0,32,17,0.5069218277931213,0.08252279460430145
5,0,32,18,0.4086114466190338,0.11712855845689774
5,0,32,19,0.3041016757488251,0.10223004966974258
5,0,32,20,0.44322821497917175,0.0734972432255745
5,0,32,21,0.44005244970321655,0.11448774486780167
5,0,32,22,0.3802548348903656,0.09044764935970306
5,0,32,23,0.565575122833252,0.11222924292087555
5,0,32,24,0.6679890155792236,0.06718139350414276
5,0,32,25,0.557645320892334,0.11452409625053406
5,0,32,26,0.45472148060798645,0.0808335691690445
5,0,32,27,0.3918200135231018,0.10400619357824326
5,0,32,28,0.6549186110496521,0.09688695520162582
5,0,32,29,0.48804184794425964,0.053833529353141785
5,0,32,30,0.3216012120246887,0.1028013601899147
5,0,32,31,0.3606211543083191,0.11686485260725021
5,1,32,0,0.4838825762271881,0.11940265446901321
5,1,32,1,0.5285558104515076,0.051858313381671906
5,1,32,2,0.4747571349143982,0.07819212973117828
5,1,32,3,0.42797183990478516,0.1045178472995758
5,1,32,4,0.5768285393714905,0.15725915133953094
5,1,32,5,0.32965096831321716,0.07165811210870743
5,1,32,6,0.5888669490814209,0.04893137514591217
5,1,32,7,0.5688612461090088,0.14619982242584229
5,1,32,8,0.6740366816520691,0.03185804560780525
5,1,32,9,0.4659598767757416,0.058685846626758575
5,1,32,10,0.4752621352672577,0.09227393567562103
5,1,32,11,0.6450373530387878,0.13359595835208893
5,1,32,12,0.419223427772522,0.07985951006412506
5,1,32,13,0.5979734063148499,0.08075600862503052
5,1,32,14,0.46276286244392395,0.10900593549013138
5,1,32,15,0.6646485924720764,0.1389079988002777
5,1,32,16,0.5143035054206848,0.08991039544343948
5,1,32,17,0.3780013620853424,0.11861424893140793
5,1,32,18,0.4905546307563782,0.17939148843288422
5,1,32,19,0.46699902415275574,0.14092151820659637
5,1,32,20,0.6634000539779663,0.10296744108200073
5,1,32,21,0.6064726114273071,0.052332110702991486
5,1,32,22,0.3729550540447235,0.07359030842781067
5,1,32,23,0.5219437479972839,0.11471959203481674
5,1,32,24,0.3505457937717438,0.07884569466114044
5,1,32,25,0.5686772465705872,0.05090048164129257
5,1,32,26,0.3973865509033203,0.12014341354370117
5,1,32,27,0.5360103845596313,0.07161162048578262
5,1,32,28,0.47909796237945557,0.08774697780609131
5,1,32,29,0.5576540231704712,0.11973856389522552
5,1,32,30,0.444018691778183,0.1608792543411255
5,1,32,31,0.6177563667297363,0.08483566343784332
5,2,64,0,0.5141106247901917,0.2798163890838623
5,2,64,1,0.40208378434181213,0.19255942106246948
5,2,64,2,0.5469963550567627,0.21273601055145264
5,2,64,3,0.5475246906280518,0.18783774971961975
5,2,64,4,0.5178869962692261,0.10487252473831177
5,2,64,5,0.5689132809638977,0.21026939153671265
5,2,64,6,0.46083733439445496,0.15157553553581238
5,2,64,7,0.32778313755989075,0.18518540263175964
5,2,64,8,0.5706862211227417,0.2652845084667206
5,2,64,9,0.48019999265670776,0.18202504515647888
5,2,64,10,0.5299921631813049,0.28146201372146606
5,2,64,11,0.3366996943950653,0.12810420989990234
5,2,64,12,0.6068910956382751,0.15168346464633942
5,2,64,13,0.27470478415489197,0.1105576604604721
5,2,64,14,0.48440003395080566,0.15452934801578522
5,2,64,15,0.4272245764732361,0.10409025102853775
5,2,64,16,0.45984888076782227,0.09905897080898285
5,2,64,17,0.436667799949646,0.2341381162405014
5,2,64,18,0.5337861180305481,0.2554406225681305
5,2,64,19,0.3800424635410309,0.1132388561964035
5,2,64,20,0.5475229024887085,0.15792696177959442
5,2,64,21,0.5405705571174622,0.08046950399875641
5,2,64,22,0.5059718489646912,0.13379432260990143
5,2,64,23,0.3723529875278473,0.15060292184352875
5,2,64,24,0.30015817284584045,0.11721867322921753
5,2,64,25,0.5129595994949341,0.08937913924455643
5,2,64,26,0.6268079280853271,0.11712872236967087
5,2,64,27,0.564245343208313,0.16619928181171417
5,2,64,28,0.5089402794837952,0.14502276480197906
5,2,64,29,0.3759200870990753,0.21925674378871918
5,2,64,30,0.39870625734329224,0.11570490896701813
5,2,64,31,0.6020401120185852,0.154129296541214
5,2,64,32,0.503844678401947,0.17937061190605164
5,2,64,33,0.4815780818462372,0.13790687918663025
5,2,64,34,0.5633055567741394,0.09083317220211029
5,2,64,35,0.6029977202415466,0.10598484426736832
5,2,64,36,0.5193464159965515,0.20210157334804535
5,2,64,37,0.4745579957962036,0.1140650138258934
5,2,64,38,0.5372828245162964,0.1912829875946045
5,2,64,39,0.3893883526325226,0.11456067115068436
5,2,64,40,0.5580435991287231,0.13532613217830658
5,2,64,41,0.45926982164382935,0.12691231071949005
5,2,64,42,0.5988970398902893,0.09518811851739883
5,2,64,43,0.5181849598884583,0.21655073761940002
5,2,64,44,0.6001643538475037,0.15136274695396423
5,2,64,45,0.4815219044685364,0.22754544019699097
5,2,64,46,0.5989746451377869,0.23101580142974854
5,2,64,47,0.568776547908783,0.12272467464208603
5,2,64,48,0.5180267691612244,0.11688926815986633
5,2,64,49,0.5176578760147095,0.09715136885643005
5,2,64,50,0.6201488971710205,0.1121407225728035
5,2,64,51,0.5965676307678223,0.116390660405159
5,2,64,52,0.471023827791214,0.1375531703233719
5,2,64,53,0.5239249467849731,0.16171550750732422
5,2,64,54,0.583355188369751,0.16150541603565216
5,2,64,55,0.5469853281974792,0.16360262036323547
5,2,64,56,0.5126454830169678,0.20314078032970428
5,2,64,57,0.49000227451324463,0.1001787930727005
5,2,64,58,0.5406599044799805,0.11997437477111816
5,2,64,59,0.6408125758171082,0.15055087208747864
5,2,64,60,0.47445255517959595,0.23970215022563934
5,2,64,61,0.4798251986503601,0.28895872831344604
5,2,64,62,0.4925614297389984,0.08115146309137344
5,2,64,63,0.4297633171081543,0.1458696722984314
5,3,64,0,0.44363442063331604,0.06384631246328354
5,3,64,1,0.6199946403503418,0.15668025612831116
5,3,64,2,0.7739439606666565,0.14876846969127655
5,3,64,3,0.6007962226867676,0.23693612217903137
5,3,64,4,0.44301366806030273,0.05374622344970703
5,3,64,5,0.45317113399505615,0.20329198241233826
5,3,64,6,0.5184915661811829,0.11462333798408508
5,3,64,7,0.2257201224565506,0.0738435685634613
5,3,64,8,0.6402995586395264,0.14732787013053894
5,3,64,9,0.4783695936203003,0.17984703183174133
5,3,64,10,0.5247090458869934,0.26705020666122437
5,3,64,11,0.4752509295940399,0.35295242071151733
5,3,64,12,0.4564420282840729,0.1593203991651535
5,3,64,13,0.6069640517234802,0.12261855602264404
5,3,64,14,0.6035547852516174,0.07548203319311142
5,3,64,15,0.5892655253410339,0.18807558715343475
5,3,64,16,0.4074631631374359,0.10965156555175781
5,3,64,17,0.5131432414054871,0.07061480730772018
5,3,64,18,0.5853874683380127,0.1329260766506195
5,3,64,19,0.3647194504737854,0.1260766237974167
5,3,64,20,0.4602750241756439,0.22860121726989746
5,3,64,21,0.36527732014656067,0.051528822630643845
5,3,64,22,0.5151432752609253,0.1273418515920639
5,3,64,23,0.7297048568725586,0.06483714282512665
5,3,64,24,0.5909929275512695,0.2060999572277069
5,3,64,25,0.5022076964378357,0.14520400762557983
5,3,64,26,0.6141062378883362,0.14503976702690125
5,3,64,27,0.6733476519584656,0.08318367600440979
5,3,64,28,0.622856616973877,0.16950829327106476
5,3,64,29,0.4966666102409363,0.2675323486328125
5,3,64,30,0.4232157766819,0.1953626126050949
5,3,64,31,0.5411092042922974,0.2825324535369873
5,3,64,32,0.4504462778568268,0.11291011422872543
5,3,64,33,0.4758513271808624,0.20829124748706818
5,3,64,34,0.44338300824165344,0.26475095748901367
5,3,64,35,0.4125310480594635,0.1115155890583992
5,3,64,36,0.5442532300949097,0.08783279359340668
5,3,64,37,0.5480832457542419,0.2391657531261444
5,3,64,38,0.4969184100627899,0.18064242601394653
5,3,64,39,0.6910863518714905,0.17060379683971405
5,3,64,40,0.5597852468490601,0.2937600314617157
5,3,64,41,0.6362297534942627,0.08512849360704422
5,3,64,42,0.35161927342414856,0.1517312377691269
5,3,64,43,0.46015647053718567,0.15422767400741577
5,3,64,44,0.501925528049469,0.23816053569316864
5,3,64,45,0.5390663146972656,0.05223884433507919
5,3,64,46,0.5709061026573181,0.073243647813797
5,3,64,47,0.5824414491653442,0.1785479485988617
5,3,64,48,0.47563132643699646,0.13467539846897125
5,3,64,49,0.537398099899292,0.18422091007232666
5,3,64,50,0.5810669660568237,0.09925849735736847
5,3,64,51,0.3987623453140259,0.23916347324848175
5,3,64,52,0.4379180073738098,0.3252003490924835
5,3,64,53,0.43157675862312317,0.3219050168991089
5,3,64,54,0.31677842140197754,0.15695033967494965
5,3,64,55,0.4859659969806671,0.037496838718652725
5,3,64,56,0.5655535459518433,0.09159170836210251
5,3,64,57,0.4026617407798767,0.23480118811130524
5,3,64,58,0.6450281739234924,0.201411172747612
5,3,64,59,0.6520637273788452,0.10573549568653107
5,3,64,60,0.5971387028694153,0.17073579132556915
5,3,64,61,0.42318183183670044,0.025655923411250114
5,3,64,62,0.46966835856437683,0.06674417853355408
5,3,64,63,0.6008707880973816,0.09475107491016388
5,4,128,0,0.5039326548576355,0.2132749706506729
5,4,128,1,0.4874434769153595,0.10312125086784363
5,4,128,2,0.28807932138442993,0.09860105812549591
5,4,128,3,0.4985491633415222,0.20712772011756897
5,4,128,4,0.5343688130378723,0.1316268891096115
5,4,128,5,0.7336968779563904,0.11123692989349365
5,4,128,6,0.5591211915016174,0.264849990606308
5,4,128,7,0.7174221277236938,0.1402234435081482
5,4,128,8,0.4488917589187622,0.14654909074306488
5,4,128,9,0.5801679491996765,0.26758065819740295
5,4,128,10,0.44638708233833313,0.1968512088060379
5,4,128,11,0.5558317303657532,0.1101832240819931
5,4,128,12,0.6367925405502319,0.08674317598342896
5,4,128,13,0.3914200961589813,0.29174530506134033
5,4,128,14,0.6841073632240295,0.26894083619117737
5,4,128,15,0.7021393179893494,0.17923319339752197
5,4,128,16,0.5069573521614075,0.16543176770210266
5,4,128,17,0.6531449556350708,0.17491379380226135
5,4,128,18,0.5011060237884521,0.2288014143705368
5,4,128,19,0.5961485505104065,0.3130658268928528
5,4,128,20,0.6191014647483826,0.17304448783397675
5,4,128,21,0.6769843101501465,0.22933092713356018
5,4,128,22,0.6062088012695312,0.11297988146543503
5,4,128,23,0.6936674118041992,0.18915154039859772
5,4,128,24,0.44001585245132446,0.30975908041000366
5,4,128,25,0.6468661427497864,0.17372705042362213
5,4,128,26,0.601875364780426,0.21864989399909973
5,4,128,27,0.6037576198577881,0.2813010513782501
5,4,128,28,0.5976316332817078,0.1722339391708374
5,4,128,29,0.6469259262084961,0.18682891130447388
5,4,128,30,0.6774469017982483,0.1281842589378357
5,4,128,31,0.4876892566680908,0.19173043966293335
5,4,128,32,0.35247036814689636,0.20778000354766846
5,4,128,33,0.4359948933124542,0.17747846245765686
5,4,128,34,0.7931839227676392,0.08297702670097351
5,4,128,35,0.7405667901039124,0.225825235247612
5,4,128,36,0.6445319056510925,0.09096009284257889
5,4,128,37,0.5669417977333069,0.23926058411598206
5,4,128,38,0.6393409967422485,0.1881629228591919
5,4,128,39,0.5963988304138184,0.14243455231189728
5,4,128,40,0.6090105772018433,0.22441689670085907
5,4,128,41,0.4841199219226837,0.18826091289520264
5,4,128,42,0.5998453497886658,0.17858049273490906
5,4,128,43,0.5705907344818115,0.2816655933856964
5,4,128,44,0.4682528078556061,0.3078119456768036
5,4,128,45,0.6781518459320068,0.16673919558525085
5,4,128,46,0.32322564721107483,0.13404026627540588
5,4,128,47,0.7495564818382263,0.07928327471017838
5,4,128,48,0.656162679195404,0.21192096173763275
5,4,128,49,0.41841772198677063,0.3088255822658539
5,4,128,50,0.6253793835639954,0.18432974815368652
5,4,128,51,0.5738965272903442,0.30374133586883545
5,4,128,52,0.747422456741333,0.16222220659255981
5,4,128,53,0.27789923548698425,0.10858669877052307
5,4,128,54,0.5373214483261108,0.17906254529953003
5,4,128,55,0.6251698136329651,0.17577476799488068
5,4,128,56,0.5265763401985168,0.13397133350372314
5,4,128,57,0.563351035118103,0.16456346213817596
5,4,128,58,0.698582649230957,0.14066055417060852
5,4,128,59,0.47056251764297485,0.2286309152841568
5,4,128,60,0.6584806442260742,0.3207084536552429
5,4,128,61,0.38340479135513306,0.10592038929462433
5,4,128,62,0.5182525515556335,0.20888929069042206
5,4,128,63,0.7144078016281128,0.12802918255329132
5,4,128,64,0.4914156496524811,0.3015066981315613
5,4,128,65,0.3103225529193878,0.10795063525438309
5,4,128,66,0.621872067451477,0.15785761177539825
5,4,128,67,0.4995187819004059,0.23061618208885193
5,4,128,68,0.559207558631897,0.18860499560832977
5,4,128,69,0.7735695838928223,0.13004903495311737
5,4,128,70,0.7032244801521301,0.0938117653131485
5,4,128,71,0.6147553324699402,0.21093522012233734
5,4,128,72,0.45156365633010864,0.23230969905853271
5,4,128,73,0.5909873247146606,0.2062128335237503
5,4,128,74,0.515964686870575,0.18557143211364746
5,4,128,75,0.625216007232666,0.17426955699920654
5,4,128,76,0.4692348837852478,0.2729794681072235
5,4,128,77,0.5623541474342346,0.20650866627693176
5,4,128,78,0.7584719061851501,0.09346263110637665
5,4,128,79,0.7003452777862549,0.09031665325164795
5,4,128,80,0.539858877658844,0.23656335473060608
5,4,128,81,0.6348773241043091,0.17356176674365997
5,4,128,82,0.6711128950119019,0.15067951381206512
5,4,128,83,0.6893672347068787,0.0987897515296936
5,4,128,84,0.6080343723297119,0.23117142915725708
5,4,128,85,0.6499807238578796,0.3316132724285126
5,4,128,86,0.6627871990203857,0.14070884883403778
5,4,128,87,0.666384220123291,0.19685061275959015
5,4,128,88,0.620948851108551,0.15241096913814545
5,4,128,89,0.5111620426177979,0.25517037510871887
5,4,128,90,0.47666171193122864,0.21374450623989105
5,4,128,91,0.7224609851837158,0.10290438681840897
5,4,128,92,0.4305815100669861,0.254661500453949
5,4,128,93,0.5855216383934021,0.16057664155960083
5,4,128,94,0.39840832352638245,0.251651793718338
5,4,128,95,0.5608527064323425,0.13379444181919098
5,4,128,96,0.5894361734390259,0.24805206060409546
5,4,128,97,0.6693172454833984,0.1267191618680954
5,4,128,98,0.6503393054008484,0.2664128243923187
5,4,128,99,0.4380974769592285,0.23295658826828003
5,4,128,100,0.651188850402832,0.194746732711792
5,4,128,101,0.8495319485664368,0.06401307135820389
5,4,128,102,0.4231981039047241,0.18987417221069336
5,4,128,103,0.3778228461742401,0.10027795284986496
5,4,128,104,0.40712466835975647,0.21549801528453827
5,4,128,105,0.5755709409713745,0.1470545083284378
5,4,128,106,0.4555981159210205,0.20062407851219177
5,4,128,107,0.6384004354476929,0.2803667485713959
5,4,128,108,0.45571404695510864,0.1724921464920044
5,4,128,109,0.5255932211875916,0.10106180608272552
5,4,128,110,0.5503044724464417,0.3284136950969696
5,4,128,111,0.3971337378025055,0.24330252408981323
5,4,128,112,0.6133228540420532,0.2513696551322937
5,4,128,113,0.448042631149292,0.20370283722877502
5,4,128,114,0.5944451093673706,0.1484193056821823
5,4,128,115,0.44860905408859253,0.24655525386333466
5,4,128,116,0.5887285470962524,0.2549166977405548
5,4,128,117,0.6471885442733765,0.28026536107063293
5,4,128,118,0.4307398796081543,0.2743905484676361
5,4,128,119,0.4058542251586914,0.18345332145690918
5,4,128,120,0.689680278301239,0.27981171011924744
5,4,128,121,0.6112275719642639,0.303158164024353
5,4,128,122,0.7044857144355774,0.21861307322978973
5,4,128,123,0.6135973930358887,0.25758326053619385
5,4,128,124,0.729989767074585,0.08277255296707153
5,4,128,125,0.6294052004814148,0.22081713378429413
5,4,128,126,0.5531659126281738,0.2664165198802948
5,4,128,127,0.6109393239021301,0.24753588438034058
5,5,128,0,0.49800291657447815,0.2260165959596634
5,5,128,1,0.6149803400039673,0.21855637431144714
5,5,128,2,0.8383499383926392,0.0898764505982399
5,5,128,3,0.31586119532585144,0.3046748638153076
5,5,128,4,0.7715587615966797,0.2360711395740509
5,5,128,5,0.8158525228500366,0.21324394643306732
5,5,128,6,0.7180285453796387,0.17030194401741028
5,5,128,7,0.8177571296691895,0.09797479212284088
5,5,128,8,0.4998122751712799,0.2637791335582733
5,5,128,9,0.6533647775650024,0.17560698091983795
5,5,128,10,0.6966171860694885,0.16413593292236328
5,5,128,11,0.7347742319107056,0.2502824366092682
5,5,128,12,0.7990682125091553,0.13684433698654175
5,5,128,13,0.8826470375061035,0.08029099553823471
5,5,128,14,0.8493161201477051,0.10463152080774307
5,5,128,15,0.4957926273345947,0.2327043116092682
5,5,128,16,0.8217448592185974,0.10934038460254669
5,5,128,17,0.680237352848053,0.15793254971504211
5,5,128,18,0.5350648760795593,0.30266258120536804
5,5,128,19,0.6286464333534241,0.155434250831604
5,5,128,20,0.7110015153884888,0.20287412405014038
5,5,128,21,0.8237839341163635,0.12349418550729752
5,5,128,22,0.7408557534217834,0.11290496587753296
5,5,128,23,0.7590743899345398,0.18978548049926758
5,5,128,24,0.7633912563323975,0.15226192772388458
5,5,128,25,0.8427450060844421,0.1024184376001358
5,5,128,26,0.7182000875473022,0.20032837986946106
5,5,128,27,0.8440198302268982,0.10570455342531204
5,5,128,28,0.8012828230857849,0.12700271606445312
5,5,128,29,0.7011381983757019,0.254489004611969
5,5,128,30,0.7333221435546875,0.18897639214992523
5,5,128,31,0.6865791082382202,0.22756654024124146
5,5,128,32,0.6919894218444824,0.21494556963443756
5,5,128,33,0.6267244219779968,0.10160499811172485
5,5,128,34,0.8041242361068726,0.0986652746796608
5,5,128,35,0.7664620876312256,0.23984502255916595
5,5,128,36,0.7825808525085449,0.11971379071474075
5,5,128,37,0.8077906370162964,0.11032747477293015
5,5,128,38,0.7804229259490967,0.11104922741651535
5,5,128,39,0.5911685228347778,0.23922114074230194
5,5,128,40,0.7028219103813171,0.20097976922988892
5,5,128,41,0.7304616570472717,0.21675799787044525
5,5,128,42,0.6352614164352417,0.18083138763904572
5,5,128,43,0.8269083499908447,0.10953402519226074
5,5,128,44,0.75519859790802,0.1356625258922577
5,5,128,45,0.8463106155395508,0.08355902880430222
5,5,128,46,0.6863546967506409,0.2434082329273224
5,5,128,47,0.7354937791824341,0.2377142757177353
5,5,128,48,0.5013806223869324,0.2646576464176178
5,5,128,49,0.5823637247085571,0.2003549337387085
5,5,128,50,0.8115800619125366,0.12433736026287079
5,5,128,51,0.6057136654853821,0.32527053356170654
5,5,128,52,0.8211967349052429,0.10666322708129883
5,5,128,53,0.7593123316764832,0.19867387413978577
5,5,128,54,0.8000839948654175,0.1335824429988861
5,5,128,55,0.6503974199295044,0.22608228027820587
5,5,128,56,0.6238232851028442,0.17488980293273926
5,5,128,57,0.763201892375946,0.15630227327346802
5,5,128,58,0.781070351600647,0.118331179022789
5,5,128,59,0.7803416848182678,0.1080058142542839
5,5,128,60,0.8598955869674683,0.10232258588075638
5,5,128,61,0.7458716630935669,0.20085491240024567
5,5,128,62,0.8551697731018066,0.08284993469715118
5,5,128,63,0.7278559803962708,0.13743245601654053
5,5,128,64,0.8273622989654541,0.10671351850032806
5,5,128,65,0.4504972994327545,0.33705076575279236
5,5,128,66,0.7557153105735779,0.14171816408634186
5,5,128,67,0.7992505431175232,0.09706555306911469
5,5,128,68,0.6533061861991882,0.2252596914768219
5,5,128,69,0.8078694939613342,0.10131461173295975
5,5,128,70,0.4183560311794281,0.25022077560424805
5,5,128,71,0.611456036567688,0.13977953791618347
5,5,128,72,0.7713451385498047,0.12393654882907867
5,5,128,73,0.6329663991928101,0.26523682475090027
5,5,128,74,0.6429926156997681,0.22203603386878967
5,5,128,75,0.7474332451820374,0.12866178154945374
5,5,128,76,0.8607743382453918,0.10226932913064957
5,5,128,77,0.49062639474868774,0.2457885891199112
5,5,128,78,0.5903980135917664,0.19925403594970703
5,5,128,79,0.4114447236061096,0.3179447054862976
5,5,128,80,0.7039006352424622,0.19012874364852905
5,5,128,81,0.6932160258293152,0.15689723193645477
5,5,128,82,0.7997915744781494,0.14462433755397797
5,5,128,83,0.7644706964492798,0.1575985550880432
5,5,128,84,0.7737080454826355,0.18421845138072968
5,5,128,85,0.8487299084663391,0.11564526706933975
5,5,128,86,0.8321477174758911,0.10449544340372086
5,5,128,87,0.6880781650543213,0.18268437683582306
5,5,128,88,0.6984996795654297,0.22186078131198883
5,5,128,89,0.7238240838050842,0.14388258755207062
5,5,128,90,0.5051443576812744,0.2357790768146515
5,5,128,91,0.8004944324493408,0.11022377014160156
5,5,128,92,0.7190647125244141,0.1409396231174469
5,5,128,93,0.6419227719306946,0.26902487874031067
5,5,128,94,0.4323261082172394,0.2811860144138336
5,5,128,95,0.8802571296691895,0.09516213834285736
5,5,128,96,0.545054018497467,0.15884338319301605
5,5,128,97,0.7909324169158936,0.12561485171318054
5,5,128,98,0.7858958840370178,0.11701231449842453
5,5,128,99,0.764627993106842,0.10585683584213257
5,5,128,100,0.7333245277404785,0.26673394441604614
5,5,128,101,0.8713890910148621,0.07915893197059631
5,5,128,102,0.8040242195129395,0.1078653484582901
5,5,128,103,0.8436118364334106,0.08914685994386673
5,5,128,104,0.7813333868980408,0.12254686653614044
5,5,128,105,0.662604033946991,0.3162136673927307
5,5,128,106,0.5146161317825317,0.2819654941558838
5,5,128,107,0.6021423935890198,0.3333774209022522
5,5,128,108,0.8353562951087952,0.10588333755731583
5,5,128,109,0.7914041876792908,0.10369432717561722
5,5,128,110,0.6942696571350098,0.2768154740333557
5,5,128,111,0.7611526846885681,0.14959533512592316
5,5,128,112,0.789496123790741,0.15083375573158264
5,5,128,113,0.733630359172821,0.1780259907245636
5,5,128,114,0.7724524140357971,0.26472172141075134
5,5,128,115,0.4094170928001404,0.18735367059707642
5,5,128,116,0.5694175958633423,0.24717946350574493
5,5,128,117,0.8407339453697205,0.13349105417728424
5,5,128,118,0.5139515399932861,0.24989229440689087
5,5,128,119,0.717475950717926,0.29739025235176086
5,5,128,120,0.46664971113204956,0.34493449330329895
5,5,128,121,0.4112369418144226,0.2919901907444
5,5,128,122,0.8131263852119446,0.12167252600193024
5,5,128,123,0.7350732088088989,0.20268478989601135
5,5,128,124,0.7574102282524109,0.14264297485351562
5,5,128,125,0.8140749931335449,0.09443194419145584
5,5,128,126,0.7443540096282959,0.11133848875761032
5,5,128,127,0.778377890586853,0.09666616469621658
6,0,32,0,0.5588880181312561,0.11532363295555115
6,0,32,1,0.46842828392982483,0.08148631453514099
6,0,32,2,0.6011345982551575,0.09070053696632385
6,0,32,3,0.32557758688926697,0.15310291945934296
6,0,32,4,0.30139216780662537,0.09533770382404327
6,0,32,5,0.37391096353530884,0.0896105095744133
6,0,32,6,0.42548561096191406,0.10296868532896042
6,0,32,7,0.482272744178772,0.16677585244178772
6,0,32,8,0.6020565629005432,0.022279277443885803
6,0,32,9,0.6023306250572205,0.02904931642115116
6,0,32,10,0.4687741696834564,0.05306848883628845
6,0,32,11,0.6304551959037781,0.06561775505542755
6,0,32,12,0.544972836971283,0.0734332725405693
6,0,32,13,0.5165042877197266,0.043669018894433975
6,0,32,14,0.5221911668777466,0.10383938252925873
6,0,32,15,0.42223042249679565,0.13776491582393646
6,0,32,16,0.39990678429603577,0.07838063687086105
6,0,32,17,0.5153007507324219,0.05511770769953728
6,0,32,18,0.40777358412742615,0.1455525904893875
6,0,32,19,0.319243848323822,0.09206372499465942
6,0,32,20,0.4728865325450897,0.03850073367357254
6,0,32,21,0.4396620988845825,0.1426626294851303
6,0,32,22,0.3517790138721466,0.10977093130350113
6,0,32,23,0.5927460193634033,0.09163160622119904
6,0,32,24,0.6435027718544006,0.06511795520782471
6,0,32,25,0.5198531150817871,0.11494617909193039
6,0,32,26,0.42806142568588257,0.11377212405204773
6,0,32,27,0.37558746337890625,0.0656111091375351
6,0,32,28,0.6335773468017578,0.13069431483745575
6,0,32,29,0.4945409595966339,0.07512671500444412
6,0,32,30,0.27959781885147095,0.11189810931682587
6,0,32,31,0.3699551820755005,0.07020096480846405
6,1,32,0,0.4672783613204956,0.051689814776182175
6,1,32,1,0.5066466927528381,0.03213190287351608
6,1,32,2,0.46572384238243103,0.11410674452781677
6,1,32,3,0.4467608630657196,0.09649746865034103
6,1,32,4,0.5568105578422546,0.1025993824005127
6,1,32,5,0.38610708713531494,0.07397918403148651
6,1,32,6,0.5600062012672424,0.03814050555229187
6,1,32,7,0.5651492476463318,0.09725582599639893
6,1,32,8,0.6212522983551025,0.021642450243234634
6,1,32,9,0.4297597110271454,0.05398276448249817
6,1,32,10,0.4658483564853668,0.10051243007183075
6,1,32,11,0.6372572779655457,0.05815953016281128
6,1,32,12,0.4479447603225708,0.10433271527290344
6,1,32,13,0.5890921354293823,0.10348714143037796
6,1,32,14,0.4511779546737671,0.08741728961467743
6,1,32,15,0.6741635799407959,0.05191807076334953
6,1,32,16,0.49930334091186523,0.06165485829114914
6,1,32,17,0.3640629053115845,0.0766429603099823
6,1,32,18,0.5258830785751343,0.13016784191131592
6,1,32,19,0.4917683005332947,0.06678985804319382
6,1,32,20,0.610362708568573,0.17742919921875
6,1,32,21,0.6201419234275818,0.04545023292303085
6,1,32,22,0.39350762963294983,0.036932144314050674
6,1,32,23,0.487896203994751,0.10132821649312973
6,1,32,24,0.35303637385368347,0.07284445315599442
6,1,32,25,0.5512301325798035,0.10317900776863098
6,1,32,26,0.3880690634250641,0.08255111426115036
6,1,32,27,0.5156927704811096,0.1018584743142128
6,1,32,28,0.5491262674331665,0.05228687822818756
6,1,32,29,0.5354477167129517,0.14806973934173584
6,1,32,30,0.4484650790691376,0.1025676429271698
6,1,32,31,0.6145175695419312,0.06139683350920677
6,2,64,0,0.5553621053695679,0.2434774935245514
6,2,64,1,0.47600728273391724,0.18192650377750397
6,2,64,2,0.5524603724479675,0.19993709027767181
6,2,64,3,0.5166679620742798,0.06895188242197037
6,2,64,4,0.5681801438331604,0.19386212527751923
6,2,64,5,0.5903981328010559,0.1184619590640068
6,2,64,6,0.6016049981117249,0.13831399381160736
6,2,64,7,0.28386279940605164,0.07465167343616486
6,2,64,8,0.5958584547042847,0.15963397920131683
6,2,64,9,0.584878146648407,0.1581856608390808
6,2,64,10,0.4407813549041748,0.27693039178848267
6,2,64,11,0.4090234935283661,0.20108984410762787
6,2,64,12,0.6189731955528259,0.18873386085033417
6,2,64,13,0.3957943022251129,0.2088867425918579
6,2,64,14,0.469808965921402,0.15303079783916473
6,2,64,15,0.3395422697067261,0.06794407218694687
6,2,64,16,0.4686695337295532,0.102235347032547
6,2,64,17,0.5166764855384827,0.26374030113220215
6,2,64,18,0.6479403972625732,0.15170127153396606
6,2,64,19,0.3699348270893097,0.12667861580848694
6,2,64,20,0.49933406710624695,0.19939063489437103
6,2,64,21,0.5520759224891663,0.10667358338832855
6,2,64,22,0.5966361165046692,0.08893884718418121
6,2,64,23,0.4103216528892517,0.20065833628177643
6,2,64,24,0.3199393153190613,0.11009469628334045
6,2,64,25,0.5286819934844971,0.08751016855239868
6,2,64,26,0.6297970414161682,0.12466569989919662
6,2,64,27,0.5318079590797424,0.128012016415596
6,2,64,28,0.3796842694282532,0.0745495930314064
6,2,64,29,0.40368059277534485,0.16855473816394806
6,2,64,30,0.3983200788497925,0.08940912783145905
6,2,64,31,0.5787285566329956,0.19133295118808746
6,2,64,32,0.5023074150085449,0.23030772805213928
6,2,64,33,0.4989558160305023,0.16751329600811005
6,2,64,34,0.6318782567977905,0.1565624624490738
6,2,64,35,0.5905389785766602,0.12671372294425964
6,2,64,36,0.5508749485015869,0.15817882120609283
6,2,64,37,0.5115708112716675,0.13389518857002258
6,2,64,38,0.4944210946559906,0.11524967104196548
6,2,64,39,0.4001835882663727,0.1803065687417984
6,2,64,40,0.4734845757484436,0.14756737649440765
6,2,64,41,0.3762168288230896,0.12192313373088837
6,2,64,42,0.5676852464675903,0.138229101896286
6,2,64,43,0.574556827545166,0.1929626315832138
6,2,64,44,0.5974938273429871,0.18683864176273346
6,2,64,45,0.4358440637588501,0.21715229749679565
6,2,64,46,0.6218013167381287,0.25144681334495544
6,2,64,47,0.5231993198394775,0.09858931601047516
6,2,64,48,0.4452810287475586,0.1668108105659485
6,2,64,49,0.5508592128753662,0.1687973588705063
6,2,64,50,0.6003495454788208,0.1306297332048416
6,2,64,51,0.5831151604652405,0.13099023699760437
6,2,64,52,0.4070073068141937,0.15142284333705902
6,2,64,53,0.5899385213851929,0.22715462744235992
6,2,64,54,0.6347877383232117,0.1456846296787262
6,2,64,55,0.5789427161216736,0.1965690404176712
6,2,64,56,0.47931522130966187,0.1849677413702011
6,2,64,57,0.38165581226348877,0.07972802966833115
6,2,64,58,0.5385011434555054,0.06709260493516922
6,2,64,59,0.6360702514648438,0.17565912008285522
6,2,64,60,0.4677024483680725,0.17606289684772491
6,2,64,61,0.5726389288902283,0.23772956430912018
6,2,64,62,0.5140993595123291,0.03422211483120918
6,2,64,63,0.42593973875045776,0.11558118462562561
6,3,64,0,0.46828117966651917,0.06536925584077835
6,3,64,1,0.4459788501262665,0.1588205248117447
6,3,64,2,0.6920653581619263,0.19618934392929077
6,3,64,3,0.5855548977851868,0.19927598536014557
6,3,64,4,0.4782438576221466,0.047462038695812225
6,3,64,5,0.4920814037322998,0.047195278108119965
6,3,64,6,0.27336543798446655,0.11701591312885284
6,3,64,7,0.2202577441930771,0.11491476744413376
6,3,64,8,0.6984448432922363,0.09220070391893387
6,3,64,9,0.5161525011062622,0.15580341219902039
6,3,64,10,0.5370820164680481,0.1063653826713562
6,3,64,11,0.5501139760017395,0.3344128429889679
6,3,64,12,0.47495871782302856,0.0674397349357605
6,3,64,13,0.4489339292049408,0.09151914715766907
6,3,64,14,0.5220622420310974,0.05084940791130066
6,3,64,15,0.44386157393455505,0.1916647106409073
6,3,64,16,0.545981764793396,0.17836126685142517
6,3,64,17,0.5557228922843933,0.16230569779872894
6,3,64,18,0.5999476909637451,0.2361186295747757
6,3,64,19,0.388937383890152,0.28030213713645935
6,3,64,20,0.4577779769897461,0.10198807716369629
6,3,64,21,0.39779114723205566,0.05883783847093582
6,3,64,22,0.48080742359161377,0.09998181462287903
6,3,64,23,0.5838476419448853,0.16747036576271057
6,3,64,24,0.5778968334197998,0.29761213064193726
6,3,64,25,0.4926620125770569,0.14353667199611664
6,3,64,26,0.4420190751552582,0.16238300502300262
6,3,64,27,0.7038805484771729,0.09981605410575867
6,3,64,28,0.4842330813407898,0.1750292181968689
6,3,64,29,0.559694766998291,0.19189587235450745
6,3,64,30,0.25030484795570374,0.1627611219882965
6,3,64,31,0.5422011017799377,0.09955604374408722
6,3,64,32,0.5489817261695862,0.25307995080947876
6,3,64,33,0.5942745208740234,0.23954477906227112
6,3,64,34,0.5148926377296448,0.3018362820148468
6,3,64,35,0.4556485414505005,0.12298623472452164
6,3,64,36,0.7012296319007874,0.10062828660011292
6,3,64,37,0.5508221387863159,0.17369399964809418
6,3,64,38,0.5622857213020325,0.05807672441005707
6,3,64,39,0.5565729737281799,0.11580818146467209
6,3,64,40,0.6062307357788086,0.3157414495944977
6,3,64,41,0.6914458274841309,0.12906809151172638
6,3,64,42,0.37947216629981995,0.12193168699741364
6,3,64,43,0.47797149419784546,0.14439569413661957
6,3,64,44,0.5685194730758667,0.2718101739883423
6,3,64,45,0.4546666741371155,0.11418308317661285
6,3,64,46,0.5164846181869507,0.2061673104763031
6,3,64,47,0.4571443796157837,0.06346171349287033
6,3,64,48,0.5038633346557617,0.18045392632484436
6,3,64,49,0.4014330506324768,0.12159403413534164
6,3,64,50,0.48657143115997314,0.15540720522403717
6,3,64,51,0.38287344574928284,0.10970526933670044
6,3,64,52,0.2996692657470703,0.15934446454048157
6,3,64,53,0.5118401646614075,0.28788161277770996
6,3,64,54,0.35930460691452026,0.2972370684146881
6,3,64,55,0.41333797574043274,0.08455569297075272
6,3,64,56,0.6129643321037292,0.10608018189668655
6,3,64,57,0.5626679062843323,0.21013712882995605
6,3,64,58,0.5832087993621826,0.27761310338974
6,3,64,59,0.6110070943832397,0.14655494689941406
6,3,64,60,0.5568808317184448,0.13966004550457
6,3,64,61,0.39186662435531616,0.06748312711715698
6,3,64,62,0.5156623721122742,0.12074116617441177
6,3,64,63,0.6558327078819275,0.1671590805053711
6,4,128,0,0.656981348991394,0.17359963059425354
