subject,channel,alpha,f1,drop_pp
1,0,1.0,0.6691714823690847,0.0
1,0,0.75,0.6830829478031313,-1.3911465434046533
1,0,0.5,0.701834649209916,-3.266316684083126
1,0,0.25,0.7036150695505833,-3.4443587181498536
1,0,0.0,0.7002927055906282,-3.1121223221543426
1,1,1.0,0.6691714823690847,0.0
1,1,0.75,0.6825078577089638,-1.333637533987908
1,1,0.5,0.6940154265597255,-2.484394419064073
1,1,0.25,0.6978557894882211,-2.8684307119136387
1,1,0.0,0.6984167040926167,-2.9245221723531944
1,2,1.0,0.6691714823690847,0.0
1,2,0.75,0.6790308380780755,-0.9859355708990769
1,2,0.5,0.6855779492995822,-1.640646693049741
1,2,0.25,0.6787555307769744,-0.9584048407889623
1,2,0.0,0.6831088504207514,-1.3937368051666676
1,3,1.0,0.6691714823690847,0.0
1,3,0.75,0.665011552052993,0.4159930316091742
1,3,0.5,0.6577945407638379,1.1376941605246826
1,3,0.25,0.6316637529927772,3.750772937630753
1,3,0.0,0.6040520582387563,6.511942413032845
1,4,1.0,0.6691714823690847,0.0
1,4,0.75,0.7125436939520433,-4.337221158295856
1,4,0.5,0.7231756627875648,-5.40041804184801
1,4,0.25,0.7321753820347028,-6.300389966561804
1,4,0.0,0.7239385625190111,-5.476708014992637
1,5,1.0,0.6691714823690847,0.0
1,5,0.75,0.6064543825664032,6.271709980268159
1,5,0.5,0.6008357941959348,6.833568817314994
1,5,0.25,0.6064094845361597,6.276199783292502
1,5,0.0,0.6123690963899191,5.680238597916565
1,6,1.0,0.6691714823690847,0.0
1,6,0.75,0.6946832611630106,-2.5511778793925854
1,6,0.5,0.698110408452786,-2.89389260837013
1,6,0.25,0.6924054844979396,-2.3234002128854847
1,6,0.0,0.6837510116263159,-1.457952925723116
1,7,1.0,0.6691714823690847,0.0
1,7,0.75,0.6859103619863484,-1.6738879617263613
1,7,0.5,0.672063158134855,-0.28916757657702075
1,7,0.25,0.660017130741383,0.9154351627701729
1,7,0.0,0.6447426401390596,2.442884223002517
1,8,1.0,0.6691714823690847,0.0
1,8,0.75,0.6822497114042614,-1.3078229035176636
1,8,0.5,0.666888854307155,0.22826280619296924
1,8,0.25,0.6650979353053019,0.4073547063782823
1,8,0.0,0.6568076756252177,1.2363806743867056
2,0,1.0,0.8157568630783878,0.0
2,0,0.75,0.824739849130093,-0.8982986051705222
2,0,0.5,0.8177155255509866,-0.19586624725987933
2,0,0.25,0.8261083617277682,-1.0351498649380453
2,0,0.0,0.8101144872004375,0.5642375877950245
2,1,1.0,0.8157568630783878,0.0
2,1,0.75,0.8043807228165757,1.1376140261812107
2,1,0.5,0.7917801617962064,2.3976701282181434
2,1,0.25,0.7979414847858706,1.7815378292517225
2,1,0.0,0.7911088018828183,2.4648061195569504
2,2,1.0,0.8157568630783878,0.0
2,2,0.75,0.8066405816405815,0.9116281437806295
2,2,0.5,0.800040033705593,1.5716829372794838
2,2,0.25,0.787567592890031,2.818927018835682
2,2,0.0,0.7806894034209428,3.5067459657444955
2,3,1.0,0.8157568630783878,0.0
2,3,0.75,0.8162338444385171,-0.04769813601293027
2,3,0.5,0.8022853541589275,1.347150891946025
2,3,0.25,0.8028491193983093,1.290774368007852
2,3,0.0,0.8026664073425763,1.3090455735811468
2,4,1.0,0.8157568630783878,0.0
2,4,0.75,0.8344152890639431,-1.8658425985555338
2,4,0.5,0.8318895291506463,-1.6132666072258495
2,4,0.25,0.8325327206906153,-1.6775857612227552
2,4,0.0,0.8123450022953534,0.34118607830343484
2,5,1.0,0.8157568630783878,0.0
2,5,0.75,0.8352071269502086,-1.9450263871820805
2,5,0.5,0.8211574554615961,-0.5400592383208336
2,5,0.25,0.8141020543574307,0.1654808720957135
2,5,0.0,0.8058095284317632,0.9947334646624562
2,6,1.0,0.8157568630783878,0.0
2,6,0.75,0.807377312630076,0.8379550448311845
2,6,0.5,0.8054003016480401,1.0356561430347688
2,6,0.25,0.8022580661284953,1.3498796949892533
2,6,0.0,0.8012279464398502,1.4528916638537615
2,7,1.0,0.8157568630783878,0.0
2,7,0.75,0.8063053388631052,0.9451524215282614
2,7,0.5,0.8191078459021043,-0.3350982823716486
2,7,0.25,0.8031554897001245,1.260137337826328
2,7,0.0,0.7732972698210727,4.245959325731508
2,8,1.0,0.8157568630783878,0.0
2,8,0.75,0.8177110004652143,-0.19541373868264822
2,8,0.5,0.8093471438404582,0.6409719237929545
2,8,0.25,0.8199797960718759,-0.4222932993488082
2,8,0.0,0.8084884014994549,0.7268461578932905
3,0,1.0,0.8258565586590975,0.0
3,0,0.75,0.834389154689465,-0.853259603036749
3,0,0.5,0.8426243784254508,-1.6767819766353331
3,0,0.25,0.8587282267634,-3.287166810430253
3,0,0.0,0.8411308512118066,-1.5274292552709179
3,1,1.0,0.8258565586590975,0.0
3,1,0.75,0.8179235579235579,0.7933000735539597
3,1,0.5,0.8083799021777958,1.74766564813017
3,1,0.25,0.7947442170636513,3.111234159544618
3,1,0.0,0.7801950812422016,4.566147741689585
3,2,1.0,0.8258565586590975,0.0
3,2,0.75,0.838006231331754,-1.2149672672656542
3,2,0.5,0.8333378793570027,-0.7481320697905192
3,2,0.25,0.8314039606893542,-0.5547402030256721
3,2,0.0,0.819687840504167,0.6168718154930475
3,3,1.0,0.8258565586590975,0.0
3,3,0.75,0.8023140317232292,2.3542526935868224
3,3,0.5,0.7906292414417131,3.522731721738437
3,3,0.25,0.7873984089338506,3.845814972524686
3,3,0.0,0.7624436150660865,6.341294359301097
3,4,1.0,0.8258565586590975,0.0
3,4,0.75,0.8355844673177741,-0.9727908658676676
3,4,0.5,0.8317532483152748,-0.589668965617729
3,4,0.25,0.8403919108875374,-1.4535352228439935
3,4,0.0,0.8249611435281787,0.08954151309187308
3,5,1.0,0.8258565586590975,0.0
3,5,0.75,0.8391524656914493,-1.329590703235184
3,5,0.5,0.8388539061123981,-1.2997347453300612
3,5,0.25,0.8350774616368071,-0.9220902977709611
3,5,0.0,0.8305611996022106,-0.4704640943113181
3,6,1.0,0.8258565586590975,0.0
3,6,0.75,0.827946889562522,-0.20903309034245865
3,6,0.5,0.8302764690696699,-0.4419910410572436
3,6,0.25,0.8302764690696699,-0.4419910410572436
3,6,0.0,0.8322320231295615,-0.6375464470463998
3,7,1.0,0.8258565586590975,0.0
3,7,0.75,0.8294600728838213,-0.3603514224723825
3,7,0.5,0.8149299719887955,1.0926586670301996
3,7,0.25,0.8213002297209119,0.4556328938185583
3,7,0.0,0.8134541236668775,1.2402434992219935
3,8,1.0,0.8258565586590975,0.0
3,8,0.75,0.826245924544109,-0.03893658850114834
3,8,0.5,0.8184700713027024,0.7386487356395022
3,8,0.25,0.815481468207054,1.0375090452043434
3,8,0.0,0.8168929709719618,0.8963587687135677
4,0,1.0,0.8984987856379176,0.0
4,0,0.75,0.8862442661935938,1.2254519444323875
4,0,0.5,0.8748461797106272,2.365260592729046
4,0,0.25,0.8487011834307289,4.979760220718877
4,0,0.0,0.8300045254586079,6.849426017930971
4,1,1.0,0.8984987856379176,0.0
4,1,0.75,0.8913062144099544,0.719257122796324
4,1,0.5,0.884035344319881,1.4463441318036674
4,1,0.25,0.8802196805239311,1.827910511398656
4,1,0.0,0.8320482506446223,6.645053499329534
4,2,1.0,0.8984987856379176,0.0
4,2,0.75,0.8908315805661108,0.7667205071806849
4,2,0.5,0.8923611328518886,0.6137652786029069
4,2,0.25,0.8795434844840668,1.89553011538508
4,2,0.0,0.8629870152565481,3.5511770381369545
4,3,1.0,0.8984987856379176,0.0
4,3,0.75,0.8956685693578832,0.28302162800344366
4,3,0.5,0.8960057659350158,0.2493019702901833
4,3,0.25,0.8877430555555555,1.075573008236208
4,3,0.0,0.8768365688287293,2.166221680918834
4,4,1.0,0.8984987856379176,0.0
4,4,0.75,0.8985569922443061,-0.005820660638844455
4,4,0.5,0.895285930792608,0.3212854845309643
4,4,0.25,0.8892277811810325,0.9271004456885112
4,4,0.0,0.8892277811810325,0.9271004456885112
4,5,1.0,0.8984987856379176,0.0
4,5,0.75,0.8816487446060577,1.6850041031859941
4,5,0.5,0.8836684671838276,1.4830318454089997
4,5,0.25,0.8840303388920386,1.4468446745878993
4,5,0.0,0.8869456997724272,1.155308586549042
4,6,1.0,0.8984987856379176,0.0
4,6,0.75,0.8892101053123557,0.928868032556196
4,6,0.5,0.8825057423722061,1.5993043265711493
4,6,0.25,0.8798393356104819,1.8659450027435742
4,6,0.0,0.8817924751582777,1.6706310479639885
4,7,1.0,0.8984987856379176,0.0
4,7,0.75,0.8975109891542118,0.09877964837058384
4,7,0.5,0.9013896853437127,-0.2890899705795036
4,7,0.25,0.8917143328956172,0.678445274230044
4,7,0.0,0.886220882991575,1.2277902646342653
4,8,1.0,0.8984987856379176,0.0
4,8,0.75,0.8971580650501642,0.13407205877534745
4,8,0.5,0.9010760807470031,-0.25772951090854423
4,8,0.25,0.902058189052192,-0.3559403414274409
4,8,0.0,0.8832162344545655,1.5282551183352089
5,0,1.0,0.6773449246382122,0.0
5,0,0.75,0.6795257915796034,-0.21808669413911907
5,0,0.5,0.6724443682420402,0.4900556396171929
5,0,0.25,0.679444163563483,-0.20992389252708632
5,0,0.0,0.677433271964333,-0.008834732612084117
5,1,1.0,0.6773449246382122,0.0
5,1,0.75,0.6944526377920379,-1.7107713153825754
5,1,0.5,0.6919422520110488,-1.4597327372836588
5,1,0.25,0.6887249878589046,-1.1380063220692405
5,1,0.0,0.6766611489148696,0.06837757233425501
5,2,1.0,0.6773449246382122,0.0
5,2,0.75,0.6895356999207608,-1.2190775282548638
5,2,0.5,0.6867115243821321,-0.9366599743919957
5,2,0.25,0.6813636155320137,-0.401869089380158
5,2,0.0,0.6762491031044674,0.10958215337447674
5,3,1.0,0.6773449246382122,0.0
5,3,0.75,0.6824762837295175,-0.5131359091305354
5,3,0.5,0.6992183879342704,-2.1873463296058215
5,3,0.25,0.711442740550631,-3.4097815912418783
5,3,0.0,0.7061034597985473,-2.875853516033511
5,4,1.0,0.6773449246382122,0.0
5,4,0.75,0.6425716759006476,3.47732487375646
5,4,0.5,0.6206735985204671,5.667132611774505
5,4,0.25,0.6164919516089505,6.085297302926163
5,4,0.0,0.5906077176997679,8.673720693844423
5,5,1.0,0.6773449246382122,0.0
5,5,0.75,0.6510653119863159,2.6279612651896267
5,5,0.5,0.6465152671375425,3.0829657500669683
5,5,0.25,0.6306622551902861,4.6682669447926095
5,5,0.0,0.6424246902966426,3.4920234341569545
5,6,1.0,0.6773449246382122,0.0
5,6,0.75,0.676319448570154,0.10254760680581398
5,6,0.5,0.6762789187094362,0.1066005928775926
5,6,0.25,0.6767436096450746,0.06013149931375361
5,6,0.0,0.6749787982209465,0.2366126417265635
5,7,1.0,0.6773449246382122,0.0
5,7,0.75,0.6686901571605093,0.8654767477702885
5,7,0.5,0.6691140868946341,0.8230837743578023
5,7,0.25,0.6515000192156184,2.5844905422593767
5,7,0.0,0.6489689945005489,2.8375930137663263
5,8,1.0,0.6773449246382122,0.0
5,8,0.75,0.665083913706672,1.2261010931540195
5,8,0.5,0.672334798700183,0.5010125938029186
5,8,0.25,0.6678822567948417,0.9462667843370465
5,8,0.0,0.6470701349555976,3.0274789682614545
6,0,1.0,0.8064925278307352,0.0
6,0,0.75,0.8039471390621928,0.2545388768542378
6,0,0.5,0.8134265655613766,-0.6934037730641385
6,0,0.25,0.8072863087500323,-0.07937809192970491
6,0,0.0,0.7928844161915589,1.3608111639176301
6,1,1.0,0.8064925278307352,0.0
6,1,0.75,0.8032725688125162,0.3219959018219032
6,1,0.5,0.8062006751999531,0.02918526307821301
6,1,0.25,0.8061009878218621,0.03915400088730925
6,1,0.0,0.7968092654458947,0.9683262384840519
6,2,1.0,0.8064925278307352,0.0
6,2,0.75,0.8184077890969801,-1.191526126624487
6,2,0.5,0.8310381815580433,-2.4545653727308103
6,2,0.25,0.8234564678910805,-1.6963940060345295
6,2,0.0,0.8279364875533526,-2.1443959722617367
6,3,1.0,0.8064925278307352,0.0
6,3,0.75,0.8235841591868074,-1.7091631356072168
6,3,0.5,0.8375208313720174,-3.1028303541282165
6,3,0.25,0.8351260006287939,-2.8633472798058723
6,3,0.0,0.8378791172309127,-3.1386589400177467
6,4,1.0,0.8064925278307352,0.0
6,4,0.75,0.7790114868344906,2.74810409962446
6,4,0.5,0.7785680979093534,2.7924429921381777
6,4,0.25,0.7565372200592326,4.995530777150259
6,4,0.0,0.7841620536860504,2.233047414468481
6,5,1.0,0.8064925278307352,0.0
6,5,0.75,0.7912524625831535,1.5240065247581702
6,5,0.5,0.7945948664811886,1.1897661349546618
6,5,0.25,0.7898460545001748,1.6646473330560463
6,5,0.0,0.7866794901180499,1.9813037712685277
6,6,1.0,0.8064925278307352,0.0
6,6,0.75,0.7958624942976558,1.0630033533079453
6,6,0.5,0.7822243253128578,2.4268202517877424
6,6,0.25,0.7781603323552702,2.833219547546506
6,6,0.0,0.780446623093682,2.604590473705326
6,7,1.0,0.8064925278307352,0.0
6,7,0.75,0.7965528168674305,0.9939710963304704
6,7,0.5,0.7910848199017795,1.5407707928955738
6,7,0.25,0.7712038060625879,3.5288721768147346
6,7,0.0,0.7556393076290424,5.085322020169281
6,8,1.0,0.8064925278307352,0.0
6,8,0.75,0.8033651705869655,0.31273572437696684
6,8,0.5,0.7895625775003207,1.6929950330414556
6,8,0.25,0.7821326222796812,2.435990555105405
6,8,0.0,0.7642108557645576,4.228167206617761
7,0,1.0,0.7322363357662361,0.0
7,0,0.75,0.7370979038740233,-0.4861568107787151
7,0,0.5,0.7358305624522711,-0.3594226686034929
7,0,0.25,0.715682201514741,1.65541342514951
7,0,0.0,0.7004801878250538,3.175614794118231
7,1,1.0,0.7322363357662361,0.0
7,1,0.75,0.7343817906731651,-0.21454549069289675
7,1,0.5,0.7175778577608335,1.4658478005402653
7,1,0.25,0.7067542635743843,2.5482072191851834
7,1,0.0,0.710459912054223,2.177642371201316
7,2,1.0,0.7322363357662361,0.0
7,2,0.75,0.7376629206486318,-0.5426584882395669
7,2,0.5,0.735863977609439,-0.36276418432028557
7,2,0.25,0.7303299108187724,0.19064249474637363
7,2,0.0,0.7253485717916854,0.6887763974550709
7,3,1.0,0.7322363357662361,0.0
7,3,0.75,0.7535518620095667,-2.131552624333055
7,3,0.5,0.7654807065131425,-3.3244370746906338
7,3,0.25,0.773756752332624,-4.152041656638783
7,3,0.0,0.774407974976649,-4.217163921041289
7,4,1.0,0.7322363357662361,0.0
7,4,0.75,0.7244450931825177,0.7791242583718438
7,4,0.5,0.7003568155029309,3.1879520263305205
7,4,0.25,0.6936932820849817,3.8543053681254436
7,4,0.0,0.6986124456513644,3.362389011487177
7,5,1.0,0.7322363357662361,0.0
7,5,0.75,0.7517980026151241,-1.9561666848887937
7,5,0.5,0.7634122175295984,-3.117588176336228
7,5,0.25,0.7543625816020841,-2.212624583584799
7,5,0.0,0.7689009770504297,-3.6664641284193555
7,6,1.0,0.7322363357662361,0.0
7,6,0.75,0.7432912704971504,-1.1054934730914234
7,6,0.5,0.7055160043653425,2.6720331400893693
7,6,0.25,0.6403363727124693,9.18999630537668
7,6,0.0,0.6349444524265024,9.72918833397337
7,7,1.0,0.7322363357662361,0.0
7,7,0.75,0.7244643758433505,0.7771959922885596
7,7,0.5,0.6233768961213517,10.885943964488442
7,7,0.25,0.6763762897695687,5.586004599666749
7,7,0.0,0.7039646706961301,2.8271665070106033
7,8,1.0,0.7322363357662361,0.0
7,8,0.75,0.7387357492743265,-0.6499413508090357
7,8,0.5,0.7329127138605306,-0.06763780942944386
7,8,0.25,0.726350754496073,0.5885581270163143
7,8,0.0,0.7206809959749739,1.155533979126222
8,0,1.0,0.8501816236999128,0.0
8,0,0.75,0.8402994910225586,0.9882132677354161
8,0,0.5,0.8517250385596725,-0.15434148597597286
8,0,0.25,0.857516128657223,-0.733450495731025
8,0,0.0,0.8347584421146902,1.54231815852226
8,1,1.0,0.8501816236999128,0.0
8,1,0.75,0.8476791659599905,0.25024577399223036
8,1,0.5,0.8456702435624561,0.45113801374566664
8,1,0.25,0.8381140158738092,1.206760782610361
8,1,0.0,0.8269064055772806,2.3275218122632224
8,2,1.0,0.8501816236999128,0.0
8,2,0.75,0.8431513844352453,0.7030239264667504
8,2,0.5,0.8427020991514758,0.7479524548437033
8,2,0.25,0.8472042975088889,0.2977326191023866
8,2,0.0,0.8462269420876538,0.3954681612258981
8,3,1.0,0.8501816236999128,0.0
8,3,0.75,0.8516091424733814,-0.14275187734685835
8,3,0.5,0.8437713855214578,0.6410238178454986
8,3,0.25,0.8426098673542134,0.7571756345699399
8,3,0.0,0.8323885215248873,1.77931021750255
8,4,1.0,0.8501816236999128,0.0
8,4,0.75,0.8309088410341335,1.9272782665779253
8,4,0.5,0.8219244398794688,2.8257183820443954
8,4,0.25,0.8046515297819916,4.553009391792118
8,4,0.0,0.8355897421218899,1.4591881578022936
8,5,1.0,0.8501816236999128,0.0
8,5,0.75,0.8226873955948358,2.7494228105076957
8,5,0.5,0.8086310440045781,4.1550579695334715
8,5,0.25,0.8177555509402615,3.242607275965126
8,5,0.0,0.8126645588190791,3.751706488083373
8,6,1.0,0.8501816236999128,0.0
8,6,0.75,0.846876749192587,0.330487450732575
8,6,0.5,0.8352856600885357,1.4895963611377128
8,6,0.25,0.8481026872900554,0.2078936409857346
8,6,0.0,0.8344994752932834,1.5682148406629404
8,7,1.0,0.8501816236999128,0.0
8,7,0.75,0.8571118816378869,-0.6930257937974083
8,7,0.5,0.8359211155415314,1.4260508158381424
8,7,0.25,0.8154032500873558,3.477837361255698
8,7,0.0,0.7890750542653906,6.11065694345222
8,8,1.0,0.8501816236999128,0.0
8,8,0.75,0.8448954318237059,0.5286191876206936
8,8,0.5,0.8376657069759051,1.2515916724007647
8,8,0.25,0.8236223580157075,2.65592656842053
8,8,0.0,0.8026785241198688,4.7503099580043955
9,0,1.0,0.8148764187192945,0.0
9,0,0.75,0.8164784817149415,-0.16020629956470245
9,0,0.5,0.8126202415764867,0.22561771428077915
9,0,0.25,0.8054870964673725,0.9389322251922017
9,0,0.0,0.8007676627796187,1.4108755939675754
9,1,1.0,0.8148764187192945,0.0
9,1,0.75,0.8112629483425939,0.3613470376700567
9,1,0.5,0.8025876049164685,1.2288813802825982
9,1,0.25,0.7976196337013293,1.7256785017965237
9,1,0.0,0.791510512348171,2.3365906371123457
9,2,1.0,0.8148764187192945,0.0
9,2,0.75,0.8063093151470767,0.8567103572217794
9,2,0.5,0.7976481217738838,1.7228296945410726
9,2,0.25,0.7923316285218773,2.2544790197417175
9,2,0.0,0.7649046072735572,4.997181144573726
9,3,1.0,0.8148764187192945,0.0
9,3,0.75,0.804088199746276,1.0788218973018515
9,3,0.5,0.8040503856916283,1.082603302766616
9,3,0.25,0.8165297909004194,-0.16533721811249347
9,3,0.0,0.8079479465064142,0.6928472212880288
9,4,1.0,0.8148764187192945,0.0
9,4,0.75,0.7995590791267615,1.5317339592533008
9,4,0.5,0.8062608010896863,0.8615617629608163
9,4,0.25,0.7873502717115399,2.7526147007754576
9,4,0.0,0.7907707584116606,2.4105660307633947
9,5,1.0,0.8148764187192945,0.0
9,5,0.75,0.8101353783867477,0.4741040332546853
9,5,0.5,0.8099228887161065,0.4953530003187989
9,5,0.25,0.8042271053063854,1.064931341290909
9,5,0.0,0.8032559430512831,1.1620475668011387
9,6,1.0,0.8148764187192945,0.0
9,6,0.75,0.8095202770401483,0.535614167914622
9,6,0.5,0.8124199580177769,0.24564607015176154
9,6,0.25,0.812541123222429,0.23352954968655082
9,6,0.0,0.8102087749648725,0.46676437544219684
9,7,1.0,0.8148764187192945,0.0
9,7,0.75,0.8174698501727915,-0.2593431453496997
9,7,0.5,0.8091095970555837,0.5766821663710786
9,7,0.25,0.8101819329280631,0.46944857912314397
9,7,0.0,0.7980421754670816,1.6834243252212944
9,8,1.0,0.8148764187192945,0.0
9,8,0.75,0.821382128197335,-0.6505709478040522
9,8,0.5,0.8384338707473699,-2.3557452028075354
9,8,0.25,0.8333504758423542,-1.8474057123059717
9,8,0.0,0.8293792526633676,-1.4502833944073146
10,0,1.0,0.7167888803471484,0.0
10,0,0.75,0.7253592001476943,-0.85703198005459
10,0,0.5,0.7018955327702739,1.4893347576874438
10,0,0.25,0.705477668316728,1.1311212030420403
10,0,0.0,0.6989222095193426,1.7866670827805797
10,1,1.0,0.7167888803471484,0.0
10,1,0.75,0.7242002980629945,-0.741141771584608
10,1,0.5,0.7136239385184019,0.31649418287464925
10,1,0.25,0.7027950269721317,1.3993853375016685
10,1,0.0,0.7159053293221622,0.08835510249861622
10,2,1.0,0.7167888803471484,0.0
10,2,0.75,0.7208057569901065,-0.4016876642958134
10,2,0.5,0.7198900873877229,-0.3101207040574483
10,2,0.25,0.7100790839162932,0.670979643085523
10,2,0.0,0.7129163149114712,0.38725654356771555
10,3,1.0,0.7167888803471484,0.0
10,3,0.75,0.7058073767843883,1.0981503562760064
10,3,0.5,0.6876206013893333,2.916827895781504
10,3,0.25,0.6803834707840247,3.640540956312366
10,3,0.0,0.678777384504679,3.8011495842469434
10,4,1.0,0.7167888803471484,0.0
10,4,0.75,0.7268605852719887,-1.007170492484033
10,4,0.5,0.7282433729158677,-1.1454492568719332
10,4,0.25,0.7182140957841191,-0.1425215436970717
10,4,0.0,0.716084825103202,0.07040552439463443
10,5,1.0,0.7167888803471484,0.0
10,5,0.75,0.742069304602071,-2.5280424254922607
10,5,0.5,0.7236148756310414,-0.6825995283893049
10,5,0.25,0.7114212619108289,0.5367618436319499
10,5,0.0,0.7165091752048274,0.02797051423210073
10,6,1.0,0.7167888803471484,0.0
10,6,0.75,0.7206154586252184,-0.3826578278069981
10,6,0.5,0.7236159319680666,-0.6827051620918234
10,6,0.25,0.7167003280016798,0.008855234546856217
10,6,0.0,0.7114290128797205,0.5359867467427892
10,7,1.0,0.7167888803471484,0.0
10,7,0.75,0.7238095238095238,-0.7020643462375409
10,7,0.5,0.7195528509005896,-0.2763970553441242
10,7,0.25,0.7010671343045445,1.5721746042603901
10,7,0.0,0.7082034640574449,0.858541628970344
10,8,1.0,0.7167888803471484,0.0
10,8,0.75,0.7225219703562342,-0.5733090009085839
10,8,0.5,0.7317498540322939,-1.4960973685145484
10,8,0.25,0.724061953465504,-0.7273073118355566
10,8,0.0,0.7197621803640956,-0.2973300016947178
11,0,1.0,0.9085965080064626,0.0
11,0,0.75,0.9105616489077538,-0.19651409012911847
11,0,0.5,0.9075969906731141,0.09995173333485763
11,0,0.25,0.9075953617999148,0.10011462065477872
11,0,0.0,0.911530585591291,-0.2934077584828332
11,1,1.0,0.9085965080064626,0.0
11,1,0.75,0.9147355498218153,-0.613904181535263
11,1,0.5,0.9095107327279082,-0.09142247214455335
11,1,0.25,0.9083975258292849,0.019898217717773115
11,1,0.0,0.8791241770056353,2.9472331000827356
11,2,1.0,0.9085965080064626,0.0
11,2,0.75,0.9157970370689669,-0.7200529062504235
11,2,0.5,0.9028127997122762,0.5783708294186396
11,2,0.25,0.8797921183542379,2.880438965222476
11,2,0.0,0.8755902794890033,3.300622851745938
11,3,1.0,0.9085965080064626,0.0
11,3,0.75,0.9124440268950775,-0.3847518888614898
11,3,0.5,0.9018951003938062,0.6701407612656474
11,3,0.25,0.8911767797176684,1.7419728288794234
11,3,0.0,0.8773874145632117,3.1209093443250957
11,4,1.0,0.9085965080064626,0.0
11,4,0.75,0.9122798057842915,-0.3683297777828831
11,4,0.5,0.9024806365511904,0.6115871455272259
11,4,0.25,0.8946165966386554,1.3979911367807185
11,4,0.0,0.8935110557971174,1.5085452209345207
11,5,1.0,0.9085965080064626,0.0
11,5,0.75,0.9045546282910012,0.40418797154614383
11,5,0.5,0.8948172168422044,1.3779291164258245
11,5,0.25,0.8893934385548102,1.92030694516524
11,5,0.0,0.8911299671525236,1.746654085393906
11,6,1.0,0.9085965080064626,0.0
11,6,0.75,0.9086609003344603,-0.006439232799770878
11,6,0.5,0.9076256557484983,0.09708522579643386
11,6,0.25,0.9076256557484983,0.09708522579643386
11,6,0.0,0.9153465326647123,-0.6750024658249698
11,7,1.0,0.9085965080064626,0.0
11,7,0.75,0.9127109008631301,-0.41143928566674814
11,7,0.5,0.9258862031280898,-1.7289695121627147
11,7,0.25,0.923054714438689,-1.4458206432226395
11,7,0.0,0.9220324172609713,-1.343590925450866
11,8,1.0,0.9085965080064626,0.0
11,8,0.75,0.9114819435955464,-0.2885435589083718
11,8,0.5,0.9134343931738375,-0.48378851673748224
11,8,0.25,0.9167516933070533,-0.8155185300590673
11,8,0.0,0.9058694683694684,0.27270396369942773
12,0,1.0,0.9065268339581087,0.0
12,0,0.75,0.9029309244551442,0.35959095029645116
12,0,0.5,0.9039341587666018,0.25926751915069657
12,0,0.25,0.9057561814623961,0.07706524957126204
12,0,0.0,0.8873481046722032,1.9178729285905582
12,1,1.0,0.9065268339581087,0.0
12,1,0.75,0.9032096934114333,0.33171405466754234
12,1,0.5,0.887802877124006,1.8723956834102773
12,1,0.25,0.8748677512358294,3.1659082722279352
12,1,0.0,0.8402096956875531,6.631713827055563
12,2,1.0,0.9065268339581087,0.0
12,2,0.75,0.8995849923520484,0.6941841606060373
12,2,0.5,0.8969033131556124,0.9623520802496288
12,2,0.25,0.8909669140595529,1.5559919898555874
12,2,0.0,0.8604179728326744,4.610886112543433
12,3,1.0,0.9065268339581087,0.0
12,3,0.75,0.8998785492563762,0.664828470173251
12,3,0.5,0.8943184948422781,1.2208339115830635
12,3,0.25,0.8767271986161127,2.9799635341996034
12,3,0.0,0.8659910442087607,4.053578974934801
12,4,1.0,0.9065268339581087,0.0
12,4,0.75,0.8955271326924483,1.099970126566041
12,4,0.5,0.8943180590616331,1.220877489647565
12,4,0.25,0.8913009512104857,1.5225882747623043
12,4,0.0,0.9090427700954017,-0.2515936137292951
12,5,1.0,0.9065268339581087,0.0
12,5,0.75,0.8973302353939063,0.9196598564202407
12,5,0.5,0.8911800846635314,1.5346749294577355
12,5,0.25,0.8954456239460534,1.108121001205531
12,5,0.0,0.9191384288928157,-1.2611594934706982
12,6,1.0,0.9065268339581087,0.0
12,6,0.75,0.8970373508055918,0.9489483152516964
12,6,0.5,0.8955543118404339,1.0972522117674854
12,6,0.25,0.902533929954001,0.3992904004107789
12,6,0.0,0.9013672808742109,0.5159553083897817
12,7,1.0,0.9065268339581087,0.0
12,7,0.75,0.9029309244551442,0.35959095029645116
12,7,0.5,0.901004715054341,0.5522118903767748
12,7,0.25,0.9092643822453661,-0.2737548287257363
12,7,0.0,0.8935187747264615,1.3008059231647273
12,8,1.0,0.9065268339581087,0.0
12,8,0.75,0.8940896416415587,1.243719231655005
12,8,0.5,0.8883446706586581,1.818216329945066
12,8,0.25,0.8772797744992408,2.9247059458867963
12,8,0.0,0.8523777173913043,5.414911656680443
13,0,1.0,0.8543088710499245,0.0
13,0,0.75,0.8632482291345859,-0.8939358084661397
13,0,0.5,0.8640067133423326,-0.969784229240811
13,0,0.25,0.8675960889456094,-1.3287217895684877
13,0,0.0,0.8465506437989085,0.7758227251015937
13,1,1.0,0.8543088710499245,0.0
13,1,0.75,0.84616219481676,0.8146676233164452
13,1,0.5,0.8428448637393718,1.1464007310552637
13,1,0.25,0.8361777532711991,1.8131117778725336
13,1,0.0,0.8356625484117614,1.8646322638163126
13,2,1.0,0.8543088710499245,0.0
13,2,0.75,0.847262795536645,0.7046075513279515
13,2,0.5,0.843128375548233,1.1180495501691534
13,2,0.25,0.8408355896301996,1.3473281419724925
13,2,0.0,0.8347494947990306,1.9559376250893878
13,3,1.0,0.8543088710499245,0.0
13,3,0.75,0.8521771204279416,0.21317506219828974
13,3,0.5,0.8492018857184233,0.5106985331501224
13,3,0.25,0.8443039311088337,1.0004939941090751
13,3,0.0,0.8244942814108294,2.9814589639095113
13,4,1.0,0.8543088710499245,0.0
13,4,0.75,0.8336391426899706,2.0669728359953843
13,4,0.5,0.8129950174434838,4.131385360644069
13,4,0.25,0.7945910665840008,5.971780446592367
13,4,0.0,0.8010042922202246,5.330457882969986
13,5,1.0,0.8543088710499245,0.0
13,5,0.75,0.8482054640475293,0.61034070023952
13,5,0.5,0.8429612949774241,1.1347576072500365
13,5,0.25,0.8242517715321663,3.0057099517758146
13,5,0.0,0.8093692244250866,4.493964662483785
13,6,1.0,0.8543088710499245,0.0
13,6,0.75,0.8592132326041436,-0.4904361554219139
13,6,0.5,0.8533340617126309,0.09748093372935474
13,6,0.25,0.8476382711561345,0.667059989378993
13,6,0.0,0.834211694140688,2.0097176909236514
13,7,1.0,0.8543088710499245,0.0
13,7,0.75,0.8522596907220557,0.2049180327868827
13,7,0.5,0.8488079825260112,0.5500888523913283
13,7,0.25,0.8405026412826192,1.3806229767305278
13,7,0.0,0.8277119696704716,2.659690137945292
13,8,1.0,0.8543088710499245,0.0
13,8,0.75,0.8645052974991821,-1.0196426449257667
13,8,0.5,0.8591675644754067,-0.48586934254821745
13,8,0.25,0.8583020982687746,-0.3993227218850093
13,8,0.0,0.8356826712180098,1.8626199831914714
14,0,1.0,0.8294720731101806,0.0
14,0,0.75,0.8346395476749177,-0.5167474564737096
14,0,0.5,0.8355224389355753,-0.6050365825394755
14,0,0.25,0.8375551815526949,-0.8083108442514364
14,0,0.0,0.8330499447790349,-0.3577871668854371
14,1,1.0,0.8294720731101806,0.0
14,1,0.75,0.8249404559957872,0.4531617114393316
14,1,0.5,0.8196943255238114,0.9777747586369179
14,1,0.25,0.8142452614790009,1.522681163117967
14,1,0.0,0.8060868201741741,2.338525293600646
14,2,1.0,0.8294720731101806,0.0
14,2,0.75,0.8331462076067995,-0.3674134496618908
14,2,0.5,0.8337271445119203,-0.4255071401739752
14,2,0.25,0.8362990353669484,-0.6826962256767821
14,2,0.0,0.8401797216978808,-1.0707648587700236
14,3,1.0,0.8294720731101806,0.0
14,3,0.75,0.8233559303508492,0.6116142759331367
14,3,0.5,0.8170200959297876,1.2451977180392926
14,3,0.25,0.7767105863751169,5.2761486735063645
14,3,0.0,0.7640292610042405,6.544281210594005
14,4,1.0,0.8294720731101806,0.0
14,4,0.75,0.8419484596264613,-1.247638651628069
14,4,0.5,0.8482081898875438,-1.8736116777363199
14,4,0.25,0.841436353446134,-1.1964280335953426
14,4,0.0,0.8492689849433237,-1.9796911833143138
14,5,1.0,0.8294720731101806,0.0
14,5,0.75,0.8288673385086687,0.06047346015118915
14,5,0.5,0.8315179708881364,-0.20458977779558296
14,5,0.25,0.8378521197813369,-0.8380046671156327
14,5,0.0,0.8299791200737905,-0.05070469636099251
14,6,1.0,0.8294720731101806,0.0
14,6,0.75,0.8305967488644059,-0.11246757542253683
14,6,0.5,0.8344143404488232,-0.49422673386426696
14,6,0.25,0.832248848066955,-0.27767749567744193
14,6,0.0,0.8206383238706867,0.8833749239493871
14,7,1.0,0.8294720731101806,0.0
14,7,0.75,0.8240372009982725,0.5434872111908073
14,7,0.5,0.7961956780656505,3.327639504453006
14,7,0.25,0.7910554974082934,3.841657570188717
14,7,0.0,0.7728348211577314,5.6637251952449175
14,8,1.0,0.8294720731101806,0.0
14,8,0.75,0.8229244296155472,0.6547643494633326
14,8,0.5,0.8179521564823602,1.151991662782037
14,8,0.25,0.8184316048107951,1.104046829938543
14,8,0.0,0.8024375111915187,2.7034561918661826
15,0,1.0,0.8742012304644969,0.0
15,0,0.75,0.8721271503663525,0.20740800981444707
15,0,0.5,0.8630091732357268,1.1192057228770147
15,0,0.25,0.8610904721074213,1.3110758357075647
15,0,0.0,0.8588082544845896,1.5392975979907297
15,1,1.0,0.8742012304644969,0.0
15,1,0.75,0.8927322464410676,-1.8531015976570697
15,1,0.5,0.9010751286640685,-2.6873898199571533
15,1,0.25,0.905368576093525,-3.116734562902801
15,1,0.0,0.9018324701238597,-2.763123965936276
15,2,1.0,0.8742012304644969,0.0
15,2,0.75,0.8844439569885809,-1.0242726524083978
15,2,0.5,0.8861823289454869,-1.1981098480989938
15,2,0.25,0.8761794941786636,-0.19782637141666504
15,2,0.0,0.8459420182532693,2.8259212211227625
15,3,1.0,0.8742012304644969,0.0
15,3,0.75,0.874399620554768,-0.019839009027111665
15,3,0.5,0.8698143772771532,0.43868531873437755
15,3,0.25,0.8623519702578402,1.1849260206656775
15,3,0.0,0.8593887670299032,1.4812463434593748
15,4,1.0,0.8742012304644969,0.0
15,4,0.75,0.878419519766058,-0.42182893015610956
15,4,0.5,0.8841516716590117,-0.9950441194514714
15,4,0.25,0.9010668990507701,-2.686566858627315
15,4,0.0,0.9084982613270935,-3.429703086259661
15,5,1.0,0.8742012304644969,0.0
15,5,0.75,0.8665453494772045,0.7655880987292418
15,5,0.5,0.866018760534478,0.8182469930018921
15,5,0.25,0.8604417182561055,1.3759512208391445
15,5,0.0,0.8667849147142659,0.7416315750231051
15,6,1.0,0.8742012304644969,0.0
15,6,0.75,0.8672319531007329,0.696927736376407
15,6,0.5,0.870732570914647,0.3468659549849984
15,6,0.25,0.8593414132016131,1.4859817262883879
15,6,0.0,0.8613731859314876,1.2828044533009342
15,7,1.0,0.8742012304644969,0.0
15,7,0.75,0.8630436465855341,1.1157583878962818
15,7,0.5,0.8629716952935493,1.1229535170947602
15,7,0.25,0.8493455172227593,2.485571324173763
15,7,0.0,0.8413911466289371,3.2810083835559833
15,8,1.0,0.8742012304644969,0.0
15,8,0.75,0.8825640740577552,-0.8362843593258229
15,8,0.5,0.8924073003020372,-1.820606983754025
15,8,0.25,0.8897740202693762,-1.5572789804879306
15,8,0.0,0.8694563779426298,0.4744852521867182
16,0,1.0,0.8254796041750928,0.0
16,0,0.75,0.8305590581420154,-0.5079453966922554
16,0,0.5,0.8348861236802414,-0.9406519505148592
16,0,0.25,0.8307160436714482,-0.5236439496355438
16,0,0.0,0.8265759637188209,-0.10963595437281093
16,1,1.0,0.8254796041750928,0.0
16,1,0.75,0.8292906120352936,-0.38110078602008324
16,1,0.5,0.8451441060663644,-1.9664501891271557
16,1,0.25,0.8476997501413435,-2.222014596625066
16,1,0.0,0.8366808405960569,-1.1201236420964045
16,2,1.0,0.8254796041750928,0.0
16,2,0.75,0.8230242622608951,0.24553419141977173
16,2,0.5,0.8192141665400596,0.6265437635033178
16,2,0.25,0.8219257721821626,0.35538319929302453
16,2,0.0,0.825460143034287,0.001946114080575434
16,3,1.0,0.8254796041750928,0.0
16,3,0.75,0.8416206555224691,-1.6141051347376312
16,3,0.5,0.8468658647578713,-2.1386260582778482
16,3,0.25,0.8477262499959858,-2.2246645820892974
16,3,0.0,0.844069476852775,-1.8589872677682195
16,4,1.0,0.8254796041750928,0.0
16,4,0.75,0.8339153824462759,-0.8435778271183136
16,4,0.5,0.8212450329302091,0.4234571244883689
16,4,0.25,0.8022263100586049,2.325329411648791
16,4,0.0,0.8143498180951821,1.1129786079910664
16,5,1.0,0.8254796041750928,0.0
16,5,0.75,0.7955422420879981,2.9937362087094743
16,5,0.5,0.8027726858767011,2.2706918298391665
16,5,0.25,0.8192035706251417,0.6276033549951099
16,5,0.0,0.8200378784884995,0.5441725686593291
16,6,1.0,0.8254796041750928,0.0
16,6,0.75,0.821689172096756,0.3790432078336847
16,6,0.5,0.8207426232226421,0.47369809524506756
16,6,0.25,0.8243240230827341,0.11555810923586929
16,6,0.0,0.8202001007188817,0.5279503456211088
16,7,1.0,0.8254796041750928,0.0
16,7,0.75,0.8387004052531127,-1.3220801078019928
16,7,0.5,0.8352187589111892,-0.9739154736096434
16,7,0.25,0.7925543644597086,3.292523971538419
16,7,0.0,0.7786884127662732,4.67911914088196
16,8,1.0,0.8254796041750928,0.0
16,8,0.75,0.8258368302258441,-0.03572260507512803
16,8,0.5,0.8321153058367203,-0.6635701661627524
16,8,0.25,0.8249763251563917,0.050327901870106384
16,8,0.0,0.8186796683905746,0.6799935784518207
17,0,1.0,0.8230937843506783,0.0
17,0,0.75,0.8273332757370253,-0.42394913863470496
17,0,0.5,0.8299284640492807,-0.6834679698602408
17,0,0.25,0.8308421679476435,-0.774838359696528
17,0,0.0,0.8191003281463116,0.3993456204366641
17,1,1.0,0.8230937843506783,0.0
17,1,0.75,0.8277398132427843,-0.464602889210608
17,1,0.5,0.8325867014379802,-0.9492917087301933
17,1,0.25,0.8302172722604646,-0.7123487909786341
17,1,0.0,0.8358884702042411,-1.2794685853562804
17,2,1.0,0.8230937843506783,0.0
17,2,0.75,0.8195932045017147,0.350057984896357
17,2,0.5,0.8230293525034647,0.006443184721360851
17,2,0.25,0.8176166973540644,0.5477086996613867
17,2,0.0,0.819568373078496,0.35254112721823105
17,3,1.0,0.8230937843506783,0.0
17,3,0.75,0.8192758770000148,0.3817907350663452
17,3,0.5,0.824009340313802,-0.09155559631237598
17,3,0.25,0.8145409761976175,0.8552808153060809
17,3,0.0,0.8097783853240723,1.3315399026605945
17,4,1.0,0.8230937843506783,0.0
17,4,0.75,0.8185399632476577,0.45538211030206055
17,4,0.5,0.8096384779636612,1.3455306387017085
17,4,0.25,0.8175291205278601,0.5564663822818172
17,4,0.0,0.815607624786668,0.748615956401022
17,5,1.0,0.8230937843506783,0.0
17,5,0.75,0.8253895349213956,-0.2295750570717292
17,5,0.5,0.8228242254691233,0.026955888155499874
17,5,0.25,0.8208839205785406,0.22098637721376102
17,5,0.0,0.8281411763440004,-0.5047391993322159
17,6,1.0,0.8230937843506783,0.0
17,6,0.75,0.8332800460491973,-1.0186261698518995
17,6,0.5,0.8370139621718109,-1.392017782113264
17,6,0.25,0.8333759115078365,-1.028212715715826
17,6,0.0,0.8226258596012268,0.04679247494514538
17,7,1.0,0.8230937843506783,0.0
17,7,0.75,0.8306254183816472,-0.7531634030968903
17,7,0.5,0.8352996240672748,-1.22058397165965
17,7,0.25,0.8278718817994927,-0.4778097448814411
17,7,0.0,0.8051571365196155,1.7936647831062746
17,8,1.0,0.8230937843506783,0.0
17,8,0.75,0.8243360524268892,-0.12422680762109728
17,8,0.5,0.8286884225207125,-0.559463817003425
17,8,0.25,0.8194935057143687,0.36002786363095174
17,8,0.0,0.7950923334145318,2.8001450936146477
18,0,1.0,0.8874780758742342,0.0
18,0,0.75,0.8829847386912605,0.44933371829737334
18,0,0.5,0.8735867348134627,1.38913410607715
18,0,0.25,0.872313949600535,1.516412627369923
18,0,0.0,0.8693238003764464,1.8154275497787808
18,1,1.0,0.8874780758742342,0.0
18,1,0.75,0.8942248218456089,-0.6746745971374701
18,1,0.5,0.894610125130729,-0.7132049256494799
18,1,0.25,0.9002225821374688,-1.2744506263234534
18,1,0.0,0.8978603819297432,-1.0382306055508939
18,2,1.0,0.8874780758742342,0.0
18,2,0.75,0.8960106589043849,-0.8532583030150698
18,2,0.5,0.8934003137080633,-0.5922237833829058
18,2,0.25,0.9051077131807213,-1.7629637306487034
18,2,0.0,0.9085025243716456,-2.1024448497411363
18,3,1.0,0.8874780758742342,0.0
18,3,0.75,0.8654520398034904,2.2026036070743826
18,3,0.5,0.8415128917948742,4.596518407936001
18,3,0.25,0.821329581293603,6.614849458063121
18,3,0.0,0.7708987143307777,11.657936154345649
18,4,1.0,0.8874780758742342,0.0
18,4,0.75,0.8987629820183864,-1.128490614415223
18,4,0.5,0.8980116410930472,-1.053356521881299
18,4,0.25,0.8857739639021499,0.170411197208431
18,4,0.0,0.8836354233890786,0.38426524851555843
18,5,1.0,0.8874780758742342,0.0
18,5,0.75,0.8907255893399725,-0.3247513465738261
18,5,0.5,0.8860171256530192,0.14609502212150627
18,5,0.25,0.8911150548193849,-0.3636978945150693
18,5,0.0,0.895760853696385,-0.8282777822150811
18,6,1.0,0.8874780758742342,0.0
18,6,0.75,0.8975420960598105,-1.0064020185576283
18,6,0.5,0.8965735262765163,-0.9095450402282101
18,6,0.25,0.8932004750638071,-0.5722399189572847
18,6,0.0,0.886219370644691,0.1258705229543189
18,7,1.0,0.8874780758742342,0.0
18,7,0.75,0.8751686246726406,1.2309451201593657
18,7,0.5,0.8438261146694507,4.365196120478354
18,7,0.25,0.8281129954594557,5.93650804147785
18,7,0.0,0.8349032837760697,5.257479209816451
18,8,1.0,0.8874780758742342,0.0
18,8,0.75,0.8937030792835223,-0.622500340928811
18,8,0.5,0.9016388857892905,-1.4160809915056305
18,8,0.25,0.8932315658264887,-0.5753489952254442
18,8,0.0,0.8930404935918558,-0.556241771762156
19,0,1.0,0.8370197626916501,0.0
19,0,0.75,0.8354789048184421,0.15408578732080125
19,0,0.5,0.8343607875827124,0.26589751089377556
19,0,0.25,0.8473196742030156,-1.0299911511365445
19,0,0.0,0.8478560639762615,-1.0836301284611327
19,1,1.0,0.8370197626916501,0.0
19,1,0.75,0.8417589749674678,-0.4739212275817639
19,1,0.5,0.8281746071447257,0.8845155546924444
19,1,0.25,0.8315896363924512,0.5430126299198923
19,1,0.0,0.824712299191245,1.2307463500405125
19,2,1.0,0.8370197626916501,0.0
19,2,0.75,0.8317188053876086,0.5300957304041565
19,2,0.5,0.8292091191622785,0.7810643529371664
19,2,0.25,0.8232981360992065,1.372162659244358
19,2,0.0,0.817870462660631,1.9149300031019112
19,3,1.0,0.8370197626916501,0.0
19,3,0.75,0.8302602366611254,0.6759526030524765
19,3,0.5,0.812275998933681,2.474376375796916
19,3,0.25,0.8029318458586219,3.4087916833028253
19,3,0.0,0.7860673125635218,5.095245012812832
19,4,1.0,0.8370197626916501,0.0
19,4,0.75,0.8395009669463955,-0.2481204254745406
19,4,0.5,0.834550990084047,0.24687726076031424
19,4,0.25,0.8133881254131827,2.36316372784674
19,4,0.0,0.8355040209299058,0.15157417617442936
19,5,1.0,0.8370197626916501,0.0
19,5,0.75,0.8348414811868136,0.21782815048365656
19,5,0.5,0.8336593949280577,0.3360367763592387
19,5,0.25,0.83687017594033,0.014958675132015209
19,5,0.0,0.8368026147535846,0.021714793806548727
19,6,1.0,0.8370197626916501,0.0
19,6,0.75,0.8413864374964742,-0.4366674804824111
19,6,0.5,0.8455082095721805,-0.8488446880530409
19,6,0.25,0.8460665694895302,-0.9046806797880058
19,6,0.0,0.854701415843983,-1.7681653152332832
19,7,1.0,0.8370197626916501,0.0
19,7,0.75,0.8355209601138884,0.1498802577761693
19,7,0.5,0.8304562161969002,0.6563546494749883
19,7,0.25,0.8343381702029671,0.2681592488683049
19,7,0.0,0.833515237964413,0.3504524727237168
19,8,1.0,0.8370197626916501,0.0
19,8,0.75,0.8388649586344494,-0.18451959427993048
19,8,0.5,0.8331975161605808,0.3822246531069329
19,8,0.25,0.8281349439993343,0.8884818692315832
19,8,0.0,0.8142827364087339,2.2737026282916184
20,0,1.0,0.6775951130104441,0.0
20,0,0.75,0.6878787725761184,-1.0283659565674341
20,0,0.5,0.6962737708485267,-1.8678657838082646
20,0,0.25,0.6945298492484385,-1.6934736237994463
20,0,0.0,0.690977725854416,-1.3382612843971908
20,1,1.0,0.6775951130104441,0.0
20,1,0.75,0.669658614260986,0.793649874945801
20,1,0.5,0.6683565773237361,0.923853568670796
20,1,0.25,0.6565739184796812,2.10211945307629
20,1,0.0,0.6585694500373631,1.9025662973080948
20,2,1.0,0.6775951130104441,0.0
20,2,0.75,0.6785815139963959,-0.09864009859518186
20,2,0.5,0.6538800297316607,2.3715083278783355
20,2,0.25,0.6527005556354317,2.489455737501234
20,2,0.0,0.6440936865732101,3.350142643723397
20,3,1.0,0.6775951130104441,0.0
20,3,0.75,0.6833822333956399,-0.5787120385195799
20,3,0.5,0.6878849207409755,-1.0289807730531453
20,3,0.25,0.7007025916999439,-2.3107478689499805
20,3,0.0,0.7138723695694164,-3.6277256558972293
20,4,1.0,0.6775951130104441,0.0
20,4,0.75,0.6713390362321234,0.625607677832063
20,4,0.5,0.664478033506787,1.3117079503657036
20,4,0.25,0.6517329827434403,2.586213026700379
20,4,0.0,0.6462376319946787,3.135748101576541
20,5,1.0,0.6775951130104441,0.0
20,5,0.75,0.6740367475661594,0.35583654442846724
20,5,0.5,0.6709080854682539,0.6687027542190194
20,5,0.25,0.6597193629108856,1.787575009955844
20,5,0.0,0.6326707595978189,4.492435341262513
20,6,1.0,0.6775951130104441,0.0
20,6,0.75,0.673855136715509,0.37399762949350546
20,6,0.5,0.6748287184662498,0.27663945441942506
20,6,0.25,0.6784116549594142,-0.08165419489701842
20,6,0.0,0.6864539456462245,-0.8858832635780467
20,7,1.0,0.6775951130104441,0.0
20,7,0.75,0.6830436464383044,-0.5448533427860336
20,7,0.5,0.6787871425295317,-0.11920295190875896
20,7,0.25,0.6810066071044509,-0.3411494094006873
20,7,0.0,0.6931002177754864,-1.55051047650423
20,8,1.0,0.6775951130104441,0.0
20,8,0.75,0.6814673060896229,-0.3872193079178854
20,8,0.5,0.6884166860202182,-1.0821573009774155
20,8,0.25,0.6926300802339583,-1.5034967223514273
20,8,0.0,0.6799058892037682,-0.23107761933240933
21,0,1.0,0.8552429740636762,0.0
21,0,0.75,0.8450872074922655,1.0155766571410707
21,0,0.5,0.8447591251372247,1.048384892645149
21,0,0.25,0.8425816786193512,1.2661295444325038
21,0,0.0,0.818588413793498,3.6654560270178216
21,1,1.0,0.8552429740636762,0.0
21,1,0.75,0.8694894263424344,-1.4246452278758204
21,1,0.5,0.8742681940092127,-1.902521994553652
21,1,0.25,0.8805987094454911,-2.5355735381814903
21,1,0.0,0.8824504491521331,-2.720747508845689
21,2,1.0,0.8552429740636762,0.0
21,2,0.75,0.8585099441850086,-0.3266970121332369
21,2,0.5,0.856051726011898,-0.08087519482218308
21,2,0.25,0.8494788503638471,0.5764123699829149
21,2,0.0,0.8404177281353465,1.4825245928329678
21,3,1.0,0.8552429740636762,0.0
21,3,0.75,0.8595343912985421,-0.4291417234865924
21,3,0.5,0.8586145611351371,-0.3371587071460902
21,3,0.25,0.8503806612292112,0.48623128344650324
21,3,0.0,0.8348996961621062,2.034327790156998
21,4,1.0,0.8552429740636762,0.0
21,4,0.75,0.8692582486652192,-1.4015274601542949
21,4,0.5,0.8655744796163667,-1.0331505552690468
21,4,0.25,0.872447886229135,-1.720491216545883
21,4,0.0,0.8550637366462011,0.01792374174751643
21,5,1.0,0.8552429740636762,0.0
21,5,0.75,0.864096871389188,-0.8853897325511784
21,5,0.5,0.8519120661992536,0.3330907864422583
21,5,0.25,0.8526550489942126,0.25879250694635925
21,5,0.0,0.862590801735283,-0.7347827671606799
21,6,1.0,0.8552429740636762,0.0
21,6,0.75,0.8585813712226851,-0.33383971590088546
21,6,0.5,0.8582745667101643,-0.30315926464881127
21,6,0.25,0.8612776442572708,-0.6034670193594605
21,6,0.0,0.8692669713808507,-1.402399731717452
21,7,1.0,0.8552429740636762,0.0
21,7,0.75,0.8490793309805125,0.616364308316375
21,7,0.5,0.8415629047506321,1.3680069313044108
21,7,0.25,0.8436430242992867,1.1599949764389494
21,7,0.0,0.8606499372687072,-0.5406963205030979
21,8,1.0,0.8552429740636762,0.0
21,8,0.75,0.8542344269125199,0.10085471511562805
21,8,0.5,0.8411031489771605,1.4139825086515678
21,8,0.25,0.8419924294381013,1.3250544625574956
21,8,0.0,0.8430293346145723,1.221363944910392
22,0,1.0,0.821648001190214,0.0
22,0,0.75,0.811470582188289,1.0177419001924926
22,0,0.5,0.8060946301420024,1.5553371048211528
22,0,0.25,0.7989490883461247,2.2698912844089314
22,0,0.0,0.8248447509693597,-0.31967497791457467
22,1,1.0,0.821648001190214,0.0
22,1,0.75,0.8239871413644804,-0.23391401742663964
22,1,0.5,0.8179939290959599,0.3654072094254057
22,1,0.25,0.8296984759963107,-0.8050474806096775
22,1,0.0,0.8193083846699594,0.2339616520254606
22,2,1.0,0.821648001190214,0.0
22,2,0.75,0.8023234044274736,1.9324596762740343
22,2,0.5,0.8091553251991249,1.2492675991089053
22,2,0.25,0.8151380440574414,0.6509957132772581
22,2,0.0,0.8120284825946211,0.9619518595592846
22,3,1.0,0.821648001190214,0.0
22,3,0.75,0.8178471512729877,0.380084991722629
22,3,0.5,0.8306389295939517,-0.8990928403737719
22,3,0.25,0.8070218652449646,1.4626135945249419
22,3,0.0,0.7977873180414179,2.386068314879608
22,4,1.0,0.821648001190214,0.0
22,4,0.75,0.8161771618372813,0.5470839352932688
22,4,0.5,0.8043605206711194,1.7287480519094567
22,4,0.25,0.7984544954673092,2.3193505722904795
22,4,0.0,0.8104820172343746,1.1165983955839343
22,5,1.0,0.821648001190214,0.0
22,5,0.75,0.8263805449081421,-0.4732543717928084
22,5,0.5,0.8151079979663097,0.6540003223904245
22,5,0.25,0.8172499615009292,0.43980396892847606
22,5,0.0,0.8078752949361414,1.3772706254072564
22,6,1.0,0.821648001190214,0.0
22,6,0.75,0.8091510526216097,1.2496948568604282
22,6,0.5,0.8104294906476849,1.1218510542529092
22,6,0.25,0.8069134157451264,1.4734585445087545
22,6,0.0,0.809419651308611,1.222834988160293
22,7,1.0,0.821648001190214,0.0
22,7,0.75,0.8069081479985386,1.4739853191675367
22,7,0.5,0.7912377457630821,3.0410255427131827
22,7,0.25,0.7784094752309694,4.3238525959244605
22,7,0.0,0.7696453179067446,5.200268328346935
22,8,1.0,0.821648001190214,0.0
22,8,0.75,0.8038309496381602,1.781705155205382
22,8,0.5,0.8074783386205,1.416966256971397
22,8,0.25,0.8173090532762033,0.43389479140106824
22,8,0.0,0.8127249195902045,0.892308160000943
23,0,1.0,0.8129748197825549,0.0
23,0,0.75,0.7862360628362979,2.6738756946257047
23,0,0.5,0.7839029570477714,2.907186273478357
23,0,0.25,0.7633624507595593,4.961236902299559
23,0,0.0,0.6990785424469234,11.389627733563156
23,1,1.0,0.8129748197825549,0.0
23,1,0.75,0.7985349821358421,1.443983764671286
23,1,0.5,0.796483524015846,1.6491295766708935
23,1,0.25,0.7871345115914237,2.5840308191131256
23,1,0.0,0.7688374976362549,4.413732214630006
23,2,1.0,0.8129748197825549,0.0
23,2,0.75,0.8187399485510355,-0.5765128768480565
23,2,0.5,0.8122827357788542,0.06920840037006881
23,2,0.25,0.8131207706944364,-0.014595091188152054
23,2,0.0,0.8070387534274475,0.5936066355107461
23,3,1.0,0.8129748197825549,0.0
23,3,0.75,0.8200833722301228,-0.7108552447567917
23,3,0.5,0.8125600493867077,0.04147703958472526
23,3,0.25,0.8063562601261212,0.6618559656433765
23,3,0.0,0.7780781835205992,3.4896636261955716
23,4,1.0,0.8129748197825549,0.0
23,4,0.75,0.7983824037278892,1.4592416054665769
23,4,0.5,0.7792331660221524,3.37416537604025
23,4,0.25,0.7434451088602332,6.952971092232174
23,4,0.0,0.7454212392111859,6.755358057136906
23,5,1.0,0.8129748197825549,0.0
23,5,0.75,0.803224895272677,0.9749924509877883
23,5,0.5,0.7969270689390122,1.6047750843542707
23,5,0.25,0.8015865041984874,1.1388315584067499
23,5,0.0,0.7906924986649395,2.228232111761541
23,6,1.0,0.8129748197825549,0.0
23,6,0.75,0.8098280723805537,0.3146747402001271
23,6,0.5,0.8018635139032662,1.1111305879288769
23,6,0.25,0.7924166923907673,2.055812739178764
23,6,0.0,0.7830427657987612,2.9932053983793727
23,7,1.0,0.8129748197825549,0.0
23,7,0.75,0.79933886188039,1.3635957902164875
23,7,0.5,0.8007425813304841,1.2232238452070776
23,7,0.25,0.8119337026141634,0.10411171683915033
23,7,0.0,0.806421583392949,0.6553236389605921
23,8,1.0,0.8129748197825549,0.0
23,8,0.75,0.7988614507622293,1.4113369020325672
23,8,0.5,0.7963788671365881,1.6595952645966805
23,8,0.25,0.7953451451990979,1.762967458345699
23,8,0.0,0.7739325776799748,3.9042242102580116
24,0,1.0,0.7839786645713855,0.0
24,0,0.75,0.7707140013984393,1.3264663172946278
24,0,0.5,0.7606919498034397,2.328671476794586
24,0,0.25,0.7605903687826505,2.3388295788735025
24,0,0.0,0.7551197384478423,2.885892612354324
24,1,1.0,0.7839786645713855,0.0
24,1,0.75,0.7789849479721683,0.4993716599217213
24,1,0.5,0.7851077248591134,-0.11290602877278566
24,1,0.25,0.7913319880499664,-0.7353323478580864
24,1,0.0,0.7744962459602511,0.9482418611134413
24,2,1.0,0.7839786645713855,0.0
24,2,0.75,0.7838260169964069,0.015264757497868153
24,2,0.5,0.7830573583105924,0.092130626079312
24,2,0.25,0.7701169475496641,1.3861717021721454
24,2,0.0,0.7574546284512043,2.6524036120181282
24,3,1.0,0.7839786645713855,0.0
24,3,0.75,0.8060911555857591,-2.2112491014373514
24,3,0.5,0.8325322883978559,-4.855362382647033
24,3,0.25,0.8294529085124704,-4.54742439410849
24,3,0.0,0.8224872991644065,-3.8508634593021007
24,4,1.0,0.7839786645713855,0.0
24,4,0.75,0.7638802524967025,2.009841207468299
24,4,0.5,0.753446584825917,3.0532079745468566
24,4,0.25,0.7192426691887863,6.473599538259922
24,4,0.0,0.7228832203991309,6.109544417225465
24,5,1.0,0.7839786645713855,0.0
24,5,0.75,0.7551463017639488,2.883236280743673
24,5,0.5,0.7425404260998675,4.143823847151806
24,5,0.25,0.7232766116991943,6.070205287219121
24,5,0.0,0.7224963396109834,6.148232496040218
24,6,1.0,0.7839786645713855,0.0
24,6,0.75,0.7910866100372795,-0.7107945465893994
24,6,0.5,0.7920914824851888,-0.811281791380325
24,6,0.25,0.8014513347479515,-1.7472670176565952
24,6,0.0,0.7940924656602117,-1.0113801088826202
24,7,1.0,0.7839786645713855,0.0
24,7,0.75,0.7993738836876092,-1.5395219116223657
24,7,0.5,0.7854845464851405,-0.15058819137550028
24,7,0.25,0.763859950691756,2.011871387962949
24,7,0.0,0.7350307422318914,4.894792233949419
24,8,1.0,0.7839786645713855,0.0
24,8,0.75,0.7775867092160895,0.639195535529602
24,8,0.5,0.7746388049255106,0.9339859645874915
24,8,0.25,0.7627633189721452,2.121534559924032
24,8,0.0,0.7545726456952759,2.9406018876109608
25,0,1.0,0.8394916336092807,0.0
25,0,0.75,0.8354214302566767,0.4070203352603996
25,0,0.5,0.8257612796289875,1.3730353980293208
25,0,0.25,0.8157512670023958,2.3740366606884944
25,0,0.0,0.8000382862880228,3.9453347321257937
25,1,1.0,0.8394916336092807,0.0
25,1,0.75,0.8413929066851538,-0.19012730758730667
25,1,0.5,0.8447254471357909,-0.52338135265102
25,1,0.25,0.827575542283525,1.1916091325755662
25,1,0.0,0.8306071343761515,0.8884499233129173
25,2,1.0,0.8394916336092807,0.0
25,2,0.75,0.8376002412887659,0.18913923205148286
25,2,0.5,0.8342495361266498,0.5242097482630936
25,2,0.25,0.8230953332585337,1.6396300350747017
25,2,0.0,0.8162987289681746,2.3192904641106127
25,3,1.0,0.8394916336092807,0.0
25,3,0.75,0.8464753595488121,-0.6983725939531449
25,3,0.5,0.8388962625271703,0.059537108211038525
25,3,0.25,0.835417267355165,0.40743662541157244
25,3,0.0,0.8200902397351832,1.940139387409745
25,4,1.0,0.8394916336092807,0.0
25,4,0.75,0.836240811326453,0.3250822282827692
25,4,0.5,0.8307380890523347,0.8753544556945991
25,4,0.25,0.8187262941349049,2.0765339474375755
25,4,0.0,0.8126012210742327,2.689041253504798
25,5,1.0,0.8394916336092807,0.0
25,5,0.75,0.8459069915591655,-0.6415357949884792
25,5,0.5,0.8427046321287944,-0.3212998519513732
25,5,0.25,0.8424334348072264,-0.2941801197945737
25,5,0.0,0.8533018954131395,-1.3810261803858803
25,6,1.0,0.8394916336092807,0.0
25,6,0.75,0.8431484661389984,-0.3656832529717713
25,6,0.5,0.853728485299747,-1.423685169046629
25,6,0.25,0.8625859775770479,-2.3094343967767217
25,6,0.0,0.870289463468112,-3.0797829858831283
25,7,1.0,0.8394916336092807,0.0
25,7,0.75,0.8394220564893472,0.006957711993349491
25,7,0.5,0.8339267338678485,0.556489974143215
25,7,0.25,0.8367684243325946,0.27232092766861227
25,7,0.0,0.8115297030556667,2.7961930553613956
25,8,1.0,0.8394916336092807,0.0
25,8,0.75,0.8564806638513363,-1.6989030242055558
25,8,0.5,0.8577138227456339,-1.8222189136353206
25,8,0.25,0.8496119873272931,-1.0120353718012454
25,8,0.0,0.8438623308072514,-0.43706971979706744
26,0,1.0,0.7580523425565036,0.0
26,0,0.75,0.7686595523092599,-1.0607209752756308
26,0,0.5,0.7694010119660637,-1.1348669409560141
26,0,0.25,0.7644333239344872,-0.6380981377983597
26,0,0.0,0.7522016742148108,0.5850668341692788
26,1,1.0,0.7580523425565036,0.0
26,1,0.75,0.7734816037624761,-1.5429261205972544
26,1,0.5,0.7772516658322806,-1.9199323275777003
26,1,0.25,0.7685274810984871,-1.0475138541983564
26,1,0.0,0.758684198754388,-0.06318561978844173
26,2,1.0,0.7580523425565036,0.0
26,2,0.75,0.7577082250607527,0.03441174957508064
26,2,0.5,0.7519815008753448,0.607084168115879
26,2,0.25,0.7395670995670995,1.8485242989404016
26,2,0.0,0.7357365289199126,2.2315813636590964
26,3,1.0,0.7580523425565036,0.0
26,3,0.75,0.7738260859135735,-1.5773743357069936
26,3,0.5,0.7746567205761052,-1.6604378019601684
26,3,0.25,0.7653578135110815,-0.7305470954577897
26,3,0.0,0.7480579109119858,0.9994431644517743
26,4,1.0,0.7580523425565036,0.0
26,4,0.75,0.7401402730425154,1.791206951398816
26,4,0.5,0.7429572717566368,1.5095070799866717
26,4,0.25,0.7415006467529566,1.6551695803546984
26,4,0.0,0.7452563346694923,1.2796007887011296
26,5,1.0,0.7580523425565036,0.0
26,5,0.75,0.7351423586543459,2.2909983902157705
26,5,0.5,0.7182776842249682,3.9774658331535373
26,5,0.25,0.7281785456266467,2.987379692985681
26,5,0.0,0.7334631045501028,2.458923800640078
26,6,1.0,0.7580523425565036,0.0
26,6,0.75,0.7592758616445187,-0.12235190880151015
26,6,0.5,0.7579882152080468,0.006412734845673285
26,6,0.25,0.7608246049889217,-0.27722624324181266
26,6,0.0,0.7498352685132976,0.821707404320593
26,7,1.0,0.7580523425565036,0.0
26,7,0.75,0.7700926139727184,-1.2040271416214887
26,7,0.5,0.7730062959686436,-1.4953953412140009
26,7,0.25,0.7622643302633256,-0.42119877068220735
26,7,0.0,0.7429064244593764,1.5145918097127176
26,8,1.0,0.7580523425565036,0.0
26,8,0.75,0.762772637082211,-0.4720294525707436
26,8,0.5,0.7537177193306267,0.43346232258768547
26,8,0.25,0.7371839423130672,2.086840024343639
26,8,0.0,0.7271147794933055,3.093756306319806
27,0,1.0,0.8525686109750356,0.0
27,0,0.75,0.8667077393683286,-1.413912839329301
27,0,0.5,0.8748040200962088,-2.2235409121173277
27,0,0.25,0.8683595234101134,-1.5790912435077797
27,0,0.0,0.8628871055697379,-1.0318494594702354
27,1,1.0,0.8525686109750356,0.0
27,1,0.75,0.8591565446299682,-0.6587933654932598
27,1,0.5,0.8700936932530268,-1.752508227799121
27,1,0.25,0.8785010927876853,-2.5932481812649733
27,1,0.0,0.8778240798703393,-2.5255468895303723
27,2,1.0,0.8525686109750356,0.0
27,2,0.75,0.8563783410438808,-0.38097300688452185
27,2,0.5,0.8505954083004725,0.19732026745630238
27,2,0.25,0.8502644051040599,0.2304205870975684
27,2,0.0,0.837262964488783,1.5305646486252544
27,3,1.0,0.8525686109750356,0.0
27,3,0.75,0.8510772656329962,0.14913453420393186
27,3,0.5,0.8470646017583057,0.5504009216729888
27,3,0.25,0.8372461974180065,1.5322413557029013
27,3,0.0,0.8322381032251882,2.033050774984735
27,4,1.0,0.8525686109750356,0.0
27,4,0.75,0.8532390487605142,-0.06704377854785948
27,4,0.5,0.8328356646192472,1.9732946355788372
27,4,0.25,0.8344220189652485,1.8146592009787077
27,4,0.0,0.81875899753051,3.38096134445256
27,5,1.0,0.8525686109750356,0.0
27,5,0.75,0.8502699873440461,0.2298623630989427
27,5,0.5,0.8445456185704229,0.8022992404612683
27,5,0.25,0.8396309882296124,1.2937622745423205
27,5,0.0,0.8179865075118018,3.458210346323376
27,6,1.0,0.8525686109750356,0.0
27,6,0.75,0.8657786312601036,-1.3210020285068014
27,6,0.5,0.8716400956153769,-1.9071484640341363
27,6,0.25,0.8702272724037408,-1.7658661428705202
27,6,0.0,0.8582202049166412,-0.5651593941605637
27,7,1.0,0.8525686109750356,0.0
27,7,0.75,0.8463138987454093,0.6254712229626258
27,7,0.5,0.8396162311334168,1.2952379841618789
27,7,0.25,0.8371603541910555,1.5408256783980057
27,7,0.0,0.8425112173988311,1.0057393576204499
27,8,1.0,0.8525686109750356,0.0
27,8,0.75,0.8578054567920774,-0.5236845817041869
27,8,0.5,0.8699022988920022,-1.7333687916966656
27,8,0.25,0.8540324363673998,-0.14638253923642264
27,8,0.0,0.8360380530894849,1.653055788555069
28,0,1.0,0.8218723662278062,0.0
28,0,0.75,0.8423528672836859,-2.048050105587962
28,0,0.5,0.8533083151546488,-3.143594892684254
28,0,0.25,0.8534189080703137,-3.154654184250749
28,0,0.0,0.8633396441580585,-4.146727793025229
28,1,1.0,0.8218723662278062,0.0
28,1,0.75,0.830717658883701,-0.8845292655894732
28,1,0.5,0.8359179570956015,-1.4045590867795221
28,1,0.25,0.8273821507834455,-0.5509784555639219
28,1,0.0,0.8190566688000458,0.2815697427760444
28,2,1.0,0.8218723662278062,0.0
28,2,0.75,0.8250467426772539,-0.31743764494476245
28,2,0.5,0.8151603972970677,0.6711968930738554
28,2,0.25,0.8149705214087627,0.6901844819043546
28,2,0.0,0.8150122807299466,0.6860085497859658
28,3,1.0,0.8218723662278062,0.0
28,3,0.75,0.8320724530866717,-1.020008685886542
28,3,0.5,0.8213239367651858,0.05484294626204589
28,3,0.25,0.8125328239282705,0.9339542299535708
28,3,0.0,0.799927186179564,2.1945180048242197
28,4,1.0,0.8218723662278062,0.0
28,4,0.75,0.7936294608123133,2.8242905415492903
28,4,0.5,0.7730504519714354,4.8821914256370835
28,4,0.25,0.7708128536445911,5.105951258321517
28,4,0.0,0.7849041494047818,3.6968216823024425
28,5,1.0,0.8218723662278062,0.0
28,5,0.75,0.7244646937552558,9.740767247255045
28,5,0.5,0.7232357357357357,9.86366304920705
28,5,0.25,0.712662974492021,10.920939173578525
28,5,0.0,0.7226859542266518,9.918641200115442
28,6,1.0,0.8218723662278062,0.0
28,6,0.75,0.8285663836018019,-0.6694017373995664
28,6,0.5,0.8381215752421483,-1.6249209014342014
28,6,0.25,0.8425998735062914,-2.0727507278485158
28,6,0.0,0.8308842251556379,-0.9011858927831629
28,7,1.0,0.8218723662278062,0.0
28,7,0.75,0.8285713177727696,-0.6698951544963361
28,7,0.5,0.8438484213830973,-2.1976055155291108
28,7,0.25,0.8322565290495032,-1.0384162821696963
28,7,0.0,0.8174806207275249,0.4391745500281319
28,8,1.0,0.8218723662278062,0.0
28,8,0.75,0.8344171528954138,-1.254478666760761
28,8,0.5,0.8337745285904687,-1.1902162362662505
28,8,0.25,0.8308584935104069,-0.898612728260062
28,8,0.0,0.8243295041492851,-0.24571379214788358
29,0,1.0,0.7946101382623736,0.0
29,0,0.75,0.7919412901919042,0.26688480704694095
29,0,0.5,0.7835352509732281,1.1074887289145519
29,0,0.25,0.7831429668881219,1.1467171374251683
29,0,0.0,0.7584289325296519,3.6181205732721655
29,1,1.0,0.7946101382623736,0.0
29,1,0.75,0.7953012416273366,-0.06911033649630305
29,1,0.5,0.7942330863191295,0.037705194324411107
29,1,0.25,0.7894075956214562,0.5202542640917351
29,1,0.0,0.7841400707850075,1.0470067477366118
29,2,1.0,0.7946101382623736,0.0
29,2,0.75,0.7858437292162944,0.8766409046079171
29,2,0.5,0.7786836488641247,1.5926489398248922
29,2,0.25,0.769713769162306,2.489636910006754
29,2,0.0,0.7601721237101478,3.4438014552225837
29,3,1.0,0.7946101382623736,0.0
29,3,0.75,0.8016213458441874,-0.7011207581813839
29,3,0.5,0.8013170382565351,-0.6706899994161519
29,3,0.25,0.7968027618083033,-0.21926235459297505
29,3,0.0,0.7857297508128275,0.8880387449546112
29,4,1.0,0.7946101382623736,0.0
29,4,0.75,0.7699548314102824,2.4655306852091163
29,4,0.5,0.7418338490616532,5.277628920072042
29,4,0.25,0.7307838274958945,6.382631076647904
29,4,0.0,0.732259508720265,6.235062954210857
29,5,1.0,0.7946101382623736,0.0
29,5,0.75,0.7969690593903085,-0.23589211279348987
29,5,0.5,0.789818339681778,0.4791798580595641
29,5,0.25,0.7836425610163273,1.0967577246046245
29,5,0.0,0.7620677548240657,3.2542383438307843
29,6,1.0,0.7946101382623736,0.0
29,6,0.75,0.8013428573078387,-0.673271904546513
29,6,0.5,0.7973257860562222,-0.27156477938485857
29,6,0.25,0.7943693197525745,0.024081850979906783
29,6,0.0,0.7954286387452177,-0.08185004828441533
29,7,1.0,0.7946101382623736,0.0
29,7,0.75,0.7983171451735851,-0.3707006911211508
29,7,0.5,0.7951159690730383,-0.050583081066468694
29,7,0.25,0.7894992467575163,0.5110891504857329
29,7,0.0,0.7717990374538629,2.2811100808510676
29,8,1.0,0.7946101382623736,0.0
29,8,0.75,0.7854185559871267,0.9191582275246857
29,8,0.5,0.7781280482388171,1.6482090023556495
29,8,0.25,0.7497812499702922,4.482888829208143
29,8,0.0,0.721315283951965,7.329485431040861
30,0,1.0,0.7945228259583609,0.0
30,0,0.75,0.8048573112921327,-1.0334485333771792
30,0,0.5,0.7959557529434218,-0.14329269850609228
30,0,0.25,0.8027702738492504,-0.8247447890889492
30,0,0.0,0.786166856726611,0.835596923174986
30,1,1.0,0.7945228259583609,0.0
30,1,0.75,0.785091439107749,0.9431386850611845
30,1,0.5,0.7696031912523229,2.4919634706037974
30,1,0.25,0.7583042809657292,3.6218544992631663
30,1,0.0,0.7451739081012929,4.934891785706796
30,2,1.0,0.7945228259583609,0.0
30,2,0.75,0.7985299973114689,-0.4007171353108019
30,2,0.5,0.7992095636569824,-0.46867376986214904
30,2,0.25,0.8007607268302095,-0.6237900871848612
30,2,0.0,0.8003037252728863,-0.5780899314525412
30,3,1.0,0.7945228259583609,0.0
30,3,0.75,0.7960476865782835,-0.152486061992263
30,3,0.5,0.7989088665054687,-0.43860405471077835
30,3,0.25,0.7905369909499056,0.3985835008455285
30,3,0.0,0.760732359908879,3.379046604948188
30,4,1.0,0.7945228259583609,0.0
30,4,0.75,0.7846840365736847,0.9838789384676194
30,4,0.5,0.7891016607681327,0.5421165190228172
30,4,0.25,0.7787073112210647,1.5815514737296144
30,4,0.0,0.7745599297286123,1.9962896229748561
30,5,1.0,0.7945228259583609,0.0
30,5,0.75,0.7867024534126992,0.7820372545661702
30,5,0.5,0.7857144924777536,0.8808333480607278
30,5,0.25,0.7812878949047973,1.3234931053563548
30,5,0.0,0.764774363151554,2.9748462806806875
30,6,1.0,0.7945228259583609,0.0
30,6,0.75,0.790843107258567,0.3679718699793888
30,6,0.5,0.7992758306516401,-0.4753004693279217
30,6,0.25,0.7930554604954035,0.14673654629573374
30,6,0.0,0.800482300232706,-0.5959474274345067
30,7,1.0,0.7945228259583609,0.0
30,7,0.75,0.7994028577528373,-0.48800317944763805
30,7,0.5,0.7489745402900208,4.554828566834013
30,7,0.25,0.7359471485998051,5.857567735855573
30,7,0.0,0.7367027175779766,5.782010838038431
30,8,1.0,0.7945228259583609,0.0
30,8,0.75,0.7941716827039759,0.035114325438501126
30,8,0.5,0.8071708854470421,-1.2648059488681196
30,8,0.25,0.8117347811777413,-1.721195521938046
30,8,0.0,0.8014321569634997,-0.6909331005138797
31,0,1.0,0.7924675216192881,0.0
31,0,0.75,0.7881221443997918,0.4345377219496349
31,0,0.5,0.7868230292914089,0.5644492327879225
31,0,0.25,0.7879719048414084,0.4495616777879685
31,0,0.0,0.7816760050282882,1.0791516590999972
31,1,1.0,0.7924675216192881,0.0
31,1,0.75,0.7922504387413819,0.021708287790622727
31,1,0.5,0.7815383577512364,1.092916386805176
31,1,0.25,0.774764845950901,1.7702675668387124
31,1,0.0,0.7660621703706452,2.640535124864296
31,2,1.0,0.7924675216192881,0.0
31,2,0.75,0.7872172102181905,0.5250311401097663
31,2,0.5,0.7770289921135182,1.543852950576996
31,2,0.25,0.7638874538687139,2.85800677505742
31,2,0.0,0.7574634842843811,3.500403733490698
31,3,1.0,0.7924675216192881,0.0
31,3,0.75,0.7923850248969275,0.008249672236060324
31,3,0.5,0.7919964355732859,0.04710860460022115
31,3,0.25,0.7909945395497029,0.1472982069585238
31,3,0.0,0.7767956391177031,1.5671882501585022
31,4,1.0,0.7924675216192881,0.0
31,4,0.75,0.7895630373521894,0.29044842670987725
31,4,0.5,0.7781709201804932,1.4296601438794965
31,4,0.25,0.7620954210300246,3.037210058926354
31,4,0.0,0.7560751267096569,3.63923949096312
31,5,1.0,0.7924675216192881,0.0
31,5,0.75,0.7983099528025668,-0.5842431183278651
31,5,0.5,0.7974466694767279,-0.4979147857439803
31,5,0.25,0.7945774455018825,-0.21099238825943445
31,5,0.0,0.7789934082240733,1.347411339521487
31,6,1.0,0.7924675216192881,0.0
31,6,0.75,0.7911796079562546,0.1287913663033491
31,6,0.5,0.7980196357296533,-0.5552114110365158
31,6,0.25,0.8010478664153414,-0.8580344796053296
31,6,0.0,0.7944861326797266,-0.20186110604384355
31,7,1.0,0.7924675216192881,0.0
31,7,0.75,0.7934787934119023,-0.10112717926141768
31,7,0.5,0.7837855385343857,0.8681983084902423
31,7,0.25,0.7524242068799321,4.004331473935608
31,7,0.0,0.7480431036305955,4.442441798869268
31,8,1.0,0.7924675216192881,0.0
31,8,0.75,0.7877006721708464,0.47668494484417456
31,8,0.5,0.7790418047718316,1.3425716847456526
31,8,0.25,0.7674883495687221,2.497917205056599
31,8,0.0,0.7552335068032742,3.723401481601396
32,0,1.0,0.8093715094679479,0.0
32,0,0.75,0.8014261633115887,0.7945346156359223
32,0,0.5,0.8119737954672954,-0.2602285999347531
32,0,0.25,0.803655055104714,0.5716454363233869
32,0,0.0,0.7819404792779722,2.7431030189975725
32,1,1.0,0.8093715094679479,0.0
32,1,0.75,0.8116658574498762,-0.22943479819282908
32,1,0.5,0.8119451525782244,-0.25736431102765245
32,1,0.25,0.802766748678104,0.6604760789843844
32,1,0.0,0.8079382698353719,0.14332396325760222
32,2,1.0,0.8093715094679479,0.0
32,2,0.75,0.8170943603430562,-0.7722850875108267
32,2,0.5,0.8254882547378307,-1.6116745269882826
32,2,0.25,0.8226266431124433,-1.3255133644495376
32,2,0.0,0.8229983903235565,-1.3626880855608592
32,3,1.0,0.8093715094679479,0.0
32,3,0.75,0.802034538635205,0.7336970832742873
32,3,0.5,0.8037855222713994,0.5585987196548459
32,3,0.25,0.7990583863302343,1.0313123137713598
32,3,0.0,0.7933819716943256,1.598953777362233
32,4,1.0,0.8093715094679479,0.0
32,4,0.75,0.8109741922878295,-0.1602682819881629
32,4,0.5,0.8019801521237426,0.7391357344205263
32,4,0.25,0.7894179783080565,1.9953531159891402
32,4,0.0,0.7937805176575369,1.5590991810411015
32,5,1.0,0.8093715094679479,0.0
32,5,0.75,0.8140620593100104,-0.4690549842062519
32,5,0.5,0.7989569930843151,1.0414516383632777
32,5,0.25,0.8046828362138865,0.4688673254061415
32,5,0.0,0.8055780140975644,0.3793495370383537
32,6,1.0,0.8093715094679479,0.0
32,6,0.75,0.8201114058171579,-1.073989634921002
32,6,0.5,0.8174389542782539,-0.8067444810305968
32,6,0.25,0.8196028918083497,-1.0231382340401773
32,6,0.0,0.8225928006930362,-1.3221291225088305
32,7,1.0,0.8093715094679479,0.0
32,7,0.75,0.8085836555655437,0.0787853902404212
32,7,0.5,0.7993315612003592,1.0039948267588694
32,7,0.25,0.776826087092223,3.2545422375724886
32,7,0.0,0.7606255958994939,4.874591356845404
32,8,1.0,0.8093715094679479,0.0
32,8,0.75,0.8268419956031829,-1.7470486135235053
32,8,0.5,0.8251933758832477,-1.5821866415299812
32,8,0.25,0.8155421507127462,-0.617064124479827
32,8,0.0,0.8022877508637687,0.7083758604179202
33,0,1.0,0.8145522493449519,0.0
33,0,0.75,0.824880281116629,-1.0328031771677182
33,0,0.5,0.8240111400449865,-0.9458890700034694
33,0,0.25,0.8299935150224078,-1.5441265677455962
33,0,0.0,0.7989902992784761,1.556195006647576
33,1,1.0,0.8145522493449519,0.0
33,1,0.75,0.8264119538764954,-1.1859704531543502
33,1,0.5,0.8411860821374673,-2.663383279251541
33,1,0.25,0.8520206769080635,-3.746842756311164
33,1,0.0,0.8579162385957517,-4.336398925079987
33,2,1.0,0.8145522493449519,0.0
33,2,0.75,0.8220178501898114,-0.7465600844859588
33,2,0.5,0.8115410677690448,0.30111815759070737
33,2,0.25,0.8061309403819696,0.842130896298221
33,2,0.0,0.7928408468731929,2.1711402471758956
33,3,1.0,0.8145522493449519,0.0
33,3,0.75,0.8181891001158998,-0.3636850770947997
33,3,0.5,0.8096276405436517,0.492460880130019
33,3,0.25,0.825449137959058,-1.0896888614106204
33,3,0.0,0.8116219540922864,0.2930295252665416
33,4,1.0,0.8145522493449519,0.0
33,4,0.75,0.8045153264890796,1.003692285587221
33,4,0.5,0.8057860869540839,0.8766162390867915
33,4,0.25,0.8084223491396305,0.6129900205321337
33,4,0.0,0.8112225813500177,0.3329667994934171
33,5,1.0,0.8145522493449519,0.0
33,5,0.75,0.8106977627038754,0.385448664107646
33,5,0.5,0.8077382699505575,0.681397939439432
33,5,0.25,0.8077382699505575,0.681397939439432
33,5,0.0,0.8074210153131108,0.7131234031841016
33,6,1.0,0.8145522493449519,0.0
33,6,0.75,0.8072425860444521,0.7309663300499758
33,6,0.5,0.8048846985069573,0.9667550837994532
33,6,0.25,0.8043199563342175,1.0232293010734361
33,6,0.0,0.834428114468222,-1.987586512327011
33,7,1.0,0.8145522493449519,0.0
33,7,0.75,0.7911633826887117,2.338886665624018
33,7,0.5,0.7801833027488475,3.4368946596104344
33,7,0.25,0.7548234842846312,5.972876506032065
33,7,0.0,0.7331403495202637,8.141189982468811
33,8,1.0,0.8145522493449519,0.0
33,8,0.75,0.8136260399498472,0.09262093951046824
33,8,0.5,0.8131562387630349,0.13960105819169621
33,8,0.25,0.8256253271185952,-1.1073077773643303
33,8,0.0,0.8202771487547347,-0.5724899409782824
34,0,1.0,0.8870670467791882,0.0
34,0,0.75,0.892834007713308,-0.5766960934119769
34,0,0.5,0.8839312249833833,0.31358217958049606
34,0,0.25,0.877088468162565,0.9978578616623213
34,0,0.0,0.8568674545663364,3.0199592212851845
34,1,1.0,0.8870670467791882,0.0
34,1,0.75,0.8957865728164381,-0.8719526037249903
34,1,0.5,0.8876584034592286,-0.05913566800404002
34,1,0.25,0.8840644370531034,0.3002609726084793
34,1,0.0,0.8774905250816749,0.9576521697513329
34,2,1.0,0.8870670467791882,0.0
34,2,0.75,0.8869997735760328,0.006727320315547125
34,2,0.5,0.8884947488618294,-0.14277020826412024
34,2,0.25,0.877440368173248,0.9626678605940242
34,2,0.0,0.875159651223481,1.190739555570719
34,3,1.0,0.8870670467791882,0.0
34,3,0.75,0.8799333252221836,0.7133721557004646
34,3,0.5,0.8756547506547507,1.1412296124437504
34,3,0.25,0.867500986501945,1.956606027724328
34,3,0.0,0.8548638925351253,3.220315424406295
34,4,1.0,0.8870670467791882,0.0
34,4,0.75,0.8926079568541981,-0.5540910075009897
34,4,0.5,0.8845629266536507,0.2504120125537579
34,4,0.25,0.8824905710915927,0.45764756875955603
34,4,0.0,0.8881917390300524,-0.1124692250864201
34,5,1.0,0.8870670467791882,0.0
34,5,0.75,0.8851343781295558,0.19326686496324852
34,5,0.5,0.882942136665541,0.412491011364724
34,5,0.25,0.8809207193515703,0.6146327427617893
34,5,0.0,0.876109709770764,1.0957337008424273
34,6,1.0,0.8870670467791882,0.0
34,6,0.75,0.8907355579254295,-0.3668511146241227
34,6,0.5,0.8898064365116288,-0.2739389732440589
34,6,0.25,0.8875033793469761,-0.0436332567787856
34,6,0.0,0.8785125851224596,0.8554461656728685
34,7,1.0,0.8870670467791882,0.0
34,7,0.75,0.8890474485279434,-0.1980401748755134
34,7,0.5,0.8809065879099834,0.6160458869204799
34,7,0.25,0.8801771348067645,0.6889911972423723
34,7,0.0,0.865470976094014,2.159607068517422
34,8,1.0,0.8870670467791882,0.0
34,8,0.75,0.8828046507859343,0.42623959932539535
34,8,0.5,0.8843210860249509,0.27459607542373865
34,8,0.25,0.8804901593725226,0.6576887406665621
34,8,0.0,0.8688979284622373,1.8169118316950894
35,0,1.0,0.7275284430220328,0.0
35,0,0.75,0.7183342402163776,0.9194202805655194
35,0,0.5,0.7114199963288802,1.610844669315259
35,0,0.25,0.7150685187407826,1.24599242812502
35,0,0.0,0.7041222250899,2.3406217932132822
35,1,1.0,0.7275284430220328,0.0
35,1,0.75,0.7204146482448369,0.711379477719587
35,1,0.5,0.7193963077971028,0.8132135224929948
35,1,0.25,0.7137185621396148,1.3809880882417969
35,1,0.0,0.6961383548421959,3.1390088179836906
35,2,1.0,0.7275284430220328,0.0
35,2,0.75,0.720549866823713,0.6978576198319764
35,2,0.5,0.7189277720644263,0.8600670957606527
35,2,0.25,0.7220772241056217,0.5451218916411094
35,2,0.0,0.7108862971662864,1.6642145855746415
35,3,1.0,0.7275284430220328,0.0
35,3,0.75,0.7271348540930866,0.03935889289461425
35,3,0.5,0.7112556625174187,1.6272780504614115
35,3,0.25,0.7119428046054578,1.558563841657501
35,3,0.0,0.719349980828943,0.8178462193089819
35,4,1.0,0.7275284430220328,0.0
35,4,0.75,0.729051775310704,-0.15233322886711864
35,4,0.5,0.7131635093974973,1.4364933624535503
35,4,0.25,0.7338199904399281,-0.6291547417895282
35,4,0.0,0.7446086091376779,-1.7080166115645112
35,5,1.0,0.7275284430220328,0.0
35,5,0.75,0.7289169651083326,-0.13885220862998038
35,5,0.5,0.7068915817248609,2.0636861297171905
35,5,0.25,0.6926387258141996,3.488971720783318
35,5,0.0,0.7007400837656317,2.6788359256401106
35,6,1.0,0.7275284430220328,0.0
35,6,0.75,0.7331517182212531,-0.5623275199220346
35,6,0.5,0.7313785221347623,-0.38500791127294987
35,6,0.25,0.726449830819113,0.10786122029198264
35,6,0.0,0.7270855839488324,0.044285907320040785
35,7,1.0,0.7275284430220328,0.0
35,7,0.75,0.7401491285328904,-1.2620685510857599
35,7,0.5,0.7358387172375104,-0.8310274215477587
35,7,0.25,0.729276171281634,-0.17477282596012333
35,7,0.0,0.7280489989978862,-0.05205559758534317
35,8,1.0,0.7275284430220328,0.0
35,8,0.75,0.7238402321013602,0.3688210920672619
35,8,0.5,0.7317236340664802,-0.4195191044447433
35,8,0.25,0.7225891941489381,0.4939248873094715
35,8,0.0,0.7253127128484564,0.22157301735763468
36,0,1.0,0.7489024965003526,0.0
36,0,0.75,0.7409999078627499,0.7902588637602626
36,0,0.5,0.7431275299253922,0.577496657496035
36,0,0.25,0.7509195574611928,-0.20170609608402001
36,0,0.0,0.7445192341533805,0.4383262346972061
36,1,1.0,0.7489024965003526,0.0
36,1,0.75,0.7516320433114674,-0.27295468111148136
36,1,0.5,0.7418191584536653,0.708333804668726
36,1,0.25,0.7269674473700273,2.193504913032529
36,1,0.0,0.7239599328124948,2.4942563687857744
36,2,1.0,0.7489024965003526,0.0
36,2,0.75,0.7405936830731437,0.8308813427208905
36,2,0.5,0.7308331687435393,1.8069327756813247
36,2,0.25,0.7160161563420439,3.2886340158308713
36,2,0.0,0.696994727311673,5.1907769188679564
36,3,1.0,0.7489024965003526,0.0
36,3,0.75,0.7426243703755488,0.6278126124803718
36,3,0.5,0.7461277887324308,0.2774707767921769
36,3,0.25,0.7356440636022081,1.3258432898144434
36,3,0.0,0.7331747103121035,1.5727786188249104
36,4,1.0,0.7489024965003526,0.0
36,4,0.75,0.749385221905617,-0.04827254052643948
36,4,0.5,0.7376085844256393,1.1293912074713308
36,4,0.25,0.7325751487380969,1.632734776225564
36,4,0.0,0.737521893778125,1.1380602722227517
36,5,1.0,0.7489024965003526,0.0
36,5,0.75,0.7624280912805502,-1.3525594780197658
36,5,0.5,0.7654133424908468,-1.6510845990494238
36,5,0.25,0.7679269829413989,-1.9024486441046373
36,5,0.0,0.7727721267572462,-2.3869630256893593
36,6,1.0,0.7489024965003526,0.0
36,6,0.75,0.7460581292578048,0.2844367242547774
36,6,0.5,0.7445072847506686,0.4395211749683936
36,6,0.25,0.7421037655445287,0.679873095582384
36,6,0.0,0.746416403997217,0.2486092503135584
36,7,1.0,0.7489024965003526,0.0
36,7,0.75,0.752074592074592,-0.3172095574239475
36,7,0.5,0.7318451821680033,1.705731433234925
36,7,0.25,0.7192361600440813,2.966633645627126
36,7,0.0,0.6946656464633993,5.423685003695322
36,8,1.0,0.7489024965003526,0.0
36,8,0.75,0.7337676266593174,1.5134869841035181
36,8,0.5,0.7238335043533923,2.5068992146960234
36,8,0.25,0.717758272433856,3.114422406649653
36,8,0.0,0.6927694394723698,5.613305702798277
37,0,1.0,0.8419797167359183,0.0
37,0,0.75,0.8481106704293151,-0.6130953693396779
37,0,0.5,0.8432109305478339,-0.12312138119155991
37,0,0.25,0.8435252615283646,-0.1545544792446285
37,0,0.0,0.8271722529268437,1.4807463809074606
37,1,1.0,0.8419797167359183,0.0
37,1,0.75,0.8424617441921536,-0.04820274562352678
37,1,0.5,0.8364266192430537,0.5553097492864589
37,1,0.25,0.8306896497366032,1.1290066999315118
37,1,0.0,0.8315178856888834,1.0461831047034909
37,2,1.0,0.8419797167359183,0.0
37,2,0.75,0.8412111095340016,0.07686072019167378
37,2,0.5,0.8354425414131301,0.6537175322788191
37,2,0.25,0.8196989640976267,2.2280752638291657
37,2,0.0,0.8081142362391023,3.3865480496816036
37,3,1.0,0.8419797167359183,0.0
37,3,0.75,0.8605164489598452,-1.8536732223926933
37,3,0.5,0.8704543533627239,-2.8474636626805605
37,3,0.25,0.8624335347576226,-2.0453818021704318
37,3,0.0,0.8667618248589324,-2.478210812301407
37,4,1.0,0.8419797167359183,0.0
37,4,0.75,0.8493794551540321,-0.739973841811381
37,4,0.5,0.8498423994013,-0.7862682665381704
37,4,0.25,0.8375961251911697,0.4383591544748655
37,4,0.0,0.8493626689592002,-0.7382952223281891
37,5,1.0,0.8419797167359183,0.0
37,5,0.75,0.8478518962861596,-0.587217955024133
37,5,0.5,0.8313491517744642,1.0630564961454092
37,5,0.25,0.8403577524365509,0.1621964299367451
37,5,0.0,0.8585082089372852,-1.6528492201366873
37,6,1.0,0.8419797167359183,0.0
37,6,0.75,0.8561061935915741,-1.4126476855655823
37,6,0.5,0.8559910102168149,-1.401129348089658
37,6,0.25,0.8494062327542894,-0.7426516018371077
37,6,0.0,0.8465720818535571,-0.459236511763883
37,7,1.0,0.8419797167359183,0.0
37,7,0.75,0.8396923015281014,0.22874152078169452
37,7,0.5,0.8246736881405898,1.7306028595328482
37,7,0.25,0.8083708128707906,3.3608903865127715
37,7,0.0,0.7926023615447483,4.937735519117004
37,8,1.0,0.8419797167359183,0.0
37,8,0.75,0.8479030466680608,-0.5923329932142507
37,8,0.5,0.8498348157008541,-0.7855098964935747
37,8,0.25,0.8459772180615016,-0.3997501325583297
37,8,0.0,0.8373364073912152,0.4643309344703139
38,0,1.0,0.8266564645113129,0.0
38,0,0.75,0.8114283713661804,1.5228093145132515
38,0,0.5,0.7797759223091217,4.688054220219118
38,0,0.25,0.7656495923215711,6.100687218974176
38,0,0.0,0.7791186189022639,4.753784560904906
38,1,1.0,0.8266564645113129,0.0
38,1,0.75,0.825325838666115,0.13306258451979414
38,1,0.5,0.8155639215114607,1.1092542999852184
38,1,0.25,0.8142530440167954,1.240342049451748
38,1,0.0,0.7959867230047801,3.066974150653279
38,2,1.0,0.8266564645113129,0.0
38,2,0.75,0.8256523883423215,0.10040761689914524
38,2,0.5,0.8327932656713649,-0.6136801160051997
38,2,0.25,0.8341227614923824,-0.7466296981069487
38,2,0.0,0.8306157830600855,-0.3959318548772628
38,3,1.0,0.8266564645113129,0.0
38,3,0.75,0.8311907815406474,-0.4534317029334489
38,3,0.5,0.825724485189485,0.09319793218278694
38,3,0.25,0.8240561778858421,0.2600286625470849
38,3,0.0,0.817327466320217,0.9328998191095894
38,4,1.0,0.8266564645113129,0.0
38,4,0.75,0.82711565530988,-0.0459190798567044
38,4,0.5,0.817915269811582,0.8741194699730892
38,4,0.25,0.824814289940114,0.18421745711989512
38,4,0.0,0.831062496316977,-0.44060318056641234
38,5,1.0,0.8266564645113129,0.0
38,5,0.75,0.8181450849791786,0.8511379532134322
38,5,0.5,0.8145074289270553,1.2149035584257617
38,5,0.25,0.8153937737153208,1.126269079599207
38,5,0.0,0.8395436143988033,-1.2887149887490401
38,6,1.0,0.8266564645113129,0.0
38,6,0.75,0.8122810809679575,1.4375383543355436
38,6,0.5,0.7991759083471878,2.7480556164125147
38,6,0.25,0.7634725223594456,6.3183942151867285
38,6,0.0,0.7565841904145144,7.00722740967985
38,7,1.0,0.8266564645113129,0.0
38,7,0.75,0.8228361845979806,0.3820279913332336
38,7,0.5,0.8050269910096796,2.1629473501633356
38,7,0.25,0.787013665617675,3.9642798893637865
38,7,0.0,0.7760408153616098,5.061564914970306
38,8,1.0,0.8266564645113129,0.0
38,8,0.75,0.8269725346006578,-0.03160700893448665
38,8,0.5,0.8234475667527993,0.3208897758513629
38,8,0.25,0.8192187719670021,0.7437692544310814
38,8,0.0,0.8017012293397239,2.495523517158904
39,0,1.0,0.7981826925648832,0.0
39,0,0.75,0.8011394189782937,-0.2956726413410493
39,0,0.5,0.7924808777530771,0.5701814811806094
39,0,0.25,0.7873004175878162,1.0882274977066952
39,0,0.0,0.7839894903078837,1.4193202256999493
39,1,1.0,0.7981826925648832,0.0
39,1,0.75,0.7918226542818505,0.6360038283032665
39,1,0.5,0.791220894216599,0.6961798348284143
39,1,0.25,0.7771940118930656,2.0988680671817583
39,1,0.0,0.7645072259941428,3.3675466570740387
39,2,1.0,0.7981826925648832,0.0
39,2,0.75,0.8142705697245086,-1.6087877159625452
39,2,0.5,0.8137209861643475,-1.5538293599464348
39,2,0.25,0.8142061944910028,-1.6023501926119676
39,2,0.0,0.8096535504853202,-1.1470857920437005
39,3,1.0,0.7981826925648832,0.0
39,3,0.75,0.7944933603318696,0.3689332233013598
39,3,0.5,0.7899079630431105,0.8274729521772661
39,3,0.25,0.776442225635774,2.1740466929109137
39,3,0.0,0.7462552334052638,5.192745915961938
39,4,1.0,0.7981826925648832,0.0
39,4,0.75,0.7947192722717308,0.3463420293152386
39,4,0.5,0.7735650655300347,2.461762703484849
39,4,0.25,0.754859255138923,4.332343742596012
39,4,0.0,0.7448337543539978,5.334893821088538
39,5,1.0,0.7981826925648832,0.0
39,5,0.75,0.8028262727863615,-0.46435802214783717
39,5,0.5,0.8185592718730649,-2.037657930818171
39,5,0.25,0.8219531409752274,-2.377044841034426
39,5,0.0,0.7993144171469657,-0.11317245820825494
39,6,1.0,0.7981826925648832,0.0
39,6,0.75,0.8084058871591562,-1.022319459427301
39,6,0.5,0.8092633010871254,-1.1080608522242241
39,6,0.25,0.8073466759325031,-0.9163983367619921
39,6,0.0,0.813037519973787,-1.485482740890387
39,7,1.0,0.7981826925648832,0.0
39,7,0.75,0.7974447799657682,0.07379125991149316
39,7,0.5,0.7972450692333664,0.09376233315168125
39,7,0.25,0.791662461877088,0.652023068779517
39,7,0.0,0.791738266380047,0.6444426184836205
39,8,1.0,0.7981826925648832,0.0
39,8,0.75,0.8116968052334449,-1.3514112668561729
39,8,0.5,0.8219592467701442,-2.3776554205261036
39,8,0.25,0.824215998719404,-2.603330615452082
39,8,0.0,0.8346674137872921,-3.648472122240898
40,0,1.0,0.8115296817609408,0.0
40,0,0.75,0.8120828310204198,-0.05531492594790244
40,0,0.5,0.7872438889955508,2.428579276539
40,0,0.25,0.775813499837269,3.5716181923671764
40,0,0.0,0.7663480851874862,4.518159657345455
40,1,1.0,0.8115296817609408,0.0
40,1,0.75,0.8053527873183769,0.6176894442563863
40,1,0.5,0.7915320124382266,1.9997669322714184
40,1,0.25,0.776050905416257,3.547877634468377
40,1,0.0,0.7789079668641712,3.262171489676957
40,2,1.0,0.8115296817609408,0.0
40,2,0.75,0.8271068573078697,-1.5577175546928945
40,2,0.5,0.8240770669458081,-1.254738518486731
40,2,0.25,0.8389794592252288,-2.7449777464288005
40,2,0.0,0.8339252406923388,-2.2395558931397996
40,3,1.0,0.8115296817609408,0.0
40,3,0.75,0.8266601677892,-1.5130486028259282
40,3,0.5,0.8149544567551992,-0.3424774994258417
40,3,0.25,0.8101787485042863,0.1350933256654474
40,3,0.0,0.801656938957068,0.9872742803872736
40,4,1.0,0.8115296817609408,0.0
40,4,0.75,0.8068130073344495,0.4716674426491263
40,4,0.5,0.811464646788432,0.006503497250875956
40,4,0.25,0.8012144127482953,1.0315269012645456
40,4,0.0,0.8065698851166667,0.49597966442740393
40,5,1.0,0.8115296817609408,0.0
40,5,0.75,0.8153420071168287,-0.38123253558879355
40,5,0.5,0.8169788195313658,-0.5449137770424994
40,5,0.25,0.8186139568770231,-0.7084275116082339
40,5,0.0,0.8116309059813573,-0.010122422041658474
40,6,1.0,0.8115296817609408,0.0
40,6,0.75,0.814930294298418,-0.34006125374772544
40,6,0.5,0.8249924949367584,-1.3462813175817656
40,6,0.25,0.8234431371228825,-1.1913455361941772
40,6,0.0,0.8101803299678845,0.1349351793056286
40,7,1.0,0.8115296817609408,0.0
40,7,0.75,0.8217866425484962,-1.0256960787555447
40,7,0.5,0.8152442384092353,-0.37145566482945647
40,7,0.25,0.804429311870001,0.7100369890939762
40,7,0.0,0.7668882494527319,4.464143230820882
40,8,1.0,0.8115296817609408,0.0
40,8,0.75,0.8208284953380621,-0.9298813577121368
40,8,0.5,0.817039611997631,-0.5509930236690219
40,8,0.25,0.8210081493464776,-0.9478467585536832
40,8,0.0,0.8190276261259792,-0.7497944365038478
