subject,channel,alpha,f1,drop_pp
156,0,1.0,0.7259809819649252,0.0
156,0,0.75,0.7331257928682144,-0.7144810903289223
156,0,0.5,0.7331747427682545,-0.719376080332923
156,0,0.25,0.7212567961919578,0.4724185772967404
156,0,0.0,0.6931181247531908,3.286285721173443
156,1,1.0,0.7259809819649252,0.0
156,1,0.75,0.7256012050154989,0.03797769494263692
156,1,0.5,0.7210583060491982,0.4922675915727037
156,1,0.25,0.6993774554659111,2.6603526499014096
156,1,0.0,0.6548707192735237,7.111026269140153
156,2,1.0,0.7259809819649252,0.0
156,2,0.75,0.7353099506801075,-0.9328968715182295
156,2,0.5,0.7425367629400301,-1.6555780975104906
156,2,0.25,0.7266139689298532,-0.06329869649279729
156,2,0.0,0.668754791976935,5.722618998799023
156,3,1.0,0.7259809819649252,0.0
156,3,0.75,0.7281410764096514,-0.21600944447262016
156,3,0.5,0.7297154803063196,-0.3734498341394388
156,3,0.25,0.7278124074973447,-0.18314255324194395
156,3,0.0,0.7164114120922795,0.9569569872645678
156,4,1.0,0.7259809819649252,0.0
156,4,0.75,0.7287770126585879,-0.2796030693662632
156,4,0.5,0.7168115088681226,0.9169473096802605
156,4,0.25,0.6995606656565055,2.642031630841968
156,4,0.0,0.6592621287060995,6.671885325882576
156,5,1.0,0.7259809819649252,0.0
156,5,0.75,0.7274347375820412,-0.1453755617116026
156,5,0.5,0.7205666935411559,0.5414288423769342
156,5,0.25,0.6885130544849256,3.7467927479999608
156,5,0.0,0.5731697726663338,15.281120929859139
156,6,1.0,0.7259809819649252,0.0
156,6,0.75,0.7279700429713158,-0.19890610063906244
156,6,0.5,0.7278894916487129,-0.19085096837876403
156,6,0.25,0.7243814197763853,0.15995621885399602
156,6,0.0,0.7156509797854719,1.0330002179453346
185,0,1.0,0.7009214415855636,0.0
185,0,0.75,0.7059478826184465,-0.5026441032882967
185,0,0.5,0.7035412329862255,-0.26197914006619305
185,0,0.25,0.6816498997783207,1.9271541807242887
185,0,0.0,0.6624519234948004,3.8469518090763155
185,1,1.0,0.7009214415855636,0.0
185,1,0.75,0.7076372588273118,-0.671581724174819
185,1,0.5,0.7072802096394404,-0.6358768053876807
185,1,0.25,0.6970240057123926,0.3897435873170929
185,1,0.0,0.6357390179654587,6.518242362010485
185,2,1.0,0.7009214415855636,0.0
185,2,0.75,0.6944650248471838,0.6456416738379822
185,2,0.5,0.6861717525712658,1.474968901429774
185,2,0.25,0.6562571825643047,4.466425902125892
185,2,0.0,0.5794486814297869,12.147276015577669
185,3,1.0,0.7009214415855636,0.0
185,3,0.75,0.7029079248105853,-0.19864832250217068
185,3,0.5,0.7054138618704027,-0.4492420284839094
185,3,0.25,0.7031281446708129,-0.22067030852492842
185,3,0.0,0.6910000120136751,0.9921429571888463
185,4,1.0,0.7009214415855636,0.0
185,4,0.75,0.6941260967450551,0.6795344840508477
185,4,0.5,0.6778659713747047,2.3055470210858853
185,4,0.25,0.660720699629416,4.020074195614754
185,4,0.0,0.6226607902146097,7.826065137095384
185,5,1.0,0.7009214415855636,0.0
185,5,0.75,0.706324765115854,-0.5403323530290383
185,5,0.5,0.7070548873755518,-0.6133445789988201
185,5,0.25,0.6900665698264311,1.0854871759132467
185,5,0.0,0.6096399953822852,9.128144620327838
185,6,1.0,0.7009214415855636,0.0
185,6,0.75,0.7041082946785296,-0.3186853092966069
185,6,0.5,0.7051416575750719,-0.422021598950828
185,6,0.25,0.7075054958654702,-0.6584054279906604
185,6,0.0,0.7028248651854081,-0.19034235998445226
186,0,1.0,0.7147986145137902,0.0
186,0,0.75,0.7180120750763166,-0.321346056252636
186,0,0.5,0.713723016880641,0.1075597633149239
186,0,0.25,0.6803179555580695,3.448065895572072
186,0,0.0,0.6379825035265904,7.681611098719987
186,1,1.0,0.7147986145137902,0.0
186,1,0.75,0.7121766842207861,0.2621930293004171
186,1,0.5,0.7084520207988153,0.6346593714974924
186,1,0.25,0.6942682076126495,2.053040690114072
186,1,0.0,0.6486090964444949,6.6189518069295294
186,2,1.0,0.7147986145137902,0.0
186,2,0.75,0.7064438156375636,0.8354798876226588
186,2,0.5,0.6995251445651415,1.5273469948648755
186,2,0.25,0.6706459417104087,4.415267280338153
186,2,0.0,0.6288124057277977,8.59862087859925
186,3,1.0,0.7147986145137902,0.0
186,3,0.75,0.7100802725758186,0.4718341937971604
186,3,0.5,0.7046827129018358,1.0115901611954414
186,3,0.25,0.6901223456688532,2.467626884493701
186,3,0.0,0.6754230366879074,3.9375577825882857
186,4,1.0,0.7147986145137902,0.0
186,4,0.75,0.7186761021287159,-0.3877487614925679
186,4,0.5,0.7170019956787167,-0.22033811649264656
186,4,0.25,0.7114868837677741,0.3311730746016095
186,4,0.0,0.6844873849474516,3.0311229566338582
186,5,1.0,0.7147986145137902,0.0
186,5,0.75,0.7191778783511353,-0.4379263837345104
186,5,0.5,0.7100832482211589,0.4715366292631362
186,5,0.25,0.6791551724462911,3.5643442067499143
186,5,0.0,0.5926351617944502,12.216345271934003
186,6,1.0,0.7147986145137902,0.0
186,6,0.75,0.7083791747393209,0.6419439774469349
186,6,0.5,0.70691831130717,0.7880303206620254
186,6,0.25,0.6997152002186351,1.508341429515514
186,6,0.0,0.6982276294657943,1.6570985047995923
188,0,1.0,0.6245933078907502,0.0
188,0,0.75,0.6219111121964405,0.2682195694309719
188,0,0.5,0.6031894183879702,2.140388950277994
188,0,0.25,0.5857599526611249,3.8833355229625277
188,0,0.0,0.5712524373053907,5.334087058535952
188,1,1.0,0.6245933078907502,0.0
188,1,0.75,0.6292725012429162,-0.46791933521660445
188,1,0.5,0.63510837302421,-1.0515065133459789
188,1,0.25,0.6334849602989652,-0.889165240821499
188,1,0.0,0.5987180253148737,2.5875282575876457
188,2,1.0,0.6245933078907502,0.0
188,2,0.75,0.6185962295848679,0.5997078305882253
188,2,0.5,0.6051413442638529,1.9451963626897273
188,2,0.25,0.5805181581100374,4.407514978071281
188,2,0.0,0.5149900737695158,10.96032341212344
188,3,1.0,0.6245933078907502,0.0
188,3,0.75,0.6140504268178844,1.0542881072865828
188,3,0.5,0.604295456400226,2.029785149052421
188,3,0.25,0.5847193859052777,3.987392198547246
188,3,0.0,0.5708730165389331,5.372029135181711
188,4,1.0,0.6245933078907502,0.0
188,4,0.75,0.620716279332295,0.38770285584551756
188,4,0.5,0.6107987864497684,1.379452144098181
188,4,0.25,0.600595402264404,2.3997905626346183
188,4,0.0,0.576960282712424,4.763302517832613
188,5,1.0,0.6245933078907502,0.0
188,5,0.75,0.6329275977519557,-0.8334289861205546
188,5,0.5,0.6239998905367536,0.05934173539965393
188,5,0.25,0.6154914028464442,0.9101905044305969
188,5,0.0,0.5498203499601227,7.477295793062744
188,6,1.0,0.6245933078907502,0.0
188,6,0.75,0.6204142825684413,0.4179025322308849
188,6,0.5,0.6229345871241594,0.16587207665907933
188,6,0.25,0.618303982663323,0.62893252274272
188,6,0.0,0.6109695316324002,1.3623776258349984
189,0,1.0,0.6503099625376767,0.0
189,0,0.75,0.652094578062691,-0.17846155250142992
189,0,0.5,0.6492707728500426,0.10391896876340567
189,0,0.25,0.6333445071259001,1.696545541177663
189,0,0.0,0.5862776888823261,6.403227365535058
189,1,1.0,0.6503099625376767,0.0
189,1,0.75,0.6420308750505714,0.8279087487105263
189,1,0.5,0.6208269315526637,2.9483030985013037
189,1,0.25,0.5867221975199806,6.358776501769614
189,1,0.0,0.5174897192133006,13.282024332437615
189,2,1.0,0.6503099625376767,0.0
189,2,0.75,0.6627255780160375,-1.2415615478360786
189,2,0.5,0.6615942125830657,-1.1284250045389022
189,2,0.25,0.647101812777305,0.3208149760371648
189,2,0.0,0.571362315999388,7.894764653828867
189,3,1.0,0.6503099625376767,0.0
189,3,0.75,0.6459332027451711,0.43767597925056245
189,3,0.5,0.6375882494775575,1.2721713060119155
189,3,0.25,0.6250199395404952,2.5290022997181527
189,3,0.0,0.6092584598816819,4.105150265599478
189,4,1.0,0.6503099625376767,0.0
189,4,0.75,0.6497155866790257,0.0594375858650964
189,4,0.5,0.6456729829731882,0.4636979564488497
189,4,0.25,0.6375182676797114,1.2791694857965275
189,4,0.0,0.6212112656668827,2.9098696870794027
189,5,1.0,0.6503099625376767,0.0
189,5,0.75,0.6559600340869166,-0.565007154923991
189,5,0.5,0.6469668493267468,0.3343113210929949
189,5,0.25,0.6109660525690471,3.9343909968629576
189,5,0.0,0.47767391517959745,17.263604735807924
189,6,1.0,0.6503099625376767,0.0
189,6,0.75,0.6630337012515197,-1.2723738713843025
189,6,0.5,0.6754731773501124,-2.5163214812435664
189,6,0.25,0.6862958436285014,-3.598588109082468
189,6,0.0,0.6876056866225969,-3.729572408492021
190,0,1.0,0.6380000471741194,0.0
190,0,0.75,0.6485067662781498,-1.0506719104030449
190,0,0.5,0.642898279992911,-0.4898232818791648
190,0,0.25,0.6142377462228882,2.376230095123122
190,0,0.0,0.5679049037576449,7.009514341647449
190,1,1.0,0.6380000471741194,0.0
190,1,0.75,0.6267840014348688,1.1216045739250613
190,1,0.5,0.6065677074152063,3.143233975891313
190,1,0.25,0.5657711339315299,7.222891324258951
190,1,0.0,0.4785347010540999,15.946534612001951
190,2,1.0,0.6380000471741194,0.0
190,2,0.75,0.6299459616080091,0.8054085566110314
190,2,0.5,0.6059466098717494,3.205343730236998
190,2,0.25,0.5540352795599187,8.396476761420068
190,2,0.0,0.4521001178005777,18.58999293735417
190,3,1.0,0.6380000471741194,0.0
190,3,0.75,0.642707252107698,-0.4707204933578568
190,3,0.5,0.6426301041246921,-0.4630056950572725
190,3,0.25,0.6373159241365299,0.0684123037589468
190,3,0.0,0.6263431097577785,1.1656937416340885
190,4,1.0,0.6380000471741194,0.0
190,4,0.75,0.6412373088646808,-0.3237261690561377
190,4,0.5,0.6351799087199851,0.28201384541343133
190,4,0.25,0.6184055315395145,1.9594515634604903
190,4,0.0,0.604957970658386,3.304207651573343
190,5,1.0,0.6380000471741194,0.0
190,5,0.75,0.6411022133715412,-0.3102166197421763
190,5,0.5,0.6351816073149005,0.2818439859218924
190,5,0.25,0.6087464335780304,2.9253613596089023
190,5,0.0,0.5582329661069527,7.976708106716668
190,6,1.0,0.6380000471741194,0.0
190,6,0.75,0.6380150759943864,-0.0015028820267048992
190,6,0.5,0.6322611284400044,0.5738918734115028
190,6,0.25,0.6219404757565621,1.6059571417557317
190,6,0.0,0.604626785904078,3.3373261270041366
191,0,1.0,0.7049969308404844,0.0
191,0,0.75,0.7066009365563461,-0.16040057158617227
191,0,0.5,0.6993731733293993,0.5623757511085126
191,0,0.25,0.6636232529310098,4.137367790947466
191,0,0.0,0.583737740681479,12.125919015900543
191,1,1.0,0.7049969308404844,0.0
191,1,0.75,0.6953078402613535,0.9689090579130921
191,1,0.5,0.6736502413095269,3.134668953095754
191,1,0.25,0.6197509146689261,8.524601617155836
191,1,0.0,0.5504190843778157,15.45778464626687
191,2,1.0,0.7049969308404844,0.0
191,2,0.75,0.7104173084471017,-0.5420377606617288
191,2,0.5,0.7178498786081575,-1.2852947767673095
191,2,0.25,0.7036146452264409,0.13822856140435213
191,2,0.0,0.617647762311002,8.734916852948238
191,3,1.0,0.7049969308404844,0.0
191,3,0.75,0.7145965055270411,-0.95995746865567
191,3,0.5,0.7205847641419854,-1.558783330150093
191,3,0.25,0.727655317340649,-2.2658386500164607
191,3,0.0,0.7271169143174322,-2.211998347694777
191,4,1.0,0.7049969308404844,0.0
191,4,0.75,0.6942480642213922,1.0748866619092246
191,4,0.5,0.6801398949581933,2.4857035882291156
191,4,0.25,0.6562112476375468,4.8785683202937635
191,4,0.0,0.6293474614084562,7.564946943202822
191,5,1.0,0.7049969308404844,0.0
191,5,0.75,0.6992419828323229,0.5754948008161564
191,5,0.5,0.6795160516770057,2.5480879163478742
191,5,0.25,0.6484238356791446,5.65730951613398
191,5,0.0,0.5700962388286505,13.490069201183397
191,6,1.0,0.7049969308404844,0.0
191,6,0.75,0.7051801389978011,-0.018320815731664997
191,6,0.5,0.7030166109816488,0.1980319858835622
191,6,0.25,0.702809308378301,0.21876224621834028
191,6,0.0,0.6963367236401969,0.8660207200287484
192,0,1.0,0.4241151096877751,0.0
192,0,0.75,0.4287208381930107,-0.4605728505235607
192,0,0.5,0.43127785402102026,-0.7162744333245152
192,0,0.25,0.4284505676305474,-0.43354579427722917
192,0,0.0,0.4239879877893995,0.012712189837560395
192,1,1.0,0.4241151096877751,0.0
192,1,0.75,0.43032058258196154,-0.6205472894186437
192,1,0.5,0.43036712267943306,-0.6252012991657951
192,1,0.25,0.42052872334496505,0.3586386342810055
192,1,0.0,0.39959188670616286,2.4523222981612247
192,2,1.0,0.4241151096877751,0.0
192,2,0.75,0.4197951543081724,0.43199553796027246
192,2,0.5,0.4063842279633486,1.7730881724426495
192,2,0.25,0.39449274249986177,2.9622367187913334
192,2,0.0,0.3754797760389402,4.863533364883487
192,3,1.0,0.4241151096877751,0.0
192,3,0.75,0.4264240173607993,-0.23089076730242186
192,3,0.5,0.43020015308397686,-0.608504339620175
192,3,0.25,0.42833537939624755,-0.4220269708472446
192,3,0.0,0.42440255755678635,-0.028744786901124808
192,4,1.0,0.4241151096877751,0.0
192,4,0.75,0.4288638389067686,-0.4748729218993497
192,4,0.5,0.43591129646024096,-1.1796186772465855
192,4,0.25,0.431708710396113,-0.7593600708337922
192,4,0.0,0.40651618675324774,1.7598922934527361
192,5,1.0,0.4241151096877751,0.0
192,5,0.75,0.4303453274804902,-0.6230217792715098
192,5,0.5,0.42976090663347066,-0.5645796945695558
192,5,0.25,0.42305129320219004,0.10638164855850674
192,5,0.0,0.42008579534514356,0.40293143426315403
192,6,1.0,0.4241151096877751,0.0
192,6,0.75,0.4249642595836084,-0.08491498958332899
192,6,0.5,0.4251240003589829,-0.10088906712077961
192,6,0.25,0.4194444668708721,0.46706428169029923
192,6,0.0,0.4163891596721627,0.7725950015612382
193,0,1.0,0.6622948609178068,0.0
193,0,0.75,0.6565048017944332,0.5790059123373603
193,0,0.5,0.640429077423993,2.186578349381374
193,0,0.25,0.6050069343451512,5.728792657265558
193,0,0.0,0.5266091819868808,13.568567893092599
193,1,1.0,0.6622948609178068,0.0
193,1,0.75,0.6619424819587909,0.035237895901585325
193,1,0.5,0.6563425738519691,0.5952287065837614
193,1,0.25,0.619675288181765,4.261957273604178
193,1,0.0,0.5542120428838542,10.808281803395259
193,2,1.0,0.6622948609178068,0.0
193,2,0.75,0.6638325524186182,-0.15376915008114
193,2,0.5,0.6578588831838541,0.4435977733952656
193,2,0.25,0.6276598268098933,3.4635034107913465
193,2,0.0,0.5933615018124228,6.893335910538401
193,3,1.0,0.6622948609178068,0.0
193,3,0.75,0.6596501156520522,0.26447452657545334
193,3,0.5,0.649496265872574,1.279859504523273
193,3,0.25,0.6371075084767712,2.5187352441035538
193,3,0.0,0.6310050461774688,3.1289814740337984
193,4,1.0,0.6622948609178068,0.0
193,4,0.75,0.67554868387578,-1.3253822957973282
193,4,0.5,0.6817403779597977,-1.9445517041990934
193,4,0.25,0.6633961572151229,-0.11012962973161455
193,4,0.0,0.6427485566484378,1.9546304269368986
193,5,1.0,0.6622948609178068,0.0
193,5,0.75,0.6553064014325745,0.6988459485232301
193,5,0.5,0.6346742620868528,2.7620598830953913
193,5,0.25,0.585635415026969,7.665944589083773
193,5,0.0,0.5317407273232084,13.055413359459834
193,6,1.0,0.6622948609178068,0.0
193,6,0.75,0.6663943149062295,-0.40994539884227077
193,6,0.5,0.6606016293247323,0.16932315930744402
193,6,0.25,0.6515443668065259,1.0750494111280817
193,6,0.0,0.6614283976306303,0.08664632871764333
194,0,1.0,0.738188105537405,0.0
194,0,0.75,0.7354974480110635,0.26906575263414556
194,0,0.5,0.7303141020914907,0.7874003445914268
194,0,0.25,0.7087601613280486,2.942794420935635
194,0,0.0,0.6671113243945936,7.107678114281136
194,1,1.0,0.738188105537405,0.0
194,1,0.75,0.7395130053932658,-0.13248998558608172
194,1,0.5,0.7336082929229937,0.4579812614411316
194,1,0.25,0.7274034666211865,1.0784638916218503
194,1,0.0,0.6864154790941946,5.177262644321035
194,2,1.0,0.738188105537405,0.0
194,2,0.75,0.7468013460198855,-0.8613240482480466
194,2,0.5,0.7529657034348959,-1.477759789749089
194,2,0.25,0.7410904762469295,-0.2902370709524482
194,2,0.0,0.6908671833177034,4.732092221970163
194,3,1.0,0.738188105537405,0.0
194,3,0.75,0.7373553679930502,0.08327375443547558
194,3,0.5,0.7357369491913801,0.24511563460248853
194,3,0.25,0.7311738849202682,0.7014220617136746
194,3,0.0,0.7262277132406367,1.1960392296768263
194,4,1.0,0.738188105537405,0.0
194,4,0.75,0.742022542372815,-0.383443683540996
194,4,0.5,0.7418357293579141,-0.3647623820509094
194,4,0.25,0.7250342922525189,1.3153813284886073
194,4,0.0,0.6901523612817013,4.803574425570368
194,5,1.0,0.738188105537405,0.0
194,5,0.75,0.7436996885145055,-0.5511582977100526
194,5,0.5,0.7393138664165277,-0.11257608791227502
194,5,0.25,0.713513750172611,2.467435536479401
194,5,0.0,0.6277646520259971,11.042345351140792
194,6,1.0,0.738188105537405,0.0
194,6,0.75,0.7461049448224798,-0.7916839285074806
194,6,0.5,0.7472386122636192,-0.9050506726214214
194,6,0.25,0.7519586056762109,-1.3770500138805875
194,6,0.0,0.750302369106183,-1.2114263568777983
