subject,channel,r,f1_drop_mean,f1_drop_sd
1,0,5,0.06864093244328189,0.019358653376185263
1,1,5,0.07738267082376576,0.011613395510396782
1,2,5,0.05744658785107511,0.015995638006534342
1,3,5,0.04447575911840418,0.008320881125102784
1,4,5,-0.031534591590821594,0.006541554113992506
1,5,5,-0.008637683800620665,0.011824854739326167
1,6,5,0.04291638699335002,0.011422071355796865
1,7,5,0.10373203775238868,0.015425741125325403
1,8,5,0.08662793732954069,0.01387745323613889
2,0,5,0.10381461740781968,0.009377078084024042
2,1,5,0.14208688507102532,0.017617886852563717
2,2,5,0.1319726548552435,0.014345677460007263
2,3,5,0.12697524724069528,0.012621627510912684
2,4,5,0.12769264258157728,0.017384907098633842
2,5,5,0.1758293838855196,0.01982076112370286
2,6,5,0.11322051456287915,0.011335134535884318
2,7,5,0.14858920019295024,0.014067115160453685
2,8,5,0.16651570530080256,0.0185554045875968
3,0,5,0.16129672083064078,0.009830546506454919
3,1,5,0.09572818723917949,0.006569634761266521
3,2,5,0.1734278467633294,0.008391384045876922
3,3,5,0.2080426390545941,0.007401340968621686
3,4,5,0.12468221036105318,0.01845014328752521
3,5,5,0.18413365039993695,0.02134534393516349
3,6,5,0.08095889901128113,0.00746185838219894
3,7,5,0.1054160742179382,0.004456211191317767
3,8,5,0.13557877573984373,0.007690124352741366
4,0,5,0.17769807205215038,0.011427785008727502
4,1,5,0.12986416794915126,0.01248519526274217
4,2,5,0.1276149775836942,0.01141671642408139
4,3,5,0.12932747220014534,0.023871369055955487
4,4,5,0.12418687422576699,0.017274839268732405
4,5,5,0.12396177085936633,0.012804126471393932
4,6,5,0.06419460974067108,0.016400043919244125
4,7,5,0.12990669790887951,0.004954072529123847
4,8,5,0.12009010183338235,0.01641781097666299
5,0,5,0.10037685069165878,0.014038735526434386
5,1,5,0.12804281472590132,0.015871262399524116
5,2,5,0.10090293299838249,0.020348350563647012
5,3,5,0.08634114708276738,0.014786149615851816
5,4,5,0.09645267883192382,0.00933169201015241
5,5,5,0.10093294197489869,0.015764805416208602
5,6,5,0.04075954092122771,0.013097579416999147
5,7,5,0.07120612622420883,0.010752975773971237
5,8,5,0.13700695682842873,0.0018118188273418593
6,0,5,0.08979379631301543,0.011567145904946632
6,1,5,0.09653490038510606,0.008874858465054033
6,2,5,0.08377736855618875,0.011714809498945641
6,3,5,0.07756968191766944,0.009550385086362965
6,4,5,0.07778539674780156,0.010920411829365673
6,5,5,0.17577211771220758,0.01644631521482431
6,6,5,0.014543998520285806,0.008296738791020958
6,7,5,0.1922451705686668,0.01963134134668214
6,8,5,0.12308998748418916,0.020730107691865337
7,0,5,0.08394970871627858,0.008573586182809267
7,1,5,0.08203285302699095,0.011380318521119646
7,2,5,0.13815444474395963,0.015816268942384873
7,3,5,0.012883800678892322,0.01785939923499767
7,4,5,0.09548314619474166,0.008254097668696727
7,5,5,0.08285836374508113,0.02290721629469615
7,6,5,0.04497100497284277,0.013442570829012016
7,7,5,0.11636756451993605,0.009794620340457557
7,8,5,0.1680988254704506,0.02163223648021668
8,0,5,0.1288133414896593,0.024558945879488803
8,1,5,0.05860252886031725,0.011444831215123508
8,2,5,0.07998570209981379,0.01040818406911189
8,3,5,0.10768389385085766,0.019264578892877044
8,4,5,0.09676588788897027,0.01081001225601503
8,5,5,0.15495805511770633,0.006929679959350985
8,6,5,0.032503868417628735,0.006377955121798725
8,7,5,0.18255040491099944,0.005487586975403223
8,8,5,0.1503792561298202,0.011785817103551768
9,0,5,0.0685591672417359,0.026944211094870465
9,1,5,0.13335649755962004,0.005309719148162264
9,2,5,0.1193812466980764,0.013130110874253068
9,3,5,0.10292127907031741,0.004768019869256525
9,4,5,0.07433493717599049,0.014614338688773707
9,5,5,0.13440049089930933,0.007526416298315847
9,6,5,0.0644387408672223,0.014448931266058947
9,7,5,0.1609363409767071,0.008201616423663932
9,8,5,0.12647236830168546,0.015081004670443314
10,0,5,0.17955208049521088,0.016169221767146844
10,1,5,0.07759786861512649,0.019382051980910843
10,2,5,0.10345415698780117,0.014370529734983708
10,3,5,0.18925958647851562,0.017968821422578583
10,4,5,0.11751649896521807,0.01348928616798241
10,5,5,0.118899052720235,0.008738074274930131
10,6,5,0.04683764954545646,0.01816378653382754
10,7,5,0.14692391507527514,0.00938403458078303
10,8,5,0.17348550169654325,0.020541927656829415
11,0,5,0.1445138882740708,0.007218807064161968
11,1,5,0.1882080574344273,0.020953416740556993
11,2,5,0.18446727691463374,0.015376391652821482
11,3,5,0.14629426208468488,0.010662657543635795
11,4,5,0.12102436958312653,0.01130723128745675
11,5,5,0.15222051242031812,0.015094129101949757
11,6,5,0.06140797520984986,0.0073233170977781035
11,7,5,0.22275742011533106,0.012441355713908132
11,8,5,0.19000096896871713,0.013527137604935605
12,0,5,0.09808221472111914,0.011958197795880964
12,1,5,0.14081819864031792,0.011095520384556058
12,2,5,0.1461929923288289,0.01418216263144865
12,3,5,0.12392024514934012,0.023733227958672252
12,4,5,0.10621784072477183,0.0034615321662779816
12,5,5,0.14221651282845643,0.02133851520333797
12,6,5,0.06923871543832132,0.01429287165168968
12,7,5,0.16677946637455404,0.005376643182560261
12,8,5,0.1956021992098635,0.014943870967240591
13,0,5,0.21187073685152455,0.012152229419018896
13,1,5,0.18741311886678735,0.01221885015915496
13,2,5,0.16445500885971834,0.014949509594015361
13,3,5,0.06585283617413817,0.011647178553116389
13,4,5,0.1494330552822057,0.017950671124083384
13,5,5,0.2723036381136919,0.012529495438680241
13,6,5,0.115105916042387,0.006644378564965025
13,7,5,0.15213302720935376,0.011974863666051456
13,8,5,0.15613576244797028,0.007629172998473591
14,0,5,0.12622216460321747,0.012643432540523839
14,1,5,0.09771661233895886,0.014003408536869277
14,2,5,0.16054673723660975,0.003845300163396595
14,3,5,0.13455594371096852,0.009635828222679794
14,4,5,0.14129369014415985,0.007361273574872855
14,5,5,0.14180525064253086,0.017178989121659553
14,6,5,0.03341545340964673,0.008119419786891487
14,7,5,0.17034149703389065,0.011577891216316848
14,8,5,0.13236857419339815,0.012922293076921275
15,0,5,0.16672923584668253,0.006066291740450406
15,1,5,0.20960386424328328,0.02201756706336802
15,2,5,0.1990329786951251,0.0061826466175792655
15,3,5,0.11693668770202537,0.013455208068831367
15,4,5,0.17567578311311288,0.012234651905018554
15,5,5,0.16152980493561828,0.007821423770045693
15,6,5,0.08352544214735376,0.010486915218045754
15,7,5,0.14664350508846596,0.012088382864366101
15,8,5,0.149003595791625,0.021974945808817814
16,0,5,0.16972793958879215,0.011904335316396543
16,1,5,0.15895480184278238,0.00810246800510039
16,2,5,0.15015275545952786,0.01613848510150892
16,3,5,0.11474496454577363,0.008046273621983093
16,4,5,0.1771834085072977,0.019111227586446386
16,5,5,0.20299651159319315,0.013204729218268551
16,6,5,0.05300194519256476,0.01117558358897952
16,7,5,0.17984201919843557,0.012866475888834404
16,8,5,0.2336946865410356,0.01001807523257977
17,0,5,0.21265681621797078,0.012365791171626684
17,1,5,0.11107277285568873,0.012874567250904228
17,2,5,0.17301995150083072,0.010732403086827618
17,3,5,0.12119400340199205,0.011100262920442607
17,4,5,0.14914540950634197,0.008019166323124527
17,5,5,0.15157928610320334,0.015769365950407666
17,6,5,0.08899088476514831,0.011455550493719692
17,7,5,0.13430468742304283,0.01023466744634257
17,8,5,0.16888774003697843,0.013014076208229966
18,0,5,0.11040610067005127,0.009962550476809775
18,1,5,0.07717406375721225,0.015065536009812846
18,2,5,0.10507752332910894,0.00787623515926058
18,3,5,0.14187748919760496,0.008931859437686778
18,4,5,0.1303804546677319,0.014496905694418983
18,5,5,0.1433427807020484,0.015492633582973524
18,6,5,0.03882803753575052,0.006177501072478507
18,7,5,0.12428017300944565,0.010994672263635395
18,8,5,0.0969037783252753,0.017605314126941128
19,0,5,0.11991056560760179,0.009506387037371845
19,1,5,0.1541269617672532,0.01657286300337785
19,2,5,0.1567280206312464,0.012410164210267246
19,3,5,0.14334858936232073,0.01392273901353596
19,4,5,0.04767306622821432,0.003314557356203363
19,5,5,0.10156565185176462,0.004432310562725017
19,6,5,0.04899071919319351,0.009588003091157546
19,7,5,0.16452788310578292,0.013035379599177664
19,8,5,0.16247486848495757,0.014637283626250788
20,0,5,0.13955021523278832,0.012039660807984786
20,1,5,0.11022259465502426,0.011680613258416878
20,2,5,0.15973271177124398,0.012315446872562908
20,3,5,0.05188777021743094,0.014589742211788699
20,4,5,0.1232275711833819,0.012394946048636295
20,5,5,0.14986676295300635,0.015000054045306533
20,6,5,0.025050473718528022,0.0075183241231266545
20,7,5,0.08993644306271467,0.0100236195532865
20,8,5,0.09524097639329612,0.018936771543318024
21,0,5,0.19516605466710227,0.011154232238442977
21,1,5,0.10565387012106926,0.027884132136450475
21,2,5,0.13369587302036792,0.011541029278069596
21,3,5,0.10995891793611938,0.009841794156124668
21,4,5,0.08998815264871884,0.009458539170008103
21,5,5,0.20419738249580915,0.02273367909827978
21,6,5,0.01270393794922935,0.006915073636460479
21,7,5,0.1318628861806072,0.014994057600454583
21,8,5,0.13121248367703683,0.010399613993511254
22,0,5,0.13595707175006794,0.013894662835287539
22,1,5,0.1427564042920218,0.011745661922543971
22,2,5,0.13604744974523358,0.00726291125531095
22,3,5,0.11222324634543576,0.013023535607536293
22,4,5,0.10099719482715315,0.026318421137930023
22,5,5,0.13566170005588196,0.015837470815107176
22,6,5,0.02597534123262073,0.0025356060919859737
22,7,5,0.1265120235550953,0.008867954930145631
22,8,5,0.16484128748019589,0.007950845216698624
23,0,5,0.08788210797595528,0.01694089180182566
23,1,5,0.06405598701102641,0.004937973244245147
23,2,5,0.0193918262594434,0.007265247144509835
23,3,5,0.044733386153173973,0.006675655679796477
23,4,5,0.17525659577142536,0.014355618288077961
23,5,5,0.17217405217333887,0.028653747261040346
23,6,5,0.12745199419417158,0.01299444989194515
23,7,5,0.12521533744720212,0.016315186991601924
23,8,5,0.15465844339300203,0.00340198607523809
24,0,5,0.10742364649245384,0.006793555147979899
24,1,5,0.12186182118281923,0.014285305242403299
24,2,5,0.1450135545265316,0.008412871406125521
24,3,5,0.0637034057188757,0.01725837404835496
24,4,5,0.11471119617163812,0.009297572864917248
24,5,5,0.18499179085590836,0.008238732740412657
24,6,5,0.04900431890982839,0.012953731531332285
24,7,5,0.16238604949853624,0.011552806597141337
24,8,5,0.07284708880533204,0.01007464524962684
25,0,5,0.11776687640144812,0.020237366475571915
25,1,5,0.12023417551830844,0.014049505453474578
25,2,5,0.13017422215592636,0.005195563170657055
25,3,5,0.14172955764208825,0.011187330971533085
25,4,5,0.1248178009379699,0.014165466413758406
25,5,5,0.13390845967822654,0.011213368480926961
25,6,5,0.02346361353114441,0.007116764267625139
25,7,5,0.10909825219000313,0.008017816250420178
25,8,5,0.055032368116867604,0.0041939484527490824
26,0,5,0.10894041078772683,0.019262970027638892
26,1,5,0.07617682265757848,0.007076752916702647
26,2,5,0.17408692177386628,0.0070616745621320315
26,3,5,0.07827945935208233,0.013231979133735706
26,4,5,0.13979956878370606,0.01044858861287063
26,5,5,0.16550344742486922,0.020526790694292096
26,6,5,0.04179155975501851,0.008998434280948788
26,7,5,0.15558308014730396,0.005412738155117911
26,8,5,0.16155794423921035,0.01336015406456951
27,0,5,0.09623588090238835,0.01456592440867856
27,1,5,0.128675654095125,0.008395165938871614
27,2,5,0.1377647899620692,0.010414202593119216
27,3,5,0.10181922395494766,0.014874746559502829
27,4,5,0.11965996492066584,0.009322596111433126
27,5,5,0.20216925632020302,0.01312387226505168
27,6,5,0.058019749693452916,0.016257115677392478
27,7,5,0.16705634300159086,0.01306749051206176
27,8,5,0.1335907518286129,0.01050754490421759
28,0,5,0.10210239530679828,0.007025845424776811
28,1,5,0.10131768030293639,0.019270383982906043
28,2,5,0.10323516017433032,0.006845030836717947
28,3,5,0.12311225796781551,0.012697564779975195
28,4,5,0.054176230066066,0.00854578919219207
28,5,5,0.20831703099045767,0.01825780034564816
28,6,5,0.020303550129930504,0.014281386424710165
28,7,5,0.13303575003235188,0.005481945082678863
28,8,5,0.09974483856468755,0.004209342686836993
29,0,5,0.16172897624130705,0.007806262849718598
29,1,5,0.06329414084639613,0.008613663390227951
29,2,5,0.1264241731657674,0.005596036917667309
29,3,5,0.036448656833454066,0.013059351991995583
29,4,5,0.10320788963236413,0.013124877254148702
29,5,5,0.15811377209267655,0.015623351151928396
29,6,5,0.013903365186237315,0.009266894527148784
29,7,5,0.10540947366391429,0.013769089022988566
29,8,5,0.15279350245251044,0.013211612111909705
30,0,5,0.13925982898900166,0.012811198180453544
30,1,5,0.11148661494299827,0.012675761112506229
30,2,5,0.08127403711325887,0.003169052896095962
30,3,5,0.08555681181916411,0.01850761265162115
30,4,5,0.1436849763884707,0.018197954794878703
30,5,5,0.26709979395928374,0.008092649958182168
30,6,5,0.04180688958197267,0.004835974241357094
30,7,5,0.13176959093040957,0.005890750675638433
30,8,5,0.1552714068819652,0.020570519937879547
31,0,5,0.11044752264682997,0.011198840303644455
31,1,5,0.13824248235238787,0.015011158983975849
31,2,5,0.12732154075887425,0.009317365329254994
31,3,5,0.09462021756517462,0.012244138521307419
31,4,5,0.11274825853537063,0.01007085622795629
31,5,5,0.17638544815464288,0.02048360807278815
31,6,5,0.09309044415563734,0.004690041973460487
31,7,5,0.1814287170961963,0.022861873667727295
31,8,5,0.170697767556094,0.015287205988580228
32,0,5,0.1425976674522244,0.015460033204281876
32,1,5,0.10360496366706748,0.015120711105017252
32,2,5,0.19029703080971774,0.015639454236976973
32,3,5,0.03828470420805204,0.016495120992161393
32,4,5,0.14973995873868273,0.02347584926610434
32,5,5,0.1528169604857298,0.010201817217675234
32,6,5,0.05646359859350345,0.009587528932650795
32,7,5,0.11801310768023483,0.009031799852181227
32,8,5,0.15531199667624743,0.0248349661862349
33,0,5,0.20066044704298802,0.014185946871151718
33,1,5,0.11707538148644733,0.012281643798545598
33,2,5,0.17143808060942087,0.013065733977056218
33,3,5,0.10731760308728,0.0031744350796130937
33,4,5,0.07659113595591327,0.012141454635297255
33,5,5,0.12495192968934185,0.005262698592444341
33,6,5,0.10562303657009653,0.010732876450543273
33,7,5,0.14943754417569127,0.00893396907912857
33,8,5,0.1777260486487775,0.010889055269227906
34,0,5,0.156325566579275,0.018074295406854016
34,1,5,0.15241898159725817,0.010373772390518187
34,2,5,0.12780261749826902,0.011639727616511839
34,3,5,0.10861530209372053,0.004778769112283995
34,4,5,0.08682919985827783,0.0133942719365427
34,5,5,0.15854094635581975,0.01000831364289781
34,6,5,0.07360263457201992,0.005886609005423157
34,7,5,0.1827727970027086,0.00908920303706937
34,8,5,0.18312410396984705,0.013675340416932597
35,0,5,0.12150355677007259,0.01136174736692656
35,1,5,0.07027307058485974,0.010209569475181385
35,2,5,0.05858786713201487,0.006270166794974895
35,3,5,0.06589664976636991,0.0012740831964279658
35,4,5,0.0272206630832329,0.017490962219983627
35,5,5,0.12587100136976065,0.011204762718220018
35,6,5,0.05430549561918154,0.008249099852672095
35,7,5,0.09385399382638634,0.0036017893842717206
35,8,5,0.07504811171548094,0.013075883787503774
36,0,5,0.038437125164961984,0.007714343952081118
36,1,5,0.06417083191492254,0.010420104211197458
36,2,5,0.06380414866908415,0.015060657364726856
36,3,5,0.039041506722624277,0.00745826915500852
36,4,5,0.07856031665219232,0.019429734584109133
36,5,5,0.09666911441248034,0.015553565428802938
36,6,5,0.033975334949344724,0.007538707774790719
36,7,5,0.07879114610501285,0.015193638251095685
36,8,5,0.05930461016488357,0.006875114488775826
37,0,5,0.1703584973432806,0.011725228829001493
37,1,5,0.1554103843175584,0.012706661916039494
37,2,5,0.16732398923926486,0.01501988573604823
37,3,5,0.09374971064912119,0.014445581280623029
37,4,5,0.13931776796334702,0.00888197010546351
37,5,5,0.1075680124209395,0.013018597510259772
37,6,5,0.1146749351852987,0.00857939209632205
37,7,5,0.12740640928072353,0.01152161626188624
37,8,5,0.13780496314548868,0.005236960263479299
38,0,5,0.10977203311245354,0.010154229049943325
38,1,5,0.10934365643146611,0.019420325335005834
38,2,5,0.1404522159368605,0.021413690819607607
38,3,5,0.10684150851658498,0.018789982411587674
38,4,5,0.16168060245820368,0.020980832418217785
38,5,5,0.1929584572305851,0.012627630073017695
38,6,5,0.05876669951085682,0.013846963556655031
38,7,5,0.1511188016164808,0.009696033312343416
38,8,5,0.08386548821398196,0.02359217516029052
39,0,5,0.16975536255211504,0.011816243382882962
39,1,5,0.09187614124142218,0.015162313033827436
39,2,5,0.09997409469060596,0.010608150570685506
39,3,5,0.11219842919719332,0.010402988425478753
39,4,5,0.1683661877003809,0.010728623230811266
39,5,5,0.23497785540018823,0.02059249978332661
39,6,5,0.08345757104858031,0.010626712585501685
39,7,5,0.17106033699920745,0.014139027158655839
39,8,5,0.08261754228409665,0.0050776752574971705
40,0,5,0.14310874181570932,0.00717040348026678
40,1,5,0.09312928242922806,0.01985616737529587
40,2,5,0.15567009677632415,0.0109250673062957
40,3,5,0.1081512608484422,0.020075722346719897
40,4,5,0.12421774676769619,0.015564153027456335
40,5,5,0.14444560796935865,0.01731464039520725
40,6,5,0.10311199872587451,0.011615846905375989
40,7,5,0.22515582753957292,0.011437596577017947
40,8,5,0.16332957888423005,0.004645794559832722
