subject,channel,r,f1_drop_mean,f1_drop_sd
1,0,5,0.07294736458406384,0.012414215112154538
1,1,5,0.05234572042843781,0.013277954790803766
1,2,5,0.04410467579696795,0.007767596544885821
1,3,5,0.06103969181146977,0.012129185735294475
1,4,5,0.013687662946954338,0.011041537350324718
1,5,5,0.1526770343421071,0.01385696990127083
1,6,5,0.021475978377213333,0.011883239448791572
1,7,5,0.10393122758319322,0.005042989927640487
1,8,5,0.08037309233822247,0.016664363688832517
2,0,5,0.04552133272976022,0.01564435040508044
2,1,5,0.05553764744456931,0.01124143268915992
2,2,5,0.06652159638518362,0.014935790942285523
2,3,5,0.05483942718861743,0.010956468186034643
2,4,5,0.07457114287534608,0.011549128598026412
2,5,5,0.1771364654875643,0.02032118181038375
2,6,5,0.06734871824767659,0.004966992414428675
2,7,5,0.1434617786652556,0.02068628413380572
2,8,5,0.04717711547735028,0.0050805536695438976
3,0,5,0.05545226068452269,0.011461075365431625
3,1,5,0.06952683828214674,0.014681469469625515
3,2,5,0.04968399883394636,0.015129983223144773
3,3,5,0.08795025759238913,0.0038496079301627317
3,4,5,0.14091635448415876,0.009984180053655646
3,5,5,0.02782880765219582,0.015519797136908627
3,6,5,0.02526653745424192,0.0026510113323920397
3,7,5,0.09951193277338413,0.006707393193570285
3,8,5,0.07802914668589904,0.0178190021671488
4,0,5,0.10474538231889448,0.01577416427785749
4,1,5,0.11834459534738577,0.012884729289838952
4,2,5,0.1172320693454969,0.012566964164148143
4,3,5,0.05766214100287494,0.009933986483505616
4,4,5,0.16350677958987692,0.012607189078412327
4,5,5,0.15267149618053455,0.009143254159809933
4,6,5,0.0387188545728391,0.011872209521563957
4,7,5,0.10308776231887078,0.01559199391308007
4,8,5,0.14482729970926603,0.005115183873615373
5,0,5,0.020363673107601364,0.00954731350165857
5,1,5,0.054257445262984,0.007156841220856306
5,2,5,0.07450172924396718,0.005624461541435638
5,3,5,0.03721994078165036,0.012152596370643335
5,4,5,0.1190008643081913,0.015524952848734166
5,5,5,0.06636892212065333,0.01210482380620456
5,6,5,0.033004755103697714,0.007800599870825531
5,7,5,0.060200136681943704,0.009438778483472429
5,8,5,0.0975325928551968,0.0160779068377674
6,0,5,0.10958298566536344,0.018803603449935157
6,1,5,0.1113627017729812,0.01746819564833048
6,2,5,0.09838009319430037,0.004660448772862215
6,3,5,0.03215802321050778,0.006297001320469346
6,4,5,0.12966371510366886,0.014507632771731461
6,5,5,0.08026059429058159,0.008086263158138872
6,6,5,0.060316028930806384,0.005417875550438078
6,7,5,0.12406057968497819,0.016369261704031912
6,8,5,0.08020103185863267,0.009077538930274322
7,0,5,0.09074916581063855,0.011889937500014363
7,1,5,0.11413467686060297,0.012647672545953911
7,2,5,0.09258650514555396,0.00866111802404251
7,3,5,0.04067863685643711,0.012160602959529008
7,4,5,0.10923041966153808,0.017373573828725057
7,5,5,0.09285261850295652,0.010146829262890684
7,6,5,0.0353177183794682,0.01208055504387386
7,7,5,0.1085987852430587,0.006359668138573685
7,8,5,0.10052943822172218,0.01804381318235758
8,0,5,0.045096245231934076,0.018809509455778917
8,1,5,0.05229028739831163,0.009573655530797986
8,2,5,0.018552863009685838,0.01158729956691805
8,3,5,0.05945506658666309,0.010918923611587113
8,4,5,0.07338182105090969,0.019328910127564578
8,5,5,0.16726537611109604,0.019780099464690094
8,6,5,0.04396624705508578,0.008325110690358916
8,7,5,0.14277320308863573,0.008710771520679027
8,8,5,0.10391055346744009,0.012241425869135451
9,0,5,0.04989149774180688,0.011039361441244854
9,1,5,0.10976741964283399,0.015141017968912686
9,2,5,0.08314838474087258,0.007376905079026743
9,3,5,0.02709424713286166,0.0071382678886308705
9,4,5,0.09818512856734632,0.010060456267863747
9,5,5,0.06723708230972855,0.006229317718475179
9,6,5,0.06025367297963409,0.008652126340481417
9,7,5,0.09065302321974285,0.0056743034564914665
9,8,5,0.009054156743278873,0.0063102107627788975
10,0,5,0.05081431395685263,0.019327087313317795
10,1,5,0.07607741038155962,0.0142641448405978
10,2,5,0.07253550579459689,0.005926263799837485
10,3,5,0.08808036319072435,0.013335602764667682
10,4,5,0.11239634981906868,0.016598596007616304
10,5,5,0.12646932173930045,0.021651038137920343
10,6,5,0.05067092072291213,0.015148964096666941
10,7,5,0.11300824761282924,0.01163295010051073
10,8,5,0.08563511344608146,0.011274357662674223
11,0,5,0.04572148957785671,0.017062691257536004
11,1,5,0.10833984417744931,0.01107253472166505
11,2,5,0.10576299031733208,0.01529157709359075
11,3,5,0.09063098956838991,0.014794583379128038
11,4,5,0.07626921212083407,0.009920215456897726
11,5,5,0.10859478534573604,0.013460091299928853
11,6,5,0.0076136198683318,0.010466185222033285
11,7,5,0.1048367231629331,0.013175412822128004
11,8,5,0.09174006748665223,0.004713468337901855
12,0,5,0.09477662565978111,0.015413788542871301
12,1,5,0.14190056987148753,0.0030168198422991775
12,2,5,0.11092346975957965,0.011070634706029012
12,3,5,0.131731563049542,0.02267558076355962
12,4,5,0.08751386175119277,0.010456773742307421
12,5,5,0.10737011941531341,0.017798425212622225
12,6,5,0.09540871545507723,0.004709233937700479
12,7,5,0.12393342031778272,0.010514248159014748
12,8,5,0.11335362496303028,0.012990338936883594
13,0,5,0.09069565619422792,0.010156925782137097
13,1,5,0.06642716361369896,0.009637600500915076
13,2,5,0.08464959076422504,0.018276576603115244
13,3,5,0.05876904385154587,0.012077139850898947
13,4,5,0.16164373905655813,0.006469334916979447
13,5,5,0.13522554118837432,0.008502308974161715
13,6,5,0.05371863702450881,0.01579034629210833
13,7,5,0.10698297882130545,0.014313308679854161
13,8,5,0.09611158167360485,0.019703382307954126
14,0,5,0.07983865314415632,0.008853799876079024
14,1,5,0.09991321317911879,0.008599088691548872
14,2,5,0.06111760928149727,0.006231436965517571
14,3,5,0.1246085162143901,0.005976505197519399
14,4,5,0.05171882749671945,0.011249213204399568
14,5,5,0.11983774039798616,0.004479227200949305
14,6,5,0.0292729962722851,0.005892578142158089
14,7,5,0.12175390535245326,0.011077062515632858
14,8,5,0.08408055261054379,0.018698579641227477
15,0,5,0.0745946306370727,0.010316364869310186
15,1,5,0.10391650852690797,0.010952387289379443
15,2,5,0.061238073777498236,0.009917979427220303
15,3,5,0.028596068527134255,0.01115219014597799
15,4,5,0.1215914936497671,0.02209389027574281
15,5,5,0.16253630304464622,0.006479839791103814
15,6,5,0.07983031054437029,0.006843345946849945
15,7,5,0.06838347230406586,0.010639732941714745
15,8,5,0.05878557549208139,0.009405885146022992
16,0,5,0.0824665524369645,0.015493040482054549
16,1,5,0.09808494794253649,0.011921927398583826
16,2,5,0.1097554038642714,0.009414934872964124
16,3,5,0.04915521460817214,0.008933893369674248
16,4,5,0.12751089887010628,0.009619383764992459
16,5,5,0.09916415865533428,0.02070363258508874
16,6,5,0.039566014820692066,0.009732055987650368
16,7,5,0.1432894092590342,0.01917311395839976
16,8,5,0.11992367754651578,0.008668173771694796
17,0,5,0.1418937120177329,0.009859316536455505
17,1,5,0.08893789846540334,0.014399311167573205
17,2,5,0.07693644545994305,0.007965802320938914
17,3,5,0.096221194185649,0.008529387821362295
17,4,5,0.08507158554989022,0.01830680119743032
17,5,5,0.16080628408667255,0.012391318721052834
17,6,5,0.06303229871302785,0.010398964545263761
17,7,5,0.10972381056117879,0.005432611312257946
17,8,5,0.12794013612513505,0.010564451693213149
18,0,5,0.057388023435580915,0.017309501360022128
18,1,5,0.05690142868026684,0.006577021555426288
18,2,5,0.076493449582272,0.013013790502201033
18,3,5,0.11836070383093222,0.006182351872327826
18,4,5,0.08507950145979779,0.004486017471829977
18,5,5,0.18710894712069678,0.021324274323686283
18,6,5,0.05696891145606682,0.011195515111320383
18,7,5,0.1457187726226369,0.0111599408784314
18,8,5,0.06098969374227459,0.007640976392076744
19,0,5,0.06700233297535614,0.018180188387311988
19,1,5,0.08650493177875389,0.008331766014490274
19,2,5,0.06485543305999256,0.0053075867800999165
19,3,5,0.08255078954498893,0.01659926142134337
19,4,5,0.08073855744369893,0.014032474302811678
19,5,5,0.12563084896327054,0.0076051212752786465
19,6,5,0.05216773884119288,0.005963913635116678
19,7,5,0.10471111265921391,0.010085312541996806
19,8,5,0.09691747530083192,0.011663259095792473
20,0,5,0.05867346023899615,0.006945059340192047
20,1,5,0.07617594060204794,0.017820560704108996
20,2,5,0.05671622154892244,0.014004386431586064
20,3,5,0.008501002862123231,0.010738761095602543
20,4,5,0.15921705519767962,0.014051949580196822
20,5,5,0.10690949172715256,0.013524575857999665
20,6,5,0.04518837490817305,0.008587664070252946
20,7,5,0.08081411704645755,0.017780256028382513
20,8,5,0.1362048300385388,0.0070932329907926394
21,0,5,0.07435733650374421,0.010832742622016037
21,1,5,0.022501008256918496,0.023269770462742284
21,2,5,0.046767393042647834,0.01190522774115807
21,3,5,0.02941948212905554,0.018890314540558235
21,4,5,0.07633342655028211,0.013674133106604256
21,5,5,0.05141712438276511,0.009231280941339659
21,6,5,0.027716560937562407,0.012773083690051002
21,7,5,0.05279293315290361,0.01695042262940328
21,8,5,0.05925781894077682,0.010469948705410143
22,0,5,0.08185666945623826,0.010929586562787742
22,1,5,0.059848628753300034,0.007324478621730233
22,2,5,0.06697554173388447,0.010140526235461597
22,3,5,0.0831680938686253,0.01597073014079184
22,4,5,0.11848941028761006,0.010621468031407144
22,5,5,0.08498735223568239,0.016517770335656864
22,6,5,0.047531167440276856,0.012209174613137537
22,7,5,0.16514124754862697,0.012668157850351768
22,8,5,0.11300978097839443,0.015622590418246287
23,0,5,0.13900320784059209,0.013551402935995115
23,1,5,0.09182236804862784,0.016714065808317958
23,2,5,0.05747692112270937,0.012938144744033618
23,3,5,0.06260109969907206,0.012876577665011619
23,4,5,0.09070396485950002,0.008252173665298632
23,5,5,0.1278966324267082,0.01545103830815374
23,6,5,0.07187965675472116,0.0029957018501412533
23,7,5,0.1390822181458503,0.011184280337072696
23,8,5,0.13132594245301882,0.010084855022448212
24,0,5,0.06325179503386835,0.01572641766991378
24,1,5,0.03268576505958285,0.008214309500469181
24,2,5,0.08751082377341102,0.007231873262847365
24,3,5,0.055047161050144,0.0072076791516937485
24,4,5,0.11200693075792759,0.013306491546567104
24,5,5,0.09935419678385637,0.008621301622997186
24,6,5,0.031069462788965784,0.005847753380732191
24,7,5,0.09481696186335035,0.011950017704669937
24,8,5,0.08292035638691568,0.012836993800681129
25,0,5,0.08383207630584996,0.010434535274725803
25,1,5,0.06538105097942137,0.01163156988049134
25,2,5,0.12447412918418665,0.010905754252123648
25,3,5,0.04364533550376628,0.006799137816096962
25,4,5,0.13803987605889312,0.014986726652238016
25,5,5,0.06701378609420397,0.008721402131202238
25,6,5,0.01944717644825722,0.011221069737094755
25,7,5,0.0883974742407821,0.008298682167634606
25,8,5,0.0882754646649651,0.01092281549403437
26,0,5,0.06849230682167999,0.0065987595547596705
26,1,5,0.08656053580604373,0.017486098421675717
26,2,5,0.08325380164422033,0.010444347145328573
26,3,5,0.0709452626583577,0.006457635484774915
26,4,5,0.10379671330365296,0.01141558020936945
26,5,5,0.11885398927604911,0.01470630871075773
26,6,5,0.08185111773509739,0.004421930107882558
26,7,5,0.14911376225915243,0.0078322284570503
26,8,5,0.11627126036419644,0.012892568771956932
27,0,5,0.07841627496799113,0.010297431141714213
27,1,5,0.055975948856290134,0.014158167049347503
27,2,5,0.10514871072943162,0.008576957110955656
27,3,5,0.07434942698237819,0.0070484714017773585
27,4,5,0.18959422237036438,0.010613858781669186
27,5,5,0.17203890972406916,0.022735666798954897
27,6,5,0.03288058310714135,0.007801292798214995
27,7,5,0.124923312102509,0.008157748554600478
27,8,5,0.04456313745344835,0.011860027782554055
28,0,5,0.04220099873837666,0.008883510896462879
28,1,5,0.04615620826848621,0.007323003243585265
28,2,5,0.05551644005703367,0.010828091081688593
28,3,5,0.08288551993722552,0.010436108630714687
28,4,5,0.15805426602561543,0.008475834259807434
28,5,5,0.16955730075869924,0.0054084470051343845
28,6,5,0.042344068750651886,0.005390375016285851
28,7,5,0.0644893685267206,0.01073848964795043
28,8,5,0.1143098649602873,0.010167618736579835
29,0,5,0.08153381113134939,0.008543754531019219
29,1,5,0.04683468098274461,0.011421521908254526
29,2,5,0.0780573720274627,0.007718276693455672
29,3,5,0.023541044683234657,0.007537310090047971
29,4,5,0.14955009196618635,0.00817053982706864
29,5,5,0.1519655745374074,0.019224248301239335
29,6,5,0.06470545078347431,0.007522885172541133
29,7,5,0.1218787896793754,0.009159949332969186
29,8,5,0.128136010314761,0.008548703230126485
30,0,5,0.04388367648701441,0.02122012342148679
30,1,5,0.03634579840597072,0.017849696104519586
30,2,5,0.009300621255001817,0.017883199095854813
30,3,5,0.05643888806635962,0.016254062546111496
30,4,5,0.04511445944668293,0.010289313927565834
30,5,5,0.17510858414239422,0.024783738160473134
30,6,5,0.04034191937644762,0.012056441442032781
30,7,5,0.11783158503727893,0.014801430453728103
30,8,5,0.06418016637915094,0.015168280032322512
31,0,5,0.02868731039860555,0.00770061222770573
31,1,5,0.06123951564227006,0.013395166400780641
31,2,5,0.039278817075666536,0.007803050843846803
31,3,5,0.06777614841424011,0.018493209994078694
31,4,5,0.17291518854848975,0.011181573112042698
31,5,5,0.05153145001831165,0.015815897692218715
31,6,5,0.03976037162012662,0.0052804034214836175
31,7,5,0.09969079528248519,0.012353688223262414
31,8,5,0.06874938721226216,0.01599038679048321
32,0,5,0.08636840059290522,0.012221121140709307
32,1,5,0.056930268049240486,0.016816088046490086
32,2,5,0.09449834811844549,0.008449504462322037
32,3,5,0.01281066618696094,0.016520965703884456
32,4,5,0.16990360043117936,0.01407636580000458
32,5,5,0.10229485336359792,0.023761111086976476
32,6,5,0.036821227042538276,0.008690171345577332
32,7,5,0.09881724422480997,0.016498429659883542
32,8,5,0.04255233172205104,0.009600750740661664
33,0,5,0.07479526484454802,0.011628690865030907
33,1,5,0.07731255257579736,0.016241387639719655
33,2,5,0.06502734934177559,0.010749420052991003
33,3,5,0.06003962082839578,0.011987977406358083
33,4,5,0.1076313565397959,0.006024750671316006
33,5,5,0.11933908231160142,0.012141423021146267
33,6,5,0.058188632157740214,0.00804935716297517
33,7,5,0.09625895471505921,0.01697262853566041
33,8,5,0.07184005467281677,0.030010174611487785
34,0,5,0.10585083385099112,0.01443467530761663
34,1,5,0.08613347174164827,0.0063157044730681395
34,2,5,0.08166942931313795,0.00744191209935984
34,3,5,0.053486117866179225,0.012690135838938134
34,4,5,0.05545044858181292,0.007163306099572451
34,5,5,0.12053739174778413,0.01273592584129052
34,6,5,0.05576488091018021,0.011862777076727808
34,7,5,0.14507636033655483,0.008823511824896603
34,8,5,0.10610753640720197,0.013443455877286993
35,0,5,0.07261280865787663,0.011291751933635174
35,1,5,0.027993799471364933,0.006795777340447165
35,2,5,0.07782037030938553,0.00937731720676838
35,3,5,0.06960174822772636,0.01818510271926678
35,4,5,0.1003501075713348,0.008831065239259077
35,5,5,0.13723521544190417,0.011057993092295926
35,6,5,0.032029966118109154,0.012760209766624916
35,7,5,0.09100126950132166,0.008689384513523756
35,8,5,0.04993262175625801,0.01189546534035237
36,0,5,0.04339425503656184,0.008795110635139942
36,1,5,0.10534310457048271,0.008753766681243964
36,2,5,0.06902321293936331,0.005055411747708772
36,3,5,0.06329802320107647,0.005989115149443382
36,4,5,0.13491751595530593,0.014022504931067865
36,5,5,0.15720208151062354,0.010095653935699772
36,6,5,0.05209931486748953,0.012064071445403697
36,7,5,0.14459998792597664,0.012060723439875057
36,8,5,0.1091332490125684,0.009458666531189392
37,0,5,0.04903017238191396,0.014073023290820988
37,1,5,0.05804617262886393,0.017798788438648138
37,2,5,0.10512185518151722,0.012525764415319777
37,3,5,0.022525628844749557,0.014533732193323696
37,4,5,0.12425144597365886,0.006618544730223462
37,5,5,0.1591481200489206,0.016271682355057403
37,6,5,0.03235314706480243,0.0032503187539807744
37,7,5,0.12833568637095266,0.010409520012397764
37,8,5,0.08347130857094835,0.009048117250643329
38,0,5,0.1001864740679181,0.019176287621080257
38,1,5,0.02457505254775192,0.016911268225678525
38,2,5,0.039640104220409575,0.01000674404572955
38,3,5,0.06633441661907084,0.013084505789570277
38,4,5,0.13594500620273206,0.006275018530474718
38,5,5,0.10354134329665528,0.00930111838464334
38,6,5,0.06108291293820813,0.004518057900592148
38,7,5,0.07807120669313146,0.014499550298963222
38,8,5,0.06905776889905728,0.008805398126890738
39,0,5,0.04689496970592426,0.023040084820668775
39,1,5,0.06095257607867375,0.008336653827871009
39,2,5,0.09558716356058172,0.016174981960389547
39,3,5,0.0816237942639813,0.011635410015216433
39,4,5,0.06690231521483445,0.012682555641525673
39,5,5,0.1685893782853578,0.010897381999816472
39,6,5,0.049735117736121805,0.009125227951349313
39,7,5,0.10884750582107505,0.01116407832269224
39,8,5,0.05226526338468642,0.009132334437451631
40,0,5,0.1285469979709152,0.013765459800117036
40,1,5,0.07478358034243485,0.009142816913046036
40,2,5,-0.006906224107124381,0.008034758692174095
40,3,5,0.024721679473796665,0.014458964012671618
40,4,5,0.10829221459344854,0.009164731193375287
40,5,5,0.13338048482718753,0.014540481394983255
40,6,5,0.06582552389889713,0.008077113188359531
40,7,5,0.12029802444450846,0.009446291971901473
40,8,5,0.06645875604768284,0.009553667717540584
