subject,channel,alpha,f1,drop_pp
1,0,1.0,0.7592757816757141,0.0
1,0,0.75,0.7593650146451871,-0.008923296947305204
1,0,0.5,0.7503237106456258,0.8952071030088327
1,0,0.25,0.7401289753153204,1.9146806360393676
1,0,0.0,0.75390799233536,0.536778934035409
1,1,1.0,0.7592757816757141,0.0
1,1,0.75,0.7609844239826018,-0.170864230688772
1,1,0.5,0.7616558832960125,-0.2380101620298447
1,1,0.25,0.7535999707767442,0.5675810898969846
1,1,0.0,0.7591230246160188,0.015275705969530762
1,2,1.0,0.7592757816757141,0.0
1,2,0.75,0.7650393028024607,-0.5763521126746607
1,2,0.5,0.7635295193465781,-0.42537376708640107
1,2,0.25,0.7545430324184438,0.47327492572702967
1,2,0.0,0.7528526880920499,0.6423093583664219
1,3,1.0,0.7592757816757141,0.0
1,3,0.75,0.739222935646882,2.005284602883206
1,3,0.5,0.7393867881642004,1.988899351151363
1,3,0.25,0.7247018204645324,3.4573961211181725
1,3,0.0,0.7081624513983387,5.111333027737541
1,4,1.0,0.7592757816757141,0.0
1,4,0.75,0.7755487702327308,-1.6272988557016754
1,4,0.5,0.783951197387266,-2.4675415711551962
1,4,0.25,0.78221787163178,-2.2942089956065947
1,4,0.0,0.7591983228525416,0.007745882317244934
1,5,1.0,0.7592757816757141,0.0
1,5,0.75,0.7513137003702643,0.7962081305449731
1,5,0.5,0.7354682788242045,2.3807502851509565
1,5,0.25,0.7213436090019317,3.793217267378235
1,5,0.0,0.7056605747602266,5.361520691548749
1,6,1.0,0.7592757816757141,0.0
1,6,0.75,0.746800896471949,1.2474885203765052
1,6,0.5,0.7563704083405426,0.29053733351714905
1,6,0.25,0.7533069816597444,0.5968800015969666
1,6,0.0,0.7499133319019118,0.9362449773802295
1,7,1.0,0.7592757816757141,0.0
1,7,0.75,0.7454568671517882,1.3818914523925918
1,7,0.5,0.7467886487076147,1.2487132968099335
1,7,0.25,0.7240639389436448,3.521184273206923
1,7,0.0,0.6994509642728317,5.982481740288237
1,8,1.0,0.7592757816757141,0.0
1,8,0.75,0.7498547418560217,0.9421039819692334
1,8,0.5,0.7397166018081993,1.9559179867514764
1,8,0.25,0.7364410744908529,2.2834707184861136
1,8,0.0,0.7370471535365153,2.222862813919879
2,0,1.0,0.8563215188675773,0.0
2,0,0.75,0.8635222208525246,-0.7200701984947266
2,0,0.5,0.8603783322629472,-0.4056813395369896
2,0,0.25,0.8768099954915056,-2.0488476623928276
2,0,0.0,0.8467134104182297,0.9608108449347674
2,1,1.0,0.8563215188675773,0.0
2,1,0.75,0.8332842797783934,2.303723908918398
2,1,0.5,0.8228662597730576,3.345525909451974
2,1,0.25,0.8177315121768794,3.85900066906979
2,1,0.0,0.8009923914562966,5.5329127411280705
2,2,1.0,0.8563215188675773,0.0
2,2,0.75,0.8488294925443508,0.7492026323226542
2,2,0.5,0.8488084684666712,0.7513050400906107
2,2,0.25,0.841149812899181,1.5171705968396343
2,2,0.0,0.8307021178637201,2.561940100385729
2,3,1.0,0.8563215188675773,0.0
2,3,0.75,0.8408801395433695,1.544137932420786
2,3,0.5,0.8565792337248842,-0.02577148573068566
2,3,0.25,0.8488172571393782,0.750426172819918
2,3,0.0,0.8538820336327261,0.24394852348512686
2,4,1.0,0.8563215188675773,0.0
2,4,0.75,0.870850004077736,-1.4528485210158704
2,4,0.5,0.8762395754141037,-1.9918056546526341
2,4,0.25,0.8709024941105277,-1.4580975242950323
2,4,0.0,0.8636425082853655,-0.7320989417788137
2,5,1.0,0.8563215188675773,0.0
2,5,0.75,0.8561342592592593,0.018725960831800226
2,5,0.5,0.8667065647466003,-1.0385045879023003
2,5,0.25,0.8567220504687353,-0.04005316011579385
2,5,0.0,0.8503791986794196,0.5942320188157768
2,6,1.0,0.8563215188675773,0.0
2,6,0.75,0.8440579688086614,1.2263550058915995
2,6,0.5,0.8336501673919225,2.26713514756548
2,6,0.25,0.8283211949354197,2.800032393215768
2,6,0.0,0.8152068749143486,4.111464395322873
2,7,1.0,0.8563215188675773,0.0
2,7,0.75,0.8563215188675773,0.0
2,7,0.5,0.8237248072054503,3.2596711662127076
2,7,0.25,0.8262120634260223,3.0109455441555077
2,7,0.0,0.8128216374269006,4.349988144067673
2,8,1.0,0.8563215188675773,0.0
2,8,0.75,0.8306292045904234,2.5692314277153905
2,8,0.5,0.8322089178013711,2.4112601066206274
2,8,0.25,0.8410238854442237,1.5297633423353663
2,8,0.0,0.8465750529205219,0.9746465947055416
3,0,1.0,0.872139209538161,0.0
3,0,0.75,0.8952878262088788,-2.314861667071777
3,0,0.5,0.8942503186468703,-2.211110910870928
3,0,0.25,0.9111033207172637,-3.89641111791027
3,0,0.0,0.9088232107722363,-3.6684001234075225
3,1,1.0,0.872139209538161,0.0
3,1,0.75,0.8652974253703373,0.6841784167823772
3,1,0.5,0.8700950069969533,0.20442025412077403
3,1,0.25,0.8736011317487509,-0.14619222105898277
3,1,0.0,0.8752756146732338,-0.31364051350727395
3,2,1.0,0.872139209538161,0.0
3,2,0.75,0.8789338861095306,-0.6794676571369562
3,2,0.5,0.8667319608364564,0.5407248701704614
3,2,0.25,0.8667319608364564,0.5407248701704614
3,2,0.0,0.8254002779835075,4.673893155465358
3,3,1.0,0.872139209538161,0.0
3,3,0.75,0.8666189102807802,0.5520299257380845
3,3,0.5,0.8485885832742063,2.3550626263954766
3,3,0.25,0.8261184939091916,4.602071562896947
3,3,0.0,0.8222213015136449,4.991790802451613
3,4,1.0,0.872139209538161,0.0
3,4,0.75,0.865543772346492,0.6595437191668996
3,4,0.5,0.8550849945441507,1.7054214994010386
3,4,0.25,0.8633248934389369,0.8814316099224118
3,4,0.0,0.865093999723127,0.7045209815034092
3,5,1.0,0.872139209538161,0.0
3,5,0.75,0.8755614258883397,-0.34222163501786973
3,5,0.5,0.8721983797278429,-0.005917018968182308
3,5,0.25,0.8640885565606908,0.8050652977470207
3,5,0.0,0.8694922383779214,0.26469711602395973
3,6,1.0,0.872139209538161,0.0
3,6,0.75,0.872139209538161,0.0
3,6,0.5,0.872139209538161,0.0
3,6,0.25,0.8824373695701744,-1.0298160032013337
3,6,0.0,0.8833606933393992,-1.1221483801238108
3,7,1.0,0.872139209538161,0.0
3,7,0.75,0.872139209538161,0.0
3,7,0.5,0.8529007803023197,1.9238429235841292
3,7,0.25,0.8527127434430134,1.9426466095147643
3,7,0.0,0.838151820159801,3.398738937835999
3,8,1.0,0.872139209538161,0.0
3,8,0.75,0.8652974253703373,0.6841784167823772
3,8,0.5,0.8652974253703373,0.6841784167823772
3,8,0.25,0.8776725709806672,-0.5533361442506157
3,8,0.0,0.8776725709806672,-0.5533361442506157
4,0,1.0,0.9412719119333026,0.0
4,0,0.75,0.9176340112357656,2.3637900697537018
4,0,0.5,0.9278971028971028,1.3374809036199808
4,0,0.25,0.9197175930130475,2.1554318920255167
4,0,0.0,0.9244574897454954,1.6814422187807265
4,1,1.0,0.9412719119333026,0.0
4,1,0.75,0.9299254010063936,1.134651092690897
4,1,0.5,0.9177563245918124,2.3515587341490174
4,1,0.25,0.9188514328313924,2.242047910191025
4,1,0.0,0.9069744171584324,3.4297494774870207
4,2,1.0,0.9412719119333026,0.0
4,2,0.75,0.9459653616402294,-0.46934497069267556
4,2,0.5,0.9312013184144332,1.0070593518869408
4,2,0.25,0.9297407970280311,1.1531114905271478
4,2,0.0,0.9194568098217177,2.1815102111584883
4,3,1.0,0.9412719119333026,0.0
4,3,0.75,0.9191652281380877,2.2106683795214965
4,3,0.5,0.9078049000180148,3.346701191528778
4,3,0.25,0.9204865586092394,2.078535332406317
4,3,0.0,0.9141336156441506,2.7138296289151986
4,4,1.0,0.9412719119333026,0.0
4,4,0.75,0.9457498361656153,-0.44779242323126356
4,4,0.5,0.9397752460333242,0.14966658999784332
4,4,0.25,0.9398316686296404,0.14402433036622142
4,4,0.0,0.9432371638436462,-0.19652519103435795
4,5,1.0,0.9412719119333026,0.0
4,5,0.75,0.9139822183125493,2.7289693620753286
4,5,0.5,0.9327040205053706,0.8567891427932017
4,5,0.25,0.9327040205053706,0.8567891427932017
4,5,0.0,0.9327040205053706,0.8567891427932017
4,6,1.0,0.9412719119333026,0.0
4,6,0.75,0.9383759778763268,0.28959340569758574
4,6,0.5,0.9051263793067071,3.614553262659548
4,6,0.25,0.9051263793067071,3.614553262659548
4,6,0.0,0.9114363778298205,2.9835534103482164
4,7,1.0,0.9412719119333026,0.0
4,7,0.75,0.956271302471311,-1.4999390538008361
4,7,0.5,0.9541840460823605,-1.2912134149057897
4,7,0.25,0.9617352033034033,-2.0463291370100722
4,7,0.0,0.942180959884567,-0.09090479512643412
4,8,1.0,0.9412719119333026,0.0
4,8,0.75,0.9365771622385529,0.46947496947497
4,8,0.5,0.9322100122100122,0.9061899723290412
4,8,0.25,0.9322100122100122,0.9061899723290412
4,8,0.0,0.928745832364287,1.2526079569015636
5,0,1.0,0.65498329963682,0.0
5,0,0.75,0.6460704639354515,0.8912835701368471
5,0,0.5,0.644779830653114,1.0203468983706054
5,0,0.25,0.6326942243046493,2.2289075332170727
5,0,0.0,0.6232200909560905,3.176320868072946
5,1,1.0,0.65498329963682,0.0
5,1,0.75,0.6574939612812164,-0.25106616443963947
5,1,0.5,0.6717642841212925,-1.6780984484472516
5,1,0.25,0.6787672159649715,-2.3783916328151467
5,1,0.0,0.6707946803919755,-1.5811380755155535
5,2,1.0,0.65498329963682,0.0
5,2,0.75,0.6683427876234678,-1.3359487986647767
5,2,0.5,0.6723191215445949,-1.733582190777494
5,2,0.25,0.6662513162513163,-1.126801661449628
5,2,0.0,0.6596610566536527,-0.46777570168327065
5,3,1.0,0.65498329963682,0.0
5,3,0.75,0.6737574553162788,-1.8774155679458837
5,3,0.5,0.6872912127814088,-3.2307913144588807
5,3,0.25,0.6947324023225351,-3.9749102685715076
5,3,0.0,0.6851926722571942,-3.0209372620374153
5,4,1.0,0.65498329963682,0.0
5,4,0.75,0.6470259983911166,0.7957301245703374
5,4,0.5,0.6406522447463222,1.4331054890497796
5,4,0.25,0.6322594577283409,2.272384190847909
5,4,0.0,0.6329162123689941,2.2067087267825913
5,5,1.0,0.65498329963682,0.0
5,5,0.75,0.6549160252856899,0.006727435113007552
5,5,0.5,0.6451015109222977,0.9881788714522277
5,5,0.25,0.6368990624064216,1.8084237230398426
5,5,0.0,0.6270329301949225,2.795036944189755
5,6,1.0,0.65498329963682,0.0
5,6,0.75,0.6580719456058333,-0.30886459690132595
5,6,0.5,0.6620074529592639,-0.7024153322443882
5,6,0.25,0.6502317517040567,0.47515479327633336
5,6,0.0,0.6437015041076982,1.1281795529121785
5,7,1.0,0.65498329963682,0.0
5,7,0.75,0.6768100710904046,-2.182677145358458
5,7,0.5,0.6802603483480424,-2.5277048711222383
5,7,0.25,0.6618610684942867,-0.6877768857466715
5,7,0.0,0.6442160223044618,1.076727733235816
5,8,1.0,0.65498329963682,0.0
5,8,0.75,0.6572740566531421,-0.2290757016322087
5,8,0.5,0.6639976029017567,-0.9014303264936685
5,8,0.25,0.6581137073048776,-0.3130407668057611
5,8,0.0,0.6333794114778303,2.1603888158989726
6,0,1.0,0.8467641063905338,0.0
6,0,0.75,0.8635031682460023,-1.6739061855468473
6,0,0.5,0.8352087944186674,1.1555311971866433
6,0,0.25,0.8210335470938137,2.573055929672008
6,0,0.0,0.7982171859122333,4.854692047830045
6,1,1.0,0.8467641063905338,0.0
6,1,0.75,0.8525003565513061,-0.5736250160772283
6,1,0.5,0.8684063809676179,-2.164227457708412
6,1,0.25,0.8599481736261343,-1.3184067235600505
6,1,0.0,0.8507171577901709,-0.39530513996370864
6,2,1.0,0.8467641063905338,0.0
6,2,0.75,0.857015744135964,-1.0251637745430253
6,2,0.5,0.8523629623992734,-0.5598856008739661
6,2,0.25,0.8683976895712067,-2.1633583180672877
6,2,0.0,0.8623946946349688,-1.5630588244434973
6,3,1.0,0.8467641063905338,0.0
6,3,0.75,0.857015744135964,-1.0251637745430253
6,3,0.5,0.8521813936550766,-0.5417287264542825
6,3,0.25,0.8598617498230834,-1.30976434325496
6,3,0.0,0.8547222589313247,-0.7958152540790908
6,4,1.0,0.8467641063905338,0.0
6,4,0.75,0.836829800622904,0.993430576762977
6,4,0.5,0.8055832070285407,4.1180899361993095
6,4,0.25,0.8043739026711163,4.2390203719417485
6,4,0.0,0.8076819136280147,3.908219276251912
6,5,1.0,0.8467641063905338,0.0
6,5,0.75,0.8519307207395188,-0.5166614348985021
6,5,0.5,0.8487086020935151,-0.19444957029812748
6,5,0.25,0.8407699265908222,0.5994179799711619
6,5,0.0,0.8338480616700885,1.2916044720445274
6,6,1.0,0.8467641063905338,0.0
6,6,0.75,0.8463989712798218,0.036513511071201155
6,6,0.5,0.8430173391670719,0.37467672234619
6,6,0.25,0.8349637404368863,1.180036595364753
6,6,0.0,0.8449539869972017,0.1810119393332088
6,7,1.0,0.8467641063905338,0.0
6,7,0.75,0.8338340261981332,1.2930080192400606
6,7,0.5,0.8117851906158358,3.4978915774698027
6,7,0.25,0.7997253366155682,4.703876977496558
6,7,0.0,0.7758960454658665,7.086806092466724
6,8,1.0,0.8467641063905338,0.0
6,8,0.75,0.8431435599312992,0.3620546459234597
6,8,0.5,0.8465920695070573,0.01720368834764452
6,8,0.25,0.8228536148042896,2.3910491586244143
6,8,0.0,0.8135937477026304,3.317035868790341
7,0,1.0,0.8457717935659113,0.0
7,0,0.75,0.8412850935828877,0.44866999830235343
7,0,0.5,0.8344854070660521,1.1286386499859136
7,0,0.25,0.8275988431606567,1.8172950405254573
7,0,0.0,0.8212143549514213,2.455743861449
7,1,1.0,0.8457717935659113,0.0
7,1,0.75,0.8398529770882712,0.5918816477640032
7,1,0.5,0.8435046736608165,0.2267119905094761
7,1,0.25,0.8360121654271971,0.9759628138714116
7,1,0.0,0.8547157605498433,-0.8943966983932072
7,2,1.0,0.8457717935659113,0.0
7,2,0.75,0.8378543222789914,0.7917471286919886
7,2,0.5,0.8214814814814815,2.4290312084429777
7,2,0.25,0.8133730045343102,3.2398789031601094
7,2,0.0,0.801021707329399,4.475008623651222
7,3,1.0,0.8457717935659113,0.0
7,3,0.75,0.8521414741809479,-0.6369680615036621
7,3,0.5,0.8583073175206191,-1.2535523954707806
7,3,0.25,0.8572113755993329,-1.1439582033421658
7,3,0.0,0.8455042514025246,0.026754216338664705
7,4,1.0,0.8457717935659113,0.0
7,4,0.75,0.8204713758396955,2.530041772621572
7,4,0.5,0.8357743819887054,0.9997411577205906
7,4,0.25,0.8043912690561522,4.138052450975904
7,4,0.0,0.7875359963970956,5.823579716881566
7,5,1.0,0.8457717935659113,0.0
7,5,0.75,0.8533748407824288,-0.76030472165175
7,5,0.5,0.8616635192019374,-1.5891725636026144
7,5,0.25,0.8671236838550934,-2.1351890289182163
7,5,0.0,0.8591384127201092,-1.33666191541979
7,6,1.0,0.8457717935659113,0.0
7,6,0.75,0.8393610157767313,0.6410777789179978
7,6,0.5,0.8127246613036085,3.3047132262302714
7,6,0.25,0.8151863162911881,3.058547727472316
7,6,0.0,0.8249790439445612,2.0792749621350026
7,7,1.0,0.8457717935659113,0.0
7,7,0.75,0.8264582671469449,1.9313526418966331
7,7,0.5,0.8185468457758316,2.7224947790079668
7,7,0.25,0.806745484608379,3.902630895753223
7,7,0.0,0.7919298176653295,5.384197590058171
7,8,1.0,0.8457717935659113,0.0
7,8,0.75,0.8515060194647892,-0.5734225898877954
7,8,0.5,0.8268864074375919,1.888538612831936
7,8,0.25,0.8235472114871958,2.222458207871547
7,8,0.0,0.8316535894660895,1.4118204099821785
8,0,1.0,0.894781534176986,0.0
8,0,0.75,0.8885955288130486,0.618600536393743
8,0,0.5,0.8811766632490317,1.3604870927954371
8,0,0.25,0.8768150502141766,1.796648396280942
8,0,0.0,0.8865933565714914,0.8188177605494618
8,1,1.0,0.894781534176986,0.0
8,1,0.75,0.9018151099040573,-0.7033575727071306
8,1,0.5,0.901425395256917,-0.6643861079930979
8,1,0.25,0.9036058390714431,-0.8824304894457069
8,1,0.0,0.8986052113252818,-0.382367714829579
8,2,1.0,0.894781534176986,0.0
8,2,0.75,0.912104178608778,-1.732264443179199
8,2,0.5,0.9163490241627832,-2.156748998579716
8,2,0.25,0.9257217210735151,-3.094018689652911
8,2,0.0,0.9197736816970298,-2.499214752004375
8,3,1.0,0.894781534176986,0.0
8,3,0.75,0.894781534176986,0.0
8,3,0.5,0.8803470697132669,1.4434464463719099
8,3,0.25,0.8847387204061905,1.0042813770795522
8,3,0.0,0.8896643488227647,0.5117185354221343
8,4,1.0,0.894781534176986,0.0
8,4,0.75,0.8722468095070834,2.2534724669902584
8,4,0.5,0.8527615774310096,4.201995674597647
8,4,0.25,0.8244838661007728,7.029766807621318
8,4,0.0,0.8170391009522209,7.774243322476515
8,5,1.0,0.894781534176986,0.0
8,5,0.75,0.877610956540912,1.7170577636073991
8,5,0.5,0.8712421109979057,2.353942317908031
8,5,0.25,0.8712421109979057,2.353942317908031
8,5,0.0,0.8712421109979057,2.353942317908031
8,6,1.0,0.894781534176986,0.0
8,6,0.75,0.8936975696293752,0.10839645476108384
8,6,0.5,0.9030736151357908,-0.8292080958804737
8,6,0.25,0.8955285746604031,-0.07470404834171163
8,6,0.0,0.8861329749371482,0.8648559239837872
8,7,1.0,0.894781534176986,0.0
8,7,0.75,0.9148718805704099,-2.0090346393423886
8,7,0.5,0.9109210158040956,-1.6139481627109542
8,7,0.25,0.9043736177487696,-0.9592083571783538
8,7,0.0,0.8646297098971285,3.015182427985752
8,8,1.0,0.894781534176986,0.0
8,8,0.75,0.8968249822431222,-0.2043448066136211
8,8,0.5,0.8971471479223823,-0.23656137453962334
8,8,0.25,0.8904621385375756,0.4319395639410417
8,8,0.0,0.895592719656265,-0.08111854792789419
9,0,1.0,0.8634226926081002,0.0
9,0,0.75,0.8597817983332001,0.36408942749001083
9,0,0.5,0.8572802267093278,0.6142465898772431
9,0,0.25,0.8446132531802211,1.880943942787916
9,0,0.0,0.8364869434040783,2.6935749204021975
9,1,1.0,0.8634226926081002,0.0
9,1,0.75,0.8587159605354279,0.47067320726723594
9,1,0.5,0.8540934180361526,0.9329274571947654
9,1,0.25,0.8559971480132771,0.7425544594823141
9,1,0.0,0.8387621219795705,2.4660570628529777
9,2,1.0,0.8634226926081002,0.0
9,2,0.75,0.8634226926081002,0.0
9,2,0.5,0.8634226926081002,0.0
9,2,0.25,0.8433049586115453,2.011773399655492
9,2,0.0,0.838733746626904,2.4688945981196198
9,3,1.0,0.8634226926081002,0.0
9,3,0.75,0.8670024730426102,-0.3579780434510016
9,3,0.5,0.8702844622829367,-0.6861769674836427
9,3,0.25,0.8718043725863437,-0.8381679978243461
9,3,0.0,0.8658614093039265,-0.2438716695826293
9,4,1.0,0.8634226926081002,0.0
9,4,0.75,0.864523291409358,-0.11005988012577905
9,4,0.5,0.8647287395023824,-0.13060468942821535
9,4,0.25,0.8543038345692164,0.9118858038883793
9,4,0.0,0.8630403039158718,0.0382388692228397
9,5,1.0,0.8634226926081002,0.0
9,5,0.75,0.8634226926081002,0.0
9,5,0.5,0.8663399653952173,-0.29172727871170645
9,5,0.25,0.861349406407546,0.20732862005542474
9,5,0.0,0.8659922928709056,-0.2569600262805394
9,6,1.0,0.8634226926081002,0.0
9,6,0.75,0.8697519847654352,-0.632929215733502
9,6,0.5,0.8575545956037912,0.5868097004309014
9,6,0.25,0.8571504164458533,0.6272276162246904
9,6,0.0,0.8497733963013797,1.3649296306720515
9,7,1.0,0.8634226926081002,0.0
9,7,0.75,0.8496321302597357,1.379056234836451
9,7,0.5,0.8365160869236201,2.690660568448011
9,7,0.25,0.8320542480785221,3.13684445295781
9,7,0.0,0.8101510470224002,5.327164558570008
9,8,1.0,0.8634226926081002,0.0
9,8,0.75,0.8630713540109148,0.03513385971853911
9,8,0.5,0.8710788631365641,-0.7656170528463901
9,8,0.25,0.8674344231619774,-0.40117305538771575
9,8,0.0,0.8600750220653134,0.33476705427868403
10,0,1.0,0.8037375734853297,0.0
10,0,0.75,0.8073261268076911,-0.35885533223614097
10,0,0.5,0.8002728642883169,0.3464709197012805
10,0,0.25,0.8168309591150628,-1.3093385629733056
10,0,0.0,0.834966634165259,-3.1229060679929255
10,1,1.0,0.8037375734853297,0.0
10,1,0.75,0.8148479302326376,-1.111035674730787
10,1,0.5,0.8124224984841694,-0.868492499883966
10,1,0.25,0.7668786397750293,3.6858933710300357
10,1,0.0,0.7691626347259459,3.4574938759383778
10,2,1.0,0.8037375734853297,0.0
10,2,0.75,0.7890164570189786,1.4721116466351103
10,2,0.5,0.7960355671220992,0.7702006363230485
10,2,0.25,0.7873560397335614,1.6381533751768318
10,2,0.0,0.7754017948767046,2.833577860862513
10,3,1.0,0.8037375734853297,0.0
10,3,0.75,0.7808352229780802,2.2902350507249536
10,3,0.5,0.7989427539662923,0.47948195190373744
10,3,0.25,0.8090286442505047,-0.5291070765174988
10,3,0.0,0.7811470991053997,2.2590474379930003
10,4,1.0,0.8037375734853297,0.0
10,4,0.75,0.775197678916412,2.85398945689177
10,4,0.5,0.7708816830852957,3.2855890400034005
10,4,0.25,0.7655177003518492,3.821987313348052
10,4,0.0,0.7646180354286893,3.911953805664037
10,5,1.0,0.8037375734853297,0.0
10,5,0.75,0.7769107836511242,2.68267898342055
10,5,0.5,0.7823424540733276,2.1395119412002117
10,5,0.25,0.773065913168097,3.0671660317232674
10,5,0.0,0.7544068152251457,4.933075826018396
10,6,1.0,0.8037375734853297,0.0
10,6,0.75,0.813986727558156,-1.0249154072826339
10,6,0.5,0.8343001973516679,-3.0562623866338234
10,6,0.25,0.7903005483648438,1.3437025120485946
10,6,0.0,0.7979895138111621,0.5748059674167583
10,7,1.0,0.8037375734853297,0.0
10,7,0.75,0.7842026587368202,1.9534914748509546
10,7,0.5,0.7842026587368202,1.9534914748509546
10,7,0.25,0.7384511161606537,6.528645732467597
10,7,0.0,0.72946568518256,7.427188830276965
10,8,1.0,0.8037375734853297,0.0
10,8,0.75,0.806018939799885,-0.2281366314555333
10,8,0.5,0.7968679937133991,0.686957977193059
10,8,0.25,0.816665246897805,-1.292767341247525
10,8,0.0,0.7971300845632855,0.6607488922044213
11,0,1.0,0.9641436466138903,0.0
11,0,0.75,0.9694068045086272,-0.5263157894736858
11,0,0.5,0.963865654872307,0.027799174158327222
11,0,0.25,0.9579102912792608,0.6233355334629542
11,0,0.0,0.951264330539435,1.287931607445525
11,1,1.0,0.9641436466138903,0.0
11,1,0.75,0.9641436466138903,0.0
11,1,0.5,0.9584791147367435,0.5664531877146772
11,1,0.25,0.9548647317404113,0.9278914873478983
11,1,0.0,0.9546310214238891,0.9512625190001178
11,2,1.0,0.9641436466138903,0.0
11,2,0.75,0.9583965201771087,0.5747126436781547
11,2,0.5,0.963865654872307,0.027799174158327222
11,2,0.25,0.963865654872307,0.027799174158327222
11,2,0.0,0.9545259012610443,0.9617745352845986
11,3,1.0,0.9641436466138903,0.0
11,3,0.75,0.9605559886662682,0.3587657947622058
11,3,0.5,0.9376564832201839,2.648716339370638
11,3,0.25,0.9343406237073287,2.980302290656156
11,3,0.0,0.9140924096089773,5.005123700491298
11,4,1.0,0.9641436466138903,0.0
11,4,0.75,0.9639296139834581,0.021403263043218157
11,4,0.5,0.9568033492281475,0.7340297385742822
11,4,0.25,0.957079652520289,0.7063994093601256
11,4,0.0,0.9713607045128785,-0.7217057898988188
11,5,1.0,0.9641436466138903,0.0
11,5,0.75,0.9696796083606791,-0.5535961746788831
11,5,0.5,0.9658191465610051,-0.16754999471148002
11,5,0.25,0.9715662729977868,-0.7422626383896458
11,5,0.0,0.9683156919511531,-0.41720453372627864
11,6,1.0,0.9641436466138903,0.0
11,6,0.75,0.9751539309454088,-1.1010284331518516
11,6,0.5,0.9693377248597921,-0.519407824590179
11,6,0.25,0.9693377248597921,-0.519407824590179
11,6,0.0,0.9658124888847043,-0.1668842270813986
11,7,1.0,0.9641436466138903,0.0
11,7,0.75,0.9641436466138903,0.0
11,7,0.5,0.9802660137279905,-1.61223671141002
11,7,0.25,0.9746495038011357,-1.0505857187245393
11,7,0.0,0.9781615957390458,-1.4017949125155527
11,8,1.0,0.9641436466138903,0.0
11,8,0.75,0.9586573215389737,0.5486325074916643
11,8,0.5,0.9618435089216534,0.23001376922369143
11,8,0.25,0.963865654872307,0.027799174158327222
11,8,0.0,0.9512788196545003,1.2864826959389952
12,0,1.0,0.9113362062047603,0.0
12,0,0.75,0.9246396266242888,-1.3303420419528478
12,0,0.5,0.9246396266242888,-1.3303420419528478
12,0,0.25,0.875732041924311,3.5604164280449324
12,0,0.0,0.8702239387281996,4.1112267476560715
12,1,1.0,0.9113362062047603,0.0
12,1,0.75,0.9062581577207387,0.5078048484021602
12,1,0.5,0.9062581577207387,0.5078048484021602
12,1,0.25,0.9035397732952166,0.7796432909543682
12,1,0.0,0.8861977770162284,2.513842918853193
12,2,1.0,0.9113362062047603,0.0
12,2,0.75,0.9263279434798862,-1.4991737275125927
12,2,0.5,0.9165697271846004,-0.523352097984009
12,2,0.25,0.9092539865209308,0.20822196838294893
12,2,0.0,0.9165788968250211,-0.5242690620260837
12,3,1.0,0.9113362062047603,0.0
12,3,0.75,0.9094916625956193,0.18445436091409917
12,3,0.5,0.8997558378011223,1.1580368403637964
12,3,0.25,0.8919283243626861,1.9407881842074204
12,3,0.0,0.8881524403656409,2.318376583911941
12,4,1.0,0.9113362062047603,0.0
12,4,0.75,0.9116522824248839,-0.031607622012364
12,4,0.5,0.9082787670573488,0.30574391474115226
12,4,0.25,0.9078590203790684,0.34771858256918975
12,4,0.0,0.9085455991553053,0.2790607049454996
12,5,1.0,0.9113362062047603,0.0
12,5,0.75,0.9105094988847939,0.08267073199663688
12,5,0.5,0.9105094988847939,0.08267073199663688
12,5,0.25,0.9144624474911138,-0.3126241286353526
12,5,0.0,0.9086534974050553,0.26827087997050025
12,6,1.0,0.9113362062047603,0.0
12,6,0.75,0.9175597077168693,-0.6223501512109042
12,6,0.5,0.9242183309757974,-1.2882124771037118
12,6,0.25,0.9169585696220234,-0.5622363417263077
12,6,0.0,0.9111251201177397,0.02110860870205844
12,7,1.0,0.9113362062047603,0.0
12,7,0.75,0.9090612738351602,0.227493236960008
12,7,0.5,0.9090612738351602,0.227493236960008
12,7,0.25,0.9155358616697941,-0.4199655465033758
12,7,0.0,0.9308394022420655,-1.9503196037305215
12,8,1.0,0.9113362062047603,0.0
12,8,0.75,0.9116773547756929,-0.03411485709325923
12,8,0.5,0.9091071871073905,0.22290190973698332
12,8,0.25,0.8991537035337155,1.2182502671044815
12,8,0.0,0.8992254189668767,1.2110787237883613
13,0,1.0,0.9386537778246828,0.0
13,0,0.75,0.934095532069775,0.4558245754907819
13,0,0.5,0.9269642813373158,1.1689496487367057
13,0,0.25,0.9228557286633512,1.579804916133165
13,0,0.0,0.9187301086298956,1.9923669194787275
13,1,1.0,0.9386537778246828,0.0
13,1,0.75,0.9301211094343562,0.8532668390326625
13,1,0.5,0.9287899944021989,0.9863783422483952
13,1,0.25,0.929420996898873,0.9232780925809814
13,1,0.0,0.9172579424808249,2.1395835343857916
13,2,1.0,0.9386537778246828,0.0
13,2,0.75,0.9188067085279167,1.9847069296766162
13,2,0.5,0.8926081783839475,4.6045599440735385
13,2,0.25,0.8884785054410662,5.017527238361663
13,2,0.0,0.8619615374959202,7.669224032876265
13,3,1.0,0.9386537778246828,0.0
13,3,0.75,0.921809809875148,1.68439679495348
13,3,0.5,0.9000599318303029,3.8593845994379983
13,3,0.25,0.8950717795976426,4.358199822704023
13,3,0.0,0.8782962981672249,6.035747965745797
13,4,1.0,0.9386537778246828,0.0
13,4,0.75,0.9314487072560467,0.7205070568636174
13,4,0.5,0.9230527119938885,1.5601065830794347
13,4,0.25,0.9271341469998076,1.1519630824875282
13,4,0.0,0.9274738736232381,1.1179904201444768
13,5,1.0,0.9386537778246828,0.0
13,5,0.75,0.9404087156946828,-0.17549378699999174
13,5,0.5,0.9358451178451178,0.28086599795650313
13,5,0.25,0.9399192969711214,-0.12655191464385762
13,5,0.0,0.9297597868648022,0.8893990959880638
13,6,1.0,0.9386537778246828,0.0
13,6,0.75,0.9386537778246828,0.0
13,6,0.5,0.9427548423981276,-0.4101064573444724
13,6,0.25,0.9252941638638672,1.3359613960815642
13,6,0.0,0.9252317051772587,1.3422072647424121
13,7,1.0,0.9386537778246828,0.0
13,7,0.75,0.930405993416323,0.8247784408359826
13,7,0.5,0.9258438144850202,1.2809963339662667
13,7,0.25,0.930405993416323,0.8247784408359826
13,7,0.0,0.9272066086498996,1.1447169174783278
13,8,1.0,0.9386537778246828,0.0
13,8,0.75,0.9386537778246828,0.0
13,8,0.5,0.9386537778246828,0.0
13,8,0.25,0.9241130872378333,1.4540690586849592
13,8,0.0,0.9134819839365962,2.5171793888086658
14,0,1.0,0.8477911735497763,0.0
14,0,0.75,0.8467301505925705,0.10610229572057817
14,0,0.5,0.8446164453661393,0.31747281836369545
14,0,0.25,0.8480922423018646,-0.03010687520883515
14,0,0.0,0.8421714570768402,0.5619716472936132
14,1,1.0,0.8477911735497763,0.0
14,1,0.75,0.8377544893738202,1.0036684175956045
14,1,0.5,0.8365728448242629,1.1218328725513427
14,1,0.25,0.8334467056542718,1.4344467895504476
14,1,0.0,0.8471920371201915,0.05991364295847568
14,2,1.0,0.8477911735497763,0.0
14,2,0.75,0.8443033291125059,0.3487844437270349
14,2,0.5,0.8445040928795713,0.32870806702050004
14,2,0.25,0.8577479106543874,-0.9956737104611091
14,2,0.0,0.8600732087507372,-1.228203520096094
14,3,1.0,0.8477911735497763,0.0
14,3,0.75,0.8292598252322917,1.8531348317484597
14,3,0.5,0.8157075191831109,3.208365436666538
14,3,0.25,0.7916184814076047,5.617269214217158
14,3,0.0,0.7808229474821536,6.6968226067622645
14,4,1.0,0.8477911735497763,0.0
14,4,0.75,0.8445674539474636,0.32237196023127135
14,4,0.5,0.8778613391931686,-3.0070165643392266
14,4,0.25,0.8598885360898052,-1.209736254002891
14,4,0.0,0.8387749607174069,0.9016212832369419
14,5,1.0,0.8477911735497763,0.0
14,5,0.75,0.8372825121447134,1.0508661405062902
14,5,0.5,0.8598420210665625,-1.20508475167862
14,5,0.25,0.8467988153421016,0.09923582076747373
14,5,0.0,0.8586995733389036,-1.0908399789127277
14,6,1.0,0.8477911735497763,0.0
14,6,0.75,0.8389570830647431,0.8834090485033141
14,6,0.5,0.8341152449928823,1.3675928556894035
14,6,0.25,0.8299415348544343,1.7849638695341952
14,6,0.0,0.8231823653122388,2.4608808237537527
14,7,1.0,0.8477911735497763,0.0
14,7,0.75,0.837663327197594,1.0127846352182335
14,7,0.5,0.8027479821914891,4.504319135828716
14,7,0.25,0.7975709805005483,5.022019304922798
14,7,0.0,0.7965000267827907,5.1291146766985545
14,8,1.0,0.8477911735497763,0.0
14,8,0.75,0.848695078995408,-0.09039054456316808
14,8,0.5,0.8369985501654449,1.0792623384331401
14,8,0.25,0.8266780823520055,2.111309119777083
14,8,0.0,0.8209071326353845,2.6884040914391782
15,0,1.0,0.8854702400483891,0.0
15,0,0.75,0.8839229239299102,0.15473161184789141
15,0,0.5,0.8839229239299102,0.15473161184789141
15,0,0.25,0.8583082717374728,2.716196831091633
15,0,0.0,0.8502545540645309,3.521568598385827
15,1,1.0,0.8854702400483891,0.0
15,1,0.75,0.8830467105807747,0.24235294676144825
15,1,0.5,0.8808566333030293,0.4613606745359822
15,1,0.25,0.8706331877729256,1.4837052275463503
15,1,0.0,0.8680468834629633,1.742335658542582
15,2,1.0,0.8854702400483891,0.0
15,2,0.75,0.8771590750483959,0.8311164999993292
15,2,0.5,0.8627402036042667,2.2730036444122415
15,2,0.25,0.8502988476679275,3.517139238046163
15,2,0.0,0.8222973968907267,6.317284315766248
15,3,1.0,0.8854702400483891,0.0
15,3,0.75,0.8796869820908716,0.5783257957517551
15,3,0.5,0.8728002871407095,1.2669952907679694
15,3,0.25,0.8684368089244882,1.7033431123900988
15,3,0.0,0.8603169508871831,2.515328916120607
15,4,1.0,0.8854702400483891,0.0
15,4,0.75,0.8792535763327751,0.6216663715614024
15,4,0.5,0.8942816948030454,-0.8811454754656278
15,4,0.25,0.8942816948030454,-0.8811454754656278
15,4,0.0,0.9010846789103907,-1.5614438862001534
15,5,1.0,0.8854702400483891,0.0
15,5,0.75,0.8803795798875833,0.5090660160805838
15,5,0.5,0.8727560909824947,1.271414906589441
15,5,0.25,0.8651019594440648,2.0368280604324385
15,5,0.0,0.8625107565701624,2.295948347822674
15,6,1.0,0.8854702400483891,0.0
15,6,0.75,0.8907332441619711,-0.5263004113581937
15,6,0.5,0.8907332441619711,-0.5263004113581937
15,6,0.25,0.8868920626237367,-0.1421822575347509
15,6,0.0,0.905195634052308,-1.9725394003918817
15,7,1.0,0.8854702400483891,0.0
15,7,0.75,0.8755312137509228,0.9939026297466347
15,7,0.5,0.8488162383719051,3.6654001676484027
15,7,0.25,0.8538441566188499,3.162608342953921
15,7,0.0,0.8450992626300087,4.037097741838047
15,8,1.0,0.8854702400483891,0.0
15,8,0.75,0.9078126749524129,-2.2342434904023767
15,8,0.5,0.9053444287222334,-1.9874188673844273
15,8,0.25,0.89906093251685,-1.3590692468460897
15,8,0.0,0.9069214146913784,-2.145117464298929
16,0,1.0,0.9021597709324569,0.0
16,0,0.75,0.9071400837136427,-0.4980312781185825
16,0,0.5,0.9198363767329284,-1.7676605800471479
16,0,0.25,0.9129823481116585,-1.0822577179201542
16,0,0.0,0.9129823481116585,-1.0822577179201542
16,1,1.0,0.9021597709324569,0.0
16,1,0.75,0.9046990672217532,-0.2539296289296278
16,1,0.5,0.9072729704218698,-0.5113199489412912
16,1,0.25,0.9122532832030557,-1.0093512270598737
16,1,0.0,0.9071793078312251,-0.5019536898768218
16,2,1.0,0.9021597709324569,0.0
16,2,0.75,0.9149304479538446,-1.2770677021387677
16,2,0.5,0.9198411595782677,-1.7681388645810814
16,2,0.25,0.9153483476022708,-1.3188576669813878
16,2,0.0,0.9130853510284263,-1.0925580095969334
16,3,1.0,0.9021597709324569,0.0
16,3,0.75,0.9073005678647271,-0.5140796932270209
16,3,0.5,0.9087276381643342,-0.65678672318773
16,3,0.25,0.9137063441470649,-1.1546573214607947
16,3,0.0,0.9092379316419791,-0.7078160709522163
16,4,1.0,0.9021597709324569,0.0
16,4,0.75,0.9098128135052262,-0.7653042572769331
16,4,0.5,0.9073048857370477,-0.5145114804590789
16,4,0.25,0.8997449578844927,0.24148130479642038
16,4,0.0,0.894359540914155,0.7800230018301879
16,5,1.0,0.9021597709324569,0.0
16,5,0.75,0.8928020864610102,0.9357684471446692
16,5,0.5,0.8908834769565643,1.1276293975892582
16,5,0.25,0.8832601728123325,1.8899598120124428
16,5,0.0,0.8765406341174301,2.561913681502681
16,6,1.0,0.9021597709324569,0.0
16,6,0.75,0.9124041075586019,-1.024433662614499
16,6,0.5,0.9129823860465454,-1.082261511408844
16,6,0.25,0.9155163956812112,-1.335662474875432
16,6,0.0,0.9130433479257889,-1.0883576993331978
16,7,1.0,0.9021597709324569,0.0
16,7,0.75,0.9027922576266862,-0.06324866942293284
16,7,0.5,0.8955400051919382,0.6619765740518702
16,7,0.25,0.894525661035095,0.7634109897361907
16,7,0.0,0.878854178505386,2.3305592427070865
16,8,1.0,0.9021597709324569,0.0
16,8,0.75,0.907384585365162,-0.522481443270506
16,8,0.5,0.9129656476399771,-1.0805876707520201
16,8,0.25,0.9258183355477714,-2.365856461531446
16,8,0.0,0.9020830011059121,0.007676982654480913
17,0,1.0,0.8365665880578161,0.0
17,0,0.75,0.8452438570364855,-0.8677268978669384
17,0,0.5,0.8511425173106898,-1.4575929252873654
17,0,0.25,0.8516331572085364,-1.5066569150720244
17,0,0.0,0.8456396076560075,-0.9073019598191401
17,1,1.0,0.8365665880578161,0.0
17,1,0.75,0.8360459979987501,0.05205900590660173
17,1,0.5,0.8323064145984862,0.4260173459329941
17,1,0.25,0.8485455948897347,-1.1979006831918548
17,1,0.0,0.8477790019153357,-1.1212413857519588
17,2,1.0,0.8365665880578161,0.0
17,2,0.75,0.8279666857942116,0.859990226360452
17,2,0.5,0.8279666857942116,0.859990226360452
17,2,0.25,0.8351764611568533,0.13901269009628514
17,2,0.0,0.8334351593638061,0.31314286940100633
17,3,1.0,0.8365665880578161,0.0
17,3,0.75,0.8420196636585711,-0.545307560075492
17,3,0.5,0.8437013990069213,-0.7134810949105175
17,3,0.25,0.8339265735684083,0.26400144894078714
17,3,0.0,0.7991175454976306,3.7449042560185553
17,4,1.0,0.8365665880578161,0.0
17,4,0.75,0.8334982062603753,0.30683817974408445
17,4,0.5,0.8115361517000048,2.5030436357811325
17,4,0.25,0.8040878493964423,3.247873866137385
17,4,0.0,0.8119359503959449,2.4630637661871235
17,5,1.0,0.8365665880578161,0.0
17,5,0.75,0.8206766656303671,1.5889922427449021
17,5,0.5,0.8145035344402434,2.206305361757277
17,5,0.25,0.7953719061595004,4.119468189831577
17,5,0.0,0.7835230253680875,5.304356268972866
17,6,1.0,0.8365665880578161,0.0
17,6,0.75,0.8318128396403655,0.4753748417450687
17,6,0.5,0.8255318564565663,1.1034731601249792
17,6,0.25,0.8088962136064324,2.767037445138376
17,6,0.0,0.8096670837801658,2.689950427765031
17,7,1.0,0.8365665880578161,0.0
17,7,0.75,0.8523992895932495,-1.5832701535433369
17,7,0.5,0.840363979800341,-0.3797391742524914
17,7,0.25,0.8219048680544628,1.4661720003353307
17,7,0.0,0.8448291748273556,-0.8262586769539504
17,8,1.0,0.8365665880578161,0.0
17,8,0.75,0.8582826511613201,-2.1716063103503935
17,8,0.5,0.8510147699078997,-1.4448181850083563
17,8,0.25,0.8301455906449504,0.6420997412865725
17,8,0.0,0.8077484661453622,2.881812191245392
18,0,1.0,0.9468103352478784,0.0
18,0,0.75,0.9322070547241124,1.4603280523766027
18,0,0.5,0.92211810822074,2.469222702713836
18,0,0.25,0.9100863390825173,3.672399616536104
18,0,0.0,0.919696154615125,2.7114180632753393
18,1,1.0,0.9468103352478784,0.0
18,1,0.75,0.9442801097525754,0.2530225495303018
18,1,0.5,0.9493205437228208,-0.25102084749424325
18,1,0.25,0.9396048685659691,0.7205466681909245
18,1,0.0,0.9399301428699312,0.6880192377947236
18,2,1.0,0.9468103352478784,0.0
18,2,0.75,0.9525143988561404,-0.5704063608262033
18,2,0.5,0.9476606234174143,-0.08502881695359177
18,2,0.25,0.9277889293369169,1.9021405910961464
18,2,0.0,0.9155532212885154,3.1257113959363036
18,3,1.0,0.9468103352478784,0.0
18,3,0.75,0.9265522847623271,2.0258050485551293
18,3,0.5,0.9064620504904013,4.034828475747709
18,3,0.25,0.8690449010654491,7.776543418242932
18,3,0.0,0.8265967213156822,12.021361393219621
18,4,1.0,0.9468103352478784,0.0
18,4,0.75,0.9553912208636866,-0.8580885615808165
18,4,0.5,0.9482514986059193,-0.14411633580408978
18,4,0.25,0.9338862888543054,1.292404639357303
18,4,0.0,0.8989153807194276,4.789495452845083
18,5,1.0,0.9468103352478784,0.0
18,5,0.75,0.9417748382904748,0.5035496957403574
18,5,0.5,0.917314551048286,2.9495784199592423
18,5,0.25,0.917314551048286,2.9495784199592423
18,5,0.0,0.917314551048286,2.9495784199592423
18,6,1.0,0.9468103352478784,0.0
18,6,0.75,0.9335666420475823,1.3243693200296058
18,6,0.5,0.9178912208636865,2.8919114384191924
18,6,0.25,0.9178912208636865,2.8919114384191924
18,6,0.0,0.9149860554983564,3.1824279749521955
18,7,1.0,0.9468103352478784,0.0
18,7,0.75,0.920583347492253,2.6226987755625375
18,7,0.5,0.9128312091355569,3.3979126112321456
18,7,0.25,0.8969037719037719,4.990656334410648
18,7,0.0,0.914692326856004,3.2118008391874397
18,8,1.0,0.9468103352478784,0.0
18,8,0.75,0.9241495425719439,2.266079267593446
18,8,0.5,0.9118066309048061,3.5003704343072317
18,8,0.25,0.8967905514700509,5.001978377782745
18,8,0.0,0.8967905514700509,5.001978377782745
19,0,1.0,0.9169546936114733,0.0
19,0,0.75,0.9074503073770491,0.9504386234424178
19,0,0.5,0.9101330025926786,0.6821691018794707
19,0,0.25,0.9004562626178109,1.6498430993662438
19,0,0.0,0.8994432344456041,1.7511459165869159
19,1,1.0,0.9169546936114733,0.0
19,1,0.75,0.9125844695888065,0.43702240226668465
19,1,0.5,0.9145368008730438,0.24178927384295168
19,1,0.25,0.9167443304217494,0.021036318972389445
19,1,0.0,0.9133239615175274,0.3630732093945932
19,2,1.0,0.9169546936114733,0.0
19,2,0.75,0.9257280970534791,-0.8773403442005834
19,2,0.5,0.9274209533543162,-1.0466259742842876
19,2,0.25,0.921711745810559,-0.4757052199085732
19,2,0.0,0.9255592903828198,-0.8604596771346507
19,3,1.0,0.9169546936114733,0.0
19,3,0.75,0.9041720595788392,1.2782634032634133
19,3,0.5,0.8945933923657512,2.236130124572211
19,3,0.25,0.8774490317980657,3.9505661813407644
19,3,0.0,0.8397411722442194,7.72135213672539
19,4,1.0,0.9169546936114733,0.0
19,4,0.75,0.9149598602657679,0.19948333457053824
19,4,0.5,0.9198223938617238,-0.28677002502505156
19,4,0.25,0.8977322585837588,1.922243502771448
19,4,0.0,0.8958275984861063,2.1127095125367035
19,5,1.0,0.9169546936114733,0.0
19,5,0.75,0.9188613756770915,-0.19066820656181704
19,5,0.5,0.9249430570392657,-0.7988363427792411
19,5,0.25,0.9267032581402043,-0.9748564528730963
19,5,0.0,0.9223040224246728,-0.5349328813199494
19,6,1.0,0.9169546936114733,0.0
19,6,0.75,0.9282077161951431,-1.125302258366978
19,6,0.5,0.9194553893003705,-0.2500695688897214
19,6,0.25,0.9152694370984259,0.16852565130474062
19,6,0.0,0.9157504861763249,0.12042074351483745
19,7,1.0,0.9169546936114733,0.0
19,7,0.75,0.9086605998168499,0.8294093794623425
19,7,0.5,0.8846721620860842,3.228253152538907
19,7,0.25,0.8846157232139878,3.2338970397485456
19,7,0.0,0.876745720472603,4.020897313887028
19,8,1.0,0.9169546936114733,0.0
19,8,0.75,0.8971753535061763,1.9779340105297027
19,8,0.5,0.8995626220711305,1.7392071540342835
19,8,0.25,0.899991208144869,1.6963485466604311
19,8,0.0,0.9032925281661378,1.3662165445335495
20,0,1.0,0.909077089344933,0.0
20,0,0.75,0.9210672200615313,-1.1990130716598268
20,0,0.5,0.9196604928343524,-1.058340348941933
20,0,0.25,0.8962797619047619,1.2797327440171147
20,0,0.0,0.8840911435788419,2.4985945766091144
20,1,1.0,0.909077089344933,0.0
20,1,0.75,0.910790273556231,-0.17131842112979578
20,1,0.5,0.910790273556231,-0.17131842112979578
20,1,0.25,0.8971660016229946,1.1911087721938385
20,1,0.0,0.8746575903901754,3.44194989547576
20,2,1.0,0.909077089344933,0.0
20,2,0.75,0.8867916352072986,2.2285454137634386
20,2,0.5,0.8822493391949819,2.682775014995109
20,2,0.25,0.8648856403412,4.419144900373306
20,2,0.0,0.8449964246451034,6.408066469982964
20,3,1.0,0.909077089344933,0.0
20,3,0.75,0.9087020151729619,0.03750741719711348
20,3,0.5,0.8851686507936507,2.390843855128233
20,3,0.25,0.8670048056047602,4.20722837401728
20,3,0.0,0.8579091126375049,5.116797670742812
20,4,1.0,0.909077089344933,0.0
20,4,0.75,0.9100893500811467,-0.10122607362136327
20,4,0.5,0.8967443249701315,1.2332764374801575
20,4,0.25,0.89095126768331,1.812582166162302
20,4,0.0,0.8958994123173687,1.3177677027564338
20,5,1.0,0.909077089344933,0.0
20,5,0.75,0.9086634204565006,0.04136688884324169
20,5,0.5,0.9032679810370305,0.5809108307902489
20,5,0.25,0.886053832565261,2.3023256779671986
20,5,0.0,0.8923963933479815,1.6680695996951544
20,6,1.0,0.909077089344933,0.0
20,6,0.75,0.9163943228652696,-0.731723352033653
20,6,0.5,0.9183829091335244,-0.9305819788591352
20,6,0.25,0.9090308763677031,0.0046212977229953545
20,6,0.0,0.9002577116217999,0.8819377723133126
20,7,1.0,0.909077089344933,0.0
20,7,0.75,0.9127372143535344,-0.3660125008601356
20,7,0.5,0.9095997973657548,-0.05227080208217716
20,7,0.25,0.8940307806290833,1.5046308715849777
20,7,0.0,0.8742673250076003,3.480976433733274
20,8,1.0,0.909077089344933,0.0
20,8,0.75,0.9196926433612562,-1.0615554016323192
20,8,0.5,0.8790839947089948,2.9993094635938244
20,8,0.25,0.8557444879064011,5.333260143853192
20,8,0.0,0.845014701211297,6.406238813363608
21,0,1.0,0.871215092097445,0.0
21,0,0.75,0.8531126871552404,1.8102404942204608
21,0,0.5,0.8247207904743534,4.649430162309153
21,0,0.25,0.8149320796435959,5.628301245384904
21,0,0.0,0.7955950299700298,7.562006212741512
21,1,1.0,0.871215092097445,0.0
21,1,0.75,0.8714884441749208,-0.027335207747580803
21,1,0.5,0.8777931247710553,-0.6578032673610346
21,1,0.25,0.8755210084033613,-0.43059163059163685
21,1,0.0,0.859011355837025,1.2203736260419928
21,2,1.0,0.871215092097445,0.0
21,2,0.75,0.8621640554148294,0.9051036682615532
21,2,0.5,0.879803019638093,-0.8587927540648077
21,2,0.25,0.8791418875242404,-0.7926795426795419
21,2,0.0,0.8734632228238575,-0.22481307264125006
21,3,1.0,0.871215092097445,0.0
21,3,0.75,0.8688751490886546,0.23399430087903683
21,3,0.5,0.8776892991591714,-0.6474207061726411
21,3,0.25,0.856820565671842,1.4394526425603016
21,3,0.0,0.8290576413756705,4.215745072177446
21,4,1.0,0.871215092097445,0.0
21,4,0.75,0.8687071886353431,0.2507903462101835
21,4,0.5,0.8644748557402532,0.6740236357191787
21,4,0.25,0.8556175755524097,1.5597516545035273
21,4,0.0,0.8468806569076449,2.433443518980005
21,5,1.0,0.871215092097445,0.0
21,5,0.75,0.8783571073678441,-0.7142015270399149
21,5,0.5,0.8716169401980305,-0.040184810058552234
21,5,0.25,0.8625092528284268,0.8705839269018134
21,5,0.0,0.8554522993492758,1.5762792748169163
21,6,1.0,0.871215092097445,0.0
21,6,0.75,0.864730945717301,0.648414638014394
21,6,0.5,0.8716124312138954,-0.039733911645045694
21,6,0.25,0.8577504208925255,1.3464671204919454
21,6,0.0,0.8488090410927164,2.240605100472859
21,7,1.0,0.871215092097445,0.0
21,7,0.75,0.8527890494639211,1.8426042633523876
21,7,0.5,0.8432781721224234,2.793691997502157
21,7,0.25,0.8122324749620591,5.898261713538588
21,7,0.0,0.7865875154961445,8.462757660130048
21,8,1.0,0.871215092097445,0.0
21,8,0.75,0.871215092097445,0.0
21,8,0.5,0.8409303900406909,3.0284702056754043
21,8,0.25,0.8451478390947865,2.606725300265844
21,8,0.0,0.8130405980377411,5.817449405970388
22,0,1.0,0.863173892745504,0.0
22,0,0.75,0.8442724921981931,1.8901400547310931
22,0,0.5,0.8375031527302569,2.567074001524716
22,0,0.25,0.837339266911918,2.583462583358609
22,0,0.0,0.8151725516437416,4.800134110176247
22,1,1.0,0.863173892745504,0.0
22,1,0.75,0.8804780689396075,-1.7304176194103404
22,1,0.5,0.8882741912249592,-2.5100298479455163
22,1,0.25,0.8897303142554629,-2.655642150995885
22,1,0.0,0.8919552476093301,-2.8781354863826047
22,2,1.0,0.863173892745504,0.0
22,2,0.75,0.861248501185923,0.19253915595810467
22,2,0.5,0.8551775041912415,0.7996388554262546
22,2,0.25,0.8576156516118152,0.5558241133688857
22,2,0.0,0.8427017137999173,2.0472178945586728
22,3,1.0,0.863173892745504,0.0
22,3,0.75,0.8519372460971935,1.1236646648310589
22,3,0.5,0.8451814443139031,1.7992448431600971
22,3,0.25,0.841513111268604,2.1660781476900093
22,3,0.0,0.845028990617226,1.8144902128278018
22,4,1.0,0.863173892745504,0.0
22,4,0.75,0.8462463244302867,1.6927568315217356
22,4,0.5,0.8361000744562388,2.707381828926525
22,4,0.25,0.837982191897473,2.519170084803102
22,4,0.0,0.8360752107671781,2.709868197832599
22,5,1.0,0.863173892745504,0.0
22,5,0.75,0.863078953708413,0.009493903709101303
22,5,0.5,0.8658554736643982,-0.2681580918894144
22,5,0.25,0.8563544244952235,0.6819468250280569
22,5,0.0,0.8640240176570794,-0.08501249115753229
22,6,1.0,0.863173892745504,0.0
22,6,0.75,0.8507803121248498,1.239358062065421
22,6,0.5,0.8429967354074497,2.0177157338054363
22,6,0.25,0.8501029636320345,1.307092911346952
22,6,0.0,0.8463250806651774,1.6848812080326625
22,7,1.0,0.863173892745504,0.0
22,7,0.75,0.8394007538471919,2.377313889831212
22,7,0.5,0.8376689706386101,2.5504922106893924
22,7,0.25,0.8209401452969656,4.223374744853848
22,7,0.0,0.8228511151544701,4.032277759103398
22,8,1.0,0.863173892745504,0.0
22,8,0.75,0.865401746191534,-0.2227853446029937
22,8,0.5,0.8725171417670303,-0.9343249021526279
22,8,0.25,0.8616896647758181,0.14842279696859473
22,8,0.0,0.8595403620669979,0.3633530678506136
23,0,1.0,0.8288487590980149,0.0
23,0,0.75,0.8299207483501091,-0.10719892520941743
23,0,0.5,0.8246825309349336,0.416622816308132
23,0,0.25,0.8189187196486467,0.9930039449368211
23,0,0.0,0.8073731185597175,2.1475640538297425
23,1,1.0,0.8288487590980149,0.0
23,1,0.75,0.8166929508895749,1.2155808208439978
23,1,0.5,0.8234067141509889,0.5442044947026048
23,1,0.25,0.8202820733051092,0.8566685792905759
23,1,0.0,0.814375047766029,1.447371133198594
23,2,1.0,0.8288487590980149,0.0
23,2,0.75,0.814550656614908,1.4298102483106923
23,2,0.5,0.809337981788461,1.9510777309553973
23,2,0.25,0.807536748335455,2.131201076255995
23,2,0.0,0.807349266699113,2.149949239890192
23,3,1.0,0.8288487590980149,0.0
23,3,0.75,0.8283618111868513,0.04869479111636599
23,3,0.5,0.8301324596698381,-0.1283700571823143
23,3,0.25,0.8375741293188788,-0.8725370220863837
23,3,0.0,0.8247238590174804,0.4124900080534566
23,4,1.0,0.8288487590980149,0.0
23,4,0.75,0.827667011931936,0.11817471660788836
23,4,0.5,0.7965781760468031,3.2270583051211776
23,4,0.25,0.7951355473738019,3.3713211724213044
23,4,0.0,0.7970328276781048,3.1815931419910126
23,5,1.0,0.8288487590980149,0.0
23,5,0.75,0.8198544124961132,0.8994346601901682
23,5,0.5,0.814869524174267,1.3979234923747974
23,5,0.25,0.8167566065294711,1.209215256854379
23,5,0.0,0.8101056449897964,1.8743114108218495
23,6,1.0,0.8288487590980149,0.0
23,6,0.75,0.8248258734090028,0.4022885689012101
23,6,0.5,0.8184326298527898,1.041612924522517
23,6,0.25,0.8158634207418625,1.2985338356152454
23,6,0.0,0.8151693671156229,1.3679391982391986
23,7,1.0,0.8288487590980149,0.0
23,7,0.75,0.8256801793687039,0.31685797293110607
23,7,0.5,0.8166293019896596,1.221945710835537
23,7,0.25,0.8059448695156572,2.2903889582357673
23,7,0.0,0.8049730961965005,2.387566290151444
23,8,1.0,0.8288487590980149,0.0
23,8,0.75,0.8268641756219396,0.198458347607533
23,8,0.5,0.8173061378205637,1.1542621277451204
23,8,0.25,0.8053529062308047,2.349585286721023
23,8,0.0,0.8018904602339378,2.695829886407708
24,0,1.0,0.8239637416108005,0.0
24,0,0.75,0.8320804072357525,-0.8116665624951946
24,0,0.5,0.8038029156878734,2.0160825922927117
24,0,0.25,0.7983639541206307,2.559978749016989
24,0,0.0,0.7851086997714203,3.8855041839380267
24,1,1.0,0.8239637416108005,0.0
24,1,0.75,0.8304205696591824,-0.645682804838188
24,1,0.5,0.8126149316706113,1.1348809940189275
24,1,0.25,0.8160732030530038,0.7890538557796756
24,1,0.0,0.8066974564743452,1.726628513645534
24,2,1.0,0.8239637416108005,0.0
24,2,0.75,0.8335956972320608,-0.9631955621260291
24,2,0.5,0.8305442237372096,-0.6580482126409049
24,2,0.25,0.8247449622433899,-0.07812206325893412
24,2,0.0,0.8299082894379499,-0.5944547827149371
24,3,1.0,0.8239637416108005,0.0
24,3,0.75,0.8303254777526068,-0.636173614180624
24,3,0.5,0.8330484467067162,-0.9084705095915635
24,3,0.25,0.8474209468600009,-2.3457205249200364
24,3,0.0,0.8330785889487436,-0.9114847337943099
24,4,1.0,0.8239637416108005,0.0
24,4,0.75,0.8091662684145872,1.4797473196213384
24,4,0.5,0.7967361111111111,2.722763049968946
24,4,0.25,0.7975437653448969,2.6419976265903644
24,4,0.0,0.7880268016297428,3.5936939981057736
24,5,1.0,0.8239637416108005,0.0
24,5,0.75,0.8170861719475995,0.6877569663201077
24,5,0.5,0.8046536909904727,1.9310050620327868
24,5,0.25,0.805490999748588,1.8472741862212594
24,5,0.0,0.7799180436677111,4.4045697943089435
24,6,1.0,0.8239637416108005,0.0
24,6,0.75,0.8342198072962637,-1.0256065685463112
24,6,0.5,0.8392412793936972,-1.5277537782896644
24,6,0.25,0.8458583282570682,-2.1894586646267644
24,6,0.0,0.8345782352486836,-1.0614493637883027
24,7,1.0,0.8239637416108005,0.0
24,7,0.75,0.8116186188909222,1.234512271987831
24,7,0.5,0.8189105639231813,0.5053177687619259
24,7,0.25,0.8154803589014116,0.8483382709388976
24,7,0.0,0.7921372786402697,3.182646297053082
24,8,1.0,0.8239637416108005,0.0
24,8,0.75,0.809950644024465,1.401309758633551
24,8,0.5,0.7993624152486039,2.4601326362196696
24,8,0.25,0.7677508308815516,5.621291072924894
24,8,0.0,0.7466961151564766,7.7267626454323945
25,0,1.0,0.9495686680469289,0.0
25,0,0.75,0.9541074782860354,-0.45388102391065166
25,0,0.5,0.9533086973158738,-0.37400292689449
25,0,0.25,0.9590117367220943,-0.9443068675165422
25,0,0.0,0.959014914957538,-0.9446246910609135
25,1,1.0,0.9495686680469289,0.0
25,1,0.75,0.9540015634867163,-0.4432895439787421
25,1,0.5,0.9348190408025123,1.474962724441653
25,1,0.25,0.9183685549887006,3.120011305822823
25,1,0.0,0.9177701857986674,3.179848224826143
25,2,1.0,0.9495686680469289,0.0
25,2,0.75,0.9533593484265586,-0.3790680379629707
25,2,0.5,0.9598605978857013,-1.0291929838772473
25,2,0.25,0.9498017551892874,-0.023308714235859007
25,2,0.0,0.9498017551892874,-0.023308714235859007
25,3,1.0,0.9495686680469289,0.0
25,3,0.75,0.9481050036406996,0.1463664406229248
25,3,0.5,0.9343825648136239,1.5186103233304937
25,3,0.25,0.9280405883734664,2.1528079673462486
25,3,0.0,0.9295875999980688,1.9981068048860018
25,4,1.0,0.9495686680469289,0.0
25,4,0.75,0.9481050036406996,0.1463664406229248
25,4,0.5,0.9353727962422287,1.4195871804700166
25,4,0.25,0.9357385279972767,1.3830140049652107
25,4,0.0,0.9326541021702313,1.6914565876697596
25,5,1.0,0.9495686680469289,0.0
25,5,0.75,0.9503758202459534,-0.08071521990244968
25,5,0.5,0.9355538218087687,1.4014846238160183
25,5,0.25,0.9393368774802867,1.023179056664214
25,5,0.0,0.9398393821229649,0.9729285923963937
25,6,1.0,0.9495686680469289,0.0
25,6,0.75,0.9527033941668088,-0.31347261198799714
25,6,0.5,0.9545769227069353,-0.5008254660006428
25,6,0.25,0.9521343440522237,-0.25656760052948924
25,6,0.0,0.9480075618688752,0.15611061780536062
25,7,1.0,0.9495686680469289,0.0
25,7,0.75,0.9444409887806113,0.512767926631752
25,7,0.5,0.9341106355151299,1.5458032531799004
25,7,0.25,0.9246946533555329,2.487401469139594
25,7,0.0,0.9188607606058381,3.0707907441090754
25,8,1.0,0.9495686680469289,0.0
25,8,0.75,0.9464625600627723,0.31061079841565586
25,8,0.5,0.9515665256424386,-0.19978575955097444
25,8,0.25,0.9497330257836093,-0.016435773668044273
25,8,0.0,0.9292908063426414,2.027786170428747
26,0,1.0,0.7769014305296618,0.0
26,0,0.75,0.7802696714453103,-0.33682409156485793
26,0,0.5,0.7663156785769734,1.0585751952688405
26,0,0.25,0.7575205813023786,1.9380849227283115
26,0,0.0,0.7566330116796343,2.0268418850027503
26,1,1.0,0.7769014305296618,0.0
26,1,0.75,0.7790987374389143,-0.2197306909252572
26,1,0.5,0.7822928940509164,-0.5391463521254636
26,1,0.25,0.7827767242318423,-0.587529370218054
26,1,0.0,0.7900306930378007,-1.312926250813895
26,2,1.0,0.7769014305296618,0.0
26,2,0.75,0.7737368735676364,0.31645569620253333
26,2,0.5,0.7713590471292884,0.5542383400373385
26,2,0.25,0.7667766548240841,1.0124775705577682
26,2,0.0,0.7601116415491066,1.6789788980555165
26,3,1.0,0.7769014305296618,0.0
26,3,0.75,0.7882077044179678,-1.1306273888306073
26,3,0.5,0.7961131780595763,-1.9211747529914502
26,3,0.25,0.8061563039334748,-2.9254873403813053
26,3,0.0,0.8048622504785343,-2.796081994887256
26,4,1.0,0.7769014305296618,0.0
26,4,0.75,0.7700633881059125,0.6838042423749302
26,4,0.5,0.7574112283890383,1.949020214062347
26,4,0.25,0.7480836433337332,2.8817787195928535
26,4,0.0,0.7420041229166024,3.4897307613059314
26,5,1.0,0.7769014305296618,0.0
26,5,0.75,0.7700655160871768,0.6835914442484992
26,5,0.5,0.7772677925575597,-0.03663620278979707
26,5,0.25,0.7800449373678595,-0.31435068381977516
26,5,0.0,0.7844172451589332,-0.7515814629271422
26,6,1.0,0.7769014305296618,0.0
26,6,0.75,0.783413184068688,-0.6511753539026222
26,6,0.5,0.7844250211689332,-0.7523590639271438
26,6,0.25,0.7836825250158175,-0.6781094486155714
26,6,0.0,0.7978373189126235,-2.0935888382961787
26,7,1.0,0.7769014305296618,0.0
26,7,0.75,0.7531339884826168,2.376744204704495
26,7,0.5,0.7477432429515133,2.9158187578148476
26,7,0.25,0.7385731060058807,3.83283245237811
26,7,0.0,0.7315785502256587,4.532288030400311
26,8,1.0,0.7769014305296618,0.0
26,8,0.75,0.7869912409706072,-1.008981044094548
26,8,0.5,0.7723784718166742,0.4522958712987579
26,8,0.25,0.7677744028471468,0.9127027682514943
26,8,0.0,0.75857965337132,1.8321777158341712
27,0,1.0,0.8843098529734474,0.0
27,0,0.75,0.8900255754475703,-0.5715722474122886
27,0,0.5,0.8900651567900564,-0.5755303816608937
27,0,0.25,0.8805128205128204,0.37970324606270145
27,0,0.0,0.8825710855476742,0.173876742577328
27,1,1.0,0.8843098529734474,0.0
27,1,0.75,0.8937438905180841,-0.9434037544636675
27,1,0.5,0.8830183909164571,0.12914620569903779
27,1,0.25,0.8879885252148875,-0.36786722414400286
27,1,0.0,0.9097714736012609,-2.546162062781343
27,2,1.0,0.8843098529734474,0.0
27,2,0.75,0.8793305949150839,0.49792580583635226
27,2,0.5,0.8794197300191045,0.489012295434299
27,2,0.25,0.8639363354037267,2.0373517569720723
27,2,0.0,0.8680019540791403,1.6307898894307171
27,3,1.0,0.8843098529734474,0.0
27,3,0.75,0.8946066531616749,-1.0296800188227428
27,3,0.5,0.9002332780703943,-1.5923425096946886
27,3,0.25,0.8827276353035957,0.1582217669851782
27,3,0.0,0.867297903493242,1.7011949480205457
27,4,1.0,0.8843098529734474,0.0
27,4,0.75,0.8891352862044154,-0.4825433230967957
27,4,0.5,0.8861796291235273,-0.18697761500798826
27,4,0.25,0.8859307690158271,-0.1620916042379683
27,4,0.0,0.8909873214312196,-0.6677468457772173
27,5,1.0,0.8843098529734474,0.0
27,5,0.75,0.8892781416141802,-0.4968288640732732
27,5,0.5,0.8757930982721395,0.8516754701307971
27,5,0.25,0.8807477622813912,0.35620906920562634
27,5,0.0,0.8753469571164981,0.8962895856949316
27,6,1.0,0.8843098529734474,0.0
27,6,0.75,0.8900291964377411,-0.5719343464293702
27,6,0.5,0.8901334919376156,-0.5823638964168154
27,6,0.25,0.8749612951740611,0.934855779938637
27,6,0.0,0.8898601398601398,-0.5550286886692346
27,7,1.0,0.8843098529734474,0.0
27,7,0.75,0.8841623214170209,0.014753155642655003
27,7,0.5,0.8741716041255212,1.0138248847926246
27,7,0.25,0.8891352133315799,-0.48253603581324134
27,7,0.0,0.8935969603152266,-0.9287107341779177
27,8,1.0,0.8843098529734474,0.0
27,8,0.75,0.8741511106650608,1.0158742308386648
27,8,0.5,0.8787510048505685,0.555884812287899
27,8,0.25,0.8687415569064505,1.5568296066996945
27,8,0.0,0.8687415569064505,1.5568296066996945
28,0,1.0,0.820794267994835,0.0
28,0,0.75,0.8124350755755856,0.8359192419249428
28,0,0.5,0.8248434934447911,-0.40492254499561176
28,0,0.25,0.8313938312376704,-1.0599563242835397
28,0,0.0,0.8376403461575828,-1.6846078162747746
28,1,1.0,0.820794267994835,0.0
28,1,0.75,0.84949957076603,-2.8705302771194985
28,1,0.5,0.8634971862080748,-4.27029182132398
28,1,0.25,0.8698874378086741,-4.909316981383904
28,1,0.0,0.8746569554427209,-5.386268744788591
28,2,1.0,0.820794267994835,0.0
28,2,0.75,0.8142128772061614,0.6581390788673591
28,2,0.5,0.824898401445089,-0.4104133450253955
28,2,0.25,0.8300697461453659,-0.9275478150530869
28,2,0.0,0.8204936877195432,0.03005802752917841
28,3,1.0,0.820794267994835,0.0
28,3,0.75,0.8261462400486791,-0.5351972053844078
28,3,0.5,0.8298794736257564,-0.9085205630921411
28,3,0.25,0.8275169322931801,-0.6722664298345116
28,3,0.0,0.8168365115011151,0.3957756493719877
28,4,1.0,0.820794267994835,0.0
28,4,0.75,0.850209504423393,-2.9415236428558034
28,4,0.5,0.8477865809861294,-2.6992312991294343
28,4,0.25,0.8412451544856213,-2.04508864907863
28,4,0.0,0.8295081376272216,-0.8713869632386628
28,5,1.0,0.820794267994835,0.0
28,5,0.75,0.7670938757551053,5.370039223972967
28,5,0.5,0.7429265611424231,7.786770685241196
28,5,0.25,0.7358452599888335,8.494900800600147
28,5,0.0,0.7558343893455127,6.4959878649322285
28,6,1.0,0.820794267994835,0.0
28,6,0.75,0.8139605522682445,0.6833715726590528
28,6,0.5,0.8096859341227218,1.1108333872113185
28,6,0.25,0.8076671469031201,1.3127121091714877
28,6,0.0,0.8014225203128819,1.9371747681953155
28,7,1.0,0.820794267994835,0.0
28,7,0.75,0.8216494995299567,-0.0855231535121681
28,7,0.5,0.8328412495741027,-1.2046981579267646
28,7,0.25,0.8409899904924204,-2.019572249758539
28,7,0.0,0.8348051774053498,-1.401090941051475
28,8,1.0,0.820794267994835,0.0
28,8,0.75,0.8399017487752372,-1.9107480780402142
28,8,0.5,0.8508197140006055,-3.0025446005770506
28,8,0.25,0.8531094164456233,-3.231514845078831
28,8,0.0,0.8574906116979675,-3.669634370313246
29,0,1.0,0.837425931911226,0.0
29,0,0.75,0.8350191386565227,0.24067932547033877
29,0,0.5,0.8446394753128975,-0.7213543401671463
29,0,0.25,0.827505485405025,0.9920446506201053
29,0,0.0,0.8163469239353587,2.107900797586737
29,1,1.0,0.837425931911226,0.0
29,1,0.75,0.8331909182411834,0.4235013670042642
29,1,0.5,0.8334985195250156,0.3927412386210416
29,1,0.25,0.8365369160962797,0.08890158149463812
29,1,0.0,0.84126675937812,-0.3840827466893959
29,2,1.0,0.837425931911226,0.0
29,2,0.75,0.8283069801923977,0.9118951718828372
29,2,0.5,0.8113185010843744,2.610743082685163
29,2,0.25,0.7952598452203221,4.216608669090394
29,2,0.0,0.7838200612173215,5.360587069390455
29,3,1.0,0.837425931911226,0.0
29,3,0.75,0.8321635480829765,0.5262383828249506
29,3,0.5,0.8368495700578,0.057636185342602175
29,3,0.25,0.8108045655992451,2.6621366311980976
29,3,0.0,0.7988452896949422,3.858064221628388
29,4,1.0,0.837425931911226,0.0
29,4,0.75,0.8297411918448236,0.7684740066402407
29,4,0.5,0.8268273120110176,1.0598619900208495
29,4,0.25,0.8104912335713073,2.6934698339918794
29,4,0.0,0.8080073189084818,2.9418613002744287
29,5,1.0,0.837425931911226,0.0
29,5,0.75,0.830647404641753,0.6778527269473034
29,5,0.5,0.811792251577927,2.5633680333299047
29,5,0.25,0.799901789316645,3.7524142594581034
29,5,0.0,0.7711925357300963,6.623339618112977
29,6,1.0,0.837425931911226,0.0
29,6,0.75,0.8415019864234039,-0.40760545121778513
29,6,0.5,0.8452265129131714,-0.7800581001945361
29,6,0.25,0.8509581150488816,-1.3532183137655585
29,6,0.0,0.8477184915541081,-1.0292559642882004
29,7,1.0,0.837425931911226,0.0
29,7,0.75,0.8382825807112763,-0.08566488000502082
29,7,0.5,0.8226588444554478,1.476708745577826
29,7,0.25,0.8173535224366426,2.007240947458344
29,7,0.0,0.8226588444554478,1.476708745577826
29,8,1.0,0.837425931911226,0.0
29,8,0.75,0.8267188589162704,1.0707072994955658
29,8,0.5,0.822307200183255,1.5118731727971069
29,8,0.25,0.7874361964856142,4.99897354256118
29,8,0.0,0.745988215848554,9.143771606267205
30,0,1.0,0.893383816804959,0.0
30,0,0.75,0.9122916005470217,-1.89077837420627
30,0,0.5,0.8923669375811217,0.10168792238373081
30,0,0.25,0.9008837443204443,-0.7499927515485227
30,0,0.0,0.9021649333636821,-0.8781116558723046
30,1,1.0,0.893383816804959,0.0
30,1,0.75,0.8685734323665358,2.4810384438423205
30,1,0.5,0.8857431794295121,0.7640637375446957
30,1,0.25,0.8656854562574902,2.769836054746888
30,1,0.0,0.8647918984056359,2.859191839932318
30,2,1.0,0.893383816804959,0.0
30,2,0.75,0.9091585039131801,-1.5774687108221053
30,2,0.5,0.9046687867738887,-1.1284969968929692
30,2,0.25,0.8978105228105229,-0.44267060055638296
30,2,0.0,0.8972652897520398,-0.3881472947080744
30,3,1.0,0.893383816804959,0.0
30,3,0.75,0.8781555126754633,1.5228304129495718
30,3,0.5,0.8923617831390744,0.1022033665884603
30,3,0.25,0.8965498142438384,-0.3165997438879353
30,3,0.0,0.8877653042917301,0.5618512513228979
30,4,1.0,0.893383816804959,0.0
30,4,0.75,0.8695950328977853,2.378878390717376
30,4,0.5,0.8619908493059233,3.139296749903575
30,4,0.25,0.8707020305353995,2.2681786269559523
30,4,0.0,0.8586553151750482,3.4728501629910813
30,5,1.0,0.893383816804959,0.0
30,5,0.75,0.889480727803083,0.3903089001876081
30,5,0.5,0.8929112710967033,0.04725457082557227
30,5,0.25,0.8879332499700205,0.5450566834938497
30,5,0.0,0.8703241781335087,2.3059638671450333
30,6,1.0,0.893383816804959,0.0
30,6,0.75,0.9023852018801168,-0.9001385075157797
30,6,0.5,0.9190463250775669,-2.5662508272607853
30,6,0.25,0.9141065974021987,-2.0722780597239643
30,6,0.0,0.9112391431758007,-1.785532637084164
30,7,1.0,0.893383816804959,0.0
30,7,0.75,0.9044415227811046,-1.1057705976145527
30,7,0.5,0.8824548751686909,1.092894163626812
30,7,0.25,0.874975145457457,1.8408671347502015
30,7,0.0,0.8675294702754657,2.5854346529493366
30,8,1.0,0.893383816804959,0.0
30,8,0.75,0.9135828242705104,-2.0199007465551366
30,8,0.5,0.9044737619980383,-1.1089945193079265
30,8,0.25,0.9125243200728567,-1.9140503267897624
30,8,0.0,0.8984056288963748,-0.5021812091415723
31,0,1.0,0.8107805250709893,0.0
31,0,0.75,0.8107805250709893,0.0
31,0,0.5,0.8204843749896198,-0.9703849918630492
31,0,0.25,0.8259113615998003,-1.5130836528810976
31,0,0.0,0.823898180852849,-1.311765578185975
31,1,1.0,0.8107805250709893,0.0
31,1,0.75,0.8107640793490222,0.001644572196712879
31,1,0.5,0.8093215457336834,0.14589793373058768
31,1,0.25,0.8133208891731403,-0.25403641021509715
31,1,0.0,0.8107846014625675,-0.00040763915781782956
31,2,1.0,0.8107805250709893,0.0
31,2,0.75,0.8088269634722323,0.19535615987570365
31,2,0.5,0.807973408395911,0.28071166750782695
31,2,0.25,0.8100827284542487,0.06977966167406313
31,2,0.0,0.8150092825927583,-0.4228757521768989
31,3,1.0,0.8107805250709893,0.0
31,3,0.75,0.8147449129452145,-0.39643878742251504
31,3,0.5,0.797687259499861,1.3093265571128332
31,3,0.25,0.7868100128369705,2.3970512234018804
31,3,0.0,0.7636512801196225,4.712924495136683
31,4,1.0,0.8107805250709893,0.0
31,4,0.75,0.8177549628969563,-0.6974437825966961
31,4,0.5,0.819061860330336,-0.8281335259346712
31,4,0.25,0.8154755327321263,-0.4695007661136952
31,4,0.0,0.812000676584345,-0.12201515133557495
31,5,1.0,0.8107805250709893,0.0
31,5,0.75,0.8189841023893102,-0.8203577318320887
31,5,0.5,0.8225935791937947,-1.1813054122805422
31,5,0.25,0.8187403662061026,-0.7959841135113277
31,5,0.0,0.8154359482955478,-0.4655423224558475
31,6,1.0,0.8107805250709893,0.0
31,6,0.75,0.8265082790415108,-1.5727753970521507
31,6,0.5,0.8258728582462445,-1.5092333175255157
31,6,0.25,0.8216870095045636,-1.0906484433574337
31,6,0.0,0.814614306379229,-0.38337813082397476
31,7,1.0,0.8107805250709893,0.0
31,7,0.75,0.8180972443440306,-0.7316719273041339
31,7,0.5,0.815502310844292,-0.47217857733027335
31,7,0.25,0.7968395958508954,1.3940929220093934
31,7,0.0,0.7626708920355669,4.810963303542238
31,8,1.0,0.8107805250709893,0.0
31,8,0.75,0.8190207602116277,-0.824023514063843
31,8,0.5,0.8288871053861846,-1.8106580315195298
31,8,0.25,0.8016302013043742,0.9150323766615065
31,8,0.0,0.777308303071873,3.347222199911626
32,0,1.0,0.8758886334953452,0.0
32,0,0.75,0.8687032491066637,0.7185384388681437
32,0,0.5,0.8646045283028262,1.128410519251899
32,0,0.25,0.8592851772679583,1.6603456227386904
32,0,0.0,0.8712831614338327,0.46054720615125166
32,1,1.0,0.8758886334953452,0.0
32,1,0.75,0.8761747440937838,-0.028611059843863806
32,1,0.5,0.8559390837556682,1.9949549739676997
32,1,0.25,0.8558262492392295,2.006238425611573
32,1,0.0,0.8420974453216383,3.3791188173706854
32,2,1.0,0.8758886334953452,0.0
32,2,0.75,0.8602349620815821,1.565367141376306
32,2,0.5,0.8502892707015187,2.5599362793826463
32,2,0.25,0.8451541608022519,3.073447269309326
32,2,0.0,0.8590730071933079,1.6815626302037257
32,3,1.0,0.8758886334953452,0.0
32,3,0.75,0.8650487096244807,1.083992387086452
32,3,0.5,0.8712598019041425,0.46288315912026423
32,3,0.25,0.8694485601342832,0.6440073361062004
32,3,0.0,0.8495073639211782,2.6381269574166977
32,4,1.0,0.8758886334953452,0.0
32,4,0.75,0.8600872188416684,1.5801414653676793
32,4,0.5,0.841774740196753,3.4113893298592157
32,4,0.25,0.8347235676102321,4.116506588511304
32,4,0.0,0.8347235676102321,4.116506588511304
32,5,1.0,0.8758886334953452,0.0
32,5,0.75,0.8618641592022064,1.40244742931388
32,5,0.5,0.8503953329494796,2.5493300545865627
32,5,0.25,0.8309718527359963,4.491678075934891
32,5,0.0,0.8347326009617964,4.115603253354882
32,6,1.0,0.8758886334953452,0.0
32,6,0.75,0.8517710312305231,2.411760226482207
32,6,0.5,0.8525224056342744,2.3366227861070787
32,6,0.25,0.8636377636113226,1.2250869884022575
32,6,0.0,0.8707490468270939,0.5139586668251317
32,7,1.0,0.8758886334953452,0.0
32,7,0.75,0.8585892785458309,1.729935494951429
32,7,0.5,0.8526605952063407,2.322803828900444
32,7,0.25,0.8296686318946018,4.622000160074336
32,7,0.0,0.8338634713322658,4.202516216307939
32,8,1.0,0.8758886334953452,0.0
32,8,0.75,0.8700012494675089,0.5887384027836284
32,8,0.5,0.8748744624061582,0.10141710891869993
32,8,0.25,0.864030612244898,1.1858021250447215
32,8,0.0,0.8579667747665868,1.79218587287584
33,0,1.0,0.8745423131019667,0.0
33,0,0.75,0.8683894451924923,0.6152867909474447
33,0,0.5,0.8559939367397034,1.8548376362263364
33,0,0.25,0.8502300002431753,2.431231285879143
33,0,0.0,0.8439466642155824,3.059564888638433
33,1,1.0,0.8745423131019667,0.0
33,1,0.75,0.8530717982352677,2.147051486669904
33,1,0.5,0.8496212000819096,2.4921113020057173
33,1,0.25,0.8461610231646449,2.8381289937321807
33,1,0.0,0.8306345686705019,4.3907744431464835
33,2,1.0,0.8745423131019667,0.0
33,2,0.75,0.8714908131087246,0.3051499993242168
33,2,0.5,0.8699934965691928,0.4548816532773947
33,2,0.25,0.8779905889640357,-0.34482758620689724
33,2,0.0,0.8420152028993945,3.2527110202572262
33,3,1.0,0.8745423131019667,0.0
33,3,0.75,0.8784327204233617,-0.38904073213950063
33,3,0.5,0.8721183703590117,0.24239427429549876
33,3,0.25,0.8752992222434215,-0.07569091414547646
33,3,0.0,0.8593852698190807,1.515704328288603
33,4,1.0,0.8745423131019667,0.0
33,4,0.75,0.8945689594354405,-2.002664633347373
33,4,0.5,0.8764878308190153,-0.19455177170485394
33,4,0.25,0.8766035292723097,-0.20612161703429388
33,4,0.0,0.8578946827955884,1.664763030637828
33,5,1.0,0.8745423131019667,0.0
33,5,0.75,0.8757766431104202,-0.12343300084535214
33,5,0.5,0.8679272068151118,0.661510628685491
33,5,0.25,0.8694995777027027,0.5042735399264031
33,5,0.0,0.860875946741988,1.3666366359978754
33,6,1.0,0.8745423131019667,0.0
33,6,0.75,0.8823475984997893,-0.7805285397822548
33,6,0.5,0.8831100158510006,-0.8567702749033845
33,6,0.25,0.8477253475657072,2.6816965536259563
33,6,0.0,0.8627080192436594,1.1834293858307365
33,7,1.0,0.8745423131019667,0.0
33,7,0.75,0.8858079913223396,-1.1265678220372832
33,7,0.5,0.8817987761018447,-0.7256462999877922
33,7,0.25,0.8803273798102841,-0.5785066708317355
33,7,0.0,0.866169943465286,0.8372369636680754
33,8,1.0,0.8745423131019667,0.0
33,8,0.75,0.872259714317484,0.2282598784482781
33,8,0.5,0.8799908848312477,-0.5448571729280927
33,8,0.25,0.8785552707205907,-0.4012957618623969
33,8,0.0,0.8904186666477095,-1.5876353545742794
34,0,1.0,0.8920107497689425,0.0
34,0,0.75,0.8753791652911441,1.6631584477798333
34,0,0.5,0.8688959067248541,2.3114843044088396
34,0,0.25,0.8430786403025771,4.89321094663654
34,0,0.0,0.8428771805407572,4.913356922818524
34,1,1.0,0.8920107497689425,0.0
34,1,0.75,0.8925499985555515,-0.053924878660904785
34,1,0.5,0.8921060939042907,-0.009534413534828534
34,1,0.25,0.8863267614909065,0.5683988278035956
34,1,0.0,0.8776447101257336,1.4366039643208817
34,2,1.0,0.8920107497689425,0.0
34,2,0.75,0.8933549535327059,-0.13442037637634296
34,2,0.5,0.8984345953095954,-0.6423845540652895
34,2,0.25,0.9237644528556276,-3.1753703086685126
34,2,0.0,0.9203789359645121,-2.836818619556969
34,3,1.0,0.8920107497689425,0.0
34,3,0.75,0.8920107497689425,0.0
34,3,0.5,0.8973836813880018,-0.5372931619059385
34,3,0.25,0.894911355140745,-0.2900605371802589
34,3,0.0,0.8596804511278195,3.233029864112291
34,4,1.0,0.8920107497689425,0.0
34,4,0.75,0.907764064293915,-1.5753314524972528
34,4,0.5,0.904153830323358,-1.2143080554415597
34,4,0.25,0.8917764132282734,0.023433654066906673
34,4,0.0,0.9054744940065568,-1.3463744237614317
34,5,1.0,0.8920107497689425,0.0
34,5,0.75,0.8961472893757603,-0.4136539606817813
34,5,0.5,0.9021846237461157,-1.0173873977173287
34,5,0.25,0.9068783068783068,-1.4867557109364382
34,5,0.0,0.9056214696839696,-1.3610719915027158
34,6,1.0,0.8920107497689425,0.0
34,6,0.75,0.8926217766260971,-0.061102685715463956
34,6,0.5,0.8990286191734058,-0.7017869404463362
34,6,0.25,0.898671101484937,-0.666035171599455
34,6,0.0,0.8922951565575903,-0.028440678864782853
34,7,1.0,0.8920107497689425,0.0
34,7,0.75,0.8688959067248541,2.3114843044088396
34,7,0.5,0.8541549394877568,3.7855810281185676
34,7,0.25,0.8517716032799749,4.023914648896754
34,7,0.0,0.8530373976818226,3.897335208711983
34,8,1.0,0.8920107497689425,0.0
34,8,0.75,0.8889259811110364,0.30847686579060785
34,8,0.5,0.9007338197172239,-0.8723069948281426
34,8,0.25,0.9046434130365063,-1.2632663267563848
34,8,0.0,0.8930688491170217,-0.10580993480792111
35,0,1.0,0.7175089672881736,0.0
35,0,0.75,0.7192996328024466,-0.17906655142729822
35,0,0.5,0.7083419814499928,0.9166985838180763
35,0,0.25,0.7002686529212412,1.7240314366932408
35,0,0.0,0.7028272729416589,1.4681694346514673
35,1,1.0,0.7175089672881736,0.0
35,1,0.75,0.7245751968018195,-0.7066229513645883
35,1,0.5,0.7184751106309781,-0.09661433428045374
35,1,0.25,0.7139549970171319,0.3553970271041651
35,1,0.0,0.717827722889849,-0.03187556016753801
35,2,1.0,0.7175089672881736,0.0
35,2,0.75,0.7217338462271059,-0.4224878938932308
35,2,0.5,0.7123619010693572,0.5147066218816443
35,2,0.25,0.7137305388316806,0.37784284564930104
35,2,0.0,0.7083003270837576,0.920864020441603
35,3,1.0,0.7175089672881736,0.0
35,3,0.75,0.7176595124550514,-0.01505451668778468
35,3,0.5,0.7189529983869456,-0.1444031098772003
35,3,0.25,0.715542509098796,0.19664581893775734
35,3,0.0,0.7137677224514336,0.37412448367399875
35,4,1.0,0.7175089672881736,0.0
35,4,0.75,0.7274023863127423,-0.989341902456875
35,4,0.5,0.7291398905242923,-1.1630923236118695
35,4,0.25,0.7374256218497464,-1.9916654561572766
35,4,0.0,0.733781571411158,-1.6272604122984369
35,5,1.0,0.7175089672881736,0.0
35,5,0.75,0.71494834629163,0.2560620996543639
35,5,0.5,0.7057711266849053,1.1737840603268324
35,5,0.25,0.7039926185603607,1.3516348727812932
35,5,0.0,0.7021554914200369,1.5353475868136734
35,6,1.0,0.7175089672881736,0.0
35,6,0.75,0.7162489112365462,0.12600560516273784
35,6,0.5,0.7167667678551927,0.07421994329809278
35,6,0.25,0.7263273627313583,-0.8818395443184746
35,6,0.0,0.7241605072122256,-0.6651539924051986
35,7,1.0,0.7175089672881736,0.0
35,7,0.75,0.719838820261023,-0.23298529728493778
35,7,0.5,0.7183973215799401,-0.088835429176648
35,7,0.25,0.705051011887268,1.2457955400905552
35,7,0.0,0.7143979596748683,0.31110076133052944
35,8,1.0,0.7175089672881736,0.0
35,8,0.75,0.7199461859161382,-0.24372186279646435
35,8,0.5,0.717800644774329,-0.029167748615543942
35,8,0.25,0.7085095216674164,0.8999445620757163
35,8,0.0,0.7140224784961627,0.34864887920108556
36,0,1.0,0.8396142864904668,0.0
36,0,0.75,0.8388501090795168,0.07641774109499178
36,0,0.5,0.8429193185598348,-0.33050320693680524
36,0,0.25,0.8310158462940438,0.8598440196422974
36,0,0.0,0.8229102562319319,1.670403025853484
36,1,1.0,0.8396142864904668,0.0
36,1,0.75,0.8388501090795168,0.07641774109499178
36,1,0.5,0.8138934055578545,2.5720880932612267
36,1,0.25,0.7966285142498808,4.298577224058597
36,1,0.0,0.7938882914826011,4.572599500786567
36,2,1.0,0.8396142864904668,0.0
36,2,0.75,0.8333666137325411,0.6247672757925704
36,2,0.5,0.8249848385031592,1.4629447987307587
36,2,0.25,0.8133948459293201,2.6219440561146667
36,2,0.0,0.809414669454956,3.0199617035510773
36,3,1.0,0.8396142864904668,0.0
36,3,0.75,0.8379212027367515,0.1693083753715241
36,3,0.5,0.821500018962116,1.811426752835077
36,3,0.25,0.8179222632914394,2.169202319902741
36,3,0.0,0.7947006114333182,4.4913675057148605
36,4,1.0,0.8396142864904668,0.0
36,4,0.75,0.8318606281894454,0.7753658301021371
36,4,0.5,0.8286597388242992,1.0954547666167547
36,4,0.25,0.8222203313324983,1.7393955157968488
36,4,0.0,0.8352656929381778,0.4348593552289004
36,5,1.0,0.8396142864904668,0.0
36,5,0.75,0.8388501090795168,0.07641774109499178
36,5,0.5,0.837686994509079,0.19272919813877465
36,5,0.25,0.8399414858063656,-0.032719931589886286
36,5,0.0,0.8355479360785681,0.40663504118986227
36,6,1.0,0.8396142864904668,0.0
36,6,0.75,0.8441760135752099,-0.4561727084743117
36,6,0.5,0.8452915451766423,-0.5677258686175524
36,6,0.25,0.8245916082982143,1.5022678192252448
36,6,0.0,0.8154536053252578,2.4160681165208975
36,7,1.0,0.8396142864904668,0.0
36,7,0.75,0.8429772940049829,-0.33630075145161253
36,7,0.5,0.8084116404691641,3.1202646021302627
36,7,0.25,0.7841890837947766,5.542520269569017
36,7,0.0,0.7583672859903731,8.12470005000937
36,8,1.0,0.8396142864904668,0.0
36,8,0.75,0.8312404695128682,0.8373816977598536
36,8,0.5,0.8250762770654716,1.4538009424995169
36,8,0.25,0.8146293034992059,2.498498299126084
36,8,0.0,0.7709279078982765,6.868637859219029
37,0,1.0,0.897292506757478,0.0
37,0,0.75,0.9032687875527732,-0.5976280795295219
37,0,0.5,0.8952740867049325,0.20184200525454887
37,0,0.25,0.8755669367612842,2.1725569996193794
37,0,0.0,0.8704642160384377,2.682829071904025
37,1,1.0,0.897292506757478,0.0
37,1,0.75,0.9023090946545006,-0.501658789702264
37,1,0.5,0.8960972392375834,0.11952675198945162
37,1,0.25,0.8960972392375834,0.11952675198945162
37,1,0.0,0.8946476896768202,0.264481708065778
37,2,1.0,0.897292506757478,0.0
37,2,0.75,0.9008126836931185,-0.3520176935640551
37,2,0.5,0.9027870122519834,-0.5494505494505475
37,2,0.25,0.8904746868961798,0.6817819861298147
37,2,0.0,0.8896544775567208,0.7638029200757179
37,3,1.0,0.897292506757478,0.0
37,3,0.75,0.8908138318152063,0.6478674942271612
37,3,0.5,0.9031031945685492,-0.5810687811071191
37,3,0.25,0.9137317307284273,-1.6439223970949324
37,3,0.0,0.9070143132626313,-0.9721806505153308
37,4,1.0,0.897292506757478,0.0
37,4,0.75,0.9008126836931185,-0.3520176935640551
37,4,0.5,0.9037777592888274,-0.6485252531349461
37,4,0.25,0.8975659038719104,-0.027339711443241654
37,4,0.0,0.8847630462860421,1.2529460471435883
37,5,1.0,0.897292506757478,0.0
37,5,0.75,0.8780336250924485,1.9258881665029426
37,5,0.5,0.8704414537176446,2.6851053039833372
37,5,0.25,0.8698488137751396,2.7443692982338397
37,5,0.0,0.8858939000279442,1.1398606729533745
37,6,1.0,0.897292506757478,0.0
37,6,0.75,0.897292506757478,0.0
37,6,0.5,0.9036017771971832,-0.6309270439705195
37,6,0.25,0.9016801075268818,-0.438760076940381
37,6,0.0,0.896801322599195,0.04911841582829757
37,7,1.0,0.897292506757478,0.0
37,7,0.75,0.893639289814663,0.3653216942814952
37,7,0.5,0.8602231102231103,3.7069396534367693
37,7,0.25,0.8472951020092246,4.999740474825332
37,7,0.0,0.8310988083774221,6.619369838005584
37,8,1.0,0.897292506757478,0.0
37,8,0.75,0.9148260393085202,-1.7533532551042286
37,8,0.5,0.9151947986617,-1.790229190422199
37,8,0.25,0.9012320533872258,-0.39395466297478254
37,8,0.0,0.888021778064189,0.9270728693288932
38,0,1.0,0.9552456881043748,0.0
38,0,0.75,0.9338693313348808,2.137635676949401
38,0,0.5,0.9254096537575562,2.9836034346818585
38,0,0.25,0.9160053506015378,3.9240337502837064
38,0,0.0,0.9160053506015378,3.9240337502837064
38,1,1.0,0.9552456881043748,0.0
38,1,0.75,0.9555202857483104,-0.027459764393555908
38,1,0.5,0.9501241066581176,0.5121581446257184
38,1,0.25,0.9440752013976184,1.1170486706756466
38,1,0.0,0.9444348919091521,1.0810796195222738
38,2,1.0,0.9552456881043748,0.0
38,2,0.75,0.9420894387853547,1.3156249319020152
38,2,0.5,0.9420894387853547,1.3156249319020152
38,2,0.25,0.9313643209513891,2.388136715298572
38,2,0.0,0.9191571880977107,3.608850000666408
38,3,1.0,0.9552456881043748,0.0
38,3,0.75,0.944467703304072,1.0777984800302787
38,3,0.5,0.9257374193744676,2.9508268729907194
38,3,0.25,0.9257374193744676,2.9508268729907194
38,3,0.0,0.9143608687930543,4.088481931132049
38,4,1.0,0.9552456881043748,0.0
38,4,0.75,0.9233490816023163,3.18966065020585
38,4,0.5,0.9287200967258067,2.6525591378568136
38,4,0.25,0.9347593380125727,2.048635009180211
38,4,0.0,0.9404990277036369,1.474666040073791
38,5,1.0,0.9552456881043748,0.0
38,5,0.75,0.9324685770405585,2.27771110638163
38,5,0.5,0.9271096033648394,2.813608473953544
38,5,0.25,0.9177810103567692,3.7464677747605646
38,5,0.0,0.92034646602353,3.489922208084484
38,6,1.0,0.9552456881043748,0.0
38,6,0.75,0.9555202857483104,-0.027459764393555908
38,6,0.5,0.9425430565121891,1.2702631592185765
38,6,0.25,0.9321669535198958,2.3078734584479066
38,6,0.0,0.9375565070711596,1.7689181033215262
38,7,1.0,0.9552456881043748,0.0
38,7,0.75,0.9606547561114465,-0.5409068007071638
38,7,0.5,0.9525462705519806,0.2699417552394223
38,7,0.25,0.940880934862325,1.4364753242049777
38,7,0.0,0.940880934862325,1.4364753242049777
38,8,1.0,0.9552456881043748,0.0
38,8,0.75,0.9469596593418498,0.8286028762525044
38,8,0.5,0.9410122467696515,1.4233441334723373
38,8,0.25,0.9410122467696515,1.4233441334723373
38,8,0.0,0.9367958284489064,1.8449859655468415
39,0,1.0,0.8933769129021537,0.0
39,0,0.75,0.8913562002540769,0.20207126480767945
39,0,0.5,0.8671553664278138,2.622154647433994
39,0,0.25,0.8547697652054993,3.860714769665441
39,0,0.0,0.8558536328073403,3.7523280094813427
39,1,1.0,0.8933769129021537,0.0
39,1,0.75,0.8927654236334347,0.06114892687190121
39,1,0.5,0.8854065829489608,0.7970329953192912
39,1,0.25,0.8745477977988462,1.8829115103307537
39,1,0.0,0.8511284657390814,4.22484471630723
39,2,1.0,0.8933769129021537,0.0
39,2,0.75,0.8927916697067761,0.05852431953775605
39,2,0.5,0.885883639686885,0.7493273215268714
39,2,0.25,0.8772930236366221,1.6083889265531615
39,2,0.0,0.8668133782438595,2.6563534658294197
39,3,1.0,0.8933769129021537,0.0
39,3,0.75,0.8958080954269807,-0.24311825248269914
39,3,0.5,0.8892738278106942,0.4103085091459513
39,3,0.25,0.8500927368704114,4.328417603174229
39,3,0.0,0.8236720377540985,6.970487514805523
39,4,1.0,0.8933769129021537,0.0
39,4,0.75,0.8972465409207673,-0.3869628018613569
39,4,0.5,0.8576771371462585,3.5699775755895224
39,4,0.25,0.830890573110754,6.2486339791399725
39,4,0.0,0.8318954977491562,6.148141515299754
39,5,1.0,0.8933769129021537,0.0
39,5,0.75,0.8939239622850801,-0.054704938292637895
39,5,0.5,0.890969324238585,0.2407588663568716
39,5,0.25,0.874871219444828,1.8505693457325667
39,5,0.0,0.8664935841664664,2.688332873568733
39,6,1.0,0.8933769129021537,0.0
39,6,0.75,0.8688880722730639,2.4488840629089847
39,6,0.5,0.8327578478255613,6.061906507659243
39,6,0.25,0.8253318332710131,6.804507963114059
39,6,0.0,0.8696474851065756,2.3729427795578073
39,7,1.0,0.8933769129021537,0.0
39,7,0.75,0.8763905416367386,1.6986371265415134
39,7,0.5,0.868746166445961,2.4630746456192676
39,7,0.25,0.8566903785465959,3.66865343555578
39,7,0.0,0.8418347693996932,5.154214350246056
39,8,1.0,0.8933769129021537,0.0
39,8,0.75,0.8943751968286642,-0.09982839265104682
39,8,0.5,0.9122722182632597,-1.8895305361105952
39,8,0.25,0.9102015631427397,-1.6824650240585992
39,8,0.0,0.8963281579649867,-0.29512450628329523
40,0,1.0,0.8986449580400002,0.0
40,0,0.75,0.8988055349755321,-0.016057693553184205
40,0,0.5,0.8940541093770282,0.45908486629719913
40,0,0.25,0.8895770737647417,0.9067884275258509
40,0,0.0,0.888979855913678,0.9665102126322211
40,1,1.0,0.8986449580400002,0.0
40,1,0.75,0.9038656267104543,-0.522066867045412
40,1,0.5,0.8987309255425198,-0.00859675025195461
40,1,0.25,0.8784792839817619,2.0165674058238325
40,1,0.0,0.857703622472869,4.094133556713119
40,2,1.0,0.8986449580400002,0.0
40,2,0.75,0.9151449418713695,-1.6499983831369303
40,2,0.5,0.9030624256221866,-0.44174675821864184
40,2,0.25,0.891163062885147,0.7481895154853202
40,2,0.0,0.8784502438373475,2.019471420265273
40,3,1.0,0.8986449580400002,0.0
40,3,0.75,0.8863234117308727,1.2321546309127518
40,3,0.5,0.8744283068113596,2.4216651228640584
40,3,0.25,0.8744283068113596,2.4216651228640584
40,3,0.0,0.8908307674325306,0.7814190607469573
40,4,1.0,0.8986449580400002,0.0
40,4,0.75,0.9222587253687854,-2.3613767328785173
40,4,0.5,0.9164555814818176,-1.7810623441817386
40,4,0.25,0.8964270094988187,0.22179485411815136
40,4,0.0,0.9035104259004707,-0.4865467860470485
40,5,1.0,0.8986449580400002,0.0
40,5,0.75,0.905506269986058,-0.6861311946057769
40,5,0.5,0.9120829813548501,-1.343802331484989
40,5,0.25,0.9138176071676192,-1.5172649127618953
40,5,0.0,0.9138176071676192,-1.5172649127618953
40,6,1.0,0.8986449580400002,0.0
40,6,0.75,0.9133682929645358,-1.4723334924535592
40,6,0.5,0.8999671530412447,-0.13221950012445305
40,6,0.25,0.8965034713219833,0.21414867180169495
40,6,0.0,0.8935011064035465,0.51438516364537
40,7,1.0,0.8986449580400002,0.0
40,7,0.75,0.9013769697382568,-0.27320116982565423
40,7,0.5,0.8834756734848019,1.5169284555198281
40,7,0.25,0.8889784776382808,0.9666480401719468
40,7,0.0,0.8940420922440643,0.460286579593594
40,8,1.0,0.8986449580400002,0.0
40,8,0.75,0.8936249414380627,0.5020016601937516
40,8,0.5,0.8843767104542967,1.4268247585703553
40,8,0.25,0.896372040050201,0.2272917989799228
40,8,0.0,0.90685522438396,-0.8210266343959827
