subject,channel,f1_full,f1_occluded,drop_pp
1,0,0.7592757816757141,0.75390799233536,0.536778934035409
1,1,0.7592757816757141,0.7591230246160188,0.015275705969530762
1,2,0.7592757816757141,0.7528526880920499,0.6423093583664219
1,3,0.7592757816757141,0.7081624513983387,5.111333027737541
1,4,0.7592757816757141,0.7591983228525416,0.007745882317244934
1,5,0.7592757816757141,0.7056605747602266,5.361520691548749
1,6,0.7592757816757141,0.7499133319019118,0.9362449773802295
1,7,0.7592757816757141,0.6994509642728317,5.982481740288237
1,8,0.7592757816757141,0.7370471535365153,2.222862813919879
2,0,0.8563215188675773,0.8467134104182297,0.9608108449347674
2,1,0.8563215188675773,0.8009923914562966,5.5329127411280705
2,2,0.8563215188675773,0.8307021178637201,2.561940100385729
2,3,0.8563215188675773,0.8538820336327261,0.24394852348512686
2,4,0.8563215188675773,0.8636425082853655,-0.7320989417788137
2,5,0.8563215188675773,0.8503791986794196,0.5942320188157768
2,6,0.8563215188675773,0.8152068749143486,4.111464395322873
2,7,0.8563215188675773,0.8128216374269006,4.349988144067673
2,8,0.8563215188675773,0.8465750529205219,0.9746465947055416
3,0,0.872139209538161,0.9088232107722363,-3.6684001234075225
3,1,0.872139209538161,0.8752756146732338,-0.31364051350727395
3,2,0.872139209538161,0.8254002779835075,4.673893155465358
3,3,0.872139209538161,0.8222213015136449,4.991790802451613
3,4,0.872139209538161,0.865093999723127,0.7045209815034092
3,5,0.872139209538161,0.8694922383779214,0.26469711602395973
3,6,0.872139209538161,0.8833606933393992,-1.1221483801238108
3,7,0.872139209538161,0.838151820159801,3.398738937835999
3,8,0.872139209538161,0.8776725709806672,-0.5533361442506157
4,0,0.9412719119333026,0.9244574897454954,1.6814422187807265
4,1,0.9412719119333026,0.9069744171584324,3.4297494774870207
4,2,0.9412719119333026,0.9194568098217177,2.1815102111584883
4,3,0.9412719119333026,0.9141336156441506,2.7138296289151986
4,4,0.9412719119333026,0.9432371638436462,-0.19652519103435795
4,5,0.9412719119333026,0.9327040205053706,0.8567891427932017
4,6,0.9412719119333026,0.9114363778298205,2.9835534103482164
4,7,0.9412719119333026,0.942180959884567,-0.09090479512643412
4,8,0.9412719119333026,0.928745832364287,1.2526079569015636
5,0,0.65498329963682,0.6232200909560905,3.176320868072946
5,1,0.65498329963682,0.6707946803919755,-1.5811380755155535
5,2,0.65498329963682,0.6596610566536527,-0.46777570168327065
5,3,0.65498329963682,0.6851926722571942,-3.0209372620374153
5,4,0.65498329963682,0.6329162123689941,2.2067087267825913
5,5,0.65498329963682,0.6270329301949225,2.795036944189755
5,6,0.65498329963682,0.6437015041076982,1.1281795529121785
5,7,0.65498329963682,0.6442160223044618,1.076727733235816
5,8,0.65498329963682,0.6333794114778303,2.1603888158989726
6,0,0.8467641063905338,0.7982171859122333,4.854692047830045
6,1,0.8467641063905338,0.8507171577901709,-0.39530513996370864
6,2,0.8467641063905338,0.8623946946349688,-1.5630588244434973
6,3,0.8467641063905338,0.8547222589313247,-0.7958152540790908
6,4,0.8467641063905338,0.8076819136280147,3.908219276251912
6,5,0.8467641063905338,0.8338480616700885,1.2916044720445274
6,6,0.8467641063905338,0.8449539869972017,0.1810119393332088
6,7,0.8467641063905338,0.7758960454658665,7.086806092466724
6,8,0.8467641063905338,0.8135937477026304,3.317035868790341
7,0,0.8457717935659113,0.8212143549514213,2.455743861449
7,1,0.8457717935659113,0.8547157605498433,-0.8943966983932072
7,2,0.8457717935659113,0.801021707329399,4.475008623651222
7,3,0.8457717935659113,0.8455042514025246,0.026754216338664705
7,4,0.8457717935659113,0.7875359963970956,5.823579716881566
7,5,0.8457717935659113,0.8591384127201092,-1.33666191541979
7,6,0.8457717935659113,0.8249790439445612,2.0792749621350026
7,7,0.8457717935659113,0.7919298176653295,5.384197590058171
7,8,0.8457717935659113,0.8316535894660895,1.4118204099821785
8,0,0.894781534176986,0.8865933565714914,0.8188177605494618
8,1,0.894781534176986,0.8986052113252818,-0.382367714829579
8,2,0.894781534176986,0.9197736816970298,-2.499214752004375
8,3,0.894781534176986,0.8896643488227647,0.5117185354221343
8,4,0.894781534176986,0.8170391009522209,7.774243322476515
8,5,0.894781534176986,0.8712421109979057,2.353942317908031
8,6,0.894781534176986,0.8861329749371482,0.8648559239837872
8,7,0.894781534176986,0.8646297098971285,3.015182427985752
8,8,0.894781534176986,0.895592719656265,-0.08111854792789419
9,0,0.8634226926081002,0.8364869434040783,2.6935749204021975
9,1,0.8634226926081002,0.8387621219795705,2.4660570628529777
9,2,0.8634226926081002,0.838733746626904,2.4688945981196198
9,3,0.8634226926081002,0.8658614093039265,-0.2438716695826293
9,4,0.8634226926081002,0.8630403039158718,0.0382388692228397
9,5,0.8634226926081002,0.8659922928709056,-0.2569600262805394
9,6,0.8634226926081002,0.8497733963013797,1.3649296306720515
9,7,0.8634226926081002,0.8101510470224002,5.327164558570008
9,8,0.8634226926081002,0.8600750220653134,0.33476705427868403
10,0,0.8037375734853297,0.834966634165259,-3.1229060679929255
10,1,0.8037375734853297,0.7691626347259459,3.4574938759383778
10,2,0.8037375734853297,0.7754017948767046,2.833577860862513
10,3,0.8037375734853297,0.7811470991053997,2.2590474379930003
10,4,0.8037375734853297,0.7646180354286893,3.911953805664037
10,5,0.8037375734853297,0.7544068152251457,4.933075826018396
10,6,0.8037375734853297,0.7979895138111621,0.5748059674167583
10,7,0.8037375734853297,0.72946568518256,7.427188830276965
10,8,0.8037375734853297,0.7971300845632855,0.6607488922044213
11,0,0.9641436466138903,0.951264330539435,1.287931607445525
11,1,0.9641436466138903,0.9546310214238891,0.9512625190001178
11,2,0.9641436466138903,0.9545259012610443,0.9617745352845986
11,3,0.9641436466138903,0.9140924096089773,5.005123700491298
11,4,0.9641436466138903,0.9713607045128785,-0.7217057898988188
11,5,0.9641436466138903,0.9683156919511531,-0.41720453372627864
11,6,0.9641436466138903,0.9658124888847043,-0.1668842270813986
11,7,0.9641436466138903,0.9781615957390458,-1.4017949125155527
11,8,0.9641436466138903,0.9512788196545003,1.2864826959389952
12,0,0.9113362062047603,0.8702239387281996,4.1112267476560715
12,1,0.9113362062047603,0.8861977770162284,2.513842918853193
12,2,0.9113362062047603,0.9165788968250211,-0.5242690620260837
12,3,0.9113362062047603,0.8881524403656409,2.318376583911941
12,4,0.9113362062047603,0.9085455991553053,0.2790607049454996
12,5,0.9113362062047603,0.9086534974050553,0.26827087997050025
12,6,0.9113362062047603,0.9111251201177397,0.02110860870205844
12,7,0.9113362062047603,0.9308394022420655,-1.9503196037305215
12,8,0.9113362062047603,0.8992254189668767,1.2110787237883613
13,0,0.9386537778246828,0.9187301086298956,1.9923669194787275
13,1,0.9386537778246828,0.9172579424808249,2.1395835343857916
13,2,0.9386537778246828,0.8619615374959202,7.669224032876265
13,3,0.9386537778246828,0.8782962981672249,6.035747965745797
13,4,0.9386537778246828,0.9274738736232381,1.1179904201444768
13,5,0.9386537778246828,0.9297597868648022,0.8893990959880638
13,6,0.9386537778246828,0.9252317051772587,1.3422072647424121
13,7,0.9386537778246828,0.9272066086498996,1.1447169174783278
13,8,0.9386537778246828,0.9134819839365962,2.5171793888086658
14,0,0.8477911735497763,0.8421714570768402,0.5619716472936132
14,1,0.8477911735497763,0.8471920371201915,0.05991364295847568
14,2,0.8477911735497763,0.8600732087507372,-1.228203520096094
14,3,0.8477911735497763,0.7808229474821536,6.6968226067622645
14,4,0.8477911735497763,0.8387749607174069,0.9016212832369419
14,5,0.8477911735497763,0.8586995733389036,-1.0908399789127277
14,6,0.8477911735497763,0.8231823653122388,2.4608808237537527
14,7,0.8477911735497763,0.7965000267827907,5.1291146766985545
14,8,0.8477911735497763,0.8209071326353845,2.6884040914391782
15,0,0.8854702400483891,0.8502545540645309,3.521568598385827
15,1,0.8854702400483891,0.8680468834629633,1.742335658542582
15,2,0.8854702400483891,0.8222973968907267,6.317284315766248
15,3,0.8854702400483891,0.8603169508871831,2.515328916120607
15,4,0.8854702400483891,0.9010846789103907,-1.5614438862001534
15,5,0.8854702400483891,0.8625107565701624,2.295948347822674
15,6,0.8854702400483891,0.905195634052308,-1.9725394003918817
15,7,0.8854702400483891,0.8450992626300087,4.037097741838047
15,8,0.8854702400483891,0.9069214146913784,-2.145117464298929
16,0,0.9021597709324569,0.9129823481116585,-1.0822577179201542
16,1,0.9021597709324569,0.9071793078312251,-0.5019536898768218
16,2,0.9021597709324569,0.9130853510284263,-1.0925580095969334
16,3,0.9021597709324569,0.9092379316419791,-0.7078160709522163
16,4,0.9021597709324569,0.894359540914155,0.7800230018301879
16,5,0.9021597709324569,0.8765406341174301,2.561913681502681
16,6,0.9021597709324569,0.9130433479257889,-1.0883576993331978
16,7,0.9021597709324569,0.878854178505386,2.3305592427070865
16,8,0.9021597709324569,0.9020830011059121,0.007676982654480913
17,0,0.8365665880578161,0.8456396076560075,-0.9073019598191401
17,1,0.8365665880578161,0.8477790019153357,-1.1212413857519588
17,2,0.8365665880578161,0.8334351593638061,0.31314286940100633
17,3,0.8365665880578161,0.7991175454976306,3.7449042560185553
17,4,0.8365665880578161,0.8119359503959449,2.4630637661871235
17,5,0.8365665880578161,0.7835230253680875,5.304356268972866
17,6,0.8365665880578161,0.8096670837801658,2.689950427765031
17,7,0.8365665880578161,0.8448291748273556,-0.8262586769539504
17,8,0.8365665880578161,0.8077484661453622,2.881812191245392
18,0,0.9468103352478784,0.919696154615125,2.7114180632753393
18,1,0.9468103352478784,0.9399301428699312,0.6880192377947236
18,2,0.9468103352478784,0.9155532212885154,3.1257113959363036
18,3,0.9468103352478784,0.8265967213156822,12.021361393219621
18,4,0.9468103352478784,0.8989153807194276,4.789495452845083
18,5,0.9468103352478784,0.917314551048286,2.9495784199592423
18,6,0.9468103352478784,0.9149860554983564,3.1824279749521955
18,7,0.9468103352478784,0.914692326856004,3.2118008391874397
18,8,0.9468103352478784,0.8967905514700509,5.001978377782745
19,0,0.9169546936114733,0.8994432344456041,1.7511459165869159
19,1,0.9169546936114733,0.9133239615175274,0.3630732093945932
19,2,0.9169546936114733,0.9255592903828198,-0.8604596771346507
19,3,0.9169546936114733,0.8397411722442194,7.72135213672539
19,4,0.9169546936114733,0.8958275984861063,2.1127095125367035
19,5,0.9169546936114733,0.9223040224246728,-0.5349328813199494
19,6,0.9169546936114733,0.9157504861763249,0.12042074351483745
19,7,0.9169546936114733,0.876745720472603,4.020897313887028
19,8,0.9169546936114733,0.9032925281661378,1.3662165445335495
20,0,0.909077089344933,0.8840911435788419,2.4985945766091144
20,1,0.909077089344933,0.8746575903901754,3.44194989547576
20,2,0.909077089344933,0.8449964246451034,6.408066469982964
20,3,0.909077089344933,0.8579091126375049,5.116797670742812
20,4,0.909077089344933,0.8958994123173687,1.3177677027564338
20,5,0.909077089344933,0.8923963933479815,1.6680695996951544
20,6,0.909077089344933,0.9002577116217999,0.8819377723133126
20,7,0.909077089344933,0.8742673250076003,3.480976433733274
20,8,0.909077089344933,0.845014701211297,6.406238813363608
21,0,0.871215092097445,0.7955950299700298,7.562006212741512
21,1,0.871215092097445,0.859011355837025,1.2203736260419928
21,2,0.871215092097445,0.8734632228238575,-0.22481307264125006
21,3,0.871215092097445,0.8290576413756705,4.215745072177446
21,4,0.871215092097445,0.8468806569076449,2.433443518980005
21,5,0.871215092097445,0.8554522993492758,1.5762792748169163
21,6,0.871215092097445,0.8488090410927164,2.240605100472859
21,7,0.871215092097445,0.7865875154961445,8.462757660130048
21,8,0.871215092097445,0.8130405980377411,5.817449405970388
22,0,0.863173892745504,0.8151725516437416,4.800134110176247
22,1,0.863173892745504,0.8919552476093301,-2.8781354863826047
22,2,0.863173892745504,0.8427017137999173,2.0472178945586728
22,3,0.863173892745504,0.845028990617226,1.8144902128278018
22,4,0.863173892745504,0.8360752107671781,2.709868197832599
22,5,0.863173892745504,0.8640240176570794,-0.08501249115753229
22,6,0.863173892745504,0.8463250806651774,1.6848812080326625
22,7,0.863173892745504,0.8228511151544701,4.032277759103398
22,8,0.863173892745504,0.8595403620669979,0.3633530678506136
23,0,0.8288487590980149,0.8073731185597175,2.1475640538297425
23,1,0.8288487590980149,0.814375047766029,1.447371133198594
23,2,0.8288487590980149,0.807349266699113,2.149949239890192
23,3,0.8288487590980149,0.8247238590174804,0.4124900080534566
23,4,0.8288487590980149,0.7970328276781048,3.1815931419910126
23,5,0.8288487590980149,0.8101056449897964,1.8743114108218495
23,6,0.8288487590980149,0.8151693671156229,1.3679391982391986
23,7,0.8288487590980149,0.8049730961965005,2.387566290151444
23,8,0.8288487590980149,0.8018904602339378,2.695829886407708
24,0,0.8239637416108005,0.7851086997714203,3.8855041839380267
24,1,0.8239637416108005,0.8066974564743452,1.726628513645534
24,2,0.8239637416108005,0.8299082894379499,-0.5944547827149371
24,3,0.8239637416108005,0.8330785889487436,-0.9114847337943099
24,4,0.8239637416108005,0.7880268016297428,3.5936939981057736
24,5,0.8239637416108005,0.7799180436677111,4.4045697943089435
24,6,0.8239637416108005,0.8345782352486836,-1.0614493637883027
24,7,0.8239637416108005,0.7921372786402697,3.182646297053082
24,8,0.8239637416108005,0.7466961151564766,7.7267626454323945
25,0,0.9495686680469289,0.959014914957538,-0.9446246910609135
25,1,0.9495686680469289,0.9177701857986674,3.179848224826143
25,2,0.9495686680469289,0.9498017551892874,-0.023308714235859007
25,3,0.9495686680469289,0.9295875999980688,1.9981068048860018
25,4,0.9495686680469289,0.9326541021702313,1.6914565876697596
25,5,0.9495686680469289,0.9398393821229649,0.9729285923963937
25,6,0.9495686680469289,0.9480075618688752,0.15611061780536062
25,7,0.9495686680469289,0.9188607606058381,3.0707907441090754
25,8,0.9495686680469289,0.9292908063426414,2.027786170428747
26,0,0.7769014305296618,0.7566330116796343,2.0268418850027503
26,1,0.7769014305296618,0.7900306930378007,-1.312926250813895
26,2,0.7769014305296618,0.7601116415491066,1.6789788980555165
26,3,0.7769014305296618,0.8048622504785343,-2.796081994887256
26,4,0.7769014305296618,0.7420041229166024,3.4897307613059314
26,5,0.7769014305296618,0.7844172451589332,-0.7515814629271422
26,6,0.7769014305296618,0.7978373189126235,-2.0935888382961787
26,7,0.7769014305296618,0.7315785502256587,4.532288030400311
26,8,0.7769014305296618,0.75857965337132,1.8321777158341712
27,0,0.8843098529734474,0.8825710855476742,0.173876742577328
27,1,0.8843098529734474,0.9097714736012609,-2.546162062781343
27,2,0.8843098529734474,0.8680019540791403,1.6307898894307171
27,3,0.8843098529734474,0.867297903493242,1.7011949480205457
27,4,0.8843098529734474,0.8909873214312196,-0.6677468457772173
27,5,0.8843098529734474,0.8753469571164981,0.8962895856949316
27,6,0.8843098529734474,0.8898601398601398,-0.5550286886692346
27,7,0.8843098529734474,0.8935969603152266,-0.9287107341779177
27,8,0.8843098529734474,0.8687415569064505,1.5568296066996945
28,0,0.820794267994835,0.8376403461575828,-1.6846078162747746
28,1,0.820794267994835,0.8746569554427209,-5.386268744788591
28,2,0.820794267994835,0.8204936877195432,0.03005802752917841
28,3,0.820794267994835,0.8168365115011151,0.3957756493719877
28,4,0.820794267994835,0.8295081376272216,-0.8713869632386628
28,5,0.820794267994835,0.7558343893455127,6.4959878649322285
28,6,0.820794267994835,0.8014225203128819,1.9371747681953155
28,7,0.820794267994835,0.8348051774053498,-1.401090941051475
28,8,0.820794267994835,0.8574906116979675,-3.669634370313246
29,0,0.837425931911226,0.8163469239353587,2.107900797586737
29,1,0.837425931911226,0.84126675937812,-0.3840827466893959
29,2,0.837425931911226,0.7838200612173215,5.360587069390455
29,3,0.837425931911226,0.7988452896949422,3.858064221628388
29,4,0.837425931911226,0.8080073189084818,2.9418613002744287
29,5,0.837425931911226,0.7711925357300963,6.623339618112977
29,6,0.837425931911226,0.8477184915541081,-1.0292559642882004
29,7,0.837425931911226,0.8226588444554478,1.476708745577826
29,8,0.837425931911226,0.745988215848554,9.143771606267205
30,0,0.893383816804959,0.9021649333636821,-0.8781116558723046
30,1,0.893383816804959,0.8647918984056359,2.859191839932318
30,2,0.893383816804959,0.8972652897520398,-0.3881472947080744
30,3,0.893383816804959,0.8877653042917301,0.5618512513228979
30,4,0.893383816804959,0.8586553151750482,3.4728501629910813
30,5,0.893383816804959,0.8703241781335087,2.3059638671450333
30,6,0.893383816804959,0.9112391431758007,-1.785532637084164
30,7,0.893383816804959,0.8675294702754657,2.5854346529493366
30,8,0.893383816804959,0.8984056288963748,-0.5021812091415723
31,0,0.8107805250709893,0.823898180852849,-1.311765578185975
31,1,0.8107805250709893,0.8107846014625675,-0.00040763915781782956
31,2,0.8107805250709893,0.8150092825927583,-0.4228757521768989
31,3,0.8107805250709893,0.7636512801196225,4.712924495136683
31,4,0.8107805250709893,0.812000676584345,-0.12201515133557495
31,5,0.8107805250709893,0.8154359482955478,-0.4655423224558475
31,6,0.8107805250709893,0.814614306379229,-0.38337813082397476
31,7,0.8107805250709893,0.7626708920355669,4.810963303542238
31,8,0.8107805250709893,0.777308303071873,3.347222199911626
32,0,0.8758886334953452,0.8712831614338327,0.46054720615125166
32,1,0.8758886334953452,0.8420974453216383,3.3791188173706854
32,2,0.8758886334953452,0.8590730071933079,1.6815626302037257
32,3,0.8758886334953452,0.8495073639211782,2.6381269574166977
32,4,0.8758886334953452,0.8347235676102321,4.116506588511304
32,5,0.8758886334953452,0.8347326009617964,4.115603253354882
32,6,0.8758886334953452,0.8707490468270939,0.5139586668251317
32,7,0.8758886334953452,0.8338634713322658,4.202516216307939
32,8,0.8758886334953452,0.8579667747665868,1.79218587287584
33,0,0.8745423131019667,0.8439466642155824,3.059564888638433
33,1,0.8745423131019667,0.8306345686705019,4.3907744431464835
33,2,0.8745423131019667,0.8420152028993945,3.2527110202572262
33,3,0.8745423131019667,0.8593852698190807,1.515704328288603
33,4,0.8745423131019667,0.8578946827955884,1.664763030637828
33,5,0.8745423131019667,0.860875946741988,1.3666366359978754
33,6,0.8745423131019667,0.8627080192436594,1.1834293858307365
33,7,0.8745423131019667,0.866169943465286,0.8372369636680754
33,8,0.8745423131019667,0.8904186666477095,-1.5876353545742794
34,0,0.8920107497689425,0.8428771805407572,4.913356922818524
34,1,0.8920107497689425,0.8776447101257336,1.4366039643208817
34,2,0.8920107497689425,0.9203789359645121,-2.836818619556969
34,3,0.8920107497689425,0.8596804511278195,3.233029864112291
34,4,0.8920107497689425,0.9054744940065568,-1.3463744237614317
34,5,0.8920107497689425,0.9056214696839696,-1.3610719915027158
34,6,0.8920107497689425,0.8922951565575903,-0.028440678864782853
34,7,0.8920107497689425,0.8530373976818226,3.897335208711983
34,8,0.8920107497689425,0.8930688491170217,-0.10580993480792111
35,0,0.7175089672881736,0.7028272729416589,1.4681694346514673
35,1,0.7175089672881736,0.717827722889849,-0.03187556016753801
35,2,0.7175089672881736,0.7083003270837576,0.920864020441603
35,3,0.7175089672881736,0.7137677224514336,0.37412448367399875
35,4,0.7175089672881736,0.733781571411158,-1.6272604122984369
35,5,0.7175089672881736,0.7021554914200369,1.5353475868136734
35,6,0.7175089672881736,0.7241605072122256,-0.6651539924051986
35,7,0.7175089672881736,0.7143979596748683,0.31110076133052944
35,8,0.7175089672881736,0.7140224784961627,0.34864887920108556
36,0,0.8396142864904668,0.8229102562319319,1.670403025853484
36,1,0.8396142864904668,0.7938882914826011,4.572599500786567
36,2,0.8396142864904668,0.809414669454956,3.0199617035510773
36,3,0.8396142864904668,0.7947006114333182,4.4913675057148605
36,4,0.8396142864904668,0.8352656929381778,0.4348593552289004
36,5,0.8396142864904668,0.8355479360785681,0.40663504118986227
36,6,0.8396142864904668,0.8154536053252578,2.4160681165208975
36,7,0.8396142864904668,0.7583672859903731,8.12470005000937
36,8,0.8396142864904668,0.7709279078982765,6.868637859219029
37,0,0.897292506757478,0.8704642160384377,2.682829071904025
37,1,0.897292506757478,0.8946476896768202,0.264481708065778
37,2,0.897292506757478,0.8896544775567208,0.7638029200757179
37,3,0.897292506757478,0.9070143132626313,-0.9721806505153308
37,4,0.897292506757478,0.8847630462860421,1.2529460471435883
37,5,0.897292506757478,0.8858939000279442,1.1398606729533745
37,6,0.897292506757478,0.896801322599195,0.04911841582829757
37,7,0.897292506757478,0.8310988083774221,6.619369838005584
37,8,0.897292506757478,0.888021778064189,0.9270728693288932
38,0,0.9552456881043748,0.9160053506015378,3.9240337502837064
38,1,0.9552456881043748,0.9444348919091521,1.0810796195222738
38,2,0.9552456881043748,0.9191571880977107,3.608850000666408
38,3,0.9552456881043748,0.9143608687930543,4.088481931132049
38,4,0.9552456881043748,0.9404990277036369,1.474666040073791
38,5,0.9552456881043748,0.92034646602353,3.489922208084484
38,6,0.9552456881043748,0.9375565070711596,1.7689181033215262
38,7,0.9552456881043748,0.940880934862325,1.4364753242049777
38,8,0.9552456881043748,0.9367958284489064,1.8449859655468415
39,0,0.8933769129021537,0.8558536328073403,3.7523280094813427
39,1,0.8933769129021537,0.8511284657390814,4.22484471630723
39,2,0.8933769129021537,0.8668133782438595,2.6563534658294197
39,3,0.8933769129021537,0.8236720377540985,6.970487514805523
39,4,0.8933769129021537,0.8318954977491562,6.148141515299754
39,5,0.8933769129021537,0.8664935841664664,2.688332873568733
39,6,0.8933769129021537,0.8696474851065756,2.3729427795578073
39,7,0.8933769129021537,0.8418347693996932,5.154214350246056
39,8,0.8933769129021537,0.8963281579649867,-0.29512450628329523
40,0,0.8986449580400002,0.888979855913678,0.9665102126322211
40,1,0.8986449580400002,0.857703622472869,4.094133556713119
40,2,0.8986449580400002,0.8784502438373475,2.019471420265273
40,3,0.8986449580400002,0.8908307674325306,0.7814190607469573
40,4,0.8986449580400002,0.9035104259004707,-0.4865467860470485
40,5,0.8986449580400002,0.9138176071676192,-1.5172649127618953
40,6,0.8986449580400002,0.8935011064035465,0.51438516364537
40,7,0.8986449580400002,0.8940420922440643,0.460286579593594
40,8,0.8986449580400002,0.90685522438396,-0.8210266343959827
