subject,block,block_width,feature_channel,gate_mean,gate_sd
1,0,32,0,0.44945618510246277,0.061157822608947754
1,0,32,1,0.6021243333816528,0.15226423740386963
1,0,32,2,0.5880102515220642,0.12067890912294388
1,0,32,3,0.47504517436027527,0.09357911348342896
1,0,32,4,0.3903065621852875,0.11800282448530197
1,0,32,5,0.5265036821365356,0.178013414144516
1,0,32,6,0.4753756523132324,0.19776324927806854
1,0,32,7,0.49538272619247437,0.13567207753658295
1,0,32,8,0.4164746403694153,0.03640243783593178
1,0,32,9,0.508384644985199,0.14923816919326782
1,0,32,10,0.4066287875175476,0.09612695127725601
1,0,32,11,0.42995402216911316,0.03015049546957016
1,0,32,12,0.6713890433311462,0.12308046221733093
1,0,32,13,0.5381494760513306,0.07833492010831833
1,0,32,14,0.36553508043289185,0.15726326406002045
1,0,32,15,0.5719799995422363,0.10303357243537903
1,0,32,16,0.42310449481010437,0.15159471333026886
1,0,32,17,0.5075714588165283,0.09764737635850906
1,0,32,18,0.4553202986717224,0.15193025767803192
1,0,32,19,0.4973563551902771,0.04265788570046425
1,0,32,20,0.39946332573890686,0.09053979814052582
1,0,32,21,0.49506598711013794,0.05016273632645607
1,0,32,22,0.4468250572681427,0.10407264530658722
1,0,32,23,0.44746309518814087,0.07818193733692169
1,0,32,24,0.5236614942550659,0.131846621632576
1,0,32,25,0.4144682288169861,0.09175886958837509
1,0,32,26,0.4894065260887146,0.11356347799301147
1,0,32,27,0.46868348121643066,0.11453159898519516
1,0,32,28,0.3756615221500397,0.0793469026684761
1,0,32,29,0.5266739130020142,0.13495181500911713
1,0,32,30,0.5684841275215149,0.09515567868947983
1,0,32,31,0.4744904339313507,0.08481667935848236
1,1,32,0,0.5498279333114624,0.06436137109994888
1,1,32,1,0.6382315754890442,0.04990318790078163
1,1,32,2,0.3730480968952179,0.04731469228863716
1,1,32,3,0.5200856328010559,0.009907251223921776
1,1,32,4,0.6358161568641663,0.051355499774217606
1,1,32,5,0.5013525485992432,0.04158728942275047
1,1,32,6,0.4427728056907654,0.07040282338857651
1,1,32,7,0.38358739018440247,0.06946324557065964
1,1,32,8,0.4807030260562897,0.05700836703181267
1,1,32,9,0.3619137704372406,0.06496623158454895
1,1,32,10,0.3886392116546631,0.03462196886539459
1,1,32,11,0.5427201390266418,0.060497988015413284
1,1,32,12,0.4650202989578247,0.05584324523806572
1,1,32,13,0.5223410725593567,0.06113011762499809
1,1,32,14,0.44408681988716125,0.055615197867155075
1,1,32,15,0.6184835433959961,0.0281999371945858
1,1,32,16,0.49254992604255676,0.09441495686769485
1,1,32,17,0.5782629251480103,0.035332076251506805
1,1,32,18,0.4933648705482483,0.05355396121740341
1,1,32,19,0.4825454354286194,0.0506613627076149
1,1,32,20,0.4027223289012909,0.03667667135596275
1,1,32,21,0.30232298374176025,0.09644673019647598
1,1,32,22,0.3941575884819031,0.10040149837732315
1,1,32,23,0.5069646239280701,0.04144506901502609
1,1,32,24,0.4758453071117401,0.0944625735282898
1,1,32,25,0.46343502402305603,0.11877366155385971
1,1,32,26,0.5696697235107422,0.043359652161598206
1,1,32,27,0.6361538767814636,0.07678881287574768
1,1,32,28,0.5630615949630737,0.07717108726501465
1,1,32,29,0.6056386232376099,0.1153932437300682
1,1,32,30,0.37507882714271545,0.06583704799413681
1,1,32,31,0.5430184006690979,0.032121509313583374
1,2,64,0,0.5413845181465149,0.0699329599738121
1,2,64,1,0.39276283979415894,0.18967345356941223
1,2,64,2,0.5518871545791626,0.13947224617004395
1,2,64,3,0.3196288049221039,0.08369743078947067
1,2,64,4,0.5271516442298889,0.12591809034347534
1,2,64,5,0.37203457951545715,0.14951230585575104
1,2,64,6,0.6061333417892456,0.07527812570333481
1,2,64,7,0.6753702163696289,0.06534354388713837
1,2,64,8,0.45535531640052795,0.09109334647655487
1,2,64,9,0.6002203822135925,0.07757894694805145
1,2,64,10,0.24223841726779938,0.1346171647310257
1,2,64,11,0.45172300934791565,0.08843423426151276
1,2,64,12,0.37756621837615967,0.11251403391361237
1,2,64,13,0.559463381767273,0.13662894070148468
1,2,64,14,0.5311707854270935,0.10213571041822433
1,2,64,15,0.5720900297164917,0.06232020631432533
1,2,64,16,0.6286833882331848,0.12813864648342133
1,2,64,17,0.3908032774925232,0.1047818511724472
1,2,64,18,0.48385968804359436,0.058024030178785324
1,2,64,19,0.37957480549812317,0.08458328992128372
1,2,64,20,0.4061291217803955,0.15207815170288086
1,2,64,21,0.6496995687484741,0.09155760705471039
1,2,64,22,0.5485026240348816,0.2272069901227951
1,2,64,23,0.24473196268081665,0.11017636209726334
1,2,64,24,0.4767056405544281,0.10309149324893951
1,2,64,25,0.5397974252700806,0.138707235455513
1,2,64,26,0.36878493428230286,0.19514316320419312
1,2,64,27,0.3946433961391449,0.12620723247528076
1,2,64,28,0.39353683590888977,0.06188396364450455
1,2,64,29,0.3564664125442505,0.10671231895685196
1,2,64,30,0.3334316611289978,0.0850408598780632
1,2,64,31,0.4213584065437317,0.1371961385011673
1,2,64,32,0.38722607493400574,0.14819175004959106
1,2,64,33,0.5698540806770325,0.15107880532741547
1,2,64,34,0.5387566089630127,0.16914604604244232
1,2,64,35,0.57206791639328,0.16950367391109467
1,2,64,36,0.7316953539848328,0.0775802955031395
1,2,64,37,0.44123587012290955,0.16013659536838531
1,2,64,38,0.5205581784248352,0.23711881041526794
1,2,64,39,0.42592424154281616,0.21714317798614502
1,2,64,40,0.5193750858306885,0.15835881233215332
1,2,64,41,0.3425121009349823,0.1825665384531021
1,2,64,42,0.5370723009109497,0.10504534095525742
1,2,64,43,0.4620891213417053,0.11957121640443802
1,2,64,44,0.5882179737091064,0.19538210332393646
1,2,64,45,0.7020906805992126,0.09254477918148041
1,2,64,46,0.5352467894554138,0.19110094010829926
1,2,64,47,0.3497392535209656,0.09856980293989182
1,2,64,48,0.3531702160835266,0.14040042459964752
1,2,64,49,0.46700283885002136,0.17793455719947815
1,2,64,50,0.4584057331085205,0.12174020707607269
1,2,64,51,0.42536652088165283,0.07333868741989136
1,2,64,52,0.6339300274848938,0.13299338519573212
1,2,64,53,0.5540319681167603,0.16232691705226898
1,2,64,54,0.640022337436676,0.0858956128358841
1,2,64,55,0.3889448642730713,0.15616390109062195
1,2,64,56,0.5576687455177307,0.16272419691085815
1,2,64,57,0.5222886204719543,0.1051015853881836
1,2,64,58,0.49799492955207825,0.1100420206785202
1,2,64,59,0.2934810221195221,0.07955849170684814
1,2,64,60,0.2706751525402069,0.0969821959733963
1,2,64,61,0.533453106880188,0.10435011982917786
1,2,64,62,0.37629491090774536,0.11291252076625824
1,2,64,63,0.5725165009498596,0.11542361229658127
1,3,64,0,0.60703444480896,0.07590843737125397
1,3,64,1,0.6493832468986511,0.06800753623247147
1,3,64,2,0.5823749899864197,0.2318408042192459
1,3,64,3,0.38707080483436584,0.17327046394348145
1,3,64,4,0.6492016911506653,0.07022307813167572
1,3,64,5,0.45094507932662964,0.09203757345676422
1,3,64,6,0.5606922507286072,0.2623695135116577
1,3,64,7,0.5763429403305054,0.07212109863758087
1,3,64,8,0.500056266784668,0.10328424721956253
1,3,64,9,0.717121422290802,0.11897570639848709
1,3,64,10,0.5954367518424988,0.14086945354938507
1,3,64,11,0.4607604146003723,0.16483357548713684
1,3,64,12,0.35248181223869324,0.13971233367919922
1,3,64,13,0.4782487154006958,0.1781008094549179
1,3,64,14,0.6384058594703674,0.19843019545078278
1,3,64,15,0.3708746135234833,0.14921659231185913
1,3,64,16,0.4768686294555664,0.07185611128807068
1,3,64,17,0.6357244253158569,0.09089094400405884
1,3,64,18,0.5772159695625305,0.15313564240932465
1,3,64,19,0.5094735026359558,0.16134807467460632
1,3,64,20,0.4609200358390808,0.09647410362958908
1,3,64,21,0.6576793193817139,0.13208620250225067
1,3,64,22,0.4108303487300873,0.15401552617549896
1,3,64,23,0.406013160943985,0.17924271523952484
1,3,64,24,0.5260874629020691,0.1681123822927475
1,3,64,25,0.5258366465568542,0.08020341396331787
1,3,64,26,0.5425621867179871,0.07453682273626328
1,3,64,27,0.49321630597114563,0.1757405698299408
1,3,64,28,0.48415690660476685,0.18434809148311615
1,3,64,29,0.35677048563957214,0.16196027398109436
1,3,64,30,0.5220310688018799,0.14523421227931976
1,3,64,31,0.6727350950241089,0.1691385954618454
1,3,64,32,0.2903803288936615,0.1390550136566162
1,3,64,33,0.4457848072052002,0.11814679950475693
1,3,64,34,0.5727683305740356,0.06596313416957855
1,3,64,35,0.6188356876373291,0.09747781604528427
1,3,64,36,0.31338566541671753,0.1541629284620285
1,3,64,37,0.5046777725219727,0.15872298181056976
1,3,64,38,0.4082183241844177,0.1313381940126419
1,3,64,39,0.4142409861087799,0.1923476755619049
1,3,64,40,0.6102754473686218,0.18523497879505157
1,3,64,41,0.38974878191947937,0.09923654794692993
1,3,64,42,0.37162721157073975,0.1391838788986206
1,3,64,43,0.5940402746200562,0.17270170152187347
1,3,64,44,0.5161740779876709,0.20373860001564026
1,3,64,45,0.6606999039649963,0.10172491520643234
1,3,64,46,0.43788352608680725,0.09778959304094315
1,3,64,47,0.5457938313484192,0.14033564925193787
1,3,64,48,0.44829756021499634,0.149337500333786
1,3,64,49,0.6594264507293701,0.1311078518629074
1,3,64,50,0.315486341714859,0.08142901211977005
1,3,64,51,0.403053879737854,0.18540023267269135
1,3,64,52,0.4694064259529114,0.17324624955654144
1,3,64,53,0.4499717056751251,0.17755551636219025
1,3,64,54,0.284350723028183,0.1261470764875412
1,3,64,55,0.5603663921356201,0.14062142372131348
1,3,64,56,0.3743237853050232,0.11225433647632599
1,3,64,57,0.4993293583393097,0.15808483958244324
1,3,64,58,0.5119553208351135,0.1042545959353447
1,3,64,59,0.5318772196769714,0.04705671966075897
1,3,64,60,0.4248988926410675,0.1853085160255432
1,3,64,61,0.46001583337783813,0.167033389210701
1,3,64,62,0.5316395163536072,0.23576508462429047
1,3,64,63,0.58034348487854,0.17496946454048157
1,4,128,0,0.533287763595581,0.22979573905467987
1,4,128,1,0.6652396321296692,0.21466606855392456
1,4,128,2,0.37863069772720337,0.1993744671344757
1,4,128,3,0.6650364398956299,0.21337352693080902
1,4,128,4,0.7158383131027222,0.10876594483852386
1,4,128,5,0.43146175146102905,0.24792185425758362
1,4,128,6,0.7726795673370361,0.12576933205127716
1,4,128,7,0.4553796648979187,0.27704644203186035
1,4,128,8,0.34447938203811646,0.09795217961072922
1,4,128,9,0.475557416677475,0.12078911811113358
1,4,128,10,0.41183340549468994,0.3247900605201721
1,4,128,11,0.5244552493095398,0.22336769104003906
1,4,128,12,0.38371750712394714,0.20195186138153076
1,4,128,13,0.6707420349121094,0.2407551258802414
1,4,128,14,0.513992965221405,0.23049665987491608
1,4,128,15,0.5622188448905945,0.13259856402873993
1,4,128,16,0.5978001952171326,0.1731458157300949
1,4,128,17,0.3264981806278229,0.15432113409042358
1,4,128,18,0.5330305099487305,0.29126837849617004
1,4,128,19,0.595980167388916,0.20306198298931122
1,4,128,20,0.2943039536476135,0.1531532257795334
1,4,128,21,0.5736189484596252,0.22388271987438202
1,4,128,22,0.6472382545471191,0.29472824931144714
1,4,128,23,0.6438981294631958,0.17828291654586792
1,4,128,24,0.5665566325187683,0.23284722864627838
1,4,128,25,0.6756036281585693,0.08180610835552216
1,4,128,26,0.3278743326663971,0.15398181974887848
1,4,128,27,0.6553812026977539,0.0735466256737709
1,4,128,28,0.5316084623336792,0.23321588337421417
1,4,128,29,0.4479011297225952,0.1554000824689865
1,4,128,30,0.3269759714603424,0.09201858192682266
1,4,128,31,0.602986752986908,0.14469611644744873
1,4,128,32,0.4955628216266632,0.09178467839956284
1,4,128,33,0.3036023676395416,0.2158195972442627
1,4,128,34,0.46742233633995056,0.13645139336585999
1,4,128,35,0.6085005402565002,0.07824583351612091
1,4,128,36,0.32971322536468506,0.10437921434640884
1,4,128,37,0.5597400665283203,0.22269704937934875
1,4,128,38,0.6316539645195007,0.13967518508434296
1,4,128,39,0.45234382152557373,0.14533481001853943
1,4,128,40,0.6014854907989502,0.06553072482347488
1,4,128,41,0.5783472657203674,0.17147623002529144
1,4,128,42,0.6011365652084351,0.14152304828166962
1,4,128,43,0.47133371233940125,0.29891911149024963
1,4,128,44,0.5509454011917114,0.1855352520942688
1,4,128,45,0.6604686379432678,0.15507352352142334
1,4,128,46,0.5846694111824036,0.1473027616739273
1,4,128,47,0.4363918900489807,0.12217522412538528
1,4,128,48,0.44290095567703247,0.17793788015842438
1,4,128,49,0.6751106977462769,0.11268273741006851
1,4,128,50,0.6132469177246094,0.17703023552894592
1,4,128,51,0.6493969559669495,0.2613227665424347
1,4,128,52,0.5343530178070068,0.1600589007139206
1,4,128,53,0.5024154186248779,0.103533074259758
1,4,128,54,0.4061419367790222,0.14510981738567352
1,4,128,55,0.4386713206768036,0.2236313819885254
1,4,128,56,0.3110918402671814,0.14236119389533997
1,4,128,57,0.620832622051239,0.05364363640546799
1,4,128,58,0.3647482991218567,0.19722406566143036
1,4,128,59,0.6344635486602783,0.1859682947397232
1,4,128,60,0.476109117269516,0.2101498395204544
1,4,128,61,0.5870513319969177,0.1645040512084961
1,4,128,62,0.3931047320365906,0.18376730382442474
1,4,128,63,0.5776681303977966,0.05711551010608673
1,4,128,64,0.4959268569946289,0.19638176262378693
1,4,128,65,0.602213442325592,0.21054132282733917
1,4,128,66,0.5764249563217163,0.13344743847846985
1,4,128,67,0.5090016722679138,0.1861245185136795
1,4,128,68,0.49011868238449097,0.05675486847758293
1,4,128,69,0.6041903495788574,0.15812800824642181
1,4,128,70,0.340532511472702,0.048104435205459595
1,4,128,71,0.450183242559433,0.2548069357872009
1,4,128,72,0.46471214294433594,0.18923768401145935
1,4,128,73,0.6802442669868469,0.18506167829036713
1,4,128,74,0.39132609963417053,0.2365207076072693
1,4,128,75,0.7384992837905884,0.1871485412120819
1,4,128,76,0.4687444865703583,0.1417480856180191
1,4,128,77,0.6541159749031067,0.1160799041390419
1,4,128,78,0.7039147615432739,0.17109404504299164
1,4,128,79,0.5631583333015442,0.2791430950164795
1,4,128,80,0.6112345457077026,0.2138633280992508
1,4,128,81,0.5024877786636353,0.24736711382865906
1,4,128,82,0.40879279375076294,0.15086761116981506
1,4,128,83,0.5732815861701965,0.10008738934993744
1,4,128,84,0.7607088685035706,0.14503489434719086
1,4,128,85,0.5475713610649109,0.1539556384086609
1,4,128,86,0.5524992942810059,0.13918110728263855
1,4,128,87,0.6601510643959045,0.0814589187502861
1,4,128,88,0.5459632873535156,0.20556607842445374
1,4,128,89,0.21061165630817413,0.1444379687309265
1,4,128,90,0.7664212584495544,0.11504586786031723
1,4,128,91,0.5878817439079285,0.16510632634162903
1,4,128,92,0.6139058470726013,0.14833928644657135
1,4,128,93,0.6065170764923096,0.19306030869483948
1,4,128,94,0.5950157642364502,0.25188419222831726
1,4,128,95,0.44304075837135315,0.1796189844608307
1,4,128,96,0.6364413499832153,0.16862383484840393
1,4,128,97,0.5453413724899292,0.15973620116710663
1,4,128,98,0.6195297837257385,0.2159016877412796
1,4,128,99,0.6436190605163574,0.13537347316741943
1,4,128,100,0.736901044845581,0.1313827931880951
1,4,128,101,0.4108738601207733,0.22095270454883575
1,4,128,102,0.35952693223953247,0.09386618435382843
1,4,128,103,0.5794440507888794,0.2491828352212906
1,4,128,104,0.6504120826721191,0.1375255137681961
1,4,128,105,0.6620150804519653,0.2383306324481964
1,4,128,106,0.38718217611312866,0.13239842653274536
1,4,128,107,0.36193758249282837,0.15867356956005096
1,4,128,108,0.5316866040229797,0.13303957879543304
1,4,128,109,0.6448882818222046,0.11976585537195206
1,4,128,110,0.4743763208389282,0.1989678591489792
1,4,128,111,0.5103435516357422,0.13620539009571075
1,4,128,112,0.7322543859481812,0.1714523881673813
1,4,128,113,0.39003288745880127,0.2785595655441284
1,4,128,114,0.6804952621459961,0.20925834774971008
1,4,128,115,0.4819645881652832,0.218550443649292
1,4,128,116,0.6959013342857361,0.14557527005672455
1,4,128,117,0.6965141296386719,0.12531207501888275
1,4,128,118,0.7726976275444031,0.10146080702543259
1,4,128,119,0.7677232027053833,0.08521906286478043
1,4,128,120,0.5226156711578369,0.18886573612689972
1,4,128,121,0.5500721335411072,0.21127177774906158
1,4,128,122,0.5866650938987732,0.25879034399986267
1,4,128,123,0.6695931553840637,0.14556385576725006
1,4,128,124,0.45620065927505493,0.20968595147132874
1,4,128,125,0.4889460504055023,0.2589924931526184
1,4,128,126,0.37043115496635437,0.08377912640571594
1,4,128,127,0.7467045187950134,0.12024275958538055
1,5,128,0,0.6834782361984253,0.2288842499256134
1,5,128,1,0.7617048025131226,0.20220895111560822
1,5,128,2,0.6497988104820251,0.2559092044830322
1,5,128,3,0.5934277176856995,0.16451741755008698
1,5,128,4,0.6825107336044312,0.1739933341741562
1,5,128,5,0.534684956073761,0.2493814378976822
1,5,128,6,0.7926127314567566,0.1600440889596939
1,5,128,7,0.5433534979820251,0.27621737122535706
1,5,128,8,0.6938201189041138,0.1991865485906601
1,5,128,9,0.7355203628540039,0.12777206301689148
1,5,128,10,0.3414419889450073,0.14940999448299408
1,5,128,11,0.4651713967323303,0.14825285971164703
1,5,128,12,0.4103413224220276,0.30963489413261414
1,5,128,13,0.6546819806098938,0.16839051246643066
1,5,128,14,0.480003297328949,0.18969279527664185
1,5,128,15,0.3968847095966339,0.23469436168670654
1,5,128,16,0.6556561589241028,0.24494433403015137
1,5,128,17,0.37971389293670654,0.16443303227424622
1,5,128,18,0.6794683933258057,0.229183167219162
1,5,128,19,0.4050409197807312,0.1927766650915146
1,5,128,20,0.5884406566619873,0.2140633761882782
1,5,128,21,0.7540558576583862,0.1709030717611313
1,5,128,22,0.6449159383773804,0.258706659078598
1,5,128,23,0.7710496783256531,0.0820145532488823
1,5,128,24,0.6273770928382874,0.29971933364868164
1,5,128,25,0.6391828656196594,0.22960378229618073
1,5,128,26,0.5335872173309326,0.12851247191429138
1,5,128,27,0.6830054521560669,0.23347847163677216
1,5,128,28,0.6268725395202637,0.2562909424304962
1,5,128,29,0.7447965145111084,0.09542648494243622
1,5,128,30,0.5387923717498779,0.13826869428157806
1,5,128,31,0.6239328980445862,0.18819886445999146
1,5,128,32,0.6078065037727356,0.1964021921157837
1,5,128,33,0.41246935725212097,0.2952173352241516
1,5,128,34,0.7464607954025269,0.11123687773942947
1,5,128,35,0.5467405319213867,0.12187046557664871
1,5,128,36,0.6073441505432129,0.13127870857715607
1,5,128,37,0.708846390247345,0.1167401522397995
1,5,128,38,0.8424304723739624,0.11432939022779465
1,5,128,39,0.359772652387619,0.19568012654781342
1,5,128,40,0.7380743026733398,0.17791974544525146
1,5,128,41,0.5088716149330139,0.13412228226661682
1,5,128,42,0.5432479381561279,0.15870322287082672
1,5,128,43,0.37971562147140503,0.11853852868080139
1,5,128,44,0.780110776424408,0.16636593639850616
1,5,128,45,0.4419962167739868,0.13592654466629028
1,5,128,46,0.6281316876411438,0.2350785732269287
1,5,128,47,0.5074954628944397,0.3008298873901367
1,5,128,48,0.7990113496780396,0.09890780597925186
1,5,128,49,0.5524380803108215,0.07702061533927917
1,5,128,50,0.45532238483428955,0.24488788843154907
1,5,128,51,0.6194384098052979,0.31241488456726074
1,5,128,52,0.5902368426322937,0.3322732746601105
1,5,128,53,0.5826496481895447,0.18009820580482483
1,5,128,54,0.7533580660820007,0.16316747665405273
1,5,128,55,0.8531753420829773,0.08703107386827469
1,5,128,56,0.6050643920898438,0.17978239059448242
1,5,128,57,0.6578730940818787,0.23730090260505676
1,5,128,58,0.5576199293136597,0.14565147459506989
1,5,128,59,0.6208850741386414,0.1889016181230545
1,5,128,60,0.6684025526046753,0.11083995550870895
1,5,128,61,0.582809567451477,0.046420302242040634
1,5,128,62,0.47818976640701294,0.17844779789447784
1,5,128,63,0.5692589282989502,0.11504723131656647
1,5,128,64,0.7913681864738464,0.13905392587184906
1,5,128,65,0.7089105844497681,0.06107071414589882
1,5,128,66,0.6630216240882874,0.18968355655670166
1,5,128,67,0.723171055316925,0.14636942744255066
1,5,128,68,0.44208526611328125,0.04635589197278023
1,5,128,69,0.7341421842575073,0.08544373512268066
1,5,128,70,0.5577751994132996,0.15405118465423584
1,5,128,71,0.6621644496917725,0.16563446819782257
1,5,128,72,0.7422673106193542,0.2326408326625824
1,5,128,73,0.4953545033931732,0.14925019443035126
1,5,128,74,0.5222561359405518,0.18411648273468018
1,5,128,75,0.7457628846168518,0.2270604521036148
1,5,128,76,0.699232280254364,0.1282476931810379
1,5,128,77,0.3955113887786865,0.14950595796108246
1,5,128,78,0.627533495426178,0.08038264513015747
1,5,128,79,0.5798687934875488,0.32383134961128235
1,5,128,80,0.5745621919631958,0.31927743554115295
1,5,128,81,0.4014090597629547,0.2892155945301056
1,5,128,82,0.8150418400764465,0.11365719139575958
1,5,128,83,0.38351142406463623,0.07715848088264465
1,5,128,84,0.7290331721305847,0.17176008224487305
1,5,128,85,0.7033939361572266,0.1364581435918808
1,5,128,86,0.6129568219184875,0.06419634819030762
1,5,128,87,0.6228610277175903,0.11048710346221924
1,5,128,88,0.8114750385284424,0.11232597380876541
1,5,128,89,0.6713998317718506,0.08681389689445496
1,5,128,90,0.7291897535324097,0.12522515654563904
1,5,128,91,0.6069518327713013,0.30278459191322327
1,5,128,92,0.7681215405464172,0.14394494891166687
1,5,128,93,0.783530056476593,0.08362770825624466
1,5,128,94,0.6700214743614197,0.24144808948040009
1,5,128,95,0.7731159329414368,0.1525322049856186
1,5,128,96,0.7746462225914001,0.13267268240451813
1,5,128,97,0.7708072066307068,0.13146677613258362
1,5,128,98,0.7555156350135803,0.09540868550539017
1,5,128,99,0.8171520829200745,0.1169336587190628
1,5,128,100,0.7381366491317749,0.13052813708782196
1,5,128,101,0.38256821036338806,0.19742077589035034
1,5,128,102,0.7231352925300598,0.08866170048713684
1,5,128,103,0.6729496717453003,0.12337689101696014
1,5,128,104,0.6758748292922974,0.18540625274181366
1,5,128,105,0.6839328408241272,0.2418569177389145
1,5,128,106,0.7338069081306458,0.16595914959907532
1,5,128,107,0.5680785179138184,0.10349942743778229
1,5,128,108,0.7368594408035278,0.18174748122692108
1,5,128,109,0.5113178491592407,0.23052893579006195
1,5,128,110,0.7060957551002502,0.20643667876720428
1,5,128,111,0.645240068435669,0.27026328444480896
1,5,128,112,0.7905728816986084,0.06835100799798965
1,5,128,113,0.4531497359275818,0.326627641916275
1,5,128,114,0.8019806742668152,0.11653126031160355
1,5,128,115,0.7472666501998901,0.07795950025320053
1,5,128,116,0.7472047209739685,0.15020759403705597
1,5,128,117,0.778531551361084,0.1255643665790558
1,5,128,118,0.816765546798706,0.09941849857568741
1,5,128,119,0.5285685062408447,0.21637903153896332
1,5,128,120,0.7308034300804138,0.1335432082414627
1,5,128,121,0.5820556879043579,0.30391913652420044
1,5,128,122,0.6120073795318604,0.31983864307403564
1,5,128,123,0.5633203387260437,0.09863896667957306
1,5,128,124,0.39098817110061646,0.27486562728881836
1,5,128,125,0.7433967590332031,0.19324609637260437
1,5,128,126,0.755732536315918,0.17472223937511444
1,5,128,127,0.3868177831172943,0.062455594539642334
2,0,32,0,0.5510044693946838,0.04115380719304085
2,0,32,1,0.45856744050979614,0.04064745455980301
2,0,32,2,0.3966321349143982,0.06491295993328094
2,0,32,3,0.5689719915390015,0.047967780381441116
2,0,32,4,0.4193825423717499,0.0990627110004425
2,0,32,5,0.42579102516174316,0.05625361204147339
2,0,32,6,0.4969393014907837,0.031942810863256454
2,0,32,7,0.5367109775543213,0.07930728793144226
2,0,32,8,0.41177237033843994,0.11419295519590378
2,0,32,9,0.5374330878257751,0.09637884050607681
2,0,32,10,0.5503565669059753,0.09596172720193863
2,0,32,11,0.39900434017181396,0.14178834855556488
2,0,32,12,0.4520632028579712,0.09963007271289825
2,0,32,13,0.40615254640579224,0.0422431081533432
2,0,32,14,0.5232274532318115,0.1076873391866684
2,0,32,15,0.6073663830757141,0.045467838644981384
2,0,32,16,0.4903426468372345,0.09816788882017136
2,0,32,17,0.6212066411972046,0.08689837157726288
2,0,32,18,0.5284788608551025,0.08474886417388916
2,0,32,19,0.4550142288208008,0.05944886803627014
2,0,32,20,0.46462932229042053,0.0760682076215744
2,0,32,21,0.615730881690979,0.0809842124581337
2,0,32,22,0.4006829857826233,0.067739337682724
2,0,32,23,0.4058035612106323,0.04145807400345802
2,0,32,24,0.5921525359153748,0.08677773177623749
2,0,32,25,0.47951945662498474,0.09464613348245621
2,0,32,26,0.3648989498615265,0.09338067471981049
2,0,32,27,0.6253743171691895,0.06389595568180084
2,0,32,28,0.5284179449081421,0.1351611167192459
2,0,32,29,0.5149791240692139,0.07333006709814072
2,0,32,30,0.5022847652435303,0.14349466562271118
2,0,32,31,0.3786836862564087,0.07191924005746841
2,1,32,0,0.6217383742332458,0.027418918907642365
2,1,32,1,0.5345332622528076,0.06116434186697006
2,1,32,2,0.4106896221637726,0.04679221287369728
2,1,32,3,0.39439454674720764,0.12239813059568405
2,1,32,4,0.5596007108688354,0.09823859483003616
2,1,32,5,0.4274336099624634,0.09192291647195816
2,1,32,6,0.28892093896865845,0.12814833223819733
2,1,32,7,0.393913596868515,0.11749458312988281
2,1,32,8,0.5570073127746582,0.09876303374767303
2,1,32,9,0.5323845148086548,0.04902100935578346
2,1,32,10,0.518600583076477,0.12331490218639374
2,1,32,11,0.5439546704292297,0.11374817788600922
2,1,32,12,0.4812929928302765,0.1376308649778366
2,1,32,13,0.37359851598739624,0.14943526685237885
2,1,32,14,0.3557814359664917,0.10894721001386642
2,1,32,15,0.5813711285591125,0.051406484097242355
2,1,32,16,0.5617189407348633,0.19340087473392487
2,1,32,17,0.631321132183075,0.05764756724238396
2,1,32,18,0.38144466280937195,0.13339044153690338
2,1,32,19,0.6587704420089722,0.0967794805765152
2,1,32,20,0.4445105493068695,0.10595099627971649
2,1,32,21,0.5288545489311218,0.0898033156991005
2,1,32,22,0.4201452136039734,0.16543547809123993
2,1,32,23,0.39364704489707947,0.05939042940735817
2,1,32,24,0.5242022275924683,0.07083224505186081
2,1,32,25,0.41429367661476135,0.06503035128116608
2,1,32,26,0.3772233724594116,0.12262751907110214
2,1,32,27,0.4868379831314087,0.10975702852010727
2,1,32,28,0.5637180805206299,0.07136315852403641
2,1,32,29,0.4663555324077606,0.10331355780363083
2,1,32,30,0.5460532903671265,0.1538962572813034
2,1,32,31,0.5231266021728516,0.14520032703876495
2,2,64,0,0.6767554879188538,0.09376726299524307
2,2,64,1,0.4823755919933319,0.11553291231393814
2,2,64,2,0.3761332631111145,0.10368450731039047
2,2,64,3,0.4866800904273987,0.13695508241653442
2,2,64,4,0.48472219705581665,0.1538054347038269
2,2,64,5,0.5724194049835205,0.18512816727161407
2,2,64,6,0.4865089952945709,0.1632765531539917
2,2,64,7,0.48983627557754517,0.20735104382038116
2,2,64,8,0.6550676226615906,0.09956898540258408
2,2,64,9,0.4323670566082001,0.13165812194347382
2,2,64,10,0.6421142816543579,0.09192800521850586
2,2,64,11,0.334270179271698,0.10141876339912415
2,2,64,12,0.5062094330787659,0.1781023144721985
2,2,64,13,0.37319692969322205,0.10534992069005966
2,2,64,14,0.4200565218925476,0.11752768605947495
2,2,64,15,0.4950482249259949,0.16585378348827362
2,2,64,16,0.49547281861305237,0.1368105113506317
2,2,64,17,0.40771663188934326,0.11785129457712173
2,2,64,18,0.3700401186943054,0.08525455743074417
2,2,64,19,0.4634896218776703,0.14797109365463257
2,2,64,20,0.463371217250824,0.14709316194057465
2,2,64,21,0.5448821783065796,0.17084023356437683
2,2,64,22,0.4422351121902466,0.09687624871730804
2,2,64,23,0.4621223509311676,0.08151184022426605
2,2,64,24,0.430780291557312,0.06963623315095901
2,2,64,25,0.38611018657684326,0.07468397915363312
2,2,64,26,0.5450286865234375,0.1758228838443756
2,2,64,27,0.5594008564949036,0.1407032161951065
2,2,64,28,0.5456836223602295,0.10326604545116425
2,2,64,29,0.3989082872867584,0.1495359241962433
2,2,64,30,0.38300296664237976,0.17327715456485748
2,2,64,31,0.5928171277046204,0.10511928051710129
2,2,64,32,0.5634198188781738,0.1190040335059166
2,2,64,33,0.4759838879108429,0.14914944767951965
2,2,64,34,0.500321090221405,0.14042919874191284
2,2,64,35,0.4837656021118164,0.1131051778793335
2,2,64,36,0.5166382789611816,0.049089644104242325
2,2,64,37,0.5460366606712341,0.08167559653520584
2,2,64,38,0.45266997814178467,0.14869658648967743
2,2,64,39,0.5221795439720154,0.25076204538345337
2,2,64,40,0.48378920555114746,0.09918493777513504
2,2,64,41,0.42031657695770264,0.24314631521701813
2,2,64,42,0.5015638470649719,0.13157497346401215
2,2,64,43,0.5326812863349915,0.16956518590450287
2,2,64,44,0.48245662450790405,0.11228495836257935
2,2,64,45,0.4069072902202606,0.13262444734573364
2,2,64,46,0.36925652623176575,0.10565812140703201
2,2,64,47,0.4775964319705963,0.13664354383945465
2,2,64,48,0.4547824561595917,0.16251139342784882
2,2,64,49,0.42366716265678406,0.0933411568403244
2,2,64,50,0.5207052826881409,0.13806505501270294
2,2,64,51,0.5125961899757385,0.1674739271402359
2,2,64,52,0.39241671562194824,0.1367124766111374
2,2,64,53,0.4322017431259155,0.1492196023464203
2,2,64,54,0.4552561342716217,0.130165696144104
2,2,64,55,0.5253740549087524,0.2152176946401596
2,2,64,56,0.5784503221511841,0.11873112618923187
2,2,64,57,0.5055930018424988,0.052552953362464905
2,2,64,58,0.472318172454834,0.19184763729572296
2,2,64,59,0.43912485241889954,0.12622877955436707
2,2,64,60,0.47439509630203247,0.12448450922966003
2,2,64,61,0.40441635251045227,0.13217422366142273
2,2,64,62,0.4887314438819885,0.06424911320209503
2,2,64,63,0.48738449811935425,0.08751677721738815
2,3,64,0,0.544835090637207,0.176807701587677
2,3,64,1,0.41129207611083984,0.12759795784950256
2,3,64,2,0.31227055191993713,0.07795362174510956
2,3,64,3,0.5839298963546753,0.09534163773059845
2,3,64,4,0.5019033551216125,0.03306036815047264
2,3,64,5,0.43840718269348145,0.11686611920595169
2,3,64,6,0.4694794714450836,0.1768001765012741
2,3,64,7,0.5003461241722107,0.21103288233280182
2,3,64,8,0.370143324136734,0.09897387772798538
2,3,64,9,0.39585036039352417,0.11101092398166656
2,3,64,10,0.26718124747276306,0.07420022040605545
2,3,64,11,0.363022118806839,0.13164712488651276
2,3,64,12,0.30120450258255005,0.1124623641371727
2,3,64,13,0.5188745856285095,0.05169286951422691
2,3,64,14,0.5251455307006836,0.05958935245871544
2,3,64,15,0.4133739173412323,0.05819244682788849
2,3,64,16,0.7059704661369324,0.07825418561697006
2,3,64,17,0.5392665863037109,0.09753105044364929
2,3,64,18,0.42083999514579773,0.1193530261516571
2,3,64,19,0.3806707561016083,0.08909755945205688
2,3,64,20,0.4948830306529999,0.1789597123861313
2,3,64,21,0.47286635637283325,0.13391771912574768
2,3,64,22,0.37220072746276855,0.16184642910957336
2,3,64,23,0.4338242709636688,0.176051065325737
2,3,64,24,0.6960647702217102,0.09075546264648438
2,3,64,25,0.6440078616142273,0.05238618701696396
2,3,64,26,0.39588332176208496,0.052256107330322266
2,3,64,27,0.5670282244682312,0.21638420224189758
2,3,64,28,0.5061796307563782,0.12453975528478622
2,3,64,29,0.37490731477737427,0.07198406010866165
2,3,64,30,0.5549954175949097,0.04196899011731148
2,3,64,31,0.4350251257419586,0.2436932474374771
2,3,64,32,0.6380574703216553,0.06980568915605545
2,3,64,33,0.4858582615852356,0.03783852234482765
2,3,64,34,0.5161347389221191,0.09327208250761032
2,3,64,35,0.41485458612442017,0.07779286801815033
2,3,64,36,0.413064181804657,0.20614399015903473
2,3,64,37,0.5554460287094116,0.047081414610147476
2,3,64,38,0.6751392483711243,0.08060815930366516
2,3,64,39,0.5340198278427124,0.19965654611587524
2,3,64,40,0.5509341359138489,0.13338422775268555
2,3,64,41,0.4478432238101959,0.06074920669198036
2,3,64,42,0.5203045010566711,0.22045738995075226
2,3,64,43,0.41568708419799805,0.12661117315292358
2,3,64,44,0.41733190417289734,0.11320194602012634
2,3,64,45,0.42338815331459045,0.16299378871917725
2,3,64,46,0.5300814509391785,0.10495980829000473
2,3,64,47,0.4104781448841095,0.18765464425086975
2,3,64,48,0.4731537401676178,0.2002914696931839
2,3,64,49,0.6404012441635132,0.1387300342321396
2,3,64,50,0.6387504935264587,0.13625869154930115
2,3,64,51,0.288752019405365,0.09696678072214127
2,3,64,52,0.5039459466934204,0.24209953844547272
2,3,64,53,0.528190553188324,0.17951737344264984
2,3,64,54,0.5210928320884705,0.06044984608888626
2,3,64,55,0.6496741771697998,0.1372300088405609
2,3,64,56,0.40482980012893677,0.09439443796873093
2,3,64,57,0.6071114540100098,0.09708056598901749
2,3,64,58,0.5099629163742065,0.17040641605854034
2,3,64,59,0.43990737199783325,0.1355193853378296
2,3,64,60,0.377752423286438,0.08367698639631271
2,3,64,61,0.6626297831535339,0.1438789814710617
2,3,64,62,0.35410958528518677,0.11085976660251617
2,3,64,63,0.6136301755905151,0.0881647989153862
2,4,128,0,0.7059739232063293,0.17790237069129944
2,4,128,1,0.673084557056427,0.10974600166082382
2,4,128,2,0.5554131865501404,0.19327019155025482
2,4,128,3,0.8089572191238403,0.10740373283624649
2,4,128,4,0.7340370416641235,0.06390067934989929
2,4,128,5,0.803227424621582,0.10395292192697525
2,4,128,6,0.5051194429397583,0.09251854568719864
2,4,128,7,0.3810066282749176,0.3664070963859558
2,4,128,8,0.4199335277080536,0.1660415232181549
2,4,128,9,0.40389877557754517,0.3739628195762634
2,4,128,10,0.4335044324398041,0.2708859145641327
2,4,128,11,0.5613879561424255,0.1528666764497757
2,4,128,12,0.45829087495803833,0.1910465508699417
2,4,128,13,0.47854238748550415,0.05092987045645714
2,4,128,14,0.6801584959030151,0.1590445190668106
2,4,128,15,0.3549502193927765,0.055266231298446655
2,4,128,16,0.7825384140014648,0.09091153740882874
2,4,128,17,0.6123949289321899,0.3153989315032959
2,4,128,18,0.8144403696060181,0.12276951223611832
2,4,128,19,0.8275240063667297,0.07621901482343674
2,4,128,20,0.7054767608642578,0.058866195380687714
2,4,128,21,0.5270752310752869,0.19710208475589752
2,4,128,22,0.6745551824569702,0.09197239577770233
2,4,128,23,0.4146849811077118,0.16102179884910583
2,4,128,24,0.759882926940918,0.11804449558258057
2,4,128,25,0.4438118636608124,0.12202980369329453
2,4,128,26,0.4268244802951813,0.2766711711883545
2,4,128,27,0.7585016489028931,0.2015875279903412
2,4,128,28,0.5899651646614075,0.08492497354745865
2,4,128,29,0.5659169554710388,0.2803623378276825
2,4,128,30,0.6685312986373901,0.17587018013000488
2,4,128,31,0.567340612411499,0.1387789249420166
2,4,128,32,0.41225677728652954,0.14569076895713806
2,4,128,33,0.3889416456222534,0.22487224638462067
2,4,128,34,0.4194432199001312,0.27746251225471497
2,4,128,35,0.7180395722389221,0.12087622284889221
2,4,128,36,0.49583566188812256,0.15692447125911713
2,4,128,37,0.6037425994873047,0.34942570328712463
2,4,128,38,0.3329017758369446,0.07541850954294205
2,4,128,39,0.5318498015403748,0.1605176329612732
2,4,128,40,0.6601232290267944,0.0571315623819828
2,4,128,41,0.7201259136199951,0.13507162034511566
2,4,128,42,0.5053295493125916,0.3009173274040222
2,4,128,43,0.6647161245346069,0.1302408128976822
2,4,128,44,0.3470078706741333,0.10315123200416565
2,4,128,45,0.6155345439910889,0.12044938653707504
2,4,128,46,0.6430452466011047,0.0943470373749733
2,4,128,47,0.6275761127471924,0.17170126736164093
2,4,128,48,0.4869175851345062,0.23433558642864227
2,4,128,49,0.2963540852069855,0.23867012560367584
2,4,128,50,0.508904218673706,0.1450943946838379
2,4,128,51,0.5916481614112854,0.3157014846801758
2,4,128,52,0.594765305519104,0.20650812983512878
2,4,128,53,0.3622291088104248,0.31394487619400024
2,4,128,54,0.5108544230461121,0.10842298716306686
2,4,128,55,0.5461054444313049,0.1432477831840515
2,4,128,56,0.636612057685852,0.09519050270318985
2,4,128,57,0.4515703320503235,0.2064961940050125
2,4,128,58,0.36306408047676086,0.09303871542215347
2,4,128,59,0.7684202194213867,0.14669853448867798
2,4,128,60,0.45710235834121704,0.31694433093070984
2,4,128,61,0.5704447031021118,0.08557817339897156
2,4,128,62,0.30711251497268677,0.10428985208272934
2,4,128,63,0.6830819249153137,0.1630580723285675
2,4,128,64,0.5504890084266663,0.04495996609330177
2,4,128,65,0.6006728410720825,0.3390362858772278
2,4,128,66,0.6392282843589783,0.22912810742855072
2,4,128,67,0.5602240562438965,0.10693665593862534
2,4,128,68,0.6837076544761658,0.21407662332057953
2,4,128,69,0.37447884678840637,0.14089976251125336
2,4,128,70,0.6560774445533752,0.11365731060504913
2,4,128,71,0.6086751222610474,0.2639247477054596
2,4,128,72,0.6104119420051575,0.10570040345191956
2,4,128,73,0.6867639422416687,0.08450682461261749
2,4,128,74,0.5824475884437561,0.05634678900241852
2,4,128,75,0.7672103643417358,0.10602465271949768
2,4,128,76,0.2861561179161072,0.06262955814599991
2,4,128,77,0.7337062358856201,0.18907934427261353
2,4,128,78,0.328192800283432,0.12366002798080444
2,4,128,79,0.6417849063873291,0.07724645733833313
2,4,128,80,0.37581121921539307,0.23507604002952576
2,4,128,81,0.3239485025405884,0.22094233334064484
2,4,128,82,0.7557803392410278,0.13347768783569336
2,4,128,83,0.5360380411148071,0.22200420498847961
2,4,128,84,0.6329845190048218,0.23508547246456146
2,4,128,85,0.7266881465911865,0.08939599245786667
2,4,128,86,0.5087119936943054,0.05512293428182602
2,4,128,87,0.6426148414611816,0.2506795823574066
2,4,128,88,0.7224875688552856,0.0742851197719574
2,4,128,89,0.3778567612171173,0.11452760547399521
2,4,128,90,0.3992545008659363,0.14268304407596588
2,4,128,91,0.45324158668518066,0.32535645365715027
2,4,128,92,0.5304679274559021,0.2582005560398102
2,4,128,93,0.5723845362663269,0.042734045535326004
2,4,128,94,0.6040984988212585,0.06794682890176773
2,4,128,95,0.48941269516944885,0.07542531937360764
2,4,128,96,0.5247552394866943,0.30733057856559753
2,4,128,97,0.5823997855186462,0.10127469897270203
2,4,128,98,0.39021387696266174,0.1472494751214981
2,4,128,99,0.8054456114768982,0.07240787893533707
2,4,128,100,0.5173380970954895,0.0726126879453659
2,4,128,101,0.6417626738548279,0.3607366979122162
2,4,128,102,0.38403260707855225,0.1783728450536728
2,4,128,103,0.6837312579154968,0.11779758334159851
2,4,128,104,0.4775911569595337,0.2808561325073242
2,4,128,105,0.3012477159500122,0.09705518186092377
2,4,128,106,0.7033485770225525,0.2477918565273285
2,4,128,107,0.49888381361961365,0.24004517495632172
2,4,128,108,0.5676613450050354,0.32868459820747375
2,4,128,109,0.5626561641693115,0.33054226636886597
2,4,128,110,0.7316598296165466,0.0860949382185936
2,4,128,111,0.29063165187835693,0.0979524776339531
2,4,128,112,0.5390340685844421,0.05237390100955963
2,4,128,113,0.4481337070465088,0.12029829621315002
2,4,128,114,0.40819090604782104,0.2366715371608734
2,4,128,115,0.34060338139533997,0.05272694304585457
2,4,128,116,0.6459890604019165,0.0932081937789917
2,4,128,117,0.2700755298137665,0.12206356227397919
2,4,128,118,0.6251787543296814,0.27947258949279785
2,4,128,119,0.2880827784538269,0.21172462403774261
2,4,128,120,0.48241719603538513,0.1287999451160431
2,4,128,121,0.48297470808029175,0.06341668963432312
2,4,128,122,0.6448204517364502,0.09623418003320694
2,4,128,123,0.5086230635643005,0.15456412732601166
2,4,128,124,0.49570953845977783,0.2976919412612915
2,4,128,125,0.40170422196388245,0.17174136638641357
2,4,128,126,0.5601487159729004,0.22706730663776398
2,4,128,127,0.5647399425506592,0.3015642762184143
2,5,128,0,0.48650065064430237,0.13415391743183136
2,5,128,1,0.6957030296325684,0.07938463985919952
2,5,128,2,0.3751218318939209,0.2442084401845932
2,5,128,3,0.7218480110168457,0.15405206382274628
2,5,128,4,0.6578242778778076,0.15133503079414368
2,5,128,5,0.7556289434432983,0.17373026907444
2,5,128,6,0.6708737015724182,0.15492412447929382
2,5,128,7,0.340127170085907,0.3111143112182617
2,5,128,8,0.577670156955719,0.21831978857517242
2,5,128,9,0.5072444081306458,0.23846738040447235
2,5,128,10,0.6461012363433838,0.14391088485717773
2,5,128,11,0.4157465994358063,0.35031014680862427
2,5,128,12,0.4615906774997711,0.22672322392463684
2,5,128,13,0.8022882342338562,0.06750363111495972
2,5,128,14,0.6286986470222473,0.18952034413814545
2,5,128,15,0.5401697158813477,0.19734904170036316
2,5,128,16,0.6593078970909119,0.21488893032073975
2,5,128,17,0.7406226396560669,0.1583663523197174
2,5,128,18,0.801096498966217,0.09822238981723785
2,5,128,19,0.7669498920440674,0.055779460817575455
2,5,128,20,0.6195939183235168,0.04825853928923607
2,5,128,21,0.27582529187202454,0.14188940823078156
2,5,128,22,0.6829970479011536,0.17899176478385925
2,5,128,23,0.33269888162612915,0.13985827565193176
2,5,128,24,0.7754952907562256,0.14980405569076538
2,5,128,25,0.5172755718231201,0.14581237733364105
2,5,128,26,0.4864014685153961,0.1820896863937378
2,5,128,27,0.6335121989250183,0.2986828088760376
2,5,128,28,0.633784294128418,0.20818784832954407
2,5,128,29,0.4083528518676758,0.3617289960384369
2,5,128,30,0.7365403175354004,0.11439289897680283
2,5,128,31,0.609173595905304,0.1494673788547516
2,5,128,32,0.3573579490184784,0.22091488540172577
2,5,128,33,0.734407901763916,0.1774916797876358
2,5,128,34,0.35112592577934265,0.14975962042808533
2,5,128,35,0.6005876660346985,0.04163028672337532
2,5,128,36,0.6776149868965149,0.2210264652967453
2,5,128,37,0.6914100050926208,0.2907898724079132
2,5,128,38,0.6554227471351624,0.16747772693634033
2,5,128,39,0.4571921229362488,0.08255431056022644
2,5,128,40,0.5269548296928406,0.1935659646987915
2,5,128,41,0.8124724626541138,0.15529371798038483
2,5,128,42,0.7663524150848389,0.12912118434906006
2,5,128,43,0.7718660235404968,0.09713710844516754
2,5,128,44,0.7594068646430969,0.15474405884742737
2,5,128,45,0.6762128472328186,0.07122314721345901
2,5,128,46,0.685055673122406,0.22530564665794373
2,5,128,47,0.6638820171356201,0.13083869218826294
2,5,128,48,0.7927713990211487,0.12131082266569138
2,5,128,49,0.3106388747692108,0.10295987129211426
2,5,128,50,0.706721305847168,0.28400322794914246
2,5,128,51,0.5560710430145264,0.3021688461303711
2,5,128,52,0.5462062358856201,0.08989547193050385
2,5,128,53,0.8106469511985779,0.12387005984783173
2,5,128,54,0.647966742515564,0.17640481889247894
2,5,128,55,0.4157549738883972,0.03520523011684418
2,5,128,56,0.6330377459526062,0.13076232373714447
2,5,128,57,0.6858590245246887,0.17069245874881744
2,5,128,58,0.4818215072154999,0.17468491196632385
2,5,128,59,0.8279457688331604,0.10167165100574493
2,5,128,60,0.4530281126499176,0.21337349712848663
2,5,128,61,0.6879608035087585,0.18361371755599976
2,5,128,62,0.655590295791626,0.18579627573490143
2,5,128,63,0.5538128614425659,0.20864762365818024
2,5,128,64,0.6859638690948486,0.22302043437957764
2,5,128,65,0.5367249250411987,0.1361008882522583
2,5,128,66,0.5053971409797668,0.2581178843975067
2,5,128,67,0.7792691588401794,0.07325230538845062
2,5,128,68,0.7654050588607788,0.13850432634353638
2,5,128,69,0.6422728300094604,0.1937437504529953
2,5,128,70,0.6410638689994812,0.1861816793680191
2,5,128,71,0.4631010890007019,0.3277241885662079
2,5,128,72,0.6526598334312439,0.1378147006034851
2,5,128,73,0.5432890057563782,0.15416444838047028
2,5,128,74,0.6350328326225281,0.06835640966892242
2,5,128,75,0.8122528195381165,0.07264122366905212
2,5,128,76,0.5540798902511597,0.08539263904094696
2,5,128,77,0.7334864139556885,0.20454587042331696
2,5,128,78,0.6984394788742065,0.26916906237602234
2,5,128,79,0.7555847764015198,0.07147327065467834
2,5,128,80,0.4726496934890747,0.14315278828144073
2,5,128,81,0.6836987137794495,0.09602785855531693
2,5,128,82,0.8346303701400757,0.08235786855220795
2,5,128,83,0.6859781742095947,0.19672729074954987
2,5,128,84,0.6196500658988953,0.17586055397987366
2,5,128,85,0.8236482739448547,0.1380593478679657
2,5,128,86,0.7125104069709778,0.21638205647468567
2,5,128,87,0.8174393773078918,0.12382741272449493
2,5,128,88,0.7266980409622192,0.13743673264980316
2,5,128,89,0.5176363587379456,0.12430508434772491
2,5,128,90,0.5481944680213928,0.16907049715518951
2,5,128,91,0.32642558217048645,0.2815050482749939
2,5,128,92,0.4311375021934509,0.2655736804008484
2,5,128,93,0.7785287499427795,0.1440749615430832
2,5,128,94,0.6295774579048157,0.12283239513635635
2,5,128,95,0.5090089440345764,0.1553143411874771
2,5,128,96,0.5755990743637085,0.11784818768501282
2,5,128,97,0.6700360178947449,0.27506643533706665
2,5,128,98,0.7281991839408875,0.1228465735912323
2,5,128,99,0.5222717523574829,0.16670037806034088
2,5,128,100,0.7704172730445862,0.11141617596149445
2,5,128,101,0.7140113115310669,0.11934144049882889
2,5,128,102,0.4580209255218506,0.07016689330339432
2,5,128,103,0.5530419945716858,0.20356176793575287
2,5,128,104,0.7592717409133911,0.10477188974618912
2,5,128,105,0.3978740870952606,0.09842612594366074
2,5,128,106,0.7131310701370239,0.21486516296863556
2,5,128,107,0.4689560830593109,0.0523679181933403
2,5,128,108,0.6004929542541504,0.2626311182975769
2,5,128,109,0.3008934557437897,0.11605893075466156
2,5,128,110,0.6386966109275818,0.06593091040849686
2,5,128,111,0.49497339129447937,0.14904916286468506
2,5,128,112,0.6607909202575684,0.2893435060977936
2,5,128,113,0.5842174291610718,0.09055209159851074
2,5,128,114,0.6549335718154907,0.24225212633609772
2,5,128,115,0.5777766704559326,0.06982403248548508
2,5,128,116,0.4155707359313965,0.2699624300003052
2,5,128,117,0.5264330506324768,0.0922565832734108
2,5,128,118,0.7218442559242249,0.22674551606178284
2,5,128,119,0.3080965578556061,0.11570283770561218
2,5,128,120,0.5743754506111145,0.09220872074365616
2,5,128,121,0.5660930275917053,0.12120076268911362
2,5,128,122,0.6600832343101501,0.06537037342786789
2,5,128,123,0.4624183177947998,0.10465621948242188
2,5,128,124,0.725434422492981,0.07964342832565308
2,5,128,125,0.361245334148407,0.1556503027677536
2,5,128,126,0.7199447154998779,0.09818009287118912
2,5,128,127,0.4485895335674286,0.11092859506607056
3,0,32,0,0.4955192506313324,0.22239938378334045
3,0,32,1,0.38098499178886414,0.07018181681632996
3,0,32,2,0.7361462712287903,0.12316760420799255
3,0,32,3,0.4258790612220764,0.061205461621284485
3,0,32,4,0.4120308756828308,0.1774449348449707
3,0,32,5,0.5104269981384277,0.24057817459106445
3,0,32,6,0.6243647933006287,0.11399591714143753
3,0,32,7,0.5145605802536011,0.13478921353816986
3,0,32,8,0.39919501543045044,0.0850072056055069
3,0,32,9,0.4506766200065613,0.10689850151538849
3,0,32,10,0.4293023645877838,0.1304418295621872
3,0,32,11,0.5035979747772217,0.18746492266654968
3,0,32,12,0.4945451319217682,0.21597549319267273
3,0,32,13,0.363445907831192,0.1012139692902565
3,0,32,14,0.46259284019470215,0.17203104496002197
3,0,32,15,0.38853034377098083,0.07256676256656647
3,0,32,16,0.3082093596458435,0.14016272127628326
3,0,32,17,0.4238687753677368,0.16662709414958954
3,0,32,18,0.43804365396499634,0.12072903662919998
3,0,32,19,0.6751999258995056,0.07740765810012817
3,0,32,20,0.37144747376441956,0.03878813982009888
3,0,32,21,0.651554524898529,0.10626246780157089
3,0,32,22,0.3143424689769745,0.18909598886966705
3,0,32,23,0.451898455619812,0.06342369318008423
3,0,32,24,0.40830767154693604,0.21030019223690033
3,0,32,25,0.47308897972106934,0.23930707573890686
3,0,32,26,0.5423477292060852,0.18400529026985168
3,0,32,27,0.5245363116264343,0.23254671692848206
3,0,32,28,0.44968181848526,0.07994657754898071
3,0,32,29,0.3827412724494934,0.033604394644498825
3,0,32,30,0.5587661862373352,0.10184220969676971
3,0,32,31,0.5564286112785339,0.2098490446805954
3,1,32,0,0.5134041905403137,0.15151560306549072
3,1,32,1,0.40943318605422974,0.07609089463949203
3,1,32,2,0.5064897537231445,0.097853884100914
3,1,32,3,0.6378945112228394,0.04247065633535385
3,1,32,4,0.344568133354187,0.12546606361865997
3,1,32,5,0.4373997151851654,0.08010641485452652
3,1,32,6,0.48792123794555664,0.12409424781799316
3,1,32,7,0.5075970888137817,0.07060280442237854
3,1,32,8,0.40664663910865784,0.17672663927078247
3,1,32,9,0.4177378714084625,0.014095612801611423
3,1,32,10,0.5194825530052185,0.0629517212510109
3,1,32,11,0.628621518611908,0.12572215497493744
3,1,32,12,0.4112054705619812,0.07060977816581726
3,1,32,13,0.5377999544143677,0.04898093640804291
3,1,32,14,0.3587248623371124,0.055958520621061325
3,1,32,15,0.5588335394859314,0.08512314409017563
3,1,32,16,0.5609951019287109,0.034183382987976074
3,1,32,17,0.4115767776966095,0.022001395002007484
3,1,32,18,0.6027277112007141,0.05597331374883652
3,1,32,19,0.3297519087791443,0.09554369747638702
3,1,32,20,0.41974136233329773,0.09181448817253113
3,1,32,21,0.3893371522426605,0.11124454438686371
3,1,32,22,0.5220905542373657,0.0607931986451149
3,1,32,23,0.5082651376724243,0.1107814610004425
3,1,32,24,0.5011396408081055,0.04317866265773773
3,1,32,25,0.4430212676525116,0.09115427732467651
3,1,32,26,0.4275710880756378,0.06656846404075623
3,1,32,27,0.39555391669273376,0.10882444679737091
3,1,32,28,0.43097978830337524,0.026784587651491165
3,1,32,29,0.5999900102615356,0.04956871643662453
3,1,32,30,0.5442871451377869,0.15167656540870667
3,1,32,31,0.35090288519859314,0.08022001385688782
3,2,64,0,0.45933330059051514,0.16350510716438293
3,2,64,1,0.38721540570259094,0.12406440079212189
3,2,64,2,0.42262139916419983,0.10002975910902023
3,2,64,3,0.5159285068511963,0.07314202934503555
3,2,64,4,0.5455504655838013,0.09944075345993042
3,2,64,5,0.5526248216629028,0.09826353937387466
3,2,64,6,0.5835053324699402,0.037920575588941574
3,2,64,7,0.46492570638656616,0.0861569195985794
3,2,64,8,0.3832448124885559,0.06645096093416214
3,2,64,9,0.3847386837005615,0.06252997368574142
3,2,64,10,0.6264022588729858,0.07993809878826141
3,2,64,11,0.5199049115180969,0.1554536521434784
3,2,64,12,0.48786279559135437,0.10409224033355713
3,2,64,13,0.4002152979373932,0.14570821821689606
3,2,64,14,0.674710750579834,0.08272512257099152
3,2,64,15,0.5380874872207642,0.0826728492975235
3,2,64,16,0.4945105016231537,0.14727261662483215
3,2,64,17,0.45083650946617126,0.1270969808101654
3,2,64,18,0.49117788672447205,0.10971477627754211
3,2,64,19,0.5573042631149292,0.16463030874729156
3,2,64,20,0.46352419257164,0.09035788476467133
3,2,64,21,0.4785400629043579,0.13705024123191833
3,2,64,22,0.40507540106773376,0.09599648416042328
3,2,64,23,0.4232303202152252,0.09270844608545303
3,2,64,24,0.3169742822647095,0.08019658923149109
3,2,64,25,0.3690895140171051,0.07180062681436539
3,2,64,26,0.5261415839195251,0.08399704843759537
3,2,64,27,0.4616162180900574,0.13565592467784882
3,2,64,28,0.5648134350776672,0.1084575280547142
3,2,64,29,0.4682416021823883,0.12204819172620773
3,2,64,30,0.4489207863807678,0.05547761544585228
3,2,64,31,0.48930662870407104,0.0749865397810936
3,2,64,32,0.4421800971031189,0.046221502125263214
3,2,64,33,0.41597771644592285,0.16102451086044312
3,2,64,34,0.5741633176803589,0.05300173908472061
3,2,64,35,0.5709785223007202,0.07562434673309326
3,2,64,36,0.4122941493988037,0.05372067540884018
3,2,64,37,0.5463314056396484,0.1437436193227768
3,2,64,38,0.4824353754520416,0.06469511240720749
3,2,64,39,0.4952082335948944,0.039350900799036026
3,2,64,40,0.574027955532074,0.05884344503283501
3,2,64,41,0.35566651821136475,0.12398692220449448
3,2,64,42,0.46357324719429016,0.15575644373893738
3,2,64,43,0.6372498869895935,0.11070182919502258
3,2,64,44,0.4790897071361542,0.04153436794877052
3,2,64,45,0.4704144299030304,0.10479211807250977
3,2,64,46,0.538567066192627,0.08608142286539078
3,2,64,47,0.4154195785522461,0.13287340104579926
3,2,64,48,0.48627814650535583,0.11458653211593628
3,2,64,49,0.5607856512069702,0.13756237924098969
3,2,64,50,0.5896214246749878,0.06721886247396469
3,2,64,51,0.5135408639907837,0.09829416126012802
3,2,64,52,0.3092948794364929,0.11436495184898376
3,2,64,53,0.4634415805339813,0.1468977928161621
3,2,64,54,0.5781235098838806,0.14483395218849182
3,2,64,55,0.40905219316482544,0.11728540062904358
3,2,64,56,0.36935529112815857,0.1117154136300087
3,2,64,57,0.46700894832611084,0.0693087950348854
3,2,64,58,0.33034735918045044,0.10157176852226257
3,2,64,59,0.628433346748352,0.05559806898236275
3,2,64,60,0.4678347110748291,0.09304895997047424
3,2,64,61,0.5154970288276672,0.08057624101638794
3,2,64,62,0.5492427945137024,0.0633363202214241
3,2,64,63,0.43454962968826294,0.04005751758813858
3,3,64,0,0.38132527470588684,0.21597936749458313
3,3,64,1,0.5976926684379578,0.041985977441072464
3,3,64,2,0.269897997379303,0.15014882385730743
3,3,64,3,0.5225949883460999,0.09791271388530731
3,3,64,4,0.4176936745643616,0.09533581137657166
3,3,64,5,0.6505725383758545,0.27847734093666077
3,3,64,6,0.4980720579624176,0.1504458636045456
3,3,64,7,0.6719831228256226,0.12942884862422943
3,3,64,8,0.4120212197303772,0.09708006680011749
3,3,64,9,0.5750777721405029,0.11684659123420715
3,3,64,10,0.5959763526916504,0.10970036685466766
3,3,64,11,0.5159950256347656,0.15437987446784973
3,3,64,12,0.5589818954467773,0.1661633551120758
3,3,64,13,0.44124966859817505,0.11407509446144104
3,3,64,14,0.5217403173446655,0.06221351400017738
3,3,64,15,0.5375365614891052,0.09012631326913834
3,3,64,16,0.4573950171470642,0.18739067018032074
3,3,64,17,0.41553738713264465,0.07454926520586014
3,3,64,18,0.4235858917236328,0.08155675232410431
3,3,64,19,0.3579687476158142,0.11702258884906769
3,3,64,20,0.3325382471084595,0.0738268718123436
3,3,64,21,0.6837417483329773,0.218393474817276
3,3,64,22,0.3015565574169159,0.18807759881019592
3,3,64,23,0.6083489060401917,0.0800727978348732
3,3,64,24,0.6198077201843262,0.07488612830638885
3,3,64,25,0.3631214499473572,0.11685876548290253
3,3,64,26,0.5823974013328552,0.2466231882572174
3,3,64,27,0.3207054138183594,0.17616060376167297
3,3,64,28,0.5036947727203369,0.1018645167350769
3,3,64,29,0.310270756483078,0.09208261221647263
3,3,64,30,0.2999480366706848,0.11965871602296829
3,3,64,31,0.6709479093551636,0.0786321833729744
3,3,64,32,0.65823894739151,0.12181580066680908
3,3,64,33,0.33639585971832275,0.09616511315107346
3,3,64,34,0.5752795934677124,0.03427000716328621
3,3,64,35,0.6504202485084534,0.2037581205368042
3,3,64,36,0.3310551941394806,0.09480497241020203
3,3,64,37,0.5616095662117004,0.10028286278247833
3,3,64,38,0.43523743748664856,0.17724239826202393
3,3,64,39,0.5005657076835632,0.07848553359508514
3,3,64,40,0.2949683666229248,0.15973922610282898
3,3,64,41,0.6122876405715942,0.1823558509349823
3,3,64,42,0.2998017370700836,0.07395729422569275
3,3,64,43,0.5034624338150024,0.07333159446716309
3,3,64,44,0.4225769639015198,0.10102691501379013
3,3,64,45,0.6334498524665833,0.22876574099063873
3,3,64,46,0.47242674231529236,0.10165856778621674
3,3,64,47,0.6847301721572876,0.2773059606552124
3,3,64,48,0.4856812357902527,0.12398809939622879
3,3,64,49,0.6278917193412781,0.23555214703083038
3,3,64,50,0.5503027439117432,0.0992022231221199
3,3,64,51,0.6046102643013,0.06204177066683769
3,3,64,52,0.6744499802589417,0.06753769516944885
3,3,64,53,0.6437186002731323,0.1790311634540558
3,3,64,54,0.5346199870109558,0.10460647195577621
3,3,64,55,0.661117434501648,0.23147836327552795
3,3,64,56,0.6339094042778015,0.2332654446363449
3,3,64,57,0.5403485894203186,0.1694663017988205
3,3,64,58,0.2453853040933609,0.12547864019870758
3,3,64,59,0.605465292930603,0.04728561267256737
3,3,64,60,0.6279469132423401,0.1487303376197815
3,3,64,61,0.33433228731155396,0.09952963888645172
3,3,64,62,0.49541881680488586,0.09385600686073303
3,3,64,63,0.3054843246936798,0.10223154723644257
3,4,128,0,0.712754487991333,0.17484517395496368
3,4,128,1,0.646709680557251,0.21737195551395416
3,4,128,2,0.6359191536903381,0.11099909245967865
3,4,128,3,0.6212620139122009,0.11498991400003433
3,4,128,4,0.6053106188774109,0.08097556233406067
3,4,128,5,0.5218791961669922,0.03699537739157677
3,4,128,6,0.5527877807617188,0.11820053309202194
3,4,128,7,0.7125826478004456,0.24783064424991608
3,4,128,8,0.8008173704147339,0.13857750594615936
3,4,128,9,0.6344902515411377,0.29745087027549744
3,4,128,10,0.8028565645217896,0.15327708423137665
3,4,128,11,0.310234397649765,0.16370789706707
3,4,128,12,0.5618458986282349,0.12777210772037506
3,4,128,13,0.5223304629325867,0.07402022182941437
3,4,128,14,0.387477308511734,0.08070939779281616
3,4,128,15,0.7980653047561646,0.11605551093816757
3,4,128,16,0.380549818277359,0.26369190216064453
3,4,128,17,0.3275434076786041,0.22438016533851624
3,4,128,18,0.327589213848114,0.20411832630634308
3,4,128,19,0.4321707785129547,0.28544774651527405
3,4,128,20,0.7844799757003784,0.1119101420044899
3,4,128,21,0.6234325766563416,0.07307585328817368
3,4,128,22,0.5738692879676819,0.11751022934913635
3,4,128,23,0.7696534395217896,0.10651286691427231
3,4,128,24,0.6089620590209961,0.10571495443582535
3,4,128,25,0.622994601726532,0.064356230199337
3,4,128,26,0.5340859889984131,0.15036572515964508
3,4,128,27,0.5387806296348572,0.13899677991867065
3,4,128,28,0.5378358364105225,0.10931899398565292
3,4,128,29,0.3670167624950409,0.25368624925613403
3,4,128,30,0.5324706435203552,0.08260327577590942
3,4,128,31,0.7385254502296448,0.22504103183746338
3,4,128,32,0.6122131943702698,0.11866476386785507
3,4,128,33,0.7626854181289673,0.09589733928442001
3,4,128,34,0.5499317049980164,0.05856478214263916
3,4,128,35,0.49294406175613403,0.15771324932575226
3,4,128,36,0.5609239339828491,0.06263648718595505
3,4,128,37,0.6555285453796387,0.05625945329666138
3,4,128,38,0.3620719909667969,0.33024194836616516
3,4,128,39,0.27331191301345825,0.22609154880046844
3,4,128,40,0.32800552248954773,0.21725156903266907
3,4,128,41,0.38350585103034973,0.2690082788467407
3,4,128,42,0.41414761543273926,0.12536312639713287
3,4,128,43,0.7249243855476379,0.10177246481180191
3,4,128,44,0.6400414705276489,0.16032075881958008
3,4,128,45,0.6888465881347656,0.2974141240119934
3,4,128,46,0.573281466960907,0.16752871870994568
3,4,128,47,0.6753949522972107,0.28334373235702515
3,4,128,48,0.7732866406440735,0.1397363394498825
3,4,128,49,0.33476150035858154,0.15664762258529663
3,4,128,50,0.6915902495384216,0.09945639967918396
3,4,128,51,0.7485707998275757,0.24918204545974731
3,4,128,52,0.5307098627090454,0.14116986095905304
3,4,128,53,0.7510053515434265,0.07475470751523972
3,4,128,54,0.771750807762146,0.13154473900794983
3,4,128,55,0.6620834469795227,0.20957981050014496
3,4,128,56,0.6614663004875183,0.12393207848072052
3,4,128,57,0.46869683265686035,0.1457570493221283
3,4,128,58,0.6746987104415894,0.2307835817337036
3,4,128,59,0.7592325806617737,0.20857098698616028
3,4,128,60,0.7693366408348083,0.21086281538009644
3,4,128,61,0.24648763239383698,0.20642682909965515
3,4,128,62,0.7096102237701416,0.252022922039032
3,4,128,63,0.4820813834667206,0.18547514081001282
3,4,128,64,0.3685530424118042,0.2141992151737213
3,4,128,65,0.7044897079467773,0.13391873240470886
3,4,128,66,0.3198849856853485,0.27497145533561707
3,4,128,67,0.3778953552246094,0.2216237634420395
3,4,128,68,0.31508180499076843,0.22903837263584137
3,4,128,69,0.37776485085487366,0.2624795436859131
3,4,128,70,0.37233051657676697,0.09195803850889206
3,4,128,71,0.6998013854026794,0.20557013154029846
3,4,128,72,0.4667707085609436,0.16791358590126038
3,4,128,73,0.7188563346862793,0.12475895881652832
3,4,128,74,0.3699941635131836,0.23658695816993713
3,4,128,75,0.4373614490032196,0.18836882710456848
3,4,128,76,0.6750317811965942,0.0931810736656189
3,4,128,77,0.6941049098968506,0.08714137226343155
3,4,128,78,0.6851329207420349,0.2229885309934616
3,4,128,79,0.44613274931907654,0.05127079039812088
3,4,128,80,0.6667050123214722,0.12907975912094116
3,4,128,81,0.7330054044723511,0.16479216516017914
3,4,128,82,0.5069444179534912,0.14884166419506073
3,4,128,83,0.49614450335502625,0.07887520641088486
3,4,128,84,0.6754156947135925,0.2163945585489273
3,4,128,85,0.5206232070922852,0.019344748929142952
3,4,128,86,0.7498233914375305,0.11150380969047546
3,4,128,87,0.5757155418395996,0.06391464918851852
3,4,128,88,0.6410408020019531,0.06208851560950279
3,4,128,89,0.6361207962036133,0.11671115458011627
3,4,128,90,0.7824392914772034,0.15999844670295715
3,4,128,91,0.68564772605896,0.18133972585201263
3,4,128,92,0.36325061321258545,0.22562219202518463
3,4,128,93,0.32302191853523254,0.27989041805267334
3,4,128,94,0.4296894073486328,0.12430411577224731
3,4,128,95,0.7388626933097839,0.2186705768108368
3,4,128,96,0.7416978478431702,0.13683506846427917
3,4,128,97,0.2824300527572632,0.24247623980045319
3,4,128,98,0.7218417525291443,0.15743501484394073
3,4,128,99,0.731536865234375,0.1754121482372284
3,4,128,100,0.7071892619132996,0.20534543693065643
3,4,128,101,0.6092125177383423,0.06853049993515015
3,4,128,102,0.7989261150360107,0.10291680693626404
3,4,128,103,0.6223657131195068,0.05653083324432373
3,4,128,104,0.6677911281585693,0.08729781210422516
3,4,128,105,0.5155994892120361,0.10474230349063873
3,4,128,106,0.6418527960777283,0.20152205228805542
3,4,128,107,0.6627538800239563,0.2173343151807785
3,4,128,108,0.6884057521820068,0.1806218922138214
3,4,128,109,0.6582762598991394,0.18442676961421967
3,4,128,110,0.5494449734687805,0.1740179806947708
3,4,128,111,0.634878396987915,0.25889524817466736
3,4,128,112,0.37176066637039185,0.1496294140815735
3,4,128,113,0.7948668003082275,0.1369996964931488
3,4,128,114,0.3044676184654236,0.23880065977573395
3,4,128,115,0.6600542664527893,0.30335310101509094
3,4,128,116,0.5170517563819885,0.1640167236328125
3,4,128,117,0.3214597702026367,0.13276883959770203
3,4,128,118,0.42087072134017944,0.06458088755607605
3,4,128,119,0.6426576972007751,0.09358929842710495
3,4,128,120,0.6453592777252197,0.0963464081287384
3,4,128,121,0.6341726779937744,0.12095918506383896
3,4,128,122,0.7719047665596008,0.10291216522455215
3,4,128,123,0.29101961851119995,0.10318689048290253
3,4,128,124,0.6374995112419128,0.31318366527557373
3,4,128,125,0.44505658745765686,0.057772520929574966
3,4,128,126,0.6479008197784424,0.20437005162239075
3,4,128,127,0.6944459676742554,0.2061259001493454
3,5,128,0,0.5511720776557922,0.0855526551604271
3,5,128,1,0.5988818407058716,0.046845659613609314
3,5,128,2,0.6535479426383972,0.09608377516269684
3,5,128,3,0.586709201335907,0.11584746092557907
3,5,128,4,0.49111485481262207,0.04244117811322212
3,5,128,5,0.44222724437713623,0.07408363372087479
3,5,128,6,0.5474517345428467,0.03477831184864044
3,5,128,7,0.5265281796455383,0.1162140890955925
3,5,128,8,0.5685985088348389,0.09973884373903275
3,5,128,9,0.6183674335479736,0.06591452658176422
3,5,128,10,0.6156400442123413,0.09712447226047516
3,5,128,11,0.5140275359153748,0.13587012887001038
3,5,128,12,0.5026240348815918,0.06896057724952698
3,5,128,13,0.5968528985977173,0.10876354575157166
3,5,128,14,0.5478375554084778,0.11345816403627396
3,5,128,15,0.4767087399959564,0.0482046864926815
3,5,128,16,0.6660266518592834,0.09079796820878983
3,5,128,17,0.5873183608055115,0.1740417778491974
3,5,128,18,0.45461201667785645,0.026878323405981064
3,5,128,19,0.5380335450172424,0.142571821808815
3,5,128,20,0.5749162435531616,0.059820130467414856
3,5,128,21,0.4436156153678894,0.13343724608421326
3,5,128,22,0.4369826018810272,0.11644899845123291
3,5,128,23,0.5890675187110901,0.1958044171333313
3,5,128,24,0.509375810623169,0.0708736926317215
3,5,128,25,0.5508379340171814,0.0972178727388382
3,5,128,26,0.5059282779693604,0.13715079426765442
3,5,128,27,0.6015259027481079,0.14445525407791138
3,5,128,28,0.5537999272346497,0.09432411938905716
3,5,128,29,0.37230589985847473,0.09678483009338379
3,5,128,30,0.6105057597160339,0.07428348064422607
3,5,128,31,0.6557036638259888,0.11108551919460297
3,5,128,32,0.599616527557373,0.08041072636842728
3,5,128,33,0.5953121185302734,0.12903456389904022
3,5,128,34,0.5269486308097839,0.13948911428451538
3,5,128,35,0.6753406524658203,0.09556213021278381
3,5,128,36,0.5774049758911133,0.10019969940185547
3,5,128,37,0.635490894317627,0.10418866574764252
3,5,128,38,0.49003180861473083,0.08695153146982193
3,5,128,39,0.5349658131599426,0.09521829336881638
3,5,128,40,0.4888805150985718,0.11765982210636139
3,5,128,41,0.5440670251846313,0.1201019212603569
3,5,128,42,0.5937768220901489,0.09885542094707489
3,5,128,43,0.54877108335495,0.11341609805822372
3,5,128,44,0.5920823216438293,0.05872968211770058
3,5,128,45,0.5291930437088013,0.034770455211400986
3,5,128,46,0.6039133071899414,0.10351207107305527
3,5,128,47,0.5337734818458557,0.16114285588264465
3,5,128,48,0.6519830822944641,0.1176106184720993
3,5,128,49,0.563765823841095,0.07214438170194626
3,5,128,50,0.6438402533531189,0.09740285575389862
3,5,128,51,0.6097570061683655,0.16281893849372864
3,5,128,52,0.522942304611206,0.14397919178009033
3,5,128,53,0.5016378164291382,0.11913622170686722
3,5,128,54,0.4221956729888916,0.06299027055501938
3,5,128,55,0.46602198481559753,0.046574197709560394
3,5,128,56,0.5206071734428406,0.07501188665628433
3,5,128,57,0.6499630212783813,0.11720456928014755
3,5,128,58,0.5323210954666138,0.06141559034585953
3,5,128,59,0.689559280872345,0.09264159202575684
3,5,128,60,0.5456802248954773,0.09608865529298782
3,5,128,61,0.35801926255226135,0.09845777601003647
3,5,128,62,0.6483948826789856,0.1340307742357254
3,5,128,63,0.6412721276283264,0.08271629363298416
3,5,128,64,0.5517222285270691,0.13067194819450378
3,5,128,65,0.501020610332489,0.16610857844352722
3,5,128,66,0.5450133085250854,0.039076365530490875
3,5,128,67,0.5192152857780457,0.042837247252464294
3,5,128,68,0.6433891654014587,0.09672833979129791
3,5,128,69,0.6411334276199341,0.0938272774219513
3,5,128,70,0.664420485496521,0.07907881587743759
3,5,128,71,0.5816581845283508,0.15503601729869843
3,5,128,72,0.5745594501495361,0.042245447635650635
3,5,128,73,0.6293118000030518,0.0695047676563263
3,5,128,74,0.4972430169582367,0.05009612441062927
3,5,128,75,0.4681306779384613,0.12128790467977524
3,5,128,76,0.4552499055862427,0.11833210289478302
3,5,128,77,0.4132142663002014,0.05112901329994202
3,5,128,78,0.6516831517219543,0.10082508623600006
3,5,128,79,0.6140608191490173,0.05803591385483742
3,5,128,80,0.5599479079246521,0.06532470881938934
3,5,128,81,0.5652150511741638,0.17519713938236237
3,5,128,82,0.6434023976325989,0.06923216581344604
3,5,128,83,0.5009363293647766,0.16896352171897888
3,5,128,84,0.5581408143043518,0.14828909933567047
3,5,128,85,0.6005244851112366,0.09934715926647186
3,5,128,86,0.587995707988739,0.0750701054930687
3,5,128,87,0.5350195169448853,0.15594998002052307
3,5,128,88,0.5023618936538696,0.12042859196662903
3,5,128,89,0.4111814796924591,0.07734460383653641
3,5,128,90,0.6237123012542725,0.09719379246234894
3,5,128,91,0.5920928120613098,0.1541488617658615
3,5,128,92,0.6511892676353455,0.11465898156166077
3,5,128,93,0.5387628674507141,0.0866987332701683
3,5,128,94,0.5125831365585327,0.1282057911157608
3,5,128,95,0.637759804725647,0.10392540693283081
3,5,128,96,0.6424106955528259,0.11855252832174301
3,5,128,97,0.6438236236572266,0.08883272856473923
3,5,128,98,0.5872386693954468,0.13745473325252533
3,5,128,99,0.653708815574646,0.09824573248624802
3,5,128,100,0.5504536628723145,0.14695298671722412
3,5,128,101,0.5296133756637573,0.020228315144777298
3,5,128,102,0.6417864561080933,0.10596124827861786
3,5,128,103,0.4808792769908905,0.08583587408065796
3,5,128,104,0.6305607557296753,0.08670814335346222
3,5,128,105,0.4474833607673645,0.1270362138748169
3,5,128,106,0.5975578427314758,0.12999163568019867
3,5,128,107,0.5655985474586487,0.0979577824473381
3,5,128,108,0.5442394614219666,0.08935444056987762
3,5,128,109,0.6378046870231628,0.08228214085102081
3,5,128,110,0.5743752121925354,0.06217877194285393
3,5,128,111,0.4949440360069275,0.03929763659834862
3,5,128,112,0.5848231911659241,0.12346396595239639
3,5,128,113,0.6386669874191284,0.09992654621601105
3,5,128,114,0.4790867269039154,0.10459385812282562
3,5,128,115,0.5602673292160034,0.12487448751926422
3,5,128,116,0.39938482642173767,0.0988602563738823
3,5,128,117,0.6776416897773743,0.10040289908647537
3,5,128,118,0.6020190119743347,0.09432509541511536
3,5,128,119,0.555524468421936,0.09920930117368698
3,5,128,120,0.6084914207458496,0.11768540740013123
3,5,128,121,0.5471822023391724,0.1258193552494049
3,5,128,122,0.6217290163040161,0.06882613897323608
3,5,128,123,0.4118821620941162,0.10406787693500519
3,5,128,124,0.5732905864715576,0.1490722894668579
3,5,128,125,0.5819799304008484,0.04247570037841797
3,5,128,126,0.43104299902915955,0.10427014529705048
3,5,128,127,0.5098509192466736,0.023049306124448776
4,0,32,0,0.6147693395614624,0.08943704515695572
4,0,32,1,0.49404236674308777,0.07070519030094147
4,0,32,2,0.4272119104862213,0.1386212259531021
4,0,32,3,0.6346944570541382,0.12026145309209824
4,0,32,4,0.47284096479415894,0.11785506457090378
4,0,32,5,0.3153337836265564,0.1118125468492508
4,0,32,6,0.4968246519565582,0.0998285785317421
4,0,32,7,0.41991811990737915,0.1474124938249588
4,0,32,8,0.3797069489955902,0.07385317981243134
4,0,32,9,0.4100712537765503,0.06198706105351448
4,0,32,10,0.45779675245285034,0.17668919265270233
4,0,32,11,0.49954190850257874,0.11876583844423294
4,0,32,12,0.4621126651763916,0.07955312728881836
4,0,32,13,0.5545394420623779,0.08835746347904205
4,0,32,14,0.4269357919692993,0.07677870243787766
4,0,32,15,0.4959064722061157,0.11017315089702606
4,0,32,16,0.27450376749038696,0.13298717141151428
4,0,32,17,0.4308469295501709,0.03734380006790161
4,0,32,18,0.48599764704704285,0.15839844942092896
4,0,32,19,0.4595012664794922,0.1276094913482666
4,0,32,20,0.4034446179866791,0.094051294028759
4,0,32,21,0.5274878740310669,0.14811110496520996
4,0,32,22,0.36790531873703003,0.0695052444934845
4,0,32,23,0.4706798195838928,0.11591429263353348
4,0,32,24,0.5430318117141724,0.1689981371164322
4,0,32,25,0.6058482527732849,0.11424741894006729
4,0,32,26,0.4774248003959656,0.1034465804696083
4,0,32,27,0.468095064163208,0.07721549272537231
4,0,32,28,0.46685248613357544,0.13122935593128204
4,0,32,29,0.3059064745903015,0.13073724508285522
4,0,32,30,0.5557066798210144,0.10501941293478012
4,0,32,31,0.5125677585601807,0.12224576622247696
4,1,32,0,0.4913949966430664,0.06052469462156296
4,1,32,1,0.46165624260902405,0.08923593908548355
4,1,32,2,0.3695610463619232,0.11669864505529404
4,1,32,3,0.5113457441329956,0.05934995785355568
4,1,32,4,0.40164631605148315,0.08271150290966034
4,1,32,5,0.6032291054725647,0.045828621834516525
4,1,32,6,0.4932970106601715,0.12004014849662781
4,1,32,7,0.3874911367893219,0.04160153120756149
4,1,32,8,0.5994897484779358,0.06460914760828018
4,1,32,9,0.5794788599014282,0.10215260088443756
4,1,32,10,0.5780798196792603,0.030692821368575096
4,1,32,11,0.5554986596107483,0.03272750601172447
4,1,32,12,0.6462764739990234,0.08544957637786865
4,1,32,13,0.38365256786346436,0.07634694129228592
4,1,32,14,0.48560193181037903,0.10429269820451736
4,1,32,15,0.4443330466747284,0.08630584180355072
4,1,32,16,0.5716603994369507,0.052168142050504684
4,1,32,17,0.5695938467979431,0.09911631047725677
4,1,32,18,0.5180148482322693,0.019320856779813766
4,1,32,19,0.36906298995018005,0.03947095572948456
4,1,32,20,0.4153135418891907,0.046703945845365524
4,1,32,21,0.4167907238006592,0.11290586739778519
4,1,32,22,0.3989103436470032,0.020841799676418304
4,1,32,23,0.45041555166244507,0.04679301753640175
4,1,32,24,0.6470515131950378,0.08498988300561905
4,1,32,25,0.5162286758422852,0.11666518449783325
4,1,32,26,0.5547134876251221,0.09625445306301117
4,1,32,27,0.5683517456054688,0.07703281939029694
4,1,32,28,0.537709653377533,0.072731614112854
4,1,32,29,0.39651766419410706,0.09193349629640579
4,1,32,30,0.5963689088821411,0.04234468564391136
4,1,32,31,0.4757397174835205,0.026832781732082367
4,2,64,0,0.3716241121292114,0.14027321338653564
4,2,64,1,0.4114420413970947,0.07659551501274109
4,2,64,2,0.5123853087425232,0.08306391537189484
4,2,64,3,0.6124229431152344,0.08734095096588135
4,2,64,4,0.6932606101036072,0.0757824033498764
4,2,64,5,0.49549567699432373,0.15665264427661896
4,2,64,6,0.3108302354812622,0.08098118752241135
4,2,64,7,0.6103816032409668,0.05490720644593239
4,2,64,8,0.4791553020477295,0.2616884112358093
4,2,64,9,0.3676450848579407,0.11336922645568848
4,2,64,10,0.4528539478778839,0.08371976763010025
4,2,64,11,0.5240001082420349,0.11546677350997925
4,2,64,12,0.4611906111240387,0.21788127720355988
4,2,64,13,0.6253624558448792,0.07529690861701965
4,2,64,14,0.44612738490104675,0.09365413337945938
4,2,64,15,0.4611319303512573,0.1533042937517166
4,2,64,16,0.5568979978561401,0.21858783066272736
4,2,64,17,0.4554183781147003,0.1727607548236847
4,2,64,18,0.5158202052116394,0.2194739729166031
4,2,64,19,0.5196149349212646,0.10865496844053268
4,2,64,20,0.5201616883277893,0.1536879986524582
4,2,64,21,0.5114537477493286,0.08156706392765045
4,2,64,22,0.4473915994167328,0.15769782662391663
4,2,64,23,0.37881889939308167,0.10847504436969757
4,2,64,24,0.36226898431777954,0.195771262049675
4,2,64,25,0.5234085917472839,0.09686457365751266
4,2,64,26,0.4621537923812866,0.19381293654441833
4,2,64,27,0.513332724571228,0.0545659065246582
4,2,64,28,0.4006365239620209,0.09093404561281204
4,2,64,29,0.5023802518844604,0.17367158830165863
4,2,64,30,0.4888238310813904,0.15410639345645905
4,2,64,31,0.5174238681793213,0.1864139586687088
4,2,64,32,0.4752172529697418,0.15847554802894592
4,2,64,33,0.4976106584072113,0.16682200133800507
4,2,64,34,0.5036941766738892,0.09804592281579971
4,2,64,35,0.590621829032898,0.12069442868232727
4,2,64,36,0.464999794960022,0.07618506252765656
4,2,64,37,0.6634187698364258,0.08170388638973236
4,2,64,38,0.4806405305862427,0.12340325862169266
4,2,64,39,0.48549529910087585,0.2546808123588562
4,2,64,40,0.5903836488723755,0.06455598026514053
4,2,64,41,0.42943793535232544,0.199069082736969
4,2,64,42,0.4042929410934448,0.059393297880887985
4,2,64,43,0.6109042763710022,0.16575640439987183
4,2,64,44,0.3451464772224426,0.06720449030399323
4,2,64,45,0.6443727612495422,0.07454872876405716
4,2,64,46,0.3646664023399353,0.0689312145113945
4,2,64,47,0.4268795847892761,0.09525129944086075
4,2,64,48,0.4526523947715759,0.17550580203533173
4,2,64,49,0.3477848470211029,0.07576561719179153
4,2,64,50,0.5178059935569763,0.12361406534910202
4,2,64,51,0.53033047914505,0.10135733336210251
4,2,64,52,0.4834548532962799,0.13716354966163635
4,2,64,53,0.5785149931907654,0.15169578790664673
4,2,64,54,0.4738607108592987,0.10951175540685654
4,2,64,55,0.4815562069416046,0.11126244068145752
4,2,64,56,0.5906731486320496,0.0924321636557579
4,2,64,57,0.3691624402999878,0.09970948100090027
4,2,64,58,0.5673446655273438,0.10977599024772644
4,2,64,59,0.4170742332935333,0.07559904456138611
4,2,64,60,0.37311676144599915,0.1389152854681015
4,2,64,61,0.6102811098098755,0.21943028271198273
4,2,64,62,0.6117562055587769,0.16631560027599335
4,2,64,63,0.3632544279098511,0.120920330286026
4,3,64,0,0.5194278359413147,0.07027993351221085
4,3,64,1,0.3989424705505371,0.08257759362459183
4,3,64,2,0.4474903345108032,0.06547371298074722
4,3,64,3,0.4307629466056824,0.1284342259168625
4,3,64,4,0.5565930604934692,0.027479376643896103
4,3,64,5,0.35604530572891235,0.09193944931030273
4,3,64,6,0.6033449769020081,0.27532315254211426
4,3,64,7,0.5069075226783752,0.15848134458065033
4,3,64,8,0.5180320739746094,0.05750641971826553
4,3,64,9,0.27210816740989685,0.09016768634319305
4,3,64,10,0.534281849861145,0.15217868983745575
4,3,64,11,0.4541531503200531,0.13284583389759064
4,3,64,12,0.6045226454734802,0.07317160815000534
4,3,64,13,0.653815507888794,0.28754693269729614
4,3,64,14,0.48355820775032043,0.08544710278511047
4,3,64,15,0.43821826577186584,0.10137199610471725
4,3,64,16,0.20108962059020996,0.07128768414258957
4,3,64,17,0.3934856057167053,0.10774341225624084
4,3,64,18,0.45599499344825745,0.25713878870010376
4,3,64,19,0.4823658764362335,0.09930336475372314
4,3,64,20,0.6536732316017151,0.12322153896093369
4,3,64,21,0.614689290523529,0.12718132138252258
4,3,64,22,0.3069535791873932,0.11487922817468643
4,3,64,23,0.5009717345237732,0.08539857715368271
4,3,64,24,0.5375714898109436,0.14938510954380035
4,3,64,25,0.5006435513496399,0.09689221531152725
4,3,64,26,0.387425035238266,0.10349208861589432
4,3,64,27,0.3935306966304779,0.09604304283857346
4,3,64,28,0.6095863580703735,0.15828299522399902
4,3,64,29,0.6002762317657471,0.09849235415458679
4,3,64,30,0.3621072769165039,0.09870266914367676
4,3,64,31,0.6028480529785156,0.11080116778612137
4,3,64,32,0.46714597940444946,0.12630869448184967
4,3,64,33,0.3928483724594116,0.1422756165266037
4,3,64,34,0.5035446882247925,0.11415976285934448
4,3,64,35,0.4116915762424469,0.24328790605068207
4,3,64,36,0.5760073661804199,0.05024736002087593
4,3,64,37,0.5038552284240723,0.16858817636966705
4,3,64,38,0.4519604444503784,0.16544809937477112
4,3,64,39,0.24423237144947052,0.08343096822500229
4,3,64,40,0.42896753549575806,0.08500242978334427
4,3,64,41,0.4284999668598175,0.05451812967658043
4,3,64,42,0.5212809443473816,0.15067079663276672
4,3,64,43,0.6309229731559753,0.21870946884155273
4,3,64,44,0.3938314914703369,0.09770028293132782
4,3,64,45,0.37546011805534363,0.07051098346710205
4,3,64,46,0.552285373210907,0.05026276409626007
4,3,64,47,0.4568943381309509,0.07326839119195938
4,3,64,48,0.4378165900707245,0.0282392930239439
4,3,64,49,0.6424195766448975,0.10418789088726044
4,3,64,50,0.492610901594162,0.18948455154895782
4,3,64,51,0.637650728225708,0.13002188503742218
4,3,64,52,0.5197719931602478,0.10713133215904236
4,3,64,53,0.5736829042434692,0.1308007538318634
4,3,64,54,0.454322874546051,0.2078535556793213
4,3,64,55,0.45419833064079285,0.10960442572832108
4,3,64,56,0.49351683259010315,0.1627645045518875
4,3,64,57,0.5568445324897766,0.13709205389022827
4,3,64,58,0.3338389992713928,0.1469014286994934
4,3,64,59,0.5002860426902771,0.12010223418474197
4,3,64,60,0.6517581939697266,0.08716978877782822
4,3,64,61,0.46199899911880493,0.06437646597623825
4,3,64,62,0.6202078461647034,0.1039988175034523
4,3,64,63,0.4976922273635864,0.14108364284038544
4,4,128,0,0.4536553919315338,0.2659495174884796
4,4,128,1,0.7321483492851257,0.10775459557771683
4,4,128,2,0.672753095626831,0.17674513161182404
4,4,128,3,0.5357626080513,0.1911529302597046
4,4,128,4,0.7189622521400452,0.1330864131450653
4,4,128,5,0.34255504608154297,0.17471548914909363
4,4,128,6,0.5694207549095154,0.1234268844127655
4,4,128,7,0.6436954736709595,0.238174170255661
4,4,128,8,0.5294737219810486,0.20927828550338745
4,4,128,9,0.496800035238266,0.12035029381513596
4,4,128,10,0.6007578372955322,0.26034486293792725
4,4,128,11,0.5853991508483887,0.18169590830802917
4,4,128,12,0.6857634782791138,0.10437722504138947
4,4,128,13,0.7553265690803528,0.08686497062444687
4,4,128,14,0.7009746432304382,0.09090320765972137
4,4,128,15,0.5880741477012634,0.22523386776447296
4,4,128,16,0.36039212346076965,0.2112005203962326
4,4,128,17,0.6343138217926025,0.19754032790660858
4,4,128,18,0.6518263220787048,0.24721688032150269
4,4,128,19,0.5441623330116272,0.09525857120752335
4,4,128,20,0.6191170811653137,0.09751547873020172
4,4,128,21,0.46849313378334045,0.18054795265197754
4,4,128,22,0.6400197148323059,0.1756732016801834
4,4,128,23,0.6049925684928894,0.3015526831150055
4,4,128,24,0.6324847340583801,0.2818014323711395
4,4,128,25,0.3491845428943634,0.27341732382774353
4,4,128,26,0.5431953072547913,0.1594555377960205
4,4,128,27,0.6956301331520081,0.2273576557636261
4,4,128,28,0.4232279062271118,0.06234678253531456
4,4,128,29,0.6975592374801636,0.12818585336208344
4,4,128,30,0.40751150250434875,0.19264812767505646
4,4,128,31,0.5092512965202332,0.09486056864261627
4,4,128,32,0.3998320996761322,0.20620915293693542
4,4,128,33,0.4012523293495178,0.2385556697845459
4,4,128,34,0.6410150527954102,0.18766124546527863
4,4,128,35,0.6135957837104797,0.1282605081796646
4,4,128,36,0.5329329371452332,0.08397652953863144
4,4,128,37,0.4185803234577179,0.16014575958251953
4,4,128,38,0.7004252076148987,0.1331004649400711
4,4,128,39,0.6655561923980713,0.1265919953584671
4,4,128,40,0.4233750104904175,0.2513495087623596
4,4,128,41,0.39055997133255005,0.18275275826454163
4,4,128,42,0.44347047805786133,0.2302485853433609
4,4,128,43,0.4730033576488495,0.282317191362381
4,4,128,44,0.5863543152809143,0.10407238453626633
4,4,128,45,0.5446168184280396,0.1253020465373993
4,4,128,46,0.5185580849647522,0.1330106258392334
4,4,128,47,0.6445651054382324,0.25652608275413513
4,4,128,48,0.6205763816833496,0.06552012264728546
4,4,128,49,0.5396182537078857,0.2187533676624298
4,4,128,50,0.6345643401145935,0.07915696501731873
4,4,128,51,0.30078235268592834,0.20128972828388214
4,4,128,52,0.6085383892059326,0.25080594420433044
4,4,128,53,0.48481518030166626,0.10150033980607986
4,4,128,54,0.6266262531280518,0.2067018747329712
4,4,128,55,0.3904467523097992,0.0602695606648922
4,4,128,56,0.5474530458450317,0.10836465656757355
4,4,128,57,0.726334810256958,0.12099342048168182
4,4,128,58,0.41544392704963684,0.1556275635957718
4,4,128,59,0.48404523730278015,0.20668241381645203
4,4,128,60,0.41848793625831604,0.08408112078905106
4,4,128,61,0.7197154760360718,0.12328808754682541
4,4,128,62,0.49816301465034485,0.12296400219202042
4,4,128,63,0.7221537232398987,0.12893356382846832
4,4,128,64,0.35809075832366943,0.1564464122056961
4,4,128,65,0.5546214580535889,0.09225279092788696
4,4,128,66,0.6779904961585999,0.11945633590221405
4,4,128,67,0.47604337334632874,0.1557905077934265
4,4,128,68,0.6215031147003174,0.24299630522727966
4,4,128,69,0.3633335530757904,0.18699023127555847
4,4,128,70,0.5902031660079956,0.107517309486866
4,4,128,71,0.5550187230110168,0.09510166943073273
4,4,128,72,0.6382588148117065,0.17865055799484253
4,4,128,73,0.5619888305664062,0.11113878339529037
4,4,128,74,0.6934710144996643,0.12421887367963791
4,4,128,75,0.6741382479667664,0.2404310256242752
4,4,128,76,0.5803360342979431,0.19547416269779205
4,4,128,77,0.6525810956954956,0.13764989376068115
4,4,128,78,0.4071374833583832,0.21973973512649536
4,4,128,79,0.3189380466938019,0.27372556924819946
4,4,128,80,0.6952900886535645,0.08066461980342865
4,4,128,81,0.5840626955032349,0.2014366090297699
4,4,128,82,0.554572582244873,0.11526583880186081
4,4,128,83,0.6291016340255737,0.10589703917503357
4,4,128,84,0.49083808064460754,0.22554394602775574
4,4,128,85,0.4709658622741699,0.07756512612104416
4,4,128,86,0.6623838543891907,0.07279463112354279
4,4,128,87,0.6013104915618896,0.11160970479249954
4,4,128,88,0.46601924300193787,0.027511470019817352
4,4,128,89,0.6874887943267822,0.11523822695016861
4,4,128,90,0.5623342394828796,0.16370387375354767
4,4,128,91,0.6200494170188904,0.3081008195877075
4,4,128,92,0.61874920129776,0.2550859749317169
4,4,128,93,0.6775878071784973,0.1394183486700058
4,4,128,94,0.6183761358261108,0.0914638340473175
4,4,128,95,0.5052558183670044,0.04937022551894188
4,4,128,96,0.5821834802627563,0.2196880578994751
4,4,128,97,0.618699848651886,0.20913644134998322
4,4,128,98,0.6756079792976379,0.0969318225979805
4,4,128,99,0.6973564624786377,0.23578523099422455
4,4,128,100,0.6529179811477661,0.16714632511138916
4,4,128,101,0.6183592081069946,0.11810894310474396
4,4,128,102,0.5021152496337891,0.1319831758737564
4,4,128,103,0.6313580870628357,0.11249341070652008
4,4,128,104,0.41724660992622375,0.2552700340747833
4,4,128,105,0.6836035251617432,0.08878032118082047
4,4,128,106,0.5287535190582275,0.13942651450634003
4,4,128,107,0.6324398517608643,0.06392676383256912
4,4,128,108,0.7005722522735596,0.08812355995178223
4,4,128,109,0.35457637906074524,0.10615651309490204
4,4,128,110,0.4414217472076416,0.10414920002222061
4,4,128,111,0.5745993852615356,0.22653038799762726
4,4,128,112,0.5126419067382812,0.17882534861564636
4,4,128,113,0.5309503674507141,0.09741564840078354
4,4,128,114,0.5051329731941223,0.16340039670467377
4,4,128,115,0.5934696793556213,0.09661629050970078
4,4,128,116,0.5787413120269775,0.140640988945961
4,4,128,117,0.6687226295471191,0.11236672848463058
4,4,128,118,0.6626031398773193,0.15113341808319092
4,4,128,119,0.4003857374191284,0.17982880771160126
4,4,128,120,0.5311986207962036,0.12880995869636536
4,4,128,121,0.25497230887413025,0.07820703834295273
4,4,128,122,0.4968952536582947,0.12615524232387543
4,4,128,123,0.6324921250343323,0.3109916150569916
4,4,128,124,0.4560284912586212,0.11310530453920364
4,4,128,125,0.4113583266735077,0.10336432605981827
4,4,128,126,0.6154556274414062,0.13544230163097382
4,4,128,127,0.581914484500885,0.25241801142692566
4,5,128,0,0.5623899102210999,0.041766561567783356
4,5,128,1,0.5838356614112854,0.15449181199073792
4,5,128,2,0.6110775470733643,0.18815124034881592
4,5,128,3,0.7332009077072144,0.12800703942775726
4,5,128,4,0.4460436999797821,0.07425624877214432
4,5,128,5,0.6735225319862366,0.09855572879314423
4,5,128,6,0.5522882342338562,0.09930138289928436
4,5,128,7,0.6649391651153564,0.14451593160629272
4,5,128,8,0.43705078959465027,0.06466682255268097
4,5,128,9,0.7333926558494568,0.17458121478557587
4,5,128,10,0.4892544746398926,0.12561264634132385
4,5,128,11,0.4096693992614746,0.22668078541755676
4,5,128,12,0.5924609303474426,0.03414180502295494
4,5,128,13,0.7379289269447327,0.1296195238828659
4,5,128,14,0.6410192847251892,0.08075590431690216
4,5,128,15,0.654090166091919,0.07824591547250748
4,5,128,16,0.5926604866981506,0.18256527185440063
4,5,128,17,0.6589502692222595,0.1135377287864685
4,5,128,18,0.6664389967918396,0.16099317371845245
4,5,128,19,0.5303630232810974,0.18163785338401794
4,5,128,20,0.6501263976097107,0.08740498125553131
4,5,128,21,0.6503759622573853,0.16824780404567719
4,5,128,22,0.7005101442337036,0.17016363143920898
4,5,128,23,0.5995975732803345,0.1200973391532898
4,5,128,24,0.735200047492981,0.1567365676164627
4,5,128,25,0.5150644779205322,0.08624149858951569
4,5,128,26,0.6471253633499146,0.19363802671432495
4,5,128,27,0.7331593632698059,0.10974365472793579
4,5,128,28,0.4817039370536804,0.0990084707736969
4,5,128,29,0.7045179009437561,0.07711976021528244
4,5,128,30,0.7112218141555786,0.1466645896434784
4,5,128,31,0.5953823924064636,0.20149415731430054
4,5,128,32,0.3532833755016327,0.20513123273849487
4,5,128,33,0.7858163118362427,0.11429645121097565
4,5,128,34,0.659930944442749,0.11752711981534958
4,5,128,35,0.7814728617668152,0.08211753517389297
4,5,128,36,0.6453427076339722,0.10963937640190125
4,5,128,37,0.49593451619148254,0.041658055037260056
4,5,128,38,0.6638087630271912,0.04258984327316284
4,5,128,39,0.6043084263801575,0.16070717573165894
4,5,128,40,0.37865114212036133,0.29350948333740234
4,5,128,41,0.48098865151405334,0.17208445072174072
4,5,128,42,0.3934680223464966,0.12613040208816528
4,5,128,43,0.6046103239059448,0.155234694480896
4,5,128,44,0.5016800165176392,0.15818007290363312
4,5,128,45,0.5836068987846375,0.0547751821577549
4,5,128,46,0.7123998999595642,0.13441504538059235
4,5,128,47,0.6826160550117493,0.17492538690567017
4,5,128,48,0.7260068655014038,0.12715579569339752
4,5,128,49,0.7379417419433594,0.12229917198419571
4,5,128,50,0.5844613313674927,0.10029218345880508
4,5,128,51,0.3227570354938507,0.10551823675632477
4,5,128,52,0.46931585669517517,0.24261626601219177
4,5,128,53,0.3656772971153259,0.0751161277294159
4,5,128,54,0.3255866765975952,0.09153937548398972
4,5,128,55,0.6479373574256897,0.0674721896648407
4,5,128,56,0.4176274538040161,0.2691706418991089
4,5,128,57,0.656920850276947,0.14247223734855652
4,5,128,58,0.6055065393447876,0.1904888153076172
4,5,128,59,0.3052961528301239,0.1977630853652954
4,5,128,60,0.7110170722007751,0.22952121496200562
4,5,128,61,0.6955649256706238,0.17598572373390198
4,5,128,62,0.3985707759857178,0.19114553928375244
4,5,128,63,0.7245745062828064,0.07763414084911346
4,5,128,64,0.4829816520214081,0.051686517894268036
4,5,128,65,0.5868096947669983,0.060525961220264435
4,5,128,66,0.7116261720657349,0.05727339908480644
4,5,128,67,0.5780324935913086,0.12643039226531982
4,5,128,68,0.5124202966690063,0.06488820910453796
4,5,128,69,0.5148433446884155,0.059082649648189545
4,5,128,70,0.6072982549667358,0.08208174258470535
4,5,128,71,0.696908712387085,0.09829311072826385
4,5,128,72,0.704143762588501,0.14178162813186646
4,5,128,73,0.6519361138343811,0.11755578219890594
4,5,128,74,0.5529606342315674,0.19754141569137573
4,5,128,75,0.6015034317970276,0.1256304532289505
4,5,128,76,0.7251580357551575,0.17361150681972504
4,5,128,77,0.6165499091148376,0.07183747738599777
4,5,128,78,0.7066236138343811,0.11115320026874542
4,5,128,79,0.6471886038780212,0.08192822337150574
4,5,128,80,0.7091177701950073,0.08987273275852203
4,5,128,81,0.732781171798706,0.09592549502849579
4,5,128,82,0.5794755816459656,0.07668908685445786
4,5,128,83,0.7071917653083801,0.16872918605804443
4,5,128,84,0.7087450623512268,0.11298734694719315
4,5,128,85,0.6832452416419983,0.10660403221845627
4,5,128,86,0.5990469455718994,0.037436820566654205
4,5,128,87,0.4298684298992157,0.20402805507183075
4,5,128,88,0.567609429359436,0.030770504847168922
4,5,128,89,0.8003779649734497,0.1312253624200821
4,5,128,90,0.4869467616081238,0.14774708449840546
4,5,128,91,0.7390866875648499,0.10174725204706192
4,5,128,92,0.6790170669555664,0.10744745284318924
4,5,128,93,0.7412648797035217,0.10945501923561096
4,5,128,94,0.7265406250953674,0.12116753309965134
4,5,128,95,0.532210111618042,0.04269595816731453
4,5,128,96,0.5518638491630554,0.04028485342860222
4,5,128,97,0.6318199634552002,0.07658486068248749
4,5,128,98,0.757195234298706,0.11787956953048706
4,5,128,99,0.5336307883262634,0.11324213445186615
4,5,128,100,0.6479580998420715,0.1978921741247177
4,5,128,101,0.660349428653717,0.2012290507555008
4,5,128,102,0.5637696981430054,0.06042295694351196
4,5,128,103,0.5057973861694336,0.07440636307001114
4,5,128,104,0.5794895887374878,0.14525260031223297
4,5,128,105,0.7290956377983093,0.10518475621938705
4,5,128,106,0.6530771851539612,0.07513303309679031
4,5,128,107,0.6886975765228271,0.1263781040906906
4,5,128,108,0.6736328601837158,0.11643290519714355
4,5,128,109,0.4141388535499573,0.09662037342786789
4,5,128,110,0.5029903054237366,0.09759616106748581
4,5,128,111,0.4659329354763031,0.07110396772623062
4,5,128,112,0.731787919998169,0.09225062280893326
4,5,128,113,0.42558249831199646,0.043137289583683014
4,5,128,114,0.4490126967430115,0.14606288075447083
4,5,128,115,0.7074007987976074,0.08298341184854507
4,5,128,116,0.746882438659668,0.12532919645309448
4,5,128,117,0.7647284865379333,0.12402704358100891
4,5,128,118,0.703558087348938,0.20452600717544556
4,5,128,119,0.6147812008857727,0.0886266753077507
4,5,128,120,0.5201054215431213,0.08471594005823135
4,5,128,121,0.5148314237594604,0.1438182294368744
4,5,128,122,0.5679872035980225,0.08790888637304306
4,5,128,123,0.6730332970619202,0.10278822481632233
4,5,128,124,0.3982733190059662,0.05824790149927139
4,5,128,125,0.44725921750068665,0.05249548330903053
4,5,128,126,0.5746145844459534,0.06905858218669891
4,5,128,127,0.37362366914749146,0.13985469937324524
5,0,32,0,0.5326951742172241,0.035782646387815475
5,0,32,1,0.3492007553577423,0.12642470002174377
5,0,32,2,0.2984783351421356,0.11809630692005157
5,0,32,3,0.4576193392276764,0.1317751705646515
5,0,32,4,0.3778204321861267,0.02388790436089039
5,0,32,5,0.38428109884262085,0.06717540323734283
5,0,32,6,0.5742713212966919,0.04908908158540726
5,0,32,7,0.3500150740146637,0.0540170855820179
5,0,32,8,0.39939531683921814,0.08611797541379929
5,0,32,9,0.5514540672302246,0.0422416515648365
5,0,32,10,0.4456847012042999,0.036204975098371506
5,0,32,11,0.39002516865730286,0.01832365244626999
5,0,32,12,0.4789016544818878,0.055379290133714676
5,0,32,13,0.4730047881603241,0.10745219886302948
5,0,32,14,0.4879375398159027,0.0329221673309803
5,0,32,15,0.4462752938270569,0.054275233298540115
5,0,32,16,0.5353572964668274,0.1791757494211197
5,0,32,17,0.36383742094039917,0.09100444614887238
5,0,32,18,0.6536539196968079,0.12295602262020111
5,0,32,19,0.41740623116493225,0.044350478798151016
5,0,32,20,0.38105309009552,0.06174510717391968
5,0,32,21,0.6705630421638489,0.07836130261421204
5,0,32,22,0.40880048274993896,0.12713949382305145
5,0,32,23,0.2994486093521118,0.09669441729784012
5,0,32,24,0.42335274815559387,0.10084790736436844
5,0,32,25,0.4037340581417084,0.12919194996356964
5,0,32,26,0.4267180562019348,0.06790727376937866
5,0,32,27,0.5131759643554688,0.13518577814102173
5,0,32,28,0.5898547768592834,0.055147022008895874
5,0,32,29,0.4640389382839203,0.04571394622325897
5,0,32,30,0.3406386375427246,0.11436726152896881
5,0,32,31,0.30223745107650757,0.07328677922487259
5,1,32,0,0.6298208236694336,0.02685258351266384
5,1,32,1,0.3516622483730316,0.1001078262925148
5,1,32,2,0.5079808235168457,0.028265299275517464
5,1,32,3,0.6120127439498901,0.11620086431503296
5,1,32,4,0.5507243871688843,0.018213791772723198
5,1,32,5,0.5497459173202515,0.03556526079773903
5,1,32,6,0.5533542037010193,0.07294799387454987
5,1,32,7,0.3458435833454132,0.04879022389650345
5,1,32,8,0.39745697379112244,0.02666350267827511
5,1,32,9,0.5576069951057434,0.10084667056798935
5,1,32,10,0.33439111709594727,0.07797375321388245
5,1,32,11,0.39705535769462585,0.04219222813844681
5,1,32,12,0.5425683259963989,0.06789550185203552
5,1,32,13,0.5863317847251892,0.03441733866930008
5,1,32,14,0.6157129406929016,0.07001308351755142
5,1,32,15,0.6058557629585266,0.01855326071381569
5,1,32,16,0.48355576395988464,0.050211433321237564
5,1,32,17,0.4316160976886749,0.021519731730222702
5,1,32,18,0.5120445489883423,0.1389952003955841
5,1,32,19,0.4844391345977783,0.024157505482435226
5,1,32,20,0.4730322062969208,0.039818599820137024
5,1,32,21,0.5306207537651062,0.0722220167517662
5,1,32,22,0.49964648485183716,0.13924382627010345
5,1,32,23,0.4447619616985321,0.05545478314161301
5,1,32,24,0.4120972454547882,0.03996329382061958
5,1,32,25,0.4498930871486664,0.08080779016017914
5,1,32,26,0.44952499866485596,0.1207805797457695
5,1,32,27,0.5367305874824524,0.03857489675283432
5,1,32,28,0.4495101571083069,0.02359076403081417
5,1,32,29,0.5593432188034058,0.0269328560680151
5,1,32,30,0.5208686590194702,0.0989631935954094
5,1,32,31,0.5609007477760315,0.11246532946825027
5,2,64,0,0.38426804542541504,0.14387215673923492
5,2,64,1,0.6485390067100525,0.09865827113389969
5,2,64,2,0.5637993216514587,0.1400650441646576
5,2,64,3,0.494536429643631,0.048076122999191284
5,2,64,4,0.4292411208152771,0.0921594575047493
5,2,64,5,0.4686434864997864,0.07231059670448303
5,2,64,6,0.5835611820220947,0.15522944927215576
5,2,64,7,0.44827646017074585,0.1063656359910965
5,2,64,8,0.4178914725780487,0.12998592853546143
5,2,64,9,0.4522959887981415,0.1922614872455597
5,2,64,10,0.6303940415382385,0.07307801395654678
5,2,64,11,0.5364829897880554,0.15764927864074707
5,2,64,12,0.47522613406181335,0.13863588869571686
5,2,64,13,0.4361911714076996,0.12338709831237793
5,2,64,14,0.6433274745941162,0.14132027328014374
5,2,64,15,0.46568113565444946,0.15642496943473816
5,2,64,16,0.39296582341194153,0.12963533401489258
5,2,64,17,0.38905560970306396,0.1406189203262329
5,2,64,18,0.48117369413375854,0.14550958573818207
5,2,64,19,0.45689037442207336,0.12044601142406464
5,2,64,20,0.3742802143096924,0.07623841613531113
5,2,64,21,0.5079715847969055,0.078675776720047
5,2,64,22,0.3466005027294159,0.08273795247077942
5,2,64,23,0.4947585463523865,0.09845750778913498
5,2,64,24,0.5787950754165649,0.023230241611599922
5,2,64,25,0.5061389207839966,0.07458755373954773
5,2,64,26,0.5410631895065308,0.1029505506157875
5,2,64,27,0.3741053342819214,0.11518065631389618
5,2,64,28,0.47914448380470276,0.18438193202018738
5,2,64,29,0.3699707090854645,0.14165514707565308
5,2,64,30,0.6153590679168701,0.06229938194155693
5,2,64,31,0.49200955033302307,0.08466346561908722
5,2,64,32,0.4347861707210541,0.10176234692335129
5,2,64,33,0.5510075688362122,0.07222443073987961
5,2,64,34,0.43557509779930115,0.06960535049438477
5,2,64,35,0.42408251762390137,0.0401831790804863
5,2,64,36,0.3583084046840668,0.08020073175430298
5,2,64,37,0.4330318868160248,0.16614285111427307
5,2,64,38,0.5382766723632812,0.11460456252098083
5,2,64,39,0.46296486258506775,0.16376349329948425
5,2,64,40,0.3480053246021271,0.08924815058708191
5,2,64,41,0.531916618347168,0.12077987939119339
5,2,64,42,0.46682313084602356,0.06053169071674347
5,2,64,43,0.4404301345348358,0.0763910561800003
5,2,64,44,0.4669562876224518,0.18074527382850647
5,2,64,45,0.4903460443019867,0.12701082229614258
5,2,64,46,0.6096987128257751,0.10558956116437912
5,2,64,47,0.3358442783355713,0.06573221832513809
5,2,64,48,0.34528258442878723,0.10915080457925797
5,2,64,49,0.5908418297767639,0.10988111793994904
5,2,64,50,0.5148418545722961,0.09894778579473495
5,2,64,51,0.44783470034599304,0.05945802479982376
5,2,64,52,0.522405743598938,0.016472959890961647
5,2,64,53,0.5443124175071716,0.05242623761296272
5,2,64,54,0.4388931095600128,0.15972401201725006
5,2,64,55,0.5113956928253174,0.1307799220085144
5,2,64,56,0.49677789211273193,0.13433752954006195
5,2,64,57,0.5849832892417908,0.04454157128930092
5,2,64,58,0.4559326767921448,0.09530466049909592
5,2,64,59,0.3970378637313843,0.0780051127076149
5,2,64,60,0.5418541431427002,0.17516499757766724
5,2,64,61,0.4104926884174347,0.1348578929901123
5,2,64,62,0.3663211166858673,0.15943969786167145
5,2,64,63,0.412575364112854,0.13895761966705322
5,3,64,0,0.4723498523235321,0.1311580240726471
5,3,64,1,0.6598062515258789,0.15716691315174103
5,3,64,2,0.5843842029571533,0.0898163691163063
5,3,64,3,0.5680539608001709,0.2071784883737564
5,3,64,4,0.30849534273147583,0.11728934198617935
5,3,64,5,0.45882266759872437,0.10152412950992584
5,3,64,6,0.4832955002784729,0.11362561583518982
5,3,64,7,0.4334535300731659,0.19324009120464325
5,3,64,8,0.5187690258026123,0.2413567453622818
5,3,64,9,0.3475988805294037,0.09400030225515366
5,3,64,10,0.6100481152534485,0.09941282868385315
5,3,64,11,0.5359718799591064,0.1510923206806183
5,3,64,12,0.43404465913772583,0.08057522773742676
5,3,64,13,0.4318195581436157,0.06811880320310593
5,3,64,14,0.28533902764320374,0.10808134078979492
5,3,64,15,0.3837871849536896,0.09576106816530228
5,3,64,16,0.6368380784988403,0.07304194569587708
5,3,64,17,0.562950849533081,0.1595650464296341
5,3,64,18,0.5139811038970947,0.212581604719162
5,3,64,19,0.39989906549453735,0.09683406352996826
5,3,64,20,0.403581827878952,0.1269749253988266
5,3,64,21,0.5433498620986938,0.1597364991903305
5,3,64,22,0.40935802459716797,0.13277700543403625
5,3,64,23,0.47447454929351807,0.029928823933005333
5,3,64,24,0.46326637268066406,0.10216337442398071
5,3,64,25,0.4382894039154053,0.07000359147787094
5,3,64,26,0.418337881565094,0.0999869778752327
5,3,64,27,0.5142033696174622,0.07314430922269821
5,3,64,28,0.5066865682601929,0.051934536546468735
5,3,64,29,0.4648352265357971,0.03607010468840599
5,3,64,30,0.609442412853241,0.10456553846597672
5,3,64,31,0.4885208308696747,0.0630437359213829
5,3,64,32,0.3056476414203644,0.07209975272417068
5,3,64,33,0.5274471640586853,0.10871559381484985
5,3,64,34,0.5257037878036499,0.11300310492515564
5,3,64,35,0.42396441102027893,0.043178822845220566
5,3,64,36,0.3324645459651947,0.09698858112096786
5,3,64,37,0.5045209527015686,0.154069721698761
5,3,64,38,0.4667177200317383,0.17470212280750275
5,3,64,39,0.6465697884559631,0.0748600885272026
5,3,64,40,0.5736369490623474,0.14258453249931335
5,3,64,41,0.528032660484314,0.14129488170146942
5,3,64,42,0.5312774181365967,0.1571081578731537
5,3,64,43,0.5027263760566711,0.15836966037750244
5,3,64,44,0.6187887191772461,0.09662226587533951
5,3,64,45,0.5754987001419067,0.2839827239513397
5,3,64,46,0.4814085066318512,0.05365309119224548
5,3,64,47,0.5164310336112976,0.1648513376712799
5,3,64,48,0.5486181378364563,0.13358557224273682
5,3,64,49,0.5569983124732971,0.07918155193328857
5,3,64,50,0.4698895812034607,0.08848239481449127
5,3,64,51,0.6519128680229187,0.09078656882047653
5,3,64,52,0.5009494423866272,0.1133103296160698
5,3,64,53,0.5189977288246155,0.08267205953598022
5,3,64,54,0.36102819442749023,0.16406507790088654
5,3,64,55,0.5843407511711121,0.08298978954553604
5,3,64,56,0.515985369682312,0.15309561789035797
5,3,64,57,0.6375170946121216,0.11798777431249619
5,3,64,58,0.36219021677970886,0.08619584888219833
5,3,64,59,0.5386661291122437,0.1427450031042099
5,3,64,60,0.5034165382385254,0.11215895414352417
5,3,64,61,0.4054902493953705,0.14938275516033173
5,3,64,62,0.39138633012771606,0.07889506965875626
5,3,64,63,0.4732469916343689,0.10187879949808121
5,4,128,0,0.5728694796562195,0.05802588909864426
5,4,128,1,0.7293451428413391,0.16257379949092865
5,4,128,2,0.6652711629867554,0.1686919927597046
5,4,128,3,0.534257173538208,0.08124720305204391
5,4,128,4,0.6959700584411621,0.24213533103466034
5,4,128,5,0.591738224029541,0.060130391269922256
5,4,128,6,0.6690539717674255,0.261412113904953
5,4,128,7,0.5233570337295532,0.060901664197444916
5,4,128,8,0.37182730436325073,0.24526143074035645
5,4,128,9,0.5364560484886169,0.08256520330905914
5,4,128,10,0.7043401002883911,0.2478167861700058
5,4,128,11,0.7364608645439148,0.19670285284519196
5,4,128,12,0.728419840335846,0.24462299048900604
5,4,128,13,0.38650423288345337,0.2372429221868515
5,4,128,14,0.3007946014404297,0.12649036943912506
5,4,128,15,0.6376221776008606,0.3063530921936035
5,4,128,16,0.3183867931365967,0.09468036890029907
5,4,128,17,0.7262065410614014,0.16243545711040497
5,4,128,18,0.69623202085495,0.1983938068151474
5,4,128,19,0.6785359978675842,0.12742406129837036
5,4,128,20,0.5220752954483032,0.12479394674301147
5,4,128,21,0.6913629770278931,0.21678899228572845
5,4,128,22,0.6863731741905212,0.12101428210735321
5,4,128,23,0.6720637083053589,0.08062034100294113
5,4,128,24,0.6654086709022522,0.17561979591846466
5,4,128,25,0.3391522467136383,0.24093401432037354
5,4,128,26,0.6427206993103027,0.15628601610660553
5,4,128,27,0.7168451547622681,0.09338102489709854
5,4,128,28,0.2970707416534424,0.19111250340938568
5,4,128,29,0.32346904277801514,0.18760491907596588
5,4,128,30,0.2993486225605011,0.2246854305267334
5,4,128,31,0.41565728187561035,0.23535645008087158
5,4,128,32,0.5081338286399841,0.0836627259850502
5,4,128,33,0.6285644173622131,0.09731541574001312
5,4,128,34,0.36784839630126953,0.2599116861820221
5,4,128,35,0.3294062614440918,0.17740818858146667
5,4,128,36,0.48465508222579956,0.18900896608829498
5,4,128,37,0.6584947109222412,0.3367736041545868
5,4,128,38,0.5891805291175842,0.12563222646713257
5,4,128,39,0.30697545409202576,0.1751478910446167
5,4,128,40,0.6320381164550781,0.16549596190452576
5,4,128,41,0.5897821187973022,0.07815594226121902
5,4,128,42,0.435810387134552,0.1467568576335907
5,4,128,43,0.6187055110931396,0.14663659036159515
5,4,128,44,0.6518023610115051,0.16580602526664734
5,4,128,45,0.49404647946357727,0.05977989360690117
5,4,128,46,0.3445981740951538,0.271194726228714
5,4,128,47,0.4660860002040863,0.1400354504585266
5,4,128,48,0.7149374485015869,0.16022734344005585
5,4,128,49,0.7089719772338867,0.11309494823217392
5,4,128,50,0.2597087323665619,0.16493423283100128
5,4,128,51,0.46778497099876404,0.09344052523374557
5,4,128,52,0.32909926772117615,0.16181547939777374
5,4,128,53,0.4918023943901062,0.09517556428909302
5,4,128,54,0.4031846821308136,0.21326498687267303
5,4,128,55,0.6951908469200134,0.17077070474624634
5,4,128,56,0.6934061050415039,0.16278456151485443
5,4,128,57,0.32397106289863586,0.12308267503976822
5,4,128,58,0.7083068490028381,0.07470735162496567
5,4,128,59,0.6339887380599976,0.27553367614746094
5,4,128,60,0.6744300127029419,0.22269637882709503
5,4,128,61,0.41711676120758057,0.23772306740283966
5,4,128,62,0.6673214435577393,0.27212750911712646
5,4,128,63,0.6176918148994446,0.2898968458175659
5,4,128,64,0.5939816832542419,0.25460079312324524
5,4,128,65,0.34839507937431335,0.08637109398841858
5,4,128,66,0.5787161588668823,0.14297892153263092
5,4,128,67,0.37687018513679504,0.2739195227622986
5,4,128,68,0.6446200013160706,0.3019004762172699
5,4,128,69,0.23294787108898163,0.1269027292728424
5,4,128,70,0.6673064827919006,0.233486145734787
5,4,128,71,0.25257736444473267,0.1735091358423233
5,4,128,72,0.694040060043335,0.2569734752178192
5,4,128,73,0.7543186545372009,0.18145081400871277
5,4,128,74,0.7645065784454346,0.13588093221187592
5,4,128,75,0.6411845684051514,0.2133253961801529
5,4,128,76,0.327012836933136,0.15534405410289764
5,4,128,77,0.6453691720962524,0.2691538333892822
5,4,128,78,0.6001740097999573,0.09272811561822891
5,4,128,79,0.6083241701126099,0.296274334192276
5,4,128,80,0.7055090665817261,0.2303944081068039
5,4,128,81,0.6325110793113708,0.25405293703079224
5,4,128,82,0.6202656626701355,0.12062287330627441
5,4,128,83,0.7475041747093201,0.11287480592727661
5,4,128,84,0.744679868221283,0.10182183980941772
5,4,128,85,0.686454176902771,0.168283611536026
5,4,128,86,0.6660524010658264,0.0873909518122673
5,4,128,87,0.5251899361610413,0.09257487952709198
5,4,128,88,0.6363248229026794,0.2317088544368744
5,4,128,89,0.37525054812431335,0.2248167097568512
5,4,128,90,0.3567350208759308,0.25601235032081604
5,4,128,91,0.6655016541481018,0.19808760285377502
5,4,128,92,0.6595380902290344,0.08260785788297653
5,4,128,93,0.2882676422595978,0.13410639762878418
5,4,128,94,0.5594648122787476,0.20508570969104767
5,4,128,95,0.6860822439193726,0.11016181856393814
5,4,128,96,0.3674199879169464,0.12850044667720795
5,4,128,97,0.4161890149116516,0.08863984793424606
5,4,128,98,0.5310112833976746,0.05530783534049988
5,4,128,99,0.525611162185669,0.19526530802249908
5,4,128,100,0.7348787188529968,0.12755128741264343
5,4,128,101,0.5669944882392883,0.038861703127622604
5,4,128,102,0.6703088879585266,0.2624259889125824
5,4,128,103,0.6396514773368835,0.29446980357170105
5,4,128,104,0.6723290681838989,0.1932702660560608
5,4,128,105,0.6775072813034058,0.18412524461746216
5,4,128,106,0.6634746789932251,0.23500390350818634
5,4,128,107,0.6470984816551208,0.2200642228126526
5,4,128,108,0.2996959984302521,0.19494837522506714
5,4,128,109,0.2950739562511444,0.260842889547348
5,4,128,110,0.2695900797843933,0.09063071757555008
5,4,128,111,0.7311692237854004,0.23972676694393158
5,4,128,112,0.5588145852088928,0.04784075543284416
5,4,128,113,0.31212517619132996,0.11141732335090637
5,4,128,114,0.42158043384552,0.1751386970281601
5,4,128,115,0.3873198628425598,0.10888732969760895
5,4,128,116,0.6446817517280579,0.13924254477024078
5,4,128,117,0.7217568159103394,0.17702367901802063
5,4,128,118,0.49280455708503723,0.18479813635349274
5,4,128,119,0.6852293014526367,0.2838006317615509
5,4,128,120,0.4012560248374939,0.29899537563323975
5,4,128,121,0.6203314065933228,0.2500765919685364
5,4,128,122,0.30088984966278076,0.230449378490448
5,4,128,123,0.6176767945289612,0.11317303776741028
5,4,128,124,0.5622705221176147,0.038053661584854126
5,4,128,125,0.6141988635063171,0.09045664966106415
5,4,128,126,0.6547561287879944,0.17741906642913818
5,4,128,127,0.42764586210250854,0.22564777731895447
5,5,128,0,0.5224642753601074,0.08862058073282242
5,5,128,1,0.49101895093917847,0.05002005770802498
5,5,128,2,0.43277794122695923,0.055041417479515076
5,5,128,3,0.5632244348526001,0.11280704289674759
5,5,128,4,0.4462900757789612,0.06459347158670425
5,5,128,5,0.6022645235061646,0.23034122586250305
5,5,128,6,0.5460735559463501,0.14287947118282318
5,5,128,7,0.5109109282493591,0.0893913060426712
5,5,128,8,0.6493381857872009,0.16323649883270264
5,5,128,9,0.26040107011795044,0.13142693042755127
5,5,128,10,0.4696643054485321,0.06751533597707748
5,5,128,11,0.6339915990829468,0.06365333497524261
5,5,128,12,0.5696358680725098,0.0977819412946701
5,5,128,13,0.4113449156284332,0.09623026847839355
5,5,128,14,0.6391211748123169,0.08157704025506973
5,5,128,15,0.7038542628288269,0.13959811627864838
5,5,128,16,0.470816045999527,0.07946421205997467
5,5,128,17,0.6236895322799683,0.10329879075288773
5,5,128,18,0.577266275882721,0.060974836349487305
5,5,128,19,0.5463547110557556,0.1147436648607254
5,5,128,20,0.447338730096817,0.10147516429424286
5,5,128,21,0.6577500700950623,0.12476542592048645
5,5,128,22,0.5215633511543274,0.08463665843009949
5,5,128,23,0.6979067325592041,0.2228987216949463
5,5,128,24,0.512157678604126,0.10574567317962646
5,5,128,25,0.3716156780719757,0.12913914024829865
5,5,128,26,0.6116076111793518,0.1076410561800003
5,5,128,27,0.5706533789634705,0.06529296934604645
5,5,128,28,0.443978488445282,0.10287255048751831
5,5,128,29,0.5995665788650513,0.198456272482872
5,5,128,30,0.499809205532074,0.1860465705394745
5,5,128,31,0.4948371946811676,0.0916142389178276
5,5,128,32,0.6965535283088684,0.14102734625339508
5,5,128,33,0.6295769214630127,0.05810984596610069
5,5,128,34,0.5785365104675293,0.14134271442890167
5,5,128,35,0.48675766587257385,0.11583670973777771
5,5,128,36,0.5629031658172607,0.055731695145368576
5,5,128,37,0.5408163666725159,0.054719477891922
5,5,128,38,0.6522260308265686,0.10291977971792221
5,5,128,39,0.4416361451148987,0.09374625235795975
5,5,128,40,0.5791628360748291,0.07142685353755951
5,5,128,41,0.3748396933078766,0.041725967079401016
5,5,128,42,0.5069789886474609,0.07471519708633423
5,5,128,43,0.5388021469116211,0.12196151167154312
5,5,128,44,0.46904313564300537,0.0724978819489479
5,5,128,45,0.6156746745109558,0.21887803077697754
5,5,128,46,0.48966529965400696,0.06310045719146729
5,5,128,47,0.421082079410553,0.06001495197415352
5,5,128,48,0.6086884140968323,0.2749464511871338
5,5,128,49,0.5965925455093384,0.09456216543912888
5,5,128,50,0.37657180428504944,0.22541452944278717
5,5,128,51,0.45757749676704407,0.07851891219615936
5,5,128,52,0.396557092666626,0.15430772304534912
5,5,128,53,0.35048335790634155,0.07303434610366821
5,5,128,54,0.7193652391433716,0.19171437621116638
5,5,128,55,0.6309906840324402,0.09068382531404495
5,5,128,56,0.5473373532295227,0.16301070153713226
5,5,128,57,0.6132240891456604,0.14973339438438416
5,5,128,58,0.34653371572494507,0.19549791514873505
5,5,128,59,0.6307463049888611,0.1997145563364029
5,5,128,60,0.6540599465370178,0.15017685294151306
5,5,128,61,0.6485558152198792,0.08617197722196579
5,5,128,62,0.6280682682991028,0.20324237644672394
5,5,128,63,0.531460165977478,0.12302985042333603
5,5,128,64,0.5251665115356445,0.12285774946212769
5,5,128,65,0.5079964995384216,0.040669310837984085
5,5,128,66,0.6284821629524231,0.10664913803339005
5,5,128,67,0.39250507950782776,0.18007665872573853
5,5,128,68,0.6805269122123718,0.0740794837474823
5,5,128,69,0.6684900522232056,0.16822141408920288
5,5,128,70,0.5964332818984985,0.03789767250418663
5,5,128,71,0.343262255191803,0.1346777081489563
5,5,128,72,0.5690963864326477,0.14472351968288422
5,5,128,73,0.5175199508666992,0.07873088866472244
5,5,128,74,0.4154358208179474,0.06396691501140594
5,5,128,75,0.6234680414199829,0.14668135344982147
5,5,128,76,0.6381592154502869,0.06686101108789444
5,5,128,77,0.7578774094581604,0.170063316822052
5,5,128,78,0.5321865081787109,0.04978533461689949
5,5,128,79,0.5266969203948975,0.07217634469270706
5,5,128,80,0.6054397225379944,0.09458235651254654
5,5,128,81,0.7945072650909424,0.1297408491373062
5,5,128,82,0.628072202205658,0.2283320277929306
5,5,128,83,0.6627441644668579,0.11425663530826569
5,5,128,84,0.5490516424179077,0.047544751316308975
5,5,128,85,0.5647817850112915,0.08988507091999054
5,5,128,86,0.7207865118980408,0.18659645318984985
5,5,128,87,0.4910106658935547,0.12055898457765579
5,5,128,88,0.6424763798713684,0.17955729365348816
5,5,128,89,0.6661704778671265,0.17015795409679413
5,5,128,90,0.6433520913124084,0.06518013775348663
5,5,128,91,0.5843367576599121,0.056961171329021454
5,5,128,92,0.6343420743942261,0.03557528927922249
5,5,128,93,0.6503796577453613,0.12583523988723755
5,5,128,94,0.527905285358429,0.1283460557460785
5,5,128,95,0.6084450483322144,0.09604436159133911
5,5,128,96,0.6009015440940857,0.2697531580924988
5,5,128,97,0.5449393391609192,0.0729740783572197
5,5,128,98,0.5338917970657349,0.08200806379318237
5,5,128,99,0.6886966228485107,0.12213464826345444
5,5,128,100,0.6103774905204773,0.110310398042202
5,5,128,101,0.663950502872467,0.18385404348373413
5,5,128,102,0.5324366688728333,0.06219717860221863
5,5,128,103,0.6979349851608276,0.15074262022972107
5,5,128,104,0.6157265305519104,0.24995410442352295
5,5,128,105,0.6975628733634949,0.16708014905452728
5,5,128,106,0.6533640623092651,0.23662249743938446
5,5,128,107,0.5704219937324524,0.08676609396934509
5,5,128,108,0.47707638144493103,0.07648314535617828
5,5,128,109,0.46795639395713806,0.05314509570598602
5,5,128,110,0.47710785269737244,0.052616119384765625
5,5,128,111,0.5488419532775879,0.05735146626830101
5,5,128,112,0.5705710053443909,0.07125241309404373
5,5,128,113,0.41196805238723755,0.025367852300405502
5,5,128,114,0.4285372793674469,0.07469195127487183
5,5,128,115,0.4100075662136078,0.16486701369285583
5,5,128,116,0.6910294890403748,0.17710834741592407
5,5,128,117,0.6283875703811646,0.1779221147298813
5,5,128,118,0.6363381743431091,0.12582263350486755
5,5,128,119,0.6560593247413635,0.16346265375614166
5,5,128,120,0.332459032535553,0.16581325232982635
5,5,128,121,0.4157029092311859,0.05554485693573952
5,5,128,122,0.625830352306366,0.0817272886633873
5,5,128,123,0.24388732016086578,0.12491036206483841
5,5,128,124,0.552144467830658,0.14706990122795105
5,5,128,125,0.4337046444416046,0.05326560512185097
5,5,128,126,0.6458307504653931,0.2159351408481598
5,5,128,127,0.49474912881851196,0.1163475438952446
6,0,32,0,0.5851795673370361,0.06327618658542633
6,0,32,1,0.4858633875846863,0.16949668526649475
6,0,32,2,0.28058043122291565,0.14374564588069916
6,0,32,3,0.7062822580337524,0.10845223814249039
6,0,32,4,0.3943021893501282,0.18433694541454315
6,0,32,5,0.4836146831512451,0.07103288173675537
6,0,32,6,0.6774009466171265,0.20768776535987854
6,0,32,7,0.47169509530067444,0.11612719297409058
6,0,32,8,0.40196630358695984,0.0829017236828804
6,0,32,9,0.4860270023345947,0.08555292338132858
6,0,32,10,0.48065152764320374,0.0896741971373558
6,0,32,11,0.5218188166618347,0.11576121300458908
6,0,32,12,0.5928483009338379,0.05814455822110176
6,0,32,13,0.3527975082397461,0.08843445032835007
6,0,32,14,0.3197009563446045,0.08758637309074402
6,0,32,15,0.5785838961601257,0.08438151329755783
6,0,32,16,0.4948691427707672,0.027905460447072983
6,0,32,17,0.5718351602554321,0.15074656903743744
6,0,32,18,0.4684397578239441,0.09720244258642197
6,0,32,19,0.5652016401290894,0.05019312724471092
6,0,32,20,0.26030221581459045,0.09068550914525986
6,0,32,21,0.4941219091415405,0.0771840363740921
6,0,32,22,0.3997810184955597,0.04354361817240715
6,0,32,23,0.7264171838760376,0.09900284558534622
6,0,32,24,0.6222640872001648,0.10518987476825714
6,0,32,25,0.4206560552120209,0.07969152182340622
6,0,32,26,0.4906458556652069,0.09900929033756256
6,0,32,27,0.6063598990440369,0.12011963874101639
6,0,32,28,0.3622686564922333,0.0709386020898819
6,0,32,29,0.3322625160217285,0.09837821125984192
6,0,32,30,0.6281027793884277,0.05838862806558609
6,0,32,31,0.33509013056755066,0.062104351818561554
6,1,32,0,0.434550017118454,0.13680972158908844
6,1,32,1,0.6236775517463684,0.053942229598760605
6,1,32,2,0.49061447381973267,0.10462310910224915
6,1,32,3,0.5237547755241394,0.08003121614456177
6,1,32,4,0.6032487750053406,0.042792025953531265
6,1,32,5,0.4580119550228119,0.13473287224769592
6,1,32,6,0.4617701470851898,0.16906249523162842
6,1,32,7,0.6572492718696594,0.10796225070953369
6,1,32,8,0.495534211397171,0.03740279749035835
6,1,32,9,0.42732173204421997,0.14622429013252258
6,1,32,10,0.493058443069458,0.10394594818353653
6,1,32,11,0.5150597095489502,0.0829513818025589
6,1,32,12,0.4400986135005951,0.07464595139026642
6,1,32,13,0.5724971890449524,0.13610544800758362
6,1,32,14,0.417174369096756,0.11527661234140396
6,1,32,15,0.5580496788024902,0.05398429185152054
6,1,32,16,0.5346407890319824,0.13367325067520142
6,1,32,17,0.5928272604942322,0.1213909387588501
6,1,32,18,0.4567614793777466,0.041951484978199005
6,1,32,19,0.3903205692768097,0.15014253556728363
6,1,32,20,0.5665623545646667,0.07794385403394699
6,1,32,21,0.6028453707695007,0.14336027204990387
6,1,32,22,0.3508649170398712,0.0946795865893364
6,1,32,23,0.35586169362068176,0.11288191378116608
6,1,32,24,0.5570639371871948,0.06455349922180176
6,1,32,25,0.43306323885917664,0.11375212669372559
6,1,32,26,0.3634491264820099,0.1269751787185669
6,1,32,27,0.3817993700504303,0.11047600209712982
6,1,32,28,0.5476699471473694,0.10774153470993042
6,1,32,29,0.3538224697113037,0.1482536643743515
6,1,32,30,0.585636556148529,0.04576876387000084
6,1,32,31,0.44448837637901306,0.13949106633663177
6,2,64,0,0.5223275423049927,0.11678370088338852
6,2,64,1,0.40578702092170715,0.1057034432888031
6,2,64,2,0.6170781254768372,0.11492447555065155
6,2,64,3,0.4826065003871918,0.09918206185102463
6,2,64,4,0.36535221338272095,0.12387626618146896
6,2,64,5,0.5371862053871155,0.08887939155101776
6,2,64,6,0.5193386673927307,0.09076005965471268
6,2,64,7,0.434307724237442,0.10708671808242798
6,2,64,8,0.37188541889190674,0.08192654699087143
6,2,64,9,0.4862286448478699,0.08548547327518463
6,2,64,10,0.5251659750938416,0.07988248765468597
6,2,64,11,0.4033478796482086,0.09778483957052231
6,2,64,12,0.42220088839530945,0.13193945586681366
6,2,64,13,0.4611659348011017,0.0821593701839447
6,2,64,14,0.4927591383457184,0.08663839846849442
6,2,64,15,0.4081784188747406,0.11210311204195023
6,2,64,16,0.5984909534454346,0.09142794460058212
6,2,64,17,0.5701680183410645,0.1259426474571228
6,2,64,18,0.5271624326705933,0.06802703440189362
6,2,64,19,0.4038299024105072,0.12748411297798157
6,2,64,20,0.4884835183620453,0.08074542880058289
6,2,64,21,0.5696361064910889,0.18832585215568542
6,2,64,22,0.42657604813575745,0.08269724994897842
6,2,64,23,0.4324798583984375,0.11249660700559616
6,2,64,24,0.4329318702220917,0.12393920123577118
6,2,64,25,0.5972648859024048,0.08299103379249573
6,2,64,26,0.6014728546142578,0.15768788754940033
6,2,64,27,0.4638470411300659,0.09401683509349823
6,2,64,28,0.5239666104316711,0.08603513240814209
6,2,64,29,0.5684242844581604,0.153199702501297
6,2,64,30,0.4030223786830902,0.14032267034053802
6,2,64,31,0.4215770661830902,0.1623675376176834
6,2,64,32,0.4871390461921692,0.07488937675952911
6,2,64,33,0.4694540202617645,0.1045856699347496
6,2,64,34,0.5500543117523193,0.07274611294269562
6,2,64,35,0.4030904769897461,0.06209813058376312
6,2,64,36,0.5196873545646667,0.08424045890569687
6,2,64,37,0.44938164949417114,0.06137768179178238
6,2,64,38,0.45383769273757935,0.0759006068110466
6,2,64,39,0.5331948399543762,0.057261012494564056
6,2,64,40,0.40007340908050537,0.08192375302314758
6,2,64,41,0.5076228380203247,0.0798516571521759
6,2,64,42,0.5020533204078674,0.12154538184404373
6,2,64,43,0.38252320885658264,0.12654666602611542
6,2,64,44,0.4088066518306732,0.1142568588256836
6,2,64,45,0.5404382348060608,0.07059484720230103
6,2,64,46,0.4868968427181244,0.065422922372818
6,2,64,47,0.4873948097229004,0.08247821778059006
6,2,64,48,0.49843907356262207,0.0823536142706871
6,2,64,49,0.5423120260238647,0.0819292664527893
6,2,64,50,0.6041999459266663,0.05364714190363884
6,2,64,51,0.5248522162437439,0.09261287748813629
6,2,64,52,0.35639688372612,0.11795075237751007
6,2,64,53,0.5750190019607544,0.052172448486089706
6,2,64,54,0.443347305059433,0.16616235673427582
6,2,64,55,0.4217072129249573,0.12342676520347595
6,2,64,56,0.4605984389781952,0.17718388140201569
6,2,64,57,0.5294926762580872,0.09735090285539627
6,2,64,58,0.478666752576828,0.10926462709903717
6,2,64,59,0.45141372084617615,0.08110522478818893
6,2,64,60,0.4996750056743622,0.08285809308290482
6,2,64,61,0.6586632132530212,0.10307510942220688
6,2,64,62,0.43751317262649536,0.05965149402618408
6,2,64,63,0.4717998206615448,0.07775028049945831
6,3,64,0,0.34914788603782654,0.10666612535715103
6,3,64,1,0.5027320384979248,0.15311942994594574
6,3,64,2,0.4530097544193268,0.13071967661380768
6,3,64,3,0.44985178112983704,0.10134591162204742
6,3,64,4,0.6000244617462158,0.09112592786550522
6,3,64,5,0.6225007772445679,0.09777858108282089
6,3,64,6,0.432710736989975,0.09932159632444382
6,3,64,7,0.5001970529556274,0.16603587567806244
6,3,64,8,0.5582554936408997,0.16478903591632843
6,3,64,9,0.48350560665130615,0.1167895570397377
6,3,64,10,0.5920137166976929,0.14175398647785187
6,3,64,11,0.5529987812042236,0.10836614668369293
6,3,64,12,0.3951175808906555,0.11838144809007645
6,3,64,13,0.4908713698387146,0.09328566491603851
6,3,64,14,0.43484362959861755,0.13268345594406128
6,3,64,15,0.28689470887184143,0.12345084547996521
6,3,64,16,0.5476122498512268,0.19883103668689728
6,3,64,17,0.5270236134529114,0.1711968183517456
6,3,64,18,0.4775843918323517,0.21586614847183228
6,3,64,19,0.4837208688259125,0.15140822529792786
6,3,64,20,0.4744326174259186,0.14798825979232788
6,3,64,21,0.6146226525306702,0.08716924488544464
6,3,64,22,0.3799557089805603,0.07798364013433456
6,3,64,23,0.6041305065155029,0.06473549455404282
6,3,64,24,0.3866029381752014,0.15148428082466125
6,3,64,25,0.551486611366272,0.1461632251739502
6,3,64,26,0.3770902454853058,0.15322446823120117
6,3,64,27,0.430501252412796,0.09435856342315674
6,3,64,28,0.5306198000907898,0.12737424671649933
6,3,64,29,0.31353920698165894,0.08896889537572861
6,3,64,30,0.36163753271102905,0.12966766953468323
6,3,64,31,0.6110047698020935,0.1915043443441391
6,3,64,32,0.4693670868873596,0.1254645735025406
6,3,64,33,0.6240774393081665,0.07416336238384247
6,3,64,34,0.42470884323120117,0.1305399388074875
6,3,64,35,0.4647931754589081,0.06696765869855881
6,3,64,36,0.4036214351654053,0.1421886682510376
6,3,64,37,0.5538251996040344,0.09470239281654358
6,3,64,38,0.3881072998046875,0.11383844166994095
6,3,64,39,0.40014520287513733,0.1264490932226181
6,3,64,40,0.43020713329315186,0.14541319012641907
6,3,64,41,0.4865061640739441,0.16255022585391998
6,3,64,42,0.5688609480857849,0.20317178964614868
6,3,64,43,0.5018923878669739,0.1747889667749405
6,3,64,44,0.4427296221256256,0.2089908868074417
6,3,64,45,0.5566826462745667,0.08881032466888428
6,3,64,46,0.35478559136390686,0.06388220191001892
6,3,64,47,0.5082767009735107,0.13532601296901703
6,3,64,48,0.42609044909477234,0.1373511254787445
6,3,64,49,0.4601075351238251,0.18888814747333527
6,3,64,50,0.5124465823173523,0.15487997233867645
6,3,64,51,0.3168800175189972,0.09856850653886795
6,3,64,52,0.5224470496177673,0.1449134200811386
6,3,64,53,0.4377448260784149,0.11051832884550095
6,3,64,54,0.5376099944114685,0.16102516651153564
6,3,64,55,0.6331684589385986,0.07079842686653137
6,3,64,56,0.3496043384075165,0.1253017783164978
6,3,64,57,0.39967143535614014,0.10305957496166229
6,3,64,58,0.4184589087963104,0.10311473160982132
6,3,64,59,0.5625869631767273,0.09701285511255264
