subject,channel,alpha,f1,drop_pp
1,0,1.0,0.6587443932796999,0.0
1,0,0.75,0.6646935606765545,-0.5949167396854582
1,0,0.5,0.669476341597647,-1.0731948317947104
1,0,0.25,0.6745335795409393,-1.5789186261239374
1,0,0.0,0.6581441345511287,0.0600258728571168
1,1,1.0,0.6587443932796999,0.0
1,1,0.75,0.6642703124555227,-0.5525919175822791
1,1,0.5,0.6619503168960414,-0.3205923616341533
1,1,0.25,0.6616277864828631,-0.28833932031632203
1,1,0.0,0.6391453927673348,1.9599000512365072
1,2,1.0,0.6587443932796999,0.0
1,2,0.75,0.6598080446416748,-0.10636513619748378
1,2,0.5,0.6559981684981685,0.27462247815314145
1,2,0.25,0.6464571643216936,1.2287228958006269
1,2,0.0,0.61285506044988,4.588933282981989
1,3,1.0,0.6587443932796999,0.0
1,3,0.75,0.6588276197678703,-0.00832264881703848
1,3,0.5,0.6578289828344446,0.0915410445255338
1,3,0.25,0.656930801263527,0.1813592016172927
1,3,0.0,0.6520095696378886,0.6734823641811327
1,4,1.0,0.6587443932796999,0.0
1,4,0.75,0.6730360158151745,-1.4291622535474557
1,4,0.5,0.6676497031212025,-0.8905309841502618
1,4,0.25,0.6876945122018575,-2.8950118922157597
1,4,0.0,0.70286941557278,-4.4125022293080125
1,5,1.0,0.6587443932796999,0.0
1,5,0.75,0.6582701660011621,0.04742272785378532
1,5,0.5,0.6461154361865744,1.2628957093125504
1,5,0.25,0.636166755081517,2.2577638198182925
1,5,0.0,0.6249488542888472,3.3795538990852747
1,6,1.0,0.6587443932796999,0.0
1,6,0.75,0.6601828324283006,-0.14384391486006454
1,6,0.5,0.6641072997290575,-0.5362906449357552
1,6,0.25,0.6509743746569137,0.7770018622786257
1,6,0.0,0.6275522618199292,3.1192131459770733
1,7,1.0,0.6587443932796999,0.0
1,7,0.75,0.6488447972604932,0.9899596019206758
1,7,0.5,0.6494009761215775,0.9343417158122369
1,7,0.25,0.6232908121718785,3.5453581107821375
1,7,0.0,0.5580263940253066,10.07179992543933
1,8,1.0,0.6587443932796999,0.0
1,8,0.75,0.6545127100746773,0.42316832050226516
1,8,0.5,0.6607041104890053,-0.19597172093054338
1,8,0.25,0.644772720160279,1.3971673119420935
1,8,0.0,0.601251134547905,5.749325873179489
2,0,1.0,0.8852923928191966,0.0
2,0,0.75,0.8799633391377272,0.5329053681469409
2,0,0.5,0.8817662609873623,0.3526131831834256
2,0,0.25,0.8997134904507706,-1.4421097631574065
2,0,0.0,0.897503773436656,-1.221138061745941
2,1,1.0,0.8852923928191966,0.0
2,1,0.75,0.8685874595315239,1.670493328767264
2,1,0.5,0.8490694241749462,3.622296864425034
2,1,0.25,0.8084729779503692,7.681941486882737
2,1,0.0,0.7809463069435116,10.434608587568494
2,2,1.0,0.8852923928191966,0.0
2,2,0.75,0.8647366608124408,2.0555732006755756
2,2,0.5,0.8495190964645206,3.5773296354675965
2,2,0.25,0.8257538819041479,5.95385109150487
2,2,0.0,0.78460052830941,10.069186450978663
2,3,1.0,0.8852923928191966,0.0
2,3,0.75,0.8853752216496535,-0.008282883045696021
2,3,0.5,0.8709831077942012,1.43092850249954
2,3,0.25,0.8685886310361441,1.670376178305244
2,3,0.0,0.8239574909444505,6.13349018747461
2,4,1.0,0.8852923928191966,0.0
2,4,0.75,0.8843339992249579,0.09583935942386601
2,4,0.5,0.8833154095754903,0.19769832437063206
2,4,0.25,0.8706818420596021,1.4610550759594498
2,4,0.0,0.8449858990005608,4.030649381863583
2,5,1.0,0.8852923928191966,0.0
2,5,0.75,0.8827276513747314,0.25647414444651684
2,5,0.5,0.8789577384969008,0.6334654322295741
2,5,0.25,0.8530329688257728,3.225942399342374
2,5,0.0,0.8240339738497707,6.125841896942585
2,6,1.0,0.8852923928191966,0.0
2,6,0.75,0.8812854750914756,0.40069177277209933
2,6,0.5,0.8761481472549885,0.914424556420812
2,6,0.25,0.8623913237740958,2.290106904510081
2,6,0.0,0.8565456315943849,2.874676122481168
2,7,1.0,0.8852923928191966,0.0
2,7,0.75,0.8829115942426082,0.238079857658835
2,7,0.5,0.8829115942426082,0.238079857658835
2,7,0.25,0.8745577264294763,1.0734666389720315
2,7,0.0,0.7970788285510448,8.821356426815175
2,8,1.0,0.8852923928191966,0.0
2,8,0.75,0.8834801950467907,0.18121977724059324
2,8,0.5,0.8835185293326538,0.17738634865427372
2,8,0.25,0.8595709810616055,2.572141175759113
2,8,0.0,0.8100089269405873,7.5283465878609235
3,0,1.0,0.9174906695016416,0.0
3,0,0.75,0.916094324273948,0.13963452276936072
3,0,0.5,0.9256151109092285,-0.8124441407586946
3,0,0.25,0.926146625418673,-0.8655955917031388
3,0,0.0,0.9130810977662769,0.44095717353647146
3,1,1.0,0.9174906695016416,0.0
3,1,0.75,0.9189009363146738,-0.1410266813032246
3,1,0.5,0.9170518573410542,0.04388121605873874
3,1,0.25,0.9057678322069529,1.1722837294688704
3,1,0.0,0.8730785011902387,4.441216831140293
3,2,1.0,0.9174906695016416,0.0
3,2,0.75,0.9178114894789501,-0.03208199773084841
3,2,0.5,0.9104255484381751,0.7065121063466462
3,2,0.25,0.8964589050228741,2.1031764478767534
3,2,0.0,0.861501883619539,5.598878588210255
3,3,1.0,0.9174906695016416,0.0
3,3,0.75,0.9043717383442323,1.3118931157409253
3,3,0.5,0.8766209523933027,4.086971710833886
3,3,0.25,0.8244687209149268,9.302194858671475
3,3,0.0,0.7903019615784312,12.718870792321034
3,4,1.0,0.9174906695016416,0.0
3,4,0.75,0.915790722427894,0.1699947073747543
3,4,0.5,0.9248515760494394,-0.7360906547797752
3,4,0.25,0.9276959126551083,-1.0205243153466714
3,4,0.0,0.914146640595922,0.33440289057196093
3,5,1.0,0.9174906695016416,0.0
3,5,0.75,0.9217948262087673,-0.4304156707125695
3,5,0.5,0.918548072962014,-0.10574034603724192
3,5,0.25,0.911065083136214,0.642558636542756
3,5,0.0,0.8938588459691986,2.3631823532442975
3,6,1.0,0.9174906695016416,0.0
3,6,0.75,0.9241139678036543,-0.6623298302012692
3,6,0.5,0.9216668651386397,-0.41761956369981146
3,6,0.25,0.9136494028429832,0.384126665865836
3,6,0.0,0.9115401283905509,0.5950541111090724
3,7,1.0,0.9174906695016416,0.0
3,7,0.75,0.9125313567604655,0.4959312741176114
3,7,0.5,0.9111773029004566,0.6313366601184978
3,7,0.25,0.8911126666651692,2.6378002836472403
3,7,0.0,0.8368210508640828,8.066961863755884
3,8,1.0,0.9174906695016416,0.0
3,8,0.75,0.9202695683102144,-0.27788988085728494
3,8,0.5,0.9250503997010642,-0.7559730199422576
3,8,0.25,0.9261675228983148,-0.8676853396673234
3,8,0.0,0.9256178499874381,-0.8127180485796526
4,0,1.0,0.8689677376744099,0.0
4,0,0.75,0.8734737756358486,-0.4506037961438669
4,0,0.5,0.8796310148236951,-1.0663277149285166
4,0,0.25,0.8795929681159922,-1.0625230441582256
4,0,0.0,0.8617737513175102,0.7193986356899718
4,1,1.0,0.8689677376744099,0.0
4,1,0.75,0.8568682872009219,1.2099450473488038
4,1,0.5,0.845346294551824,2.362144312258596
4,1,0.25,0.8426907358919642,2.627700178244574
4,1,0.0,0.8161712094972537,5.279652817715618
4,2,1.0,0.8689677376744099,0.0
4,2,0.75,0.8531716885224043,1.579604915200561
4,2,0.5,0.8376408314937974,3.1326906180612513
4,2,0.25,0.8242060154591695,4.476172221524044
4,2,0.0,0.811062353059617,5.790538461479288
4,3,1.0,0.8689677376744099,0.0
4,3,0.75,0.8651227078275626,0.38450298468473143
4,3,0.5,0.8498744038335648,1.9093333840845106
4,3,0.25,0.8470562529603831,2.191148471402682
4,3,0.0,0.8140030667822227,5.496467089218726
4,4,1.0,0.8689677376744099,0.0
4,4,0.75,0.8580809898982316,1.0886747776178374
4,4,0.5,0.859919958773286,0.904777890112396
4,4,0.25,0.8511974022705647,1.7770335403845205
4,4,0.0,0.8534398160278005,1.5527921646609433
4,5,1.0,0.8689677376744099,0.0
4,5,0.75,0.8630843553105311,0.5883382363878864
4,5,0.5,0.8630919909055512,0.5875746768858714
4,5,0.25,0.8624065073248129,0.6561230349596991
4,5,0.0,0.8211596068447446,4.780813082966528
4,6,1.0,0.8689677376744099,0.0
4,6,0.75,0.8664276269561456,0.2540110718264321
4,6,0.5,0.8627803997780308,0.6187337896379153
4,6,0.25,0.8587022376173332,1.0265500057076715
4,6,0.0,0.8539565540200635,1.5011183654346394
4,7,1.0,0.8689677376744099,0.0
4,7,0.75,0.8624480970264514,0.6519640647958513
4,7,0.5,0.8673075593632233,0.16601783111865887
4,7,0.25,0.8642455230924234,0.4722214581986517
4,7,0.0,0.8019976894971216,6.6970048177288355
4,8,1.0,0.8689677376744099,0.0
4,8,0.75,0.8683938619204212,0.05738757539887063
4,8,0.5,0.8772533739892138,-0.8285636314803835
4,8,0.25,0.8757448040966735,-0.6777066422263611
4,8,0.0,0.8278652631079815,4.1102474566428455
5,0,1.0,0.6892461030670944,0.0
5,0,0.75,0.6912050805954663,-0.19589775283718192
5,0,0.5,0.6876675043068392,0.15785987602552343
5,0,0.25,0.6772488337672332,1.1997269299861224
5,0,0.0,0.662682857932641,2.6563245134453406
5,1,1.0,0.6892461030670944,0.0
5,1,0.75,0.6869096732673634,0.23364297997310324
5,1,0.5,0.6867029104222464,0.2543192644848036
5,1,0.25,0.6920718756230992,-0.2825772556004802
5,1,0.0,0.6888935585015347,0.03525445655597759
5,2,1.0,0.6892461030670944,0.0
5,2,0.75,0.7003590295680442,-1.111292650094975
5,2,0.5,0.7046536051151635,-1.5407502048069066
5,2,0.25,0.703208281465327,-1.396217839823255
5,2,0.0,0.6928901306554741,-0.36440275883796724
5,3,1.0,0.6892461030670944,0.0
5,3,0.75,0.6963204732472895,-0.7074370180195078
5,3,0.5,0.7194488267004915,-3.0202723633397044
5,3,0.25,0.7215654189456585,-3.231931587856407
5,3,0.0,0.701790444710107,-1.2544341643012547
5,4,1.0,0.6892461030670944,0.0
5,4,0.75,0.6664736134123157,2.277248965477874
5,4,0.5,0.657067431861524,3.2178671205570386
5,4,0.25,0.6304559159879326,5.879018707916184
5,4,0.0,0.6056011212145924,8.364498185250202
5,5,1.0,0.6892461030670944,0.0
5,5,0.75,0.6827766224277589,0.6469480639335501
5,5,0.5,0.6675471173063952,2.1698985760699285
5,5,0.25,0.6658162545108365,2.342984855625796
5,5,0.0,0.6411593664031925,4.808673666390195
5,6,1.0,0.6892461030670944,0.0
5,6,0.75,0.692914316022952,-0.36682129558575083
5,6,0.5,0.6881236636105872,0.11224394565072515
5,6,0.25,0.6861628354368752,0.30832676302192663
5,6,0.0,0.6791668544913327,1.0079248575761701
5,7,1.0,0.6892461030670944,0.0
5,7,0.75,0.6820227966479226,0.7223306419171793
5,7,0.5,0.6912254080847313,-0.19793050176368787
5,7,0.25,0.6715754521943876,1.7670650872706806
5,7,0.0,0.6555355063894561,3.3710596677638316
5,8,1.0,0.6892461030670944,0.0
5,8,0.75,0.694911534427464,-0.5665431360369566
5,8,0.5,0.6954760929171453,-0.6229989850050854
5,8,0.25,0.6819696469156822,0.7276456151412258
5,8,0.0,0.6252137104498362,6.403239261725824
6,0,1.0,0.8015378560833106,0.0
6,0,0.75,0.7991380720863719,0.23997839969387424
6,0,0.5,0.7910971134138602,1.0440742669450387
6,0,0.25,0.7922241013034436,0.9313754779867067
6,0,0.0,0.794058679748626,0.7479176334684645
6,1,1.0,0.8015378560833106,0.0
6,1,0.75,0.8020448004376576,-0.050694435434694984
6,1,0.5,0.7973463471597053,0.4191508923605314
6,1,0.25,0.7846997161769503,1.6838139906360294
6,1,0.0,0.7683080137079645,3.3229842375346097
6,2,1.0,0.8015378560833106,0.0
6,2,0.75,0.8052533785204342,-0.3715522437123586
6,2,0.5,0.8201402811958584,-1.8602425112547727
6,2,0.25,0.8204968874337014,-1.8959031350390787
6,2,0.0,0.8294071767360471,-2.7869320652736507
6,3,1.0,0.8015378560833106,0.0
6,3,0.75,0.8119901890785913,-1.04523329952807
6,3,0.5,0.8322717132198575,-3.073385713654686
6,3,0.25,0.8464445854292343,-4.490672934592366
6,3,0.0,0.8374989609549978,-3.5961104871687133
6,4,1.0,0.8015378560833106,0.0
6,4,0.75,0.7907844221965465,1.0753433886764086
6,4,0.5,0.7897331660027319,1.1804690080578717
6,4,0.25,0.787561298079498,1.397655800381259
6,4,0.0,0.77115397812791,3.038387795540065
6,5,1.0,0.8015378560833106,0.0
6,5,0.75,0.7899392369753347,1.1598619107975883
6,5,0.5,0.7947372709405894,0.6800585142721194
6,5,0.25,0.7902705494555112,1.12673066277994
6,5,0.0,0.7589169080233442,4.262094805996641
6,6,1.0,0.8015378560833106,0.0
6,6,0.75,0.782194785744208,1.9343070339102653
6,6,0.5,0.7888578649009879,1.267999118232277
6,6,0.25,0.7794718666474896,2.2065989435821054
6,6,0.0,0.7721221831877999,2.9415672895510725
6,7,1.0,0.8015378560833106,0.0
6,7,0.75,0.7879010059034572,1.3636850179853388
6,7,0.5,0.7850999885745649,1.6437867508745763
6,7,0.25,0.7657964082210634,3.57414478622472
6,7,0.0,0.7075974283889659,9.394042769434474
6,8,1.0,0.8015378560833106,0.0
6,8,0.75,0.796872388905987,0.46654671773236345
6,8,0.5,0.7983458429252683,0.3192013158042295
6,8,0.25,0.7856324925002309,1.5905363583079701
6,8,0.0,0.7586782820809643,4.28595740023463
7,0,1.0,0.8127380945648746,0.0
7,0,0.75,0.8103733521607283,0.23647424041463028
7,0,0.5,0.8217169639706274,-0.8978869405752876
7,0,0.25,0.8094010197582988,0.3337074806575746
7,0,0.0,0.7815144638669382,3.122363069793632
7,1,1.0,0.8127380945648746,0.0
7,1,0.75,0.8079124573443105,0.4825637220564061
7,1,0.5,0.8088280306115238,0.39100639533508064
7,1,0.25,0.8135249840998628,-0.07868895349882887
7,1,0.0,0.7768025752155048,3.593551934936978
7,2,1.0,0.8127380945648746,0.0
7,2,0.75,0.808061087356891,0.46770072079835856
7,2,0.5,0.8085957286272214,0.41423659376531585
7,2,0.25,0.8002316008680594,1.2506493696815113
7,2,0.0,0.7778609567871188,3.4877137777755807
7,3,1.0,0.8127380945648746,0.0
7,3,0.75,0.8167357928189349,-0.3997698254060378
7,3,0.5,0.8346261672268052,-2.18880726619306
7,3,0.25,0.8427429255652713,-3.0004831000396748
7,3,0.0,0.8235203842600725,-1.07822896951979
7,4,1.0,0.8127380945648746,0.0
7,4,0.75,0.8034003635982652,0.9337730966609392
7,4,0.5,0.8008155101136438,1.1922584451230733
7,4,0.25,0.7891354655982316,2.3602628966643002
7,4,0.0,0.7695049178563158,4.323317670855875
7,5,1.0,0.8127380945648746,0.0
7,5,0.75,0.8127231631134848,0.0014931451389754713
7,5,0.5,0.8246911295435189,-1.1953034978644306
7,5,0.25,0.8244301659266959,-1.1692071361821377
7,5,0.0,0.802762010979648,0.9976083585226503
7,6,1.0,0.8127380945648746,0.0
7,6,0.75,0.8031604971626691,0.9577597402205429
7,6,0.5,0.7988767171688897,1.3861377395984809
7,6,0.25,0.7827049566565469,3.0033137908327623
7,6,0.0,0.764174153843036,4.856394072183856
7,7,1.0,0.8127380945648746,0.0
7,7,0.75,0.8057748127270179,0.6963281837856661
7,7,0.5,0.8114346493354544,0.13034452294201637
7,7,0.25,0.7995813943553168,1.3156700209557726
7,7,0.0,0.718975963886976,9.376213067789852
7,8,1.0,0.8127380945648746,0.0
7,8,0.75,0.8136199555512825,-0.08818609864079674
7,8,0.5,0.7968974840778157,1.584061048705887
7,8,0.25,0.7857859207242068,2.6952173840667726
7,8,0.0,0.7368292595087524,7.5908835056122115
8,0,1.0,0.8756047369123188,0.0
8,0,0.75,0.8772529556836289,-0.16482187713101615
8,0,0.5,0.8825855516967309,-0.6980814784412148
8,0,0.25,0.8975565109764836,-2.195177406416482
8,0,0.0,0.8697161172161172,0.588861969620158
8,1,1.0,0.8756047369123188,0.0
8,1,0.75,0.8833146975604882,-0.7709960648169423
8,1,0.5,0.8840042532134227,-0.8399516301103915
8,1,0.25,0.885650908221695,-1.004617130937624
8,1,0.0,0.8871398619246598,-1.1535125012340997
8,2,1.0,0.8756047369123188,0.0
8,2,0.75,0.8639303145892293,1.1674422323089462
8,2,0.5,0.8685177414537557,0.7086995458563061
8,2,0.25,0.8724771594684385,0.31275774438802584
8,2,0.0,0.8652762675486607,1.0328469363658055
8,3,1.0,0.8756047369123188,0.0
8,3,0.75,0.8838284702409198,-0.8223733328601046
8,3,0.5,0.8865040577430905,-1.089932083077172
8,3,0.25,0.8870131593387407,-1.1408422426421927
8,3,0.0,0.8507604694818034,2.4844267430515377
8,4,1.0,0.8756047369123188,0.0
8,4,0.75,0.8639686832296276,1.163605368269116
8,4,0.5,0.8640023529731787,1.1602383939140037
8,4,0.25,0.8561275901249208,1.947714678739798
8,4,0.0,0.8098485410276289,6.575619588468983
8,5,1.0,0.8756047369123188,0.0
8,5,0.75,0.8636638637581505,1.1940873154168252
8,5,0.5,0.8594599324870608,1.6144804425258008
8,5,0.25,0.8364414536336184,3.9163283278700334
8,5,0.0,0.7870436897769877,8.856104713533108
8,6,1.0,0.8756047369123188,0.0
8,6,0.75,0.8805580771866781,-0.49533402743593413
8,6,0.5,0.8822803195352216,-0.6675582622902798
8,6,0.25,0.8804762311901505,-0.4871494277831734
8,6,0.0,0.8628052094966611,1.2799527415657708
8,7,1.0,0.8756047369123188,0.0
8,7,0.75,0.877547690520954,-0.19429536086352783
8,7,0.5,0.8805666602400396,-0.49619233277208297
8,7,0.25,0.882066441688606,-0.6461704776287269
8,7,0.0,0.8027920232029164,7.281271370940234
8,8,1.0,0.8756047369123188,0.0
8,8,0.75,0.8815674106923088,-0.5962673779990046
8,8,0.5,0.8699642895568871,0.5640447355431677
8,8,0.25,0.8522964812523566,2.3308255659962196
8,8,0.0,0.7841421794954537,9.146255741686504
9,0,1.0,0.8617573323768772,0.0
9,0,0.75,0.8623381716566395,-0.05808392797622686
9,0,0.5,0.8665557591843612,-0.4798426807483991
9,0,0.25,0.8529711331356745,0.8786199241202719
9,0,0.0,0.8255705604418453,3.6186771935031947
9,1,1.0,0.8617573323768772,0.0
9,1,0.75,0.8673506315320364,-0.5593299155159159
9,1,0.5,0.8520329376694766,0.9724394707400608
9,1,0.25,0.8371421038307136,2.4615228546163603
9,1,0.0,0.7812404412467349,8.051689113014238
9,2,1.0,0.8617573323768772,0.0
9,2,0.75,0.861596478549004,0.016085382787323077
9,2,0.5,0.8603249664201099,0.1432365956767323
9,2,0.25,0.847219842781067,1.453748959581025
9,2,0.0,0.8307980997473334,3.095923262954381
9,3,1.0,0.8617573323768772,0.0
9,3,0.75,0.8637964885894841,-0.2039156212606863
9,3,0.5,0.8601047670831246,0.16525652937526836
9,3,0.25,0.8472122824216379,1.4545049955239309
9,3,0.0,0.8342925270236246,2.7464805353252686
9,4,1.0,0.8617573323768772,0.0
9,4,0.75,0.8664528837474932,-0.4695551370615947
9,4,0.5,0.8656731822701194,-0.3915849893242118
9,4,0.25,0.8515739200053591,1.0183412371518097
9,4,0.0,0.8295982614661102,3.2159070910767085
9,5,1.0,0.8617573323768772,0.0
9,5,0.75,0.8678969074860512,-0.6139575109173956
9,5,0.5,0.8676855229259839,-0.5928190549106649
9,5,0.25,0.8601120887366589,0.16452436402183412
9,5,0.0,0.834224904669803,2.7532427707074203
9,6,1.0,0.8617573323768772,0.0
9,6,0.75,0.8612501194603001,0.050721291657718215
9,6,0.5,0.8713940076246471,-0.9636675247769899
9,6,0.25,0.8633622265679146,-0.1604894191037376
9,6,0.0,0.8506697989812882,1.1087533395588989
9,7,1.0,0.8617573323768772,0.0
9,7,0.75,0.8582672710191321,0.34900613577451
9,7,0.5,0.8473700566272271,1.4387275749650152
9,7,0.25,0.8315484929865897,3.020883939028751
9,7,0.0,0.77191642498297,8.984090739390727
9,8,1.0,0.8617573323768772,0.0
9,8,0.75,0.8582033114220202,0.3554020954857018
9,8,0.5,0.8495550731415263,1.2202259235350899
9,8,0.25,0.8446130413108734,1.7144291066003792
9,8,0.0,0.8009968618374615,6.0760470539415685
10,0,1.0,0.8042656497251333,0.0
10,0,0.75,0.8011825119607824,0.3083137764350874
10,0,0.5,0.8123191075761268,-0.805345785099354
10,0,0.25,0.8075248721175065,-0.32592223923731956
10,0,0.0,0.7660722415331139,3.819340819201933
10,1,1.0,0.8042656497251333,0.0
10,1,0.75,0.8035203216775637,0.0745328047569549
10,1,0.5,0.8082111485397897,-0.3945498814656445
10,1,0.25,0.8080757770001039,-0.3810127274970654
10,1,0.0,0.7839288286391262,2.0336821086007095
10,2,1.0,0.8042656497251333,0.0
10,2,0.75,0.7986476721970435,0.561797752808979
10,2,0.5,0.7997003838633456,0.45652658617876263
10,2,0.25,0.801738769544751,0.2526880180382274
10,2,0.0,0.8002570652944461,0.400858443068719
10,3,1.0,0.8042656497251333,0.0
10,3,0.75,0.8030417980022089,0.1223851722924385
10,3,0.5,0.8069020035341498,-0.26363538090165006
10,3,0.25,0.7979378256424053,0.6327824082727918
10,3,0.0,0.7993740137462838,0.4891635978849451
10,4,1.0,0.8042656497251333,0.0
10,4,0.75,0.7929221486285594,1.1343501096573894
10,4,0.5,0.7960108887671126,0.825476095802069
10,4,0.25,0.7800551062620941,2.421054346303919
10,4,0.0,0.756954756954757,4.731089277037626
10,5,1.0,0.8042656497251333,0.0
10,5,0.75,0.8043717963380425,-0.010614661290919702
10,5,0.5,0.7869572076902408,1.7308442034892457
10,5,0.25,0.7744707829537868,2.979486677134646
10,5,0.0,0.756357016058906,4.790863366622721
10,6,1.0,0.8042656497251333,0.0
10,6,0.75,0.8057800191149261,-0.151436938979288
10,6,0.5,0.8228020986027561,-1.8536448877622846
10,6,0.25,0.8196183490208441,-1.5352699295710814
10,6,0.0,0.8070636162539302,-0.2797966528796936
10,7,1.0,0.8042656497251333,0.0
10,7,0.75,0.8037440037810638,0.052164594406944875
10,7,0.5,0.8117973051289481,-0.7531655403814841
10,7,0.25,0.8110939588345363,-0.6828309109403019
10,7,0.0,0.7721625802226524,3.2103069502480874
10,8,1.0,0.8042656497251333,0.0
10,8,0.75,0.8210377861373931,-1.677213641225983
10,8,0.5,0.8246041235932989,-2.0338473868165674
10,8,0.25,0.8183900957534282,-1.412444602829499
10,8,0.0,0.7607327625878001,4.353288713733317
11,0,1.0,0.9354528853847562,0.0
11,0,0.75,0.9344194120147271,0.10334733700291254
11,0,0.5,0.9237679157048126,1.168496967994359
11,0,0.25,0.9111103851029373,2.4342500281818946
11,0,0.0,0.8994398003018693,3.601308508288692
11,1,1.0,0.9354528853847562,0.0
11,1,0.75,0.9382621662236363,-0.28092808388801016
11,1,0.5,0.9324790502892819,0.2973835095474331
11,1,0.25,0.9128062939728971,2.2646591411859096
11,1,0.0,0.8863558087079357,4.909707667682051
11,2,1.0,0.9354528853847562,0.0
11,2,0.75,0.9353526135076727,0.010027187708350205
11,2,0.5,0.9249077360593192,1.0545149325437042
11,2,0.25,0.8890378011136495,4.641508427110674
11,2,0.0,0.8654083652338451,7.004452015091111
11,3,1.0,0.9354528853847562,0.0
11,3,0.75,0.9317470680100919,0.3705817374664355
11,3,0.5,0.9253360162872701,1.0116869097486103
11,3,0.25,0.9150275652858371,2.0425320098919175
11,3,0.0,0.8889306029698454,4.652228241491086
11,4,1.0,0.9354528853847562,0.0
11,4,0.75,0.9336098415664283,0.1843043818327894
11,4,0.5,0.9276676278052792,0.7785257579477012
11,4,0.25,0.9172311526708978,1.8221732713858407
11,4,0.0,0.9074200299220139,2.8032855462742368
11,5,1.0,0.9354528853847562,0.0
11,5,0.75,0.9307807471567635,0.4672138227992728
11,5,0.5,0.9249789142982244,1.0473971086531808
11,5,0.25,0.9221299641396989,1.3322921245057295
11,5,0.0,0.9079513795522229,2.75015058325333
11,6,1.0,0.9354528853847562,0.0
11,6,0.75,0.9410361195825858,-0.5583234197829579
11,6,0.5,0.9306681277909857,0.47847575937705056
11,6,0.25,0.9289864117802783,0.646647360447794
11,6,0.0,0.9056386014697986,2.981428391495766
11,7,1.0,0.9354528853847562,0.0
11,7,0.75,0.9400541531639093,-0.460126777915304
11,7,0.5,0.9508065370683337,-1.5353651683577496
11,7,0.25,0.9460933047393661,-1.064041935460991
11,7,0.0,0.9077931909372874,2.765969444746885
11,8,1.0,0.9354528853847562,0.0
11,8,0.75,0.9313605458729056,0.4092339511850618
11,8,0.5,0.9268612529089407,0.8591632475815514
11,8,0.25,0.9288225314195482,0.6630353965208058
11,8,0.0,0.884508547008547,5.094433837620926
12,0,1.0,0.9055179771285676,0.0
12,0,0.75,0.9018110531312216,0.37069239973460677
12,0,0.5,0.9090016011188944,-0.34836239903267563
12,0,0.25,0.9039794447871987,0.15385323413689145
12,0,0.0,0.8880839706191527,1.7434006509414957
12,1,1.0,0.9055179771285676,0.0
12,1,0.75,0.8934270047421293,1.2090972386438303
12,1,0.5,0.9018723511662103,0.36456259623572906
12,1,0.25,0.8863293395897381,1.918863753882949
12,1,0.0,0.8470632644662198,5.845471266234781
12,2,1.0,0.9055179771285676,0.0
12,2,0.75,0.9091131741911924,-0.35951970626247887
12,2,0.5,0.9037723430060083,0.17456341225593475
12,2,0.25,0.901203938523948,0.4314038604619652
12,2,0.0,0.8602242542296147,4.529372289895295
12,3,1.0,0.9055179771285676,0.0
12,3,0.75,0.9016565553682045,0.3861421760363082
12,3,0.5,0.8997469172506654,0.5771059877902274
12,3,0.25,0.8852675132588795,2.0250463869688096
12,3,0.0,0.8514681516793009,5.404982544926673
12,4,1.0,0.9055179771285676,0.0
12,4,0.75,0.8893894137509573,1.6128563377610372
12,4,0.5,0.8964949446177639,0.9023032510803719
12,4,0.25,0.9065133731173135,-0.0995395988745873
12,4,0.0,0.8769565232756491,2.856145385291853
12,5,1.0,0.9055179771285676,0.0
12,5,0.75,0.9103434520808185,-0.482547495225083
12,5,0.5,0.8997237303398292,0.5794246788738411
12,5,0.25,0.8954017463131535,1.011623081541413
12,5,0.0,0.861113338465157,4.4404638663410605
12,6,1.0,0.9055179771285676,0.0
12,6,0.75,0.9135776331309864,-0.8059656002418758
12,6,0.5,0.9171383093362464,-1.1620332207678774
12,6,0.25,0.9187454449773118,-1.3227467848744179
12,6,0.0,0.8968897996074174,0.8628177521150193
12,7,1.0,0.9055179771285676,0.0
12,7,0.75,0.9092420816105027,-0.37241044819350533
12,7,0.5,0.9140261559139555,-0.8508178785387899
12,7,0.25,0.9147505192733945,-0.9232542144826827
12,7,0.0,0.8594274296965018,4.6090547432065865
12,8,1.0,0.9055179771285676,0.0
12,8,0.75,0.9012252866401774,0.4292690488390205
12,8,0.5,0.9089837282160413,-0.3465751087473712
12,8,0.25,0.9045532245532246,0.09647525753430086
12,8,0.0,0.850135985838937,5.538199128963061
13,0,1.0,0.9421588379123157,0.0
13,0,0.75,0.9560683834234323,-1.3909545511116561
13,0,0.5,0.9516371100038583,-0.9478272091542617
13,0,0.25,0.9451086513841203,-0.2949813471804563
13,0,0.0,0.90131948951421,4.083934839810565
13,1,1.0,0.9421588379123157,0.0
13,1,0.75,0.9378585243030214,0.4300313609294282
13,1,0.5,0.9266987710106833,1.5460066901632374
13,1,0.25,0.9290904282296094,1.3068409682706283
13,1,0.0,0.9142409970025629,2.79178409097528
13,2,1.0,0.9421588379123157,0.0
13,2,0.75,0.9353867050912685,0.6772132821047161
13,2,0.5,0.9268369841052126,1.5321853807103047
13,2,0.25,0.9195298450292863,2.262899288302944
13,2,0.0,0.8726955192786896,6.946331863362609
13,3,1.0,0.9421588379123157,0.0
13,3,0.75,0.93845453231291,0.37043055994057106
13,3,0.5,0.9378747364740563,0.42841014382594134
13,3,0.25,0.9249333634771705,1.7225474435145216
13,3,0.0,0.9052089057636581,3.6949932148657605
13,4,1.0,0.9421588379123157,0.0
13,4,0.75,0.9296410877270177,1.2517750185297993
13,4,0.5,0.9254425837320575,1.6716254180258239
13,4,0.25,0.9111241546376245,3.1034683274691166
13,4,0.0,0.8851306819126918,5.702815599962385
13,5,1.0,0.9421588379123157,0.0
13,5,0.75,0.9385328796076063,0.36259583047093535
13,5,0.5,0.9225481585574654,1.961067935485028
13,5,0.25,0.9053027333561413,3.6856104556174385
13,5,0.0,0.8909699416669361,5.1188896245379585
13,6,1.0,0.9421588379123157,0.0
13,6,0.75,0.9353030696164305,0.685576829588519
13,6,0.5,0.9233129673848778,1.8845870527437913
13,6,0.25,0.9134749586486712,2.8683879263644463
13,6,0.0,0.9155010683290907,2.6657769583224966
13,7,1.0,0.9421588379123157,0.0
13,7,0.75,0.9396750574399204,0.24837804723952805
13,7,0.5,0.9345989775758727,0.7559860336442958
13,7,0.25,0.9111499913375721,3.1008846574743565
13,7,0.0,0.8972463435403365,4.4912494371979195
13,8,1.0,0.9421588379123157,0.0
13,8,0.75,0.9452119728215809,-0.3053134909265176
13,8,0.5,0.9335850006562112,0.85738372561045
13,8,0.25,0.9158880113948324,2.627082651748325
13,8,0.0,0.9091297434357076,3.3029094476608067
14,0,1.0,0.8600518764456215,0.0
14,0,0.75,0.8548090773844665,0.524279906115499
14,0,0.5,0.8555847857542773,0.4467090691344211
14,0,0.25,0.839788623760445,2.026325268517648
14,0,0.0,0.8196950826096925,4.035679383592905
14,1,1.0,0.8600518764456215,0.0
14,1,0.75,0.8509917319510392,0.9060144494582367
14,1,0.5,0.8477625092877252,1.2289367157896303
14,1,0.25,0.847119768444409,1.2932108001212583
14,1,0.0,0.841829499714513,1.8222376731108492
14,2,1.0,0.8600518764456215,0.0
14,2,0.75,0.8610192164318227,-0.09673399862011323
14,2,0.5,0.8560457754918787,0.4006100953742875
14,2,0.25,0.8528362382205341,0.7215638225087417
14,2,0.0,0.8339029233261128,2.614895311950871
14,3,1.0,0.8600518764456215,0.0
14,3,0.75,0.8463252742937193,1.3726602151902245
14,3,0.5,0.8352975471095181,2.475432933610344
14,3,0.25,0.8112539715242052,4.879790492141634
14,3,0.0,0.7508595705143271,10.919230593129448
14,4,1.0,0.8600518764456215,0.0
14,4,0.75,0.8691328986693603,-0.9081022223738744
14,4,0.5,0.879551860501181,-1.9499984055559416
14,4,0.25,0.8906188110419471,-3.0566934596325535
14,4,0.0,0.8613865800186052,-0.13347035729837087
14,5,1.0,0.8600518764456215,0.0
14,5,0.75,0.859203681062059,0.08481953835625111
14,5,0.5,0.8770198338171273,-1.6967957371505804
14,5,0.25,0.8814538468346443,-2.1401970389022806
14,5,0.0,0.8702926200569561,-1.0240743611334535
14,6,1.0,0.8600518764456215,0.0
14,6,0.75,0.8611745253956885,-0.11226489500669734
14,6,0.5,0.8576637998045515,0.23880766410699916
14,6,0.25,0.8563640250770922,0.3687851368529338
14,6,0.0,0.8470731369371866,1.2978739508434978
14,7,1.0,0.8600518764456215,0.0
14,7,0.75,0.8559449559449559,0.4106920500665634
14,7,0.5,0.8620412758456484,-0.19893994000268478
14,7,0.25,0.8480236394835969,1.2028236962024597
14,7,0.0,0.7977414198002434,6.231045664537815
14,8,1.0,0.8600518764456215,0.0
14,8,0.75,0.8558277224321029,0.42241540135186106
14,8,0.5,0.8559572353137845,0.4094641131836996
14,8,0.25,0.8449720878395071,1.5079788606114475
14,8,0.0,0.7958991867444003,6.415268970122123
15,0,1.0,0.9101206114714712,0.0
15,0,0.75,0.9252988125715684,-1.5178201100097266
15,0,0.5,0.9146773437016744,-0.4556732230203253
15,0,0.25,0.9159055827229547,-0.5784971251483584
15,0,0.0,0.8866332363911211,2.3487375080350037
15,1,1.0,0.9101206114714712,0.0
15,1,0.75,0.9252598406619565,-1.5139229190485382
15,1,0.5,0.9182833899915841,-0.8162778520112934
15,1,0.25,0.912582233643847,-0.2461622172375888
15,1,0.0,0.893254890889162,1.6865720582309174
15,2,1.0,0.9101206114714712,0.0
15,2,0.75,0.923625712173423,-1.3505100701951878
15,2,0.5,0.9268461609765106,-1.672554950503946
15,2,0.25,0.9096377060883513,0.04829053831199026
15,2,0.0,0.8574006388871702,5.271997258430094
15,3,1.0,0.9101206114714712,0.0
15,3,0.75,0.9174564622902359,-0.7335850818764755
15,3,0.5,0.9109418020408733,-0.08211905694021082
15,3,0.25,0.9007406141531432,0.9379997318327948
15,3,0.0,0.878841917083826,3.127869438764519
15,4,1.0,0.9101206114714712,0.0
15,4,0.75,0.9212759936021828,-1.1155382130711655
15,4,0.5,0.9132551811539412,-0.31345696824700564
15,4,0.25,0.8990079163449188,1.111269512655233
15,4,0.0,0.8819649355933747,2.815567587809642
15,5,1.0,0.9101206114714712,0.0
15,5,0.75,0.9213866030559482,-1.1265991584477053
15,5,0.5,0.9174986327260799,-0.7378021254608735
15,5,0.25,0.8968680941926481,1.325251727882304
15,5,0.0,0.846280155014429,6.384045645704218
15,6,1.0,0.9101206114714712,0.0
15,6,0.75,0.9167349986890905,-0.6614387217619311
15,6,0.5,0.9018622218952892,0.8258389576181968
15,6,0.25,0.8957208999182221,1.439971155324904
15,6,0.0,0.897752024607127,1.2368586864344167
15,7,1.0,0.9101206114714712,0.0
15,7,0.75,0.9117479577079038,-0.16273462364326807
15,7,0.5,0.9028342651500546,0.7286346321416559
15,7,0.25,0.8829624351657019,2.715817630576922
15,7,0.0,0.8614094041085478,4.871120736292333
15,8,1.0,0.9101206114714712,0.0
15,8,0.75,0.9185527176926472,-0.8432106221176072
15,8,0.5,0.9340215268775433,-2.3900915406072087
15,8,0.25,0.9263252705807127,-1.6204659109241515
15,8,0.0,0.903648182561734,0.6472428909737205
16,0,1.0,0.8261333311330815,0.0
16,0,0.75,0.8279691481549231,-0.1835817021841546
16,0,0.5,0.8304737482438652,-0.4340417110783701
16,0,0.25,0.8253362583855584,0.07970727475231643
16,0,0.0,0.7692567819099012,5.68765492231803
16,1,1.0,0.8261333311330815,0.0
16,1,0.75,0.8275774590558082,-0.14441279227266346
16,1,0.5,0.8271661099128846,-0.1032778779803123
16,1,0.25,0.8201810747524122,0.5952256380669319
16,1,0.0,0.7948061862961855,3.1327144836896026
16,2,1.0,0.8261333311330815,0.0
16,2,0.75,0.8283390952764869,-0.2205764143405342
16,2,0.5,0.8127908777373959,1.3342453395685627
16,2,0.25,0.8010346560274,2.5098675105681534
16,2,0.0,0.7802514820530406,4.58818490800409
16,3,1.0,0.8261333311330815,0.0
16,3,0.75,0.8326305163410299,-0.6497185207948397
16,3,0.5,0.8532292823754837,-2.709595124240216
16,3,0.25,0.856926624579112,-3.0793293446030434
16,3,0.0,0.8528242070702421,-2.6690875937160574
16,4,1.0,0.8261333311330815,0.0
16,4,0.75,0.8128696030880738,1.326372804500775
16,4,0.5,0.797857000088704,2.8276331044377545
16,4,0.25,0.785322992143298,4.0810338989783475
16,4,0.0,0.759482304917654,6.665102621542751
16,5,1.0,0.8261333311330815,0.0
16,5,0.75,0.8171692280114585,0.896410312162299
16,5,0.5,0.8085016326491501,1.7631698483931424
16,5,0.25,0.801879854680266,2.4253476452815503
16,5,0.0,0.7774631829070346,4.867014822604688
16,6,1.0,0.8261333311330815,0.0
16,6,0.75,0.828263850156624,-0.21305190235424432
16,6,0.5,0.8241875628919768,0.19457682411047061
16,6,0.25,0.8193314036909307,0.6801927442150801
16,6,0.0,0.8202144672746426,0.5918863858438872
16,7,1.0,0.8261333311330815,0.0
16,7,0.75,0.8399323705721208,-1.3799039439039262
16,7,0.5,0.8539719264916992,-2.7838595358617657
16,7,0.25,0.8441267300089341,-1.7993398875852606
16,7,0.0,0.7933642251710751,3.276910596200644
16,8,1.0,0.8261333311330815,0.0
16,8,0.75,0.8331621937171594,-0.7028862584077866
16,8,0.5,0.823531968341772,0.2601362791309514
16,8,0.25,0.8290959926598225,-0.2962661526740962
16,8,0.0,0.7937696571427119,3.2363673990369657
17,0,1.0,0.8733303588691087,0.0
17,0,0.75,0.8758115898148389,-0.24812309457301618
17,0,0.5,0.8877992437669857,-1.446888489787701
17,0,0.25,0.8844021207584924,-1.1071761889383747
17,0,0.0,0.8362232957987492,3.710706307035949
17,1,1.0,0.8733303588691087,0.0
17,1,0.75,0.8778877313048753,-0.45573724357665935
17,1,0.5,0.8853955099866578,-1.2065151117549133
17,1,0.25,0.8813095280212433,-0.7979169152134591
17,1,0.0,0.8654783040153963,0.7852054853712431
17,2,1.0,0.8733303588691087,0.0
17,2,0.75,0.8629251348884734,1.0405223980635259
17,2,0.5,0.8654226634177088,0.790769545139991
17,2,0.25,0.8548533143358762,1.8477044533232512
17,2,0.0,0.8468306168185058,2.6499742050602904
17,3,1.0,0.8733303588691087,0.0
17,3,0.75,0.8718112058856722,0.15191529834365225
17,3,0.5,0.872240754129492,0.1089604739616723
17,3,0.25,0.8573303735900594,1.5999985279049334
17,3,0.0,0.8419076057049986,3.142275316411014
17,4,1.0,0.8733303588691087,0.0
17,4,0.75,0.8755822962897948,-0.22519374206860787
17,4,0.5,0.8824004036113098,-0.9070044742201078
17,4,0.25,0.8906253240733073,-1.7294965204198598
17,4,0.0,0.87487731833856,-0.154695946945127
17,5,1.0,0.8733303588691087,0.0
17,5,0.75,0.8648245591144954,0.8505799754613297
17,5,0.5,0.8587068548944667,1.462350397464196
17,5,0.25,0.8449719478306221,2.8358411038486575
17,5,0.0,0.8086298895124383,6.47004693566704
17,6,1.0,0.8733303588691087,0.0
17,6,0.75,0.8736181487543732,-0.02877898852644556
17,6,0.5,0.8720861549877787,0.12442038813299527
17,6,0.25,0.8618972141438843,1.1433144725224387
17,6,0.0,0.8543097048681382,1.9020654000970527
17,7,1.0,0.8733303588691087,0.0
17,7,0.75,0.881614006500836,-0.8283647631727287
17,7,0.5,0.8801543465565056,-0.6823987687396893
17,7,0.25,0.8485478050227407,2.478255384636796
17,7,0.0,0.7767683036963607,9.656205517274795
17,8,1.0,0.8733303588691087,0.0
17,8,0.75,0.8686011769541984,0.4729181914910341
17,8,0.5,0.863841429567822,0.9488929301286753
17,8,0.25,0.8419288000893059,3.1401558779802774
17,8,0.0,0.7826362232595286,9.069413560958006
18,0,1.0,0.8902100754892929,0.0
18,0,0.75,0.8806709466294359,0.9539128859856971
18,0,0.5,0.8666252623280915,2.3584813161201423
18,0,0.25,0.8538931126113731,3.6316962877919745
18,0,0.0,0.8467743852102353,4.343569027905758
18,1,1.0,0.8902100754892929,0.0
18,1,0.75,0.8904737965799956,-0.026372109070271765
18,1,0.5,0.8763304245142153,1.3879650975077595
18,1,0.25,0.8759232832850503,1.428679220424256
18,1,0.0,0.8614178448262162,2.879223066307668
18,2,1.0,0.8902100754892929,0.0
18,2,0.75,0.8904737965799956,-0.026372109070271765
18,2,0.5,0.8935036585928801,-0.3293583103587183
18,2,0.25,0.8851967402542115,0.5013335235081406
18,2,0.0,0.8664445556470746,2.376551984221831
18,3,1.0,0.8902100754892929,0.0
18,3,0.75,0.875713609934178,1.4496465555114857
18,3,0.5,0.8576646918987663,3.254538359052661
18,3,0.25,0.8380988766360892,5.21111988532037
18,3,0.0,0.766391981436896,12.381809405239686
18,4,1.0,0.8902100754892929,0.0
18,4,0.75,0.8893225687922462,0.0887506697046625
18,4,0.5,0.8868312660075529,0.3378809481739964
18,4,0.25,0.8746683991207742,1.5541676368518664
18,4,0.0,0.8402271104912933,4.9982964997999595
18,5,1.0,0.8902100754892929,0.0
18,5,0.75,0.8867951877808576,0.34148877084352325
18,5,0.5,0.8701785874386414,2.003148805065147
18,5,0.25,0.8519237442238856,3.828633126540726
18,5,0.0,0.8302513276197487,5.995874786954413
18,6,1.0,0.8902100754892929,0.0
18,6,0.75,0.8976543720429926,-0.7444296553699714
18,6,0.5,0.9081396993609143,-1.7929623871621447
18,6,0.25,0.9071704901150067,-1.6960414625713849
18,6,0.0,0.9090270258524497,-1.8816950363156781
18,7,1.0,0.8902100754892929,0.0
18,7,0.75,0.8714657636210443,1.8744311868248542
18,7,0.5,0.8619410998992568,2.826897559003605
18,7,0.25,0.8327628456166565,5.744722987263639
18,7,0.0,0.7820659270269604,10.814414846233245
18,8,1.0,0.8902100754892929,0.0
18,8,0.75,0.8778790873336018,1.2330988155691114
18,8,0.5,0.8620174569335707,2.8192618555722193
18,8,0.25,0.8408059154627365,4.940416002655635
18,8,0.0,0.8087890064656261,8.142106902366674
19,0,1.0,0.8833722556673305,0.0
19,0,0.75,0.8835649104843197,-0.019265481698926834
19,0,0.5,0.8825131797140434,0.08590759532870473
19,0,0.25,0.8817711661435741,0.16010895237563716
19,0,0.0,0.8735905566162894,0.9781699051041093
19,1,1.0,0.8833722556673305,0.0
19,1,0.75,0.8797491904593016,0.36230652080289083
19,1,0.5,0.8775590854801851,0.5813170187145333
19,1,0.25,0.8726784151426679,1.0693840524662601
19,1,0.0,0.8601282575781348,2.324399808919564
19,2,1.0,0.8833722556673305,0.0
19,2,0.75,0.8786232174017422,0.4749038265588257
19,2,0.5,0.8757930096643047,0.757924600302573
19,2,0.25,0.8758979281930851,0.7474327474245368
19,2,0.0,0.8615985582267944,2.1773697440536033
19,3,1.0,0.8833722556673305,0.0
19,3,0.75,0.8731808837271835,1.0191371940146965
19,3,0.5,0.8665826154395555,1.678964022777496
19,3,0.25,0.8507971885137571,3.257506715357339
19,3,0.0,0.8031544170702951,8.021783859703536
19,4,1.0,0.8833722556673305,0.0
19,4,0.75,0.8829575719332952,0.04146837340353038
19,4,0.5,0.8796183932200523,0.37538624472781557
19,4,0.25,0.8629346603229948,2.0437595344335646
19,4,0.0,0.8241186090219668,5.92536466453637
19,5,1.0,0.8833722556673305,0.0
19,5,0.75,0.882702355514785,0.06699001525454218
19,5,0.5,0.8843081798607904,-0.09359241934598916
19,5,0.25,0.8810460259883932,0.23262296789372527
19,5,0.0,0.8244019281633699,5.8970327503960585
19,6,1.0,0.8833722556673305,0.0
19,6,0.75,0.8736810453954298,0.9691210271900674
19,6,0.5,0.8741276660459871,0.9244589621343335
19,6,0.25,0.8748964083196717,0.8475847347658716
19,6,0.0,0.8700501790820034,1.3322076585327025
19,7,1.0,0.8833722556673305,0.0
19,7,0.75,0.8793560052600818,0.40162504072486227
19,7,0.5,0.8793970009656285,0.39752547017020134
19,7,0.25,0.8715226756505274,1.184958001680303
19,7,0.0,0.8182610900490866,6.511116561824382
19,8,1.0,0.8833722556673305,0.0
19,8,0.75,0.8686515409262257,1.4720714741104812
19,8,0.5,0.8557460363024688,2.762621936486165
19,8,0.25,0.8387467352983244,4.462552036900602
19,8,0.0,0.8085190449926576,7.485321067467288
20,0,1.0,0.813726848875899,0.0
20,0,0.75,0.817729021191732,-0.4002172315832997
20,0,0.5,0.8272913890116567,-1.3564540135757697
20,0,0.25,0.8190304832378967,-0.5303634361997767
20,0,0.0,0.7869499731443572,2.677687573154175
20,1,1.0,0.813726848875899,0.0
20,1,0.75,0.8161645539344655,-0.24377050585665527
20,1,0.5,0.8065671574708917,0.7159691405007274
20,1,0.25,0.7987146742955928,1.5012174580306126
20,1,0.0,0.7694570203587974,4.426982851710159
20,2,1.0,0.813726848875899,0.0
20,2,0.75,0.8142960270584078,-0.05691781825087894
20,2,0.5,0.8100162274814384,0.3710621394460545
20,2,0.25,0.8084817547238111,0.5245094152087848
20,2,0.0,0.7783412273039397,3.5385621571959236
20,3,1.0,0.813726848875899,0.0
20,3,0.75,0.8150128349973063,-0.12859861214072899
20,3,0.5,0.8146227799678847,-0.08959310919857133
20,3,0.25,0.7982668785929832,1.5459970282915791
20,3,0.0,0.8220756747149709,-0.8348825839071927
20,4,1.0,0.813726848875899,0.0
20,4,0.75,0.8245038632479983,-1.0777014372099325
20,4,0.5,0.8264487753283217,-1.272192645242276
20,4,0.25,0.8293909396761366,-1.5664090800237673
20,4,0.0,0.8254551983334951,-1.1728349457596154
20,5,1.0,0.813726848875899,0.0
20,5,0.75,0.8221524191196531,-0.8425570243754121
20,5,0.5,0.8296365478407728,-1.590969896487382
20,5,0.25,0.8321393853058638,-1.8412536429964876
20,5,0.0,0.8230209608620026,-0.9294111986103637
20,6,1.0,0.813726848875899,0.0
20,6,0.75,0.8110507191694679,0.2676129706431052
20,6,0.5,0.8063612840719779,0.7365564803921032
20,6,0.25,0.8036058096889418,1.012103918695717
20,6,0.0,0.7983794257963904,1.5347423079508538
20,7,1.0,0.813726848875899,0.0
20,7,0.75,0.8236392299872349,-0.9912381111335966
20,7,0.5,0.8292020825592191,-1.5475233683320155
20,7,0.25,0.8159079060391805,-0.21810571632815412
20,7,0.0,0.7582926155493515,5.543423332654751
20,8,1.0,0.813726848875899,0.0
20,8,0.75,0.8033133878656047,1.0413461010294278
20,8,0.5,0.8010100526111682,1.2716796264730768
20,8,0.25,0.7878588187411717,2.586803013472727
20,8,0.0,0.7457706938419194,6.795615503397956
21,0,1.0,0.8488766777952484,0.0
21,0,0.75,0.841622995820076,0.7253681975172399
21,0,0.5,0.8357090826999773,1.31675950952711
21,0,0.25,0.822111803357811,2.676487443743747
21,0,0.0,0.7984630533436082,5.0413624451640215
21,1,1.0,0.8488766777952484,0.0
21,1,0.75,0.8536548484536843,-0.47781706584358874
21,1,0.5,0.8490326714634222,-0.015599366817375948
21,1,0.25,0.854658007724489,-0.578132992924052
21,1,0.0,0.8544837898872574,-0.5607112092008926
21,2,1.0,0.8488766777952484,0.0
21,2,0.75,0.847767445417559,0.11092323776894508
21,2,0.5,0.8372266528948044,1.165002490044409
21,2,0.25,0.8229361496911337,2.5940528104114735
21,2,0.0,0.7852873545926244,6.358932320262401
21,3,1.0,0.8488766777952484,0.0
21,3,0.75,0.8395145905005487,0.9362087294699784
21,3,0.5,0.8205176894112471,2.8358988384001305
21,3,0.25,0.7961664597821944,5.271021801305409
21,3,0.0,0.7662276233740974,8.2649054421151
21,4,1.0,0.8488766777952484,0.0
21,4,0.75,0.8522309005593889,-0.33542227641404354
21,4,0.5,0.8478084902415917,0.10681875536567853
21,4,0.25,0.8503505923632496,-0.14739145680011667
21,4,0.0,0.8504006976706365,-0.1524019875388083
21,5,1.0,0.8488766777952484,0.0
21,5,0.75,0.8502363946997515,-0.13597169045030943
21,5,0.5,0.8523951527168212,-0.3518474921572756
21,5,0.25,0.8577048775108363,-0.8828199715587903
21,5,0.0,0.8281619950771444,2.071468271810406
21,6,1.0,0.8488766777952484,0.0
21,6,0.75,0.8539767925303668,-0.51001147351184
21,6,0.5,0.8564393035818896,-0.7562625786641131
21,6,0.25,0.8559204890462593,-0.7043811251010834
21,6,0.0,0.8371841895863648,1.169248820888369
21,7,1.0,0.8488766777952484,0.0
21,7,0.75,0.8489248135679555,-0.004813577270701419
21,7,0.5,0.8364282474419805,1.2448430353267925
21,7,0.25,0.8203799997957505,2.8496677999497955
21,7,0.0,0.7919606451335766,5.6916032661671885
21,8,1.0,0.8488766777952484,0.0
21,8,0.75,0.8424358918758657,0.6440785919382797
21,8,0.5,0.839482638516772,0.9394039278476485
21,8,0.25,0.8282589025710498,2.061777522419861
21,8,0.0,0.809929076794037,3.894760100121142
22,0,1.0,0.818946083767311,0.0
22,0,0.75,0.8197583954563452,-0.0812311689034173
22,0,0.5,0.8301374395055834,-1.1191355738272346
22,0,0.25,0.8251853231335865,-0.6239239366275462
22,0,0.0,0.798529702716583,2.041638105072807
22,1,1.0,0.818946083767311,0.0
22,1,0.75,0.8194327735325886,-0.048668976527754815
22,1,0.5,0.823885937910328,-0.49398541430170084
22,1,0.25,0.8259089921178554,-0.6962908350544361
22,1,0.0,0.8142815370863211,0.4664546680989923
22,2,1.0,0.818946083767311,0.0
22,2,0.75,0.8168912817058401,0.20548020614709062
22,2,0.5,0.8103317886167988,0.8614295150512263
22,2,0.25,0.8129704472567619,0.5975636510549109
22,2,0.0,0.7969348103761158,2.201127339119524
22,3,1.0,0.818946083767311,0.0
22,3,0.75,0.8175939208016685,0.1352162965642556
22,3,0.5,0.8210554559541277,-0.2109372186816616
22,3,0.25,0.8022169657375396,1.6729118029771395
22,3,0.0,0.7744327642332831,4.451331953402793
22,4,1.0,0.818946083767311,0.0
22,4,0.75,0.8073221831890778,1.162390057823326
22,4,0.5,0.8073454759900124,1.1600607777298655
22,4,0.25,0.8091438831926956,0.980220057461545
22,4,0.0,0.7874616820280934,3.1484401739217627
22,5,1.0,0.818946083767311,0.0
22,5,0.75,0.8121527385872142,0.6793345180096888
22,5,0.5,0.8105159234197824,0.8430160347528637
22,5,0.25,0.8039426073672649,1.5003476400046178
22,5,0.0,0.7709416522744034,4.800443149290768
22,6,1.0,0.818946083767311,0.0
22,6,0.75,0.8252369325217963,-0.6290848754485268
22,6,0.5,0.8167298743492204,0.22162094180906422
22,6,0.25,0.7988963834177574,2.0049700349553667
22,6,0.0,0.7905800279930311,2.8366055774279975
22,7,1.0,0.818946083767311,0.0
22,7,0.75,0.8158330379492802,0.3113045818030846
22,7,0.5,0.8104952285112803,0.8450855256030732
22,7,0.25,0.7719908002410864,4.695528352622469
22,7,0.0,0.706492556527184,11.245352724012703
22,8,1.0,0.818946083767311,0.0
22,8,0.75,0.8227493479699249,-0.38032642026138985
22,8,0.5,0.8170858905601459,0.18601932071651284
22,8,0.25,0.7982444481950153,2.0701635572295762
22,8,0.0,0.7594756222202121,5.94704615470989
23,0,1.0,0.8302785949000695,0.0
23,0,0.75,0.813468270973151,1.6810323926918502
23,0,0.5,0.8131420503160264,1.7136544584043123
23,0,0.25,0.8168985265095106,1.3380068390558941
23,0,0.0,0.7816450677891684,4.863352711090108
23,1,1.0,0.8302785949000695,0.0
23,1,0.75,0.8219512921442163,0.832730275585325
23,1,0.5,0.8266488625427418,0.3629732357327664
23,1,0.25,0.8254608945850256,0.48177003150439157
23,1,0.0,0.8213077094332897,0.8970885466779821
23,2,1.0,0.8302785949000695,0.0
23,2,0.75,0.8418299367858654,-1.1551341885795874
23,2,0.5,0.8530843160701523,-2.2805721170082838
23,2,0.25,0.8605109150742798,-3.023232017421029
23,2,0.0,0.8347065264495787,-0.44279315495091565
23,3,1.0,0.8302785949000695,0.0
23,3,0.75,0.8345544922880369,-0.4275897387967409
23,3,0.5,0.8448628368244888,-1.4584241924419317
23,3,0.25,0.842009179755635,-1.1730584855565551
23,3,0.0,0.8164445547834136,1.38340401166559
23,4,1.0,0.8302785949000695,0.0
23,4,0.75,0.8309779917263695,-0.06993968263000472
23,4,0.5,0.8266666300784693,0.36119648216002
23,4,0.25,0.8143874111557727,1.5891183744296766
23,4,0.0,0.7895823999333781,4.069619496669141
23,5,1.0,0.8302785949000695,0.0
23,5,0.75,0.8276087304911022,0.2669864408967326
23,5,0.5,0.8224647691045046,0.7813825795564888
23,5,0.25,0.8247272222896149,0.5551372610454575
23,5,0.0,0.8024105335310892,2.7868061368980346
23,6,1.0,0.8302785949000695,0.0
23,6,0.75,0.8334466743167961,-0.3168079416726588
23,6,0.5,0.8222054749211657,0.8073119978903809
23,6,0.25,0.817658049842458,1.2620545057611454
23,6,0.0,0.8084879991988407,2.1790595701228765
23,7,1.0,0.8302785949000695,0.0
23,7,0.75,0.832382894429329,-0.21042995292595013
23,7,0.5,0.8366194636362498,-0.6340868736180338
23,7,0.25,0.8239895205341141,0.6289074365955383
23,7,0.0,0.7909159634615577,3.936263143851182
23,8,1.0,0.8302785949000695,0.0
23,8,0.75,0.8319709584818784,-0.1692363581808909
23,8,0.5,0.8389358744550455,-0.8657279554975972
23,8,0.25,0.8218061818972622,0.8472413002807322
23,8,0.0,0.7868980967946088,4.3380498105460745
24,0,1.0,0.8054181520278418,0.0
24,0,0.75,0.8010331318820534,0.4385020145788454
24,0,0.5,0.7952447039701103,1.0173448057731571
24,0,0.25,0.7892870851038531,1.613106692398869
24,0,0.0,0.7743913723415841,3.1026779686257777
24,1,1.0,0.8054181520278418,0.0
24,1,0.75,0.7990053560849892,0.64127959428526
24,1,0.5,0.797816299398877,0.7601852628964845
24,1,0.25,0.8015107402288216,0.39074117990202106
24,1,0.0,0.7893887478839221,1.6029404143919734
24,2,1.0,0.8054181520278418,0.0
24,2,0.75,0.8106097183295128,-0.5191566301670947
24,2,0.5,0.8175908451087404,-1.2172693080898522
24,2,0.25,0.8135820619680016,-0.8163909940159808
24,2,0.0,0.7620013086196709,4.341684340817098
24,3,1.0,0.8054181520278418,0.0
24,3,0.75,0.8152414737186364,-0.9823321690794584
24,3,0.5,0.8033993622935999,0.20187897342419658
24,3,0.25,0.7956967834320736,0.972136859576822
24,3,0.0,0.7970784246548146,0.8339727373027239
24,4,1.0,0.8054181520278418,0.0
24,4,0.75,0.7976326748132173,0.7785477214624525
24,4,0.5,0.7844600286749557,2.095812335288616
24,4,0.25,0.7607009112433335,4.471724078450833
24,4,0.0,0.7066614298557246,9.87567221721173
24,5,1.0,0.8054181520278418,0.0
24,5,0.75,0.8007817446167258,0.4636407411116039
24,5,0.5,0.7951745838183134,1.024356820952843
24,5,0.25,0.7759629567782694,2.945519524957241
24,5,0.0,0.7279637285627807,7.745442346506115
24,6,1.0,0.8054181520278418,0.0
24,6,0.75,0.7963850228572672,0.9033129170574639
24,6,0.5,0.7812578047978969,2.416034722994498
24,6,0.25,0.7605653138448362,4.485283818300568
24,6,0.0,0.7540335477118368,5.1384604316005
24,7,1.0,0.8054181520278418,0.0
24,7,0.75,0.8051228121873093,0.029533984053253803
24,7,0.5,0.7987897407252246,0.6628411302617265
24,7,0.25,0.7646125210238177,4.080563100402412
24,7,0.0,0.7289618120535994,7.645633997424239
24,8,1.0,0.8054181520278418,0.0
24,8,0.75,0.800243070575317,0.5175081452524877
24,8,0.5,0.8084463398023026,-0.3028187774460789
24,8,0.25,0.7943394408195297,1.1078711208312164
24,8,0.0,0.7722821705961029,3.3135981431738903
25,0,1.0,0.9143583938756266,0.0
25,0,0.75,0.9099108044454189,0.44475894302076213
25,0,0.5,0.911054024723359,0.33043691522676166
25,0,0.25,0.9078779506841077,0.6480443191518859
25,0,0.0,0.8931029802173887,2.125541365823791
25,1,1.0,0.9143583938756266,0.0
25,1,0.75,0.918911842492492,-0.4553448616865463
25,1,0.5,0.9245874063841903,-1.0229012508563784
25,1,0.25,0.9159307584047401,-0.1572364529113579
25,1,0.0,0.8976122559764836,1.674613789914292
25,2,1.0,0.9143583938756266,0.0
25,2,0.75,0.906756620829219,0.7601773046407523
25,2,0.5,0.909648394835303,0.47099990403235426
25,2,0.25,0.899654467819506,1.4703926056120586
25,2,0.0,0.8857086097543194,2.8649784121307142
25,3,1.0,0.9143583938756266,0.0
25,3,0.75,0.9043965610313079,0.9961832844318619
25,3,0.5,0.8942627661285719,2.0095627747054645
25,3,0.25,0.8918467721655429,2.2511621710083696
25,3,0.0,0.8790090069770709,3.5349386898555712
25,4,1.0,0.9143583938756266,0.0
25,4,0.75,0.9077324706364334,0.6625923239193199
25,4,0.5,0.9041749652234384,1.0183428652188131
25,4,0.25,0.8772169587323594,3.7141435143267176
25,4,0.0,0.8237019667441019,9.065642713152467
25,5,1.0,0.9143583938756266,0.0
25,5,0.75,0.912150630715814,0.22077631598125258
25,5,0.5,0.9040723925992598,1.0286001276366807
25,5,0.25,0.887458570260064,2.6899823615562535
25,5,0.0,0.8717504956729094,4.260789820271715
25,6,1.0,0.9143583938756266,0.0
25,6,0.75,0.9110288967020801,0.33294971735464696
25,6,0.5,0.9086169733753178,0.5741420500308791
25,6,0.25,0.9081240338543124,0.6234360021314167
25,6,0.0,0.9091367878296029,0.5221606046023619
25,7,1.0,0.9143583938756266,0.0
25,7,0.75,0.9095506252139274,0.48077686616991855
25,7,0.5,0.903389173014357,1.0969220861269613
25,7,0.25,0.8976542146477012,1.670417922792533
25,7,0.0,0.8450955258647566,6.9262868010870005
25,8,1.0,0.9143583938756266,0.0
25,8,0.75,0.9189827520659717,-0.46243581903451236
25,8,0.5,0.9264708166337985,-1.2112422758171926
25,8,0.25,0.9265704845464877,-1.2212090670861153
25,8,0.0,0.8792901640517203,3.5068229823906227
26,0,1.0,0.7983684969835007,0.0
26,0,0.75,0.7993469283950938,-0.09784314115931503
26,0,0.5,0.7927382685248299,0.5630228458670783
26,0,0.25,0.7848017405180309,1.3566756465469787
26,0,0.0,0.7735682145218371,2.4800282461663548
26,1,1.0,0.7983684969835007,0.0
26,1,0.75,0.7989587952386601,-0.05902982551594382
26,1,0.5,0.7953784565899735,0.2990040393527127
26,1,0.25,0.7946330327712544,0.3735464212246242
26,1,0.0,0.7926857314932507,0.568276549024993
26,2,1.0,0.7983684969835007,0.0
26,2,0.75,0.7957701691478993,0.2598327835601322
26,2,0.5,0.7874996788947671,1.0868818088733523
26,2,0.25,0.7696766971757727,2.869179980772796
26,2,0.0,0.7493313300372124,4.903716694628823
26,3,1.0,0.7983684969835007,0.0
26,3,0.75,0.7999576332299705,-0.15891362464698355
26,3,0.5,0.7816671986313608,1.6701298352139848
26,3,0.25,0.7732165077565138,2.5151989226986804
26,3,0.0,0.7264455735016014,7.1922923481899215
26,4,1.0,0.7983684969835007,0.0
26,4,0.75,0.8020578361314489,-0.3689339147948223
26,4,0.5,0.7970716672684808,0.1296829715019876
26,4,0.25,0.7781908498350709,2.0177647148429734
26,4,0.0,0.7550784464447475,4.329005053875312
26,5,1.0,0.7983684969835007,0.0
26,5,0.75,0.7982236541943415,0.014484278915916082
26,5,0.5,0.7994155559037365,-0.10470589202358216
26,5,0.25,0.7945999119017245,0.37685850817761324
26,5,0.0,0.7779274152638295,2.0441081719671184
26,6,1.0,0.7983684969835007,0.0
26,6,0.75,0.8106252654228363,-1.2256768439335652
26,6,0.5,0.8127084500528754,-1.4339953069374745
26,6,0.25,0.8087931567136779,-1.0424659730177255
26,6,0.0,0.8071628890016258,-0.8794392018125152
26,7,1.0,0.7983684969835007,0.0
26,7,0.75,0.8144200148421024,-1.6051517858601705
26,7,0.5,0.7998343135382572,-0.14658165547565272
26,7,0.25,0.7859721915605784,1.239630542292225
26,7,0.0,0.7478800947887425,5.048840219475814
26,8,1.0,0.7983684969835007,0.0
26,8,0.75,0.7934272505413748,0.49412464421259017
26,8,0.5,0.7905583217907985,0.7810175192702107
26,8,0.25,0.7714681169154134,2.690038006808726
26,8,0.0,0.7295612247842478,6.880727219925287
27,0,1.0,0.8570413586718607,0.0
27,0,0.75,0.8541677954534699,0.2873563218390829
27,0,0.5,0.8598824506400611,-0.2841091968200371
27,0,0.25,0.8853774441932337,-2.833608552137301
27,0,0.0,0.8606568972052902,-0.3615538533429441
27,1,1.0,0.8570413586718607,0.0
27,1,0.75,0.8515146373530869,0.5526721318773853
27,1,0.5,0.8458698000315371,1.1171558640323598
27,1,0.25,0.8502678925635959,0.6773466108264792
27,1,0.0,0.8482652850881222,0.8776073583738553
27,2,1.0,0.8570413586718607,0.0
27,2,0.75,0.8428249404820239,1.4216418189836766
27,2,0.5,0.8364381682761677,2.0603190395693027
27,2,0.25,0.8279745242114624,2.906683446039826
27,2,0.0,0.7968134051133996,6.022795355846111
27,3,1.0,0.8570413586718607,0.0
27,3,0.75,0.8459454933008526,1.1095865371008151
27,3,0.5,0.8362245161732944,2.08168424985663
27,3,0.25,0.8230200918831513,3.4021266788709426
27,3,0.0,0.8018176498549251,5.522370881693561
27,4,1.0,0.8570413586718607,0.0
27,4,0.75,0.8568353222053875,0.020603646647321394
27,4,0.5,0.8516889737298194,0.5352384942041266
27,4,0.25,0.8450093074610108,1.2032051210849937
27,4,0.0,0.8304622129605713,2.6579145711289387
27,5,1.0,0.8570413586718607,0.0
27,5,0.75,0.8510370028776563,0.6004355794204441
27,5,0.5,0.8402829096756481,1.6758448996212594
27,5,0.25,0.8346089251654188,2.2432433506441862
27,5,0.0,0.8189021939852601,3.8139164686600613
27,6,1.0,0.8570413586718607,0.0
27,6,0.75,0.8454119114386376,1.1629447233223122
27,6,0.5,0.8442503587252832,1.2790999946577508
27,6,0.25,0.8386158654249517,1.8425493246909008
27,6,0.0,0.8363190430569151,2.072231561494564
27,7,1.0,0.8570413586718607,0.0
27,7,0.75,0.8516418934825469,0.5399465189313779
27,7,0.5,0.8638597228540355,-0.6818364182174741
27,7,0.25,0.883622199118693,-2.658084044683229
27,7,0.0,0.8433026323270225,1.3738726344838192
27,8,1.0,0.8570413586718607,0.0
27,8,0.75,0.8408778991564466,1.6163459515414091
27,8,0.5,0.8406131392418056,1.6428219430055124
27,8,0.25,0.8434762814781925,1.3565077193668174
27,8,0.0,0.8325815543025219,2.445980436933881
28,0,1.0,0.8341960671722033,0.0
28,0,0.75,0.83657552487337,-0.2379457701166654
28,0,0.5,0.8343723594566491,-0.017629228444582257
28,0,0.25,0.8290522571673085,0.5143810004894833
28,0,0.0,0.7919164240136106,4.227964315859268
28,1,1.0,0.8341960671722033,0.0
28,1,0.75,0.8350195941205995,-0.08235269483961583
28,1,0.5,0.8407092073450859,-0.6513140172882625
28,1,0.25,0.8270769327230547,0.7119134449148579
28,1,0.0,0.8264940559812627,0.7702011190940605
28,2,1.0,0.8341960671722033,0.0
28,2,0.75,0.8345696470073989,-0.03735798351955921
28,2,0.5,0.82624928582009,0.7946781352113241
28,2,0.25,0.8244762274018725,0.9719839770330752
28,2,0.0,0.8170119586057036,1.7184108566499656
28,3,1.0,0.8341960671722033,0.0
28,3,0.75,0.8231982970323701,1.0997770139833163
28,3,0.5,0.820070133702083,1.4125933470120255
28,3,0.25,0.7906601906635244,4.353587650867885
28,3,0.0,0.7434730812490195,9.072298592318385
28,4,1.0,0.8341960671722033,0.0
28,4,0.75,0.8268726640737897,0.7323403098413617
28,4,0.5,0.8225077379484732,1.1688329223730087
28,4,0.25,0.7913028663506597,4.289320082154358
28,4,0.0,0.7446447219915557,8.955134518064757
28,5,1.0,0.8341960671722033,0.0
28,5,0.75,0.8290146197941987,0.5181447378004633
28,5,0.5,0.8092385995991693,2.4957467573033965
28,5,0.25,0.7860280365038746,4.816803066832865
28,5,0.0,0.7252463422235447,10.894972494865861
28,6,1.0,0.8341960671722033,0.0
28,6,0.75,0.8352579730839307,-0.10619059117273899
28,6,0.5,0.8432367693243322,-0.9040702152128932
28,6,0.25,0.8382508244695968,-0.4054757297393463
28,6,0.0,0.842037821960184,-0.7841754787980659
28,7,1.0,0.8341960671722033,0.0
28,7,0.75,0.8365327859901862,-0.2336718817982919
28,7,0.5,0.843926547745449,-0.9730480573245659
28,7,0.25,0.8238788456972119,1.0317221474991367
28,7,0.0,0.7815019459187567,5.2694121253446635
28,8,1.0,0.8341960671722033,0.0
28,8,0.75,0.8314991428358074,0.26969243363959006
28,8,0.5,0.8232814058544161,1.0914661317787178
28,8,0.25,0.8226007465775156,1.1595320594687708
28,8,0.0,0.7816247755438271,5.2571291628376144
29,0,1.0,0.8006780106266801,0.0
29,0,0.75,0.8057367110885783,-0.5058700461898158
29,0,0.5,0.788382060932957,1.2295949693723052
29,0,0.25,0.7716330594971372,2.904495112954286
29,0,0.0,0.7397632808307624,6.091472979591773
29,1,1.0,0.8006780106266801,0.0
29,1,0.75,0.8054528970697813,-0.47748864431012006
29,1,0.5,0.8014999371110556,-0.08219264843755125
29,1,0.25,0.79814475278296,0.2533257843720049
29,1,0.0,0.7963388558346469,0.4339154792033173
29,2,1.0,0.8006780106266801,0.0
29,2,0.75,0.8054551664686989,-0.47771558420187654
29,2,0.5,0.8055133045731749,-0.4835293946494845
29,2,0.25,0.8079894075918563,-0.7311396965176242
29,2,0.0,0.784205006890375,1.6473003736305114
29,3,1.0,0.8006780106266801,0.0
29,3,0.75,0.8063939077367773,-0.5715897110097234
29,3,0.5,0.8178010538506235,-1.7123043223943424
29,3,0.25,0.7981566742170403,0.2521336409639807
29,3,0.0,0.7869918570303789,1.368615359630121
29,4,1.0,0.8006780106266801,0.0
29,4,0.75,0.7979890742270354,0.2688936399644737
29,4,0.5,0.7980922110490858,0.25857995775943055
29,4,0.25,0.7767561974138603,2.392181321281983
29,4,0.0,0.7206630554021394,8.001495522454071
29,5,1.0,0.8006780106266801,0.0
29,5,0.75,0.8022769573958863,-0.15989467692062442
29,5,0.5,0.7998208634250689,0.08571472016112303
29,5,0.25,0.7872287699448868,1.3449240681793317
29,5,0.0,0.7236770726163372,7.700093801034291
29,6,1.0,0.8006780106266801,0.0
29,6,0.75,0.8018526337336941,-0.11746231070139945
29,6,0.5,0.8064661064072455,-0.5788095780565383
29,6,0.25,0.8085090982814689,-0.7831087654788793
29,6,0.0,0.8035019814192693,-0.28239707925892255
29,7,1.0,0.8006780106266801,0.0
29,7,0.75,0.8147541101559184,-1.4076099529238273
29,7,0.5,0.8278123162105038,-2.713430558382368
29,7,0.25,0.8223606713889196,-2.168266076223946
29,7,0.0,0.7813499698676292,1.9328040759050924
29,8,1.0,0.8006780106266801,0.0
29,8,0.75,0.8020654299591244,-0.13874193324443507
29,8,0.5,0.7860071361559857,1.4670874470694373
29,8,0.25,0.753887577494086,4.679043313259412
29,8,0.0,0.6691794868100839,13.14985238165962
30,0,1.0,0.8807850752475216,0.0
30,0,0.75,0.8848982015772673,-0.41131263297456977
30,0,0.5,0.892382849419586,-1.1597774172064423
30,0,0.25,0.889175392990152,-0.8390317742630438
30,0,0.0,0.8843248200639332,-0.35397448164116163
30,1,1.0,0.8807850752475216,0.0
30,1,0.75,0.8764983048602097,0.42867703873118446
30,1,0.5,0.8779473040638888,0.283777118363282
30,1,0.25,0.8761902005913669,0.45948746561547127
30,1,0.0,0.860549794300611,2.0235280946910628
30,2,1.0,0.8807850752475216,0.0
30,2,0.75,0.8764892094781399,0.42958657693816793
30,2,0.5,0.870543600758616,1.0241474488905555
30,2,0.25,0.871067854549789,0.971722069773262
30,2,0.0,0.8691056409563181,1.1679434291203439
30,3,1.0,0.8807850752475216,0.0
30,3,0.75,0.8890374306560215,-0.825235540849989
30,3,0.5,0.8875626938354456,-0.6777618587924028
30,3,0.25,0.8532383859069377,2.7546689340583908
30,3,0.0,0.8179900063286495,6.27950689188721
30,4,1.0,0.8807850752475216,0.0
30,4,0.75,0.8804882128806071,0.029686236691450762
30,4,0.5,0.8853287493617822,-0.45436741142605985
30,4,0.25,0.8778292632881398,0.2955811959381771
30,4,0.0,0.8617238851034211,1.906119014410046
30,5,1.0,0.8807850752475216,0.0
30,5,0.75,0.8877844846402059,-0.6999409392684286
30,5,0.5,0.8804925840564559,0.029249119106566912
30,5,0.25,0.8770770532594956,0.3708021988026
30,5,0.0,0.8325266991850802,4.825837606244143
30,6,1.0,0.8807850752475216,0.0
30,6,0.75,0.8769124948462694,0.3872580401252157
30,6,0.5,0.8672186824523616,1.3566392795160032
30,6,0.25,0.8673076303991081,1.3477444848413511
30,6,0.0,0.8682157131576701,1.2569362089851488
30,7,1.0,0.8807850752475216,0.0
30,7,0.75,0.8784380779529646,0.23469972945570072
30,7,0.5,0.8763859532938665,0.4399121953655105
30,7,0.25,0.8501869383602996,3.0598136887222016
30,7,0.0,0.7637387578998542,11.704631734766735
30,8,1.0,0.8807850752475216,0.0
30,8,0.75,0.8822806678922538,-0.1495592644732202
30,8,0.5,0.884901440717836,-0.4116365470314465
30,8,0.25,0.8824289444449919,-0.16438691974702824
30,8,0.0,0.8497063119412602,3.107876330626136
31,0,1.0,0.7978319839171624,0.0
31,0,0.75,0.7942056107076041,0.36263732095582757
31,0,0.5,0.7943066345944071,0.3525349322755278
31,0,0.25,0.784329218539162,1.3502765378000325
31,0,0.0,0.7593643700790174,3.846761383814501
31,1,1.0,0.7978319839171624,0.0
31,1,0.75,0.7894218107553603,0.8410173161802037
31,1,0.5,0.7880281683317212,0.9803815585441189
31,1,0.25,0.7907936929520427,0.7038290965119653
31,1,0.0,0.7797944491123601,1.8037534804802302
31,2,1.0,0.7978319839171624,0.0
31,2,0.75,0.7919578793636923,0.5874104553470039
31,2,0.5,0.7873659213585837,1.0466062558578626
31,2,0.25,0.7889918831354868,0.884010078167552
31,2,0.0,0.7463045191242865,5.152746479287584
31,3,1.0,0.7978319839171624,0.0
31,3,0.75,0.7961444811416207,0.16875027755416383
31,3,0.5,0.7848206245776835,1.3011359339478834
31,3,0.25,0.7852506567580413,1.258132715912108
31,3,0.0,0.7651113578019842,3.272062611517812
31,4,1.0,0.7978319839171624,0.0
31,4,0.75,0.801979907605694,-0.4147923688531674
31,4,0.5,0.7964293587445168,0.14026251726455552
31,4,0.25,0.7850175176967092,1.2814466220453125
31,4,0.0,0.7679117952720199,2.9920188645142454
31,5,1.0,0.7978319839171624,0.0
31,5,0.75,0.796206007651432,0.16259762657303556
31,5,0.5,0.7909560145231508,0.6875969394011583
31,5,0.25,0.8015625487381155,-0.37305648209531306
31,5,0.0,0.7821584699185444,1.5673513998617938
31,6,1.0,0.7978319839171624,0.0
31,6,0.75,0.7949597903220001,0.287219359516222
31,6,0.5,0.7938403692971576,0.39916146200047464
31,6,0.25,0.7868296465653681,1.1002337351794234
31,6,0.0,0.769595296644985,2.823668727217732
31,7,1.0,0.7978319839171624,0.0
31,7,0.75,0.7997084532069895,-0.18764692898270985
31,7,0.5,0.7849777486643712,1.2854235252791169
31,7,0.25,0.7641961530911647,3.3635830825997637
31,7,0.0,0.698923531136914,9.890845278024841
31,8,1.0,0.7978319839171624,0.0
31,8,0.75,0.7872640128807148,1.0567971036447577
31,8,0.5,0.7832511183125692,1.4580865604593152
31,8,0.25,0.7791195842467481,1.871239967041427
31,8,0.0,0.7448486481296195,5.2983335787542885
32,0,1.0,0.8799881534394809,0.0
32,0,0.75,0.8771287425464255,0.2859410893055414
32,0,0.5,0.8641146588747414,1.587349456473952
32,0,0.25,0.8459015726161743,3.4086580823306623
32,0,0.0,0.8123450542518311,6.764309918764977
32,1,1.0,0.8799881534394809,0.0
32,1,0.75,0.8824308541443875,-0.24427007049065974
32,1,0.5,0.8823201698448352,-0.2332016405354298
32,1,0.25,0.8825547614118344,-0.25666079723535296
32,1,0.0,0.8542496688279122,2.573848461156869
32,2,1.0,0.8799881534394809,0.0
32,2,0.75,0.878298066875653,0.16900865638278528
32,2,0.5,0.8598698988198786,2.011825461960226
32,2,0.25,0.8475013689472733,3.2486784492207543
32,2,0.0,0.8358613427571828,4.412681068229807
32,3,1.0,0.8799881534394809,0.0
32,3,0.75,0.8664438189144295,1.3544334525051438
32,3,0.5,0.8379606808905161,4.202747254896478
32,3,0.25,0.8333426417357551,4.664551170372578
32,3,0.0,0.8269949732140112,5.299318022546973
32,4,1.0,0.8799881534394809,0.0
32,4,0.75,0.8759561543284339,0.4031999111047013
32,4,0.5,0.8761737560427567,0.38143973967241784
32,4,0.25,0.869278197332568,1.0709956106912943
32,4,0.0,0.848986032677181,3.100212076229991
32,5,1.0,0.8799881534394809,0.0
32,5,0.75,0.8777433898579199,0.22447635815610045
32,5,0.5,0.8749433920205824,0.5044761418898536
32,5,0.25,0.8779852380348812,0.20029154045997366
32,5,0.0,0.8607275218819026,1.926063155757829
32,6,1.0,0.8799881534394809,0.0
32,6,0.75,0.8727060089057888,0.7282144533692136
32,6,0.5,0.884062224297075,-0.40740708575941476
32,6,0.25,0.8810112948299953,-0.10231413905144038
32,6,0.0,0.8671699870130684,1.2818166426412536
32,7,1.0,0.8799881534394809,0.0
32,7,0.75,0.8719794709509899,0.8008682488490959
32,7,0.5,0.8741982679973732,0.5789885442107678
32,7,0.25,0.8485658819642795,3.142227147520138
32,7,0.0,0.7839788064907491,9.600934694873175
32,8,1.0,0.8799881534394809,0.0
32,8,0.75,0.8673684125484913,1.2619740890989606
32,8,0.5,0.8656741052399347,1.431404819954618
32,8,0.25,0.8677089605228125,1.2279192916668347
32,8,0.0,0.8384621901587208,4.152596328076008
33,0,1.0,0.9020884642006688,0.0
33,0,0.75,0.90362858704607,-0.15401228454011706
33,0,0.5,0.9032088678355508,-0.11204036348819724
33,0,0.25,0.8926394351110801,0.9449029089588667
33,0,0.0,0.8752207328177586,2.686773138291021
33,1,1.0,0.9020884642006688,0.0
33,1,0.75,0.9052296001001567,-0.31411358994879457
33,1,0.5,0.9012897894200415,0.07986747806273398
33,1,0.25,0.9053279946037036,-0.3239530403034818
33,1,0.0,0.896130556512063,0.5957907688605824
33,2,1.0,0.9020884642006688,0.0
33,2,0.75,0.9004109532557331,0.1677510944935734
33,2,0.5,0.8972005770109013,0.48878871897675147
33,2,0.25,0.8788364074491172,2.325205675155162
33,2,0.0,0.8347683200384205,6.73201441622483
33,3,1.0,0.9020884642006688,0.0
33,3,0.75,0.9043517056523733,-0.2263241451704534
33,3,0.5,0.9059374048305104,-0.3848940629841646
33,3,0.25,0.912175140034757,-1.0086675834088177
33,3,0.0,0.8940540535410088,0.8034410659660041
33,4,1.0,0.9020884642006688,0.0
33,4,0.75,0.9025009613511542,-0.04124971504854136
33,4,0.5,0.9058897020533212,-0.3801237852652406
33,4,0.25,0.9128281703646277,-1.0739706163958918
33,4,0.0,0.8744393838819139,2.7649080318754904
33,5,1.0,0.9020884642006688,0.0
33,5,0.75,0.9009404439561979,0.11480202444709153
33,5,0.5,0.9041031375827444,-0.20146733820756157
33,5,0.25,0.8974418642659363,0.4646599934732487
33,5,0.0,0.8686154143909779,3.3473049809690902
33,6,1.0,0.9020884642006688,0.0
33,6,0.75,0.8939460624938675,0.814240170680125
33,6,0.5,0.8941124824512923,0.7975981749376526
33,6,0.25,0.8711840686271526,3.090439557351621
33,6,0.0,0.858788127219555,4.33003369811138
33,7,1.0,0.9020884642006688,0.0
33,7,0.75,0.8988360808202716,0.3252383380397239
33,7,0.5,0.8893611271941402,1.2727337006528616
33,7,0.25,0.8676739310988822,3.441453310178655
33,7,0.0,0.8193093700695534,8.277909413111539
33,8,1.0,0.9020884642006688,0.0
33,8,0.75,0.8997019509306384,0.2386513270030366
33,8,0.5,0.904371398132767,-0.2282933932098219
33,8,0.25,0.8921073670897244,0.9981097110944415
33,8,0.0,0.8630309512619765,3.9057512938692307
34,0,1.0,0.8930480035565223,0.0
34,0,0.75,0.8914354444557582,0.16125591007640772
34,0,0.5,0.8937791073139294,-0.07311037574071477
34,0,0.25,0.8814538208401991,1.1594182716323176
34,0,0.0,0.8513202392173678,4.172776433915448
34,1,1.0,0.8930480035565223,0.0
34,1,0.75,0.8903157631193637,0.2732240437158584
34,1,0.5,0.8989003946300562,-0.5852391073533969
34,1,0.25,0.8976640739908004,-0.4616070434278141
34,1,0.0,0.8812041078822779,1.1843895674244376
34,2,1.0,0.8930480035565223,0.0
34,2,0.75,0.8977577489942986,-0.4709745437776358
34,2,0.5,0.8979716743809643,-0.4923670824442006
34,2,0.25,0.9051976325951961,-1.2149629038673893
34,2,0.0,0.8983345071790344,-0.5286503622512151
34,3,1.0,0.8930480035565223,0.0
34,3,0.75,0.8838192806809783,0.9228722875543993
34,3,0.5,0.8850650391522892,0.7982964404233073
34,3,0.25,0.8707918826060288,2.225612095049345
34,3,0.0,0.8481758849694174,4.487211858710483
34,4,1.0,0.8930480035565223,0.0
34,4,0.75,0.8886535578848077,0.4394445671714542
34,4,0.5,0.887131245823293,0.5916757733229305
34,4,0.25,0.8764948943173088,1.6553109239213493
34,4,0.0,0.8595133200303379,3.3534683526184383
34,5,1.0,0.8930480035565223,0.0
34,5,0.75,0.8865914188285606,0.6456584727961623
34,5,0.5,0.886057225597781,0.6990777958741257
34,5,0.25,0.8974727334083907,-0.4424729851868481
34,5,0.0,0.8740682954310154,1.8979708125506867
34,6,1.0,0.8930480035565223,0.0
34,6,0.75,0.8851483982477312,0.789960530879108
34,6,0.5,0.882232552566496,1.0815450990026232
34,6,0.25,0.8783118921731741,1.4736111383348183
34,6,0.0,0.8817197703602089,1.1328233196313375
34,7,1.0,0.8930480035565223,0.0
34,7,0.75,0.8856961328861874,0.7351870670334826
34,7,0.5,0.8831636974360855,0.9884306120436781
34,7,0.25,0.8628806513864917,3.0167352170030526
34,7,0.0,0.8247848190431288,6.826318451339342
34,8,1.0,0.8930480035565223,0.0
34,8,0.75,0.8879076086956521,0.5140394860870146
34,8,0.5,0.8793149988666882,1.3733004689834072
34,8,0.25,0.860519769865931,3.2528233690591213
34,8,0.0,0.8414295644251624,5.161843913135988
35,0,1.0,0.7413436889596714,0.0
35,0,0.75,0.7380797528824422,0.32639360772291903
35,0,0.5,0.7328504328525582,0.8493256107113156
35,0,0.25,0.7129789971685148,2.8364691791156638
35,0,0.0,0.6765852994955035,6.47583894641679
35,1,1.0,0.7413436889596714,0.0
35,1,0.75,0.7520009412534561,-1.065725229378467
35,1,0.5,0.7512763334110663,-0.9932644451394856
35,1,0.25,0.7496088482188774,-0.8265159259206012
35,1,0.0,0.7349443348788518,0.6399354080819597
35,2,1.0,0.7413436889596714,0.0
35,2,0.75,0.7353847911109181,0.5958897848753253
35,2,0.5,0.730582052691033,1.0761636268638353
35,2,0.25,0.7226036024934872,1.8740086466184191
35,2,0.0,0.6969800306729859,4.436365828668554
35,3,1.0,0.7413436889596714,0.0
35,3,0.75,0.7343666890618503,0.6976999897821079
35,3,0.5,0.7273722573098805,1.3971431649790866
35,3,0.25,0.7182296217448686,2.3114067214802803
35,3,0.0,0.6790839260959163,6.225976286375512
35,4,1.0,0.7413436889596714,0.0
35,4,0.75,0.7368578884337287,0.4485800525942718
35,4,0.5,0.737624620893702,0.3719068065969444
35,4,0.25,0.7401036788893078,0.12400100703635619
35,4,0.0,0.7292272863919715,1.2116402567699858
35,5,1.0,0.7413436889596714,0.0
35,5,0.75,0.741446608006892,-0.010291904722059542
35,5,0.5,0.7415918703303749,-0.02481813707034819
35,5,0.25,0.7365102554445135,0.4833433515157859
35,5,0.0,0.7277640957855427,1.3579593174128712
35,6,1.0,0.7413436889596714,0.0
35,6,0.75,0.7351136899189273,0.6229999040744061
35,6,0.5,0.7415748739278151,-0.023118496814367173
35,6,0.25,0.746281907778532,-0.49382188188605847
35,6,0.0,0.7339331739943123,0.741051496535905
35,7,1.0,0.7413436889596714,0.0
35,7,0.75,0.7344580408496659,0.6885648110005471
35,7,0.5,0.7395051386170371,0.18385503426342487
35,7,0.25,0.7165065578793032,2.4837131080368224
35,7,0.0,0.6792284286105731,6.211526034909831
35,8,1.0,0.7413436889596714,0.0
35,8,0.75,0.7420630331375515,-0.07193441778801102
35,8,0.5,0.7355451879867176,0.5798500972953757
35,8,0.25,0.7269023864076071,1.4441302552064328
35,8,0.0,0.7020210014182812,3.9322687541390233
36,0,1.0,0.819652666811973,0.0
36,0,0.75,0.8195756617062496,0.007700510572339336
36,0,0.5,0.8178489751841811,0.18036916277919257
36,0,0.25,0.8043114505537836,1.5341216258189405
36,0,0.0,0.7796835442804231,3.996912253154994
36,1,1.0,0.819652666811973,0.0
36,1,0.75,0.8150127649779082,0.4639901834064819
36,1,0.5,0.8063858713532226,1.3266795458750424
36,1,0.25,0.7968535125382105,2.2799154273762556
36,1,0.0,0.7477445697849936,7.190809702697942
36,2,1.0,0.819652666811973,0.0
36,2,0.75,0.8184394771417831,0.1213189670189907
36,2,0.5,0.8209808246755245,-0.1328157863551449
36,2,0.25,0.8010004054960308,1.865226131594222
36,2,0.0,0.775028785867356,4.4623880944617
36,3,1.0,0.819652666811973,0.0
36,3,0.75,0.8223993819376599,-0.2746715125686916
36,3,0.5,0.8196475625823452,0.0005104229627850287
36,3,0.25,0.7983832953314833,2.1269371480489685
36,3,0.0,0.7478421920203132,7.181047479165981
36,4,1.0,0.819652666811973,0.0
36,4,0.75,0.829672282833339,-1.001961602136603
36,4,0.5,0.8334823788174304,-1.382971200545735
36,4,0.25,0.814607042442094,0.5045624369878987
36,4,0.0,0.7941206715966336,2.5531995215339442
36,5,1.0,0.819652666811973,0.0
36,5,0.75,0.828074194928327,-0.8421528116353993
36,5,0.5,0.8299373007799313,-1.0284633967958312
36,5,0.25,0.8377851102798223,-1.8132443467849257
36,5,0.0,0.8286752514866007,-0.9022584674627687
36,6,1.0,0.819652666811973,0.0
36,6,0.75,0.8168418168941556,0.28108499178174373
36,6,0.5,0.8108661139217472,0.8786552890225785
36,6,0.25,0.7991534393171306,2.0499227494842454
36,6,0.0,0.7874265050347607,3.222616177721227
36,7,1.0,0.819652666811973,0.0
36,7,0.75,0.8179779490134893,0.16747177984837158
36,7,0.5,0.7993764824595667,2.02761843524063
36,7,0.25,0.7645516273063083,5.510103950566469
36,7,0.0,0.709561275268752,11.009139154322101
36,8,1.0,0.819652666811973,0.0
36,8,0.75,0.8059990271362257,1.3653639675747287
36,8,0.5,0.7492378766193636,7.041479019260944
36,8,0.25,0.704063488214231,11.558917859774198
36,8,0.0,0.6586574662625495,16.099520054942353
37,0,1.0,0.8897568579151858,0.0
37,0,0.75,0.8692307284935857,2.0526129421600037
37,0,0.5,0.8592056411379092,3.055121677727657
37,0,0.25,0.8609039098095378,2.885294810564798
37,0,0.0,0.8234840798754264,6.6272778039759395
37,1,1.0,0.8897568579151858,0.0
37,1,0.75,0.8703346735361949,1.9422184378990903
37,1,0.5,0.8807551191419704,0.9001738773215417
37,1,0.25,0.8667692036245178,2.298765429066796
37,1,0.0,0.8457376981893237,4.401915972586212
37,2,1.0,0.8897568579151858,0.0
37,2,0.75,0.8712273017449284,1.8529556170257422
37,2,0.5,0.8673596256684492,2.239723224673662
37,2,0.25,0.8538788671902837,3.5877990724902054
37,2,0.0,0.8119845017933537,7.777235612183208
37,3,1.0,0.8897568579151858,0.0
37,3,0.75,0.8788041128980838,1.0952745017101972
37,3,0.5,0.8904461312851585,-0.06892733699727094
37,3,0.25,0.8840444421731585,0.5712415742027299
37,3,0.0,0.8665260422350759,2.3230815680109873
37,4,1.0,0.8897568579151858,0.0
37,4,0.75,0.8781202111353023,1.163664677988352
37,4,0.5,0.8851914485851314,0.45654093300543375
37,4,0.25,0.8925247988488416,-0.27679409336558436
37,4,0.0,0.888080905566638,0.16759523485477823
37,5,1.0,0.8897568579151858,0.0
37,5,0.75,0.8835419057380987,0.6214952177087119
37,5,0.5,0.8885400238462599,0.12168340689259205
37,5,0.25,0.8834827133919466,0.6274144523239156
37,5,0.0,0.8636074130703986,2.6149444844787206
37,6,1.0,0.8897568579151858,0.0
37,6,0.75,0.8776891099596736,1.2067747955512131
37,6,0.5,0.8716881004733028,1.8068757441882966
37,6,0.25,0.8596923751832888,3.006448273189699
37,6,0.0,0.8488037046784207,4.095315323676507
37,7,1.0,0.8897568579151858,0.0
37,7,0.75,0.8687284973869787,2.1028360528207113
37,7,0.5,0.8654431303415818,2.431372757360395
37,7,0.25,0.8603881352519389,2.936872266324686
37,7,0.0,0.8282361274897152,6.152073042547057
37,8,1.0,0.8897568579151858,0.0
37,8,0.75,0.8786379730846708,1.111888483051493
37,8,0.5,0.8543456315699789,3.541122634520688
37,8,0.25,0.8365161727333276,5.32406851818582
37,8,0.0,0.8024675663743631,8.728929154082266
38,0,1.0,0.8781549072451323,0.0
38,0,0.75,0.8720780965550017,0.6076810690130663
38,0,0.5,0.8595008447146788,1.8654062530453541
38,0,0.25,0.8438265397884273,3.432836745670509
38,0,0.0,0.7982521982544986,7.990270899063379
38,1,1.0,0.8781549072451323,0.0
38,1,0.75,0.8790194521755496,-0.08645449304172104
38,1,0.5,0.8788346878354364,-0.06797805903040466
38,1,0.25,0.8650868146772837,1.3068092567848688
38,1,0.0,0.8450388023632964,3.3116104881835917
38,2,1.0,0.8781549072451323,0.0
38,2,0.75,0.8761197369163928,0.20351703287395662
38,2,0.5,0.8788276065774757,-0.06726993323433739
38,2,0.25,0.8624030566844466,1.5751850560685732
38,2,0.0,0.8156159171024198,6.2538990142712585
38,3,1.0,0.8781549072451323,0.0
38,3,0.75,0.8848587023841744,-0.6703795139042068
38,3,0.5,0.8852463578230012,-0.7091450577868863
38,3,0.25,0.8691999398585457,0.8954967386586632
38,3,0.0,0.8558589522594622,2.2295954985670163
38,4,1.0,0.8781549072451323,0.0
38,4,0.75,0.8715272021545034,0.6627705090628933
38,4,0.5,0.8750840198245261,0.30708874206062386
38,4,0.25,0.8635030266253017,1.4651880619830693
38,4,0.0,0.8385853169827417,3.9569590262390597
38,5,1.0,0.8781549072451323,0.0
38,5,0.75,0.8765903229396509,0.15645843054814534
38,5,0.5,0.8735756934476079,0.4579213797524462
38,5,0.25,0.8707162964255184,0.7438610819613944
38,5,0.0,0.8369230771690137,4.123183007611864
38,6,1.0,0.8781549072451323,0.0
38,6,0.75,0.8797365024623797,-0.15815952172473224
38,6,0.5,0.8769703025649993,0.1184604680133039
38,6,0.25,0.8733720242010796,0.47828830440527215
38,6,0.0,0.8511379126298758,2.701699461525653
38,7,1.0,0.8781549072451323,0.0
38,7,0.75,0.8751229084281347,0.3031998816997672
38,7,0.5,0.8718760502644418,0.6278856980690528
38,7,0.25,0.8530809383819082,2.5073968863224105
38,7,0.0,0.7894258725055829,8.87290347395494
38,8,1.0,0.8781549072451323,0.0
38,8,0.75,0.8742822750274946,0.38726322176377836
38,8,0.5,0.8749282433983927,0.32266638467396414
38,8,0.25,0.8602475840360094,1.7907323209122916
38,8,0.0,0.81973955507325,5.841535217188232
39,0,1.0,0.8224652423788386,0.0
39,0,0.75,0.8180902860963243,0.4374956282514275
39,0,0.5,0.8043777315529421,1.8087510825896436
39,0,0.25,0.8094085367707415,1.305670560809702
39,0,0.0,0.7668002401042602,5.566500227457838
39,1,1.0,0.8224652423788386,0.0
39,1,0.75,0.8102620038295458,1.2203238549292728
39,1,0.5,0.8059232844945534,1.6541957884285141
39,1,0.25,0.7898460078439562,3.2619234534882358
39,1,0.0,0.7536539918693119,6.881125050952663
39,2,1.0,0.8224652423788386,0.0
39,2,0.75,0.8188220609772334,0.36431814016051334
39,2,0.5,0.8168364680848939,0.5628774293944705
39,2,0.25,0.8095428381012255,1.2922404277613042
39,2,0.0,0.7646280033876542,5.783723899118431
39,3,1.0,0.8224652423788386,0.0
39,3,0.75,0.8035400389030956,1.8925203475743002
39,3,0.5,0.792600313479371,2.986492889946757
39,3,0.25,0.7817389291477076,4.072631323113097
39,3,0.0,0.7071661991475058,11.529904323133277
39,4,1.0,0.8224652423788386,0.0
39,4,0.75,0.8189312828997934,0.35339594790451123
39,4,0.5,0.8102581026567237,1.2207139722114846
39,4,0.25,0.791257960258114,3.1207282120724544
39,4,0.0,0.7418691211169454,8.05961212618932
39,5,1.0,0.8224652423788386,0.0
39,5,0.75,0.8320955758613744,-0.9630333482535836
39,5,0.5,0.8383415611854572,-1.5876318806618661
39,5,0.25,0.8324827143191137,-1.0017471940275136
39,5,0.0,0.8264303169000426,-0.3965074521204093
39,6,1.0,0.8224652423788386,0.0
39,6,0.75,0.8189254049317425,0.35398374470960725
39,6,0.5,0.806844088522204,1.562115385663454
39,6,0.25,0.7928754849480906,2.9589757430747987
39,6,0.0,0.7885505255539308,3.3914716824907765
39,7,1.0,0.8224652423788386,0.0
39,7,0.75,0.817515053417197,0.4950188961641566
39,7,0.5,0.8110626845213231,1.1402557857515427
39,7,0.25,0.8108915096722737,1.157373270656481
39,7,0.0,0.7447450007080856,7.772024167075298
39,8,1.0,0.8224652423788386,0.0
39,8,0.75,0.8292264133281033,-0.6761170949264761
39,8,0.5,0.8346537854004281,-1.218854302158956
39,8,0.25,0.8329257069606582,-1.0460464581819595
39,8,0.0,0.7861303556719783,3.6334886706860248
40,0,1.0,0.8497545147450383,0.0
40,0,0.75,0.8375668347676917,1.21876799773466
40,0,0.5,0.8344504501639929,1.5304064581045385
40,0,0.25,0.8119162383547784,3.783827639025983
40,0,0.0,0.7700050048055835,7.974950993945473
40,1,1.0,0.8497545147450383,0.0
40,1,0.75,0.8499607262810098,-0.02062115359715566
40,1,0.5,0.8192696022151685,3.0484912529869734
40,1,0.25,0.8166685003652976,3.308601437974068
40,1,0.0,0.7825396337220575,6.721488102298078
40,2,1.0,0.8497545147450383,0.0
40,2,0.75,0.8588260155066811,-0.907150076164287
40,2,0.5,0.8802175567343994,-3.0463041989361117
40,2,0.25,0.8724376521557653,-2.268313741072703
40,2,0.0,0.8679888947491777,-1.823438000413946
40,3,1.0,0.8497545147450383,0.0
40,3,0.75,0.8567755531319732,-0.7021038386934908
40,3,0.5,0.8488413835529265,0.09131311921117824
40,3,0.25,0.8432486020690662,0.6505912675972114
40,3,0.0,0.8545721224258434,-0.48176076808050805
40,4,1.0,0.8497545147450383,0.0
40,4,0.75,0.8464796662317161,0.32748485133221594
40,4,0.5,0.8516516249855921,-0.18971102405538343
40,4,0.25,0.8399853333727272,0.9769181372311087
40,4,0.0,0.8168076940714838,3.2946820673554478
40,5,1.0,0.8497545147450383,0.0
40,5,0.75,0.8560111105538728,-0.6256595808834531
40,5,0.5,0.8500655844465506,-0.031106970151228985
40,5,0.25,0.8450150782933346,0.4739436451703716
40,5,0.0,0.8333203339597202,1.6434180785318109
40,6,1.0,0.8497545147450383,0.0
40,6,0.75,0.8561052109649226,-0.6350696219884377
40,6,0.5,0.8576085624412761,-0.7854047696237876
40,6,0.25,0.8413387284324287,0.841578631260953
40,6,0.0,0.8261033696713999,2.3651145073638413
40,7,1.0,0.8497545147450383,0.0
40,7,0.75,0.8525112314453573,-0.2756716700319073
40,7,0.5,0.8437271277125108,0.6027387032527476
40,7,0.25,0.8368516755521705,1.290283919286772
40,7,0.0,0.7500378764784461,9.971663826659217
40,8,1.0,0.8497545147450383,0.0
40,8,0.75,0.8506140237745459,-0.08595090295075991
40,8,0.5,0.8352779411902027,1.447657355483556
40,8,0.25,0.8326330158630537,1.7121498881984554
40,8,0.0,0.8160279537866709,3.3726560958367346
