subject,block,block_width,feature_channel,gate_mean,gate_sd
1,0,32,0,0.4831553101539612,0.1623983234167099
1,0,32,1,0.37560176849365234,0.10406973958015442
1,0,32,2,0.468092679977417,0.13254444301128387
1,0,32,3,0.6011285781860352,0.1711602807044983
1,0,32,4,0.46353623270988464,0.12057466804981232
1,0,32,5,0.3528439402580261,0.07602111250162125
1,0,32,6,0.4446328282356262,0.09157257527112961
1,0,32,7,0.36195728182792664,0.10754085332155228
1,0,32,8,0.4848557710647583,0.06016191840171814
1,0,32,9,0.6218929290771484,0.07144403457641602
1,0,32,10,0.4092307388782501,0.19681471586227417
1,0,32,11,0.5076457262039185,0.08895675092935562
1,0,32,12,0.601895809173584,0.19071084260940552
1,0,32,13,0.46291685104370117,0.057331521064043045
1,0,32,14,0.4957674443721771,0.1295255869626999
1,0,32,15,0.4868953227996826,0.18027789890766144
1,0,32,16,0.5332745909690857,0.051014214754104614
1,0,32,17,0.4960293173789978,0.01983967050909996
1,0,32,18,0.5467371940612793,0.07652083039283752
1,0,32,19,0.3475009500980377,0.11102976649999619
1,0,32,20,0.4858299493789673,0.10014785826206207
1,0,32,21,0.5257891416549683,0.16242533922195435
1,0,32,22,0.547788679599762,0.07633076608181
1,0,32,23,0.4101133942604065,0.09496905654668808
1,0,32,24,0.44336429238319397,0.10540749877691269
1,0,32,25,0.6019889712333679,0.10247105360031128
1,0,32,26,0.439631849527359,0.11020363867282867
1,0,32,27,0.5423232913017273,0.05757930129766464
1,0,32,28,0.31759580969810486,0.1033826619386673
1,0,32,29,0.5207578539848328,0.15355707705020905
1,0,32,30,0.6630308628082275,0.1414727419614792
1,0,32,31,0.43461042642593384,0.04324417561292648
1,1,32,0,0.31664326786994934,0.08746551722288132
1,1,32,1,0.5156792998313904,0.10059823840856552
1,1,32,2,0.4335557222366333,0.14867055416107178
1,1,32,3,0.43084022402763367,0.12029209733009338
1,1,32,4,0.6735536456108093,0.1330011785030365
1,1,32,5,0.5260359644889832,0.17156770825386047
1,1,32,6,0.4725845456123352,0.11712680757045746
1,1,32,7,0.5962882041931152,0.024515608325600624
1,1,32,8,0.6187536716461182,0.057374972850084305
1,1,32,9,0.5312651991844177,0.05078226327896118
1,1,32,10,0.6191732883453369,0.1282174438238144
1,1,32,11,0.44092482328414917,0.09500955045223236
1,1,32,12,0.5460060834884644,0.0901041105389595
1,1,32,13,0.42127490043640137,0.09465347975492477
1,1,32,14,0.5073412656784058,0.14997069537639618
1,1,32,15,0.45877522230148315,0.15981070697307587
1,1,32,16,0.5753268599510193,0.026365667581558228
1,1,32,17,0.33511921763420105,0.0744338110089302
1,1,32,18,0.6600279808044434,0.039688028395175934
1,1,32,19,0.7139642834663391,0.07057876884937286
1,1,32,20,0.3628880977630615,0.1187891885638237
1,1,32,21,0.3591766059398651,0.12414591014385223
1,1,32,22,0.4424594044685364,0.10465310513973236
1,1,32,23,0.6262228488922119,0.046011850237846375
1,1,32,24,0.4793119430541992,0.19833996891975403
1,1,32,25,0.48629114031791687,0.060666296631097794
1,1,32,26,0.5009897351264954,0.11670748889446259
1,1,32,27,0.45285290479660034,0.08303125947713852
1,1,32,28,0.4605403244495392,0.18142133951187134
1,1,32,29,0.5117135047912598,0.04852643609046936
1,1,32,30,0.3355015814304352,0.0881119817495346
1,1,32,31,0.41580072045326233,0.07961984723806381
1,2,64,0,0.5715595483779907,0.20943497121334076
1,2,64,1,0.5877797603607178,0.214554563164711
1,2,64,2,0.5257132649421692,0.08182393014431
1,2,64,3,0.4690325856208801,0.23684324324131012
1,2,64,4,0.46209651231765747,0.26500204205513
1,2,64,5,0.4715201258659363,0.20368793606758118
1,2,64,6,0.5658378601074219,0.07327482849359512
1,2,64,7,0.47152188420295715,0.15057078003883362
1,2,64,8,0.5389763712882996,0.18472029268741608
1,2,64,9,0.440921425819397,0.18716789782047272
1,2,64,10,0.47385600209236145,0.19231921434402466
1,2,64,11,0.4641949236392975,0.16874241828918457
1,2,64,12,0.5659122467041016,0.3038547933101654
1,2,64,13,0.5519121885299683,0.05489303916692734
1,2,64,14,0.27989888191223145,0.14158675074577332
1,2,64,15,0.4467202126979828,0.23212119936943054
1,2,64,16,0.5556280612945557,0.23313146829605103
1,2,64,17,0.5694647431373596,0.19213169813156128
1,2,64,18,0.5473668575286865,0.1803971230983734
1,2,64,19,0.37126314640045166,0.2111171931028366
1,2,64,20,0.5783782601356506,0.16315734386444092
1,2,64,21,0.4388415813446045,0.1671600490808487
1,2,64,22,0.5269208550453186,0.21449752151966095
1,2,64,23,0.6829476356506348,0.15498720109462738
1,2,64,24,0.4265105426311493,0.21750111877918243
1,2,64,25,0.4622587263584137,0.16251105070114136
1,2,64,26,0.4564844071865082,0.1546649932861328
1,2,64,27,0.4148029685020447,0.2169276475906372
1,2,64,28,0.404485285282135,0.1627754420042038
1,2,64,29,0.4576602578163147,0.2307220697402954
1,2,64,30,0.5700451135635376,0.26470714807510376
1,2,64,31,0.5164896845817566,0.17762789130210876
1,2,64,32,0.6420542001724243,0.1944226771593094
1,2,64,33,0.34702613949775696,0.2553943395614624
1,2,64,34,0.4960126280784607,0.2877805829048157
1,2,64,35,0.4527852237224579,0.22582806646823883
1,2,64,36,0.24190805852413177,0.10588471591472626
1,2,64,37,0.5224363803863525,0.2709749639034271
1,2,64,38,0.49140095710754395,0.17469008266925812
1,2,64,39,0.42936983704566956,0.22018662095069885
1,2,64,40,0.4890897870063782,0.2703488767147064
1,2,64,41,0.5953071713447571,0.11935494095087051
1,2,64,42,0.49824059009552,0.2605891525745392
1,2,64,43,0.3985031247138977,0.24752581119537354
1,2,64,44,0.6517680883407593,0.15009528398513794
1,2,64,45,0.6133108139038086,0.1496942788362503
1,2,64,46,0.5060983300209045,0.19986777007579803
1,2,64,47,0.47908806800842285,0.21399115025997162
1,2,64,48,0.5523706674575806,0.22797568142414093
1,2,64,49,0.45253339409828186,0.11326796561479568
1,2,64,50,0.45234471559524536,0.1854424923658371
1,2,64,51,0.640177309513092,0.16519798338413239
1,2,64,52,0.4859950542449951,0.23404668271541595
1,2,64,53,0.5626832246780396,0.107917420566082
1,2,64,54,0.45281752943992615,0.242458775639534
1,2,64,55,0.44001367688179016,0.20486882328987122
1,2,64,56,0.6315203309059143,0.16415433585643768
1,2,64,57,0.4237797260284424,0.16365770995616913
1,2,64,58,0.6360728144645691,0.21428534388542175
1,2,64,59,0.4930166006088257,0.33127471804618835
1,2,64,60,0.5589490532875061,0.16604910790920258
1,2,64,61,0.5267882943153381,0.19004397094249725
1,2,64,62,0.42177075147628784,0.26623988151550293
1,2,64,63,0.43976330757141113,0.26454290747642517
1,3,64,0,0.5182965397834778,0.15384408831596375
1,3,64,1,0.5967518091201782,0.12162313610315323
1,3,64,2,0.6383983492851257,0.12728483974933624
1,3,64,3,0.3980183005332947,0.09490519762039185
1,3,64,4,0.5951887369155884,0.06303591281175613
1,3,64,5,0.5035814642906189,0.1686112880706787
1,3,64,6,0.44335222244262695,0.11921437829732895
1,3,64,7,0.6274853944778442,0.09826619178056717
1,3,64,8,0.45614075660705566,0.12702934443950653
1,3,64,9,0.491283655166626,0.15222299098968506
1,3,64,10,0.3771818280220032,0.13462965190410614
1,3,64,11,0.6863327622413635,0.0971674695611
1,3,64,12,0.533564031124115,0.12926463782787323
1,3,64,13,0.5004765391349792,0.17696380615234375
1,3,64,14,0.39268824458122253,0.07480788230895996
1,3,64,15,0.5616301894187927,0.1992146074771881
1,3,64,16,0.49074751138687134,0.15827077627182007
1,3,64,17,0.5128732919692993,0.06655468046665192
1,3,64,18,0.521416425704956,0.1610563099384308
1,3,64,19,0.47741007804870605,0.1252165585756302
1,3,64,20,0.38462936878204346,0.12224835902452469
1,3,64,21,0.45144230127334595,0.08477029949426651
1,3,64,22,0.5845648050308228,0.11832250654697418
1,3,64,23,0.46477264165878296,0.10662057250738144
1,3,64,24,0.4906310737133026,0.07508198171854019
1,3,64,25,0.5279735922813416,0.12055197358131409
1,3,64,26,0.4586842954158783,0.09456523507833481
1,3,64,27,0.5616152286529541,0.07106707245111465
1,3,64,28,0.671314001083374,0.14496590197086334
1,3,64,29,0.4481639862060547,0.19558608531951904
1,3,64,30,0.5309697389602661,0.05732782930135727
1,3,64,31,0.5124388933181763,0.09649576991796494
1,3,64,32,0.6670981645584106,0.12662813067436218
1,3,64,33,0.5226942896842957,0.12520018219947815
1,3,64,34,0.5431544780731201,0.12254152446985245
1,3,64,35,0.6357936263084412,0.08403701335191727
1,3,64,36,0.36636391282081604,0.20608383417129517
1,3,64,37,0.5836232304573059,0.2100713551044464
1,3,64,38,0.5356104373931885,0.16725404560565948
1,3,64,39,0.4005441963672638,0.12798015773296356
1,3,64,40,0.5694987773895264,0.15712568163871765
1,3,64,41,0.6355130672454834,0.12177387624979019
1,3,64,42,0.4317249357700348,0.18121853470802307
1,3,64,43,0.3214423656463623,0.11695850640535355
1,3,64,44,0.47105106711387634,0.19207775592803955
1,3,64,45,0.5371168851852417,0.14029961824417114
1,3,64,46,0.5197383761405945,0.062086071819067
1,3,64,47,0.42375311255455017,0.19916914403438568
1,3,64,48,0.5449174642562866,0.10834113508462906
1,3,64,49,0.4951779246330261,0.11418559402227402
1,3,64,50,0.49661457538604736,0.058429326862096786
1,3,64,51,0.32936617732048035,0.14060790836811066
1,3,64,52,0.3868594765663147,0.08176972717046738
1,3,64,53,0.5106351375579834,0.09543422609567642
1,3,64,54,0.5354347825050354,0.15173684060573578
1,3,64,55,0.4437471628189087,0.13583314418792725
1,3,64,56,0.5338705778121948,0.1363627314567566
1,3,64,57,0.5060209631919861,0.14760395884513855
1,3,64,58,0.3873988389968872,0.15010622143745422
1,3,64,59,0.592357873916626,0.12784087657928467
1,3,64,60,0.6014547348022461,0.07087033241987228
1,3,64,61,0.5965254902839661,0.08583565801382065
1,3,64,62,0.4018745720386505,0.12437449395656586
1,3,64,63,0.46219712495803833,0.10092996060848236
1,4,128,0,0.3634836971759796,0.05934661254286766
1,4,128,1,0.5529240965843201,0.21583975851535797
1,4,128,2,0.4443303644657135,0.19286753237247467
1,4,128,3,0.5332378149032593,0.24382267892360687
1,4,128,4,0.6264346837997437,0.053822096437215805
1,4,128,5,0.6472985148429871,0.10018688440322876
1,4,128,6,0.624016523361206,0.0877496674656868
1,4,128,7,0.5460598468780518,0.3338506817817688
1,4,128,8,0.4546605944633484,0.19734756648540497
1,4,128,9,0.55354243516922,0.13267244398593903
1,4,128,10,0.5612137317657471,0.25947925448417664
1,4,128,11,0.5236198902130127,0.016524212434887886
1,4,128,12,0.58969646692276,0.2417972832918167
1,4,128,13,0.6227409243583679,0.15189483761787415
1,4,128,14,0.582287073135376,0.16590964794158936
1,4,128,15,0.5533866286277771,0.2380744218826294
1,4,128,16,0.4955165684223175,0.09324871003627777
1,4,128,17,0.5225407481193542,0.35089150071144104
1,4,128,18,0.5630455613136292,0.08406031876802444
1,4,128,19,0.5789358615875244,0.11870255321264267
1,4,128,20,0.5254682302474976,0.3429366648197174
1,4,128,21,0.4940309524536133,0.2338683009147644
1,4,128,22,0.6444211006164551,0.165180042386055
1,4,128,23,0.4088623523712158,0.2300436943769455
1,4,128,24,0.47172096371650696,0.1970917284488678
1,4,128,25,0.30034515261650085,0.2234288454055786
1,4,128,26,0.5056929588317871,0.26447737216949463
1,4,128,27,0.5870469212532043,0.3526226580142975
1,4,128,28,0.5141459107398987,0.2714896500110626
1,4,128,29,0.5656245946884155,0.13808465003967285
1,4,128,30,0.4224325120449066,0.19121059775352478
1,4,128,31,0.6703166365623474,0.13297538459300995
1,4,128,32,0.7549312114715576,0.1270749866962433
1,4,128,33,0.5134482383728027,0.17433857917785645
1,4,128,34,0.6586589217185974,0.14435207843780518
1,4,128,35,0.5114685297012329,0.1583154797554016
1,4,128,36,0.4860401153564453,0.16917932033538818
1,4,128,37,0.4427938759326935,0.3140459954738617
1,4,128,38,0.47462227940559387,0.1871766448020935
1,4,128,39,0.5037004351615906,0.17693844437599182
1,4,128,40,0.7313367128372192,0.08450490981340408
1,4,128,41,0.5651602745056152,0.1942925602197647
1,4,128,42,0.4437491297721863,0.12169074267148972
1,4,128,43,0.4451768100261688,0.2162250578403473
1,4,128,44,0.6494296193122864,0.20523898303508759
1,4,128,45,0.5607311129570007,0.2921026349067688
1,4,128,46,0.6163083910942078,0.201806902885437
1,4,128,47,0.5517489314079285,0.3470781445503235
1,4,128,48,0.5112209320068359,0.08998461812734604
1,4,128,49,0.7229908108711243,0.1302083134651184
1,4,128,50,0.589850664138794,0.16120968759059906
1,4,128,51,0.43224036693573,0.21374563872814178
1,4,128,52,0.5518335103988647,0.2556041181087494
1,4,128,53,0.6310489177703857,0.20883920788764954
1,4,128,54,0.5560247302055359,0.2574574053287506
1,4,128,55,0.6965034604072571,0.12395134568214417
1,4,128,56,0.2752697765827179,0.22220027446746826
1,4,128,57,0.5875564217567444,0.2374499887228012
1,4,128,58,0.6033662557601929,0.18582700192928314
1,4,128,59,0.4418675899505615,0.24207903444766998
1,4,128,60,0.5912020802497864,0.14710310101509094
1,4,128,61,0.38034331798553467,0.2700488865375519
1,4,128,62,0.6350996494293213,0.298295259475708
1,4,128,63,0.6231740713119507,0.16012290120124817
1,4,128,64,0.592103123664856,0.20519988238811493
1,4,128,65,0.5241150856018066,0.20889870822429657
1,4,128,66,0.6172476410865784,0.13865458965301514
1,4,128,67,0.7167360782623291,0.1572241336107254
1,4,128,68,0.5857499837875366,0.21811208128929138
1,4,128,69,0.525376558303833,0.17020097374916077
1,4,128,70,0.5727664828300476,0.252613365650177
1,4,128,71,0.5372546315193176,0.26134175062179565
1,4,128,72,0.5558621883392334,0.30165454745292664
1,4,128,73,0.6768794059753418,0.09917715936899185
1,4,128,74,0.49135175347328186,0.2716728448867798
1,4,128,75,0.5071272850036621,0.2396584302186966
1,4,128,76,0.6498632431030273,0.09146315604448318
1,4,128,77,0.598046600818634,0.08106065541505814
1,4,128,78,0.45538824796676636,0.19260551035404205
1,4,128,79,0.3986976444721222,0.292531281709671
1,4,128,80,0.5458401441574097,0.34011727571487427
1,4,128,81,0.5013841986656189,0.3118564486503601
1,4,128,82,0.6131693720817566,0.06656169891357422
1,4,128,83,0.5107522010803223,0.11385224014520645
1,4,128,84,0.6009970903396606,0.15125851333141327
1,4,128,85,0.61684650182724,0.23724302649497986
1,4,128,86,0.5159761905670166,0.23592159152030945
1,4,128,87,0.438522607088089,0.1935422420501709
1,4,128,88,0.5773159265518188,0.19209128618240356
1,4,128,89,0.6208265423774719,0.11362628638744354
1,4,128,90,0.4981216788291931,0.17061588168144226
1,4,128,91,0.7124471664428711,0.15379135310649872
1,4,128,92,0.5092638731002808,0.18575769662857056
1,4,128,93,0.5421015024185181,0.0732293352484703
1,4,128,94,0.46732351183891296,0.18573683500289917
1,4,128,95,0.44304215908050537,0.19058401882648468
1,4,128,96,0.6407445073127747,0.20378516614437103
1,4,128,97,0.6131850481033325,0.154807448387146
1,4,128,98,0.7432407736778259,0.10006209462881088
1,4,128,99,0.4920705258846283,0.32892337441444397
1,4,128,100,0.5948845744132996,0.09164270758628845
1,4,128,101,0.41080304980278015,0.23192505538463593
1,4,128,102,0.3981263041496277,0.13466209173202515
1,4,128,103,0.43487271666526794,0.13876008987426758
1,4,128,104,0.5369730591773987,0.19948521256446838
1,4,128,105,0.7057386040687561,0.23651449382305145
1,4,128,106,0.4104512631893158,0.2117721438407898
1,4,128,107,0.5226578712463379,0.30666372179985046
1,4,128,108,0.5342521071434021,0.32075396180152893
1,4,128,109,0.5700045824050903,0.2232195883989334
1,4,128,110,0.44842007756233215,0.15941454470157623
1,4,128,111,0.5263672471046448,0.26922544836997986
1,4,128,112,0.5488646626472473,0.23722945153713226
1,4,128,113,0.5720928907394409,0.23405799269676208
1,4,128,114,0.5677437782287598,0.2804033160209656
1,4,128,115,0.6459785103797913,0.15555647015571594
1,4,128,116,0.5167988538742065,0.14547587931156158
1,4,128,117,0.371905118227005,0.13577529788017273
1,4,128,118,0.6243473887443542,0.12710216641426086
1,4,128,119,0.35505956411361694,0.2246549278497696
1,4,128,120,0.6409779191017151,0.11004042625427246
1,4,128,121,0.5701903104782104,0.15193085372447968
1,4,128,122,0.6151825785636902,0.28625836968421936
1,4,128,123,0.42172038555145264,0.23677976429462433
1,4,128,124,0.36647719144821167,0.11019409447908401
1,4,128,125,0.5560253262519836,0.18050295114517212
1,4,128,126,0.44113588333129883,0.19906696677207947
1,4,128,127,0.634655237197876,0.21842186152935028
1,5,128,0,0.6492435336112976,0.2654755413532257
1,5,128,1,0.7742106318473816,0.08245734870433807
1,5,128,2,0.5707352161407471,0.1460370272397995
1,5,128,3,0.6399961709976196,0.06448531895875931
1,5,128,4,0.6431070566177368,0.29897695779800415
1,5,128,5,0.5526725649833679,0.21902328729629517
1,5,128,6,0.6411054134368896,0.22435127198696136
1,5,128,7,0.49658557772636414,0.16509157419204712
1,5,128,8,0.44871950149536133,0.14982521533966064
1,5,128,9,0.8190086483955383,0.10546378046274185
1,5,128,10,0.4650685489177704,0.2373693287372589
1,5,128,11,0.6918498873710632,0.12964443862438202
1,5,128,12,0.3789735734462738,0.1309492141008377
1,5,128,13,0.746141254901886,0.13668441772460938
1,5,128,14,0.5860946178436279,0.20907314121723175
1,5,128,15,0.7697333693504333,0.09244129806756973
1,5,128,16,0.6926879286766052,0.10173197090625763
1,5,128,17,0.7587611079216003,0.2149297147989273
1,5,128,18,0.6403682827949524,0.2592918872833252
1,5,128,19,0.7064968943595886,0.16428865492343903
1,5,128,20,0.4942628741264343,0.30570852756500244
1,5,128,21,0.720267653465271,0.0852786973118782
1,5,128,22,0.5217514038085938,0.18629752099514008
1,5,128,23,0.5582444071769714,0.178685262799263
1,5,128,24,0.8385031819343567,0.0711902529001236
1,5,128,25,0.7321111559867859,0.15738840401172638
1,5,128,26,0.7217917442321777,0.15697231888771057
1,5,128,27,0.7257339954376221,0.21518084406852722
1,5,128,28,0.7920636534690857,0.08354336023330688
1,5,128,29,0.6504397392272949,0.20826317369937897
1,5,128,30,0.6135717630386353,0.09906286746263504
1,5,128,31,0.7929292321205139,0.1069553941488266
1,5,128,32,0.6787040829658508,0.11719805747270584
1,5,128,33,0.4262062907218933,0.12458191812038422
1,5,128,34,0.5800221562385559,0.18908192217350006
1,5,128,35,0.6398575901985168,0.16882169246673584
1,5,128,36,0.49637672305107117,0.25829440355300903
1,5,128,37,0.6222526431083679,0.22962819039821625
1,5,128,38,0.5669590830802917,0.17153479158878326
1,5,128,39,0.7127503752708435,0.10342931002378464
1,5,128,40,0.8388423919677734,0.06568201631307602
1,5,128,41,0.5098584890365601,0.2613159716129303
1,5,128,42,0.8395504355430603,0.08709166944026947
1,5,128,43,0.7176705002784729,0.12012109160423279
1,5,128,44,0.8069940805435181,0.14009539783000946
1,5,128,45,0.43219754099845886,0.11790790408849716
1,5,128,46,0.7516344785690308,0.09377406537532806
1,5,128,47,0.886540412902832,0.07037461549043655
1,5,128,48,0.7747913599014282,0.10362670570611954
1,5,128,49,0.7553727030754089,0.22864900529384613
1,5,128,50,0.5403985381126404,0.17911969125270844
1,5,128,51,0.6318596005439758,0.14180344343185425
1,5,128,52,0.40002259612083435,0.14569440484046936
1,5,128,53,0.7843724489212036,0.13240946829319
1,5,128,54,0.7599186301231384,0.09666436165571213
1,5,128,55,0.8251413702964783,0.09967666864395142
1,5,128,56,0.6561298370361328,0.0945839136838913
1,5,128,57,0.6151835322380066,0.12222951650619507
1,5,128,58,0.66933274269104,0.20427346229553223
1,5,128,59,0.6024163961410522,0.2702573835849762
1,5,128,60,0.6683043837547302,0.2495310753583908
1,5,128,61,0.7916184663772583,0.06932532042264938
1,5,128,62,0.6517140865325928,0.10959788411855698
1,5,128,63,0.66352379322052,0.23140902817249298
1,5,128,64,0.6864585876464844,0.18980376422405243
1,5,128,65,0.8018139004707336,0.10610517114400864
1,5,128,66,0.7204793095588684,0.1057732105255127
1,5,128,67,0.7970243096351624,0.1555265188217163
1,5,128,68,0.6169082522392273,0.1010187491774559
1,5,128,69,0.38412609696388245,0.1160297617316246
1,5,128,70,0.8418934941291809,0.10271458327770233
1,5,128,71,0.7521395683288574,0.11476326733827591
1,5,128,72,0.7503072023391724,0.2127939760684967
1,5,128,73,0.7825664281845093,0.10516571998596191
1,5,128,74,0.6904237866401672,0.13721904158592224
1,5,128,75,0.7684397101402283,0.08314333111047745
1,5,128,76,0.4046124815940857,0.26957619190216064
1,5,128,77,0.7804441452026367,0.10684417188167572
1,5,128,78,0.6013657450675964,0.09782887250185013
1,5,128,79,0.5350977182388306,0.22323866188526154
1,5,128,80,0.8597174286842346,0.08948814123868942
1,5,128,81,0.8311735987663269,0.10102419555187225
1,5,128,82,0.758693516254425,0.10419946163892746
1,5,128,83,0.6948578357696533,0.09913278371095657
1,5,128,84,0.7845073938369751,0.07570008933544159
1,5,128,85,0.7414330840110779,0.17943885922431946
1,5,128,86,0.5813769102096558,0.20221716165542603
1,5,128,87,0.7568302750587463,0.08660377562046051
1,5,128,88,0.8079233169555664,0.1020018681883812
1,5,128,89,0.5688220262527466,0.17375412583351135
1,5,128,90,0.5525758862495422,0.14042270183563232
1,5,128,91,0.788367748260498,0.12320949882268906
1,5,128,92,0.3689250946044922,0.1287381798028946
1,5,128,93,0.7368915677070618,0.14767885208129883
1,5,128,94,0.8240455389022827,0.09972935169935226
1,5,128,95,0.572241485118866,0.09889009594917297
1,5,128,96,0.7511357069015503,0.13549059629440308
1,5,128,97,0.5640401244163513,0.15250545740127563
1,5,128,98,0.6126257181167603,0.18092206120491028
1,5,128,99,0.4136270582675934,0.16248680651187897
1,5,128,100,0.6433799862861633,0.24984441697597504
1,5,128,101,0.47167128324508667,0.20293650031089783
1,5,128,102,0.5837031602859497,0.19285155832767487
1,5,128,103,0.4660704731941223,0.15785011649131775
1,5,128,104,0.8305878043174744,0.10861450433731079
1,5,128,105,0.8221770524978638,0.08340942859649658
1,5,128,106,0.6720502972602844,0.1330139935016632
1,5,128,107,0.7982994914054871,0.12187901139259338
1,5,128,108,0.5253401398658752,0.26703813672065735
1,5,128,109,0.7086548805236816,0.17650939524173737
1,5,128,110,0.6646875143051147,0.18136624991893768
1,5,128,111,0.7445640563964844,0.12983423471450806
1,5,128,112,0.5520371794700623,0.14033399522304535
1,5,128,113,0.7235811352729797,0.23847009241580963
1,5,128,114,0.6280849575996399,0.20767612755298615
1,5,128,115,0.6597766876220703,0.1654862016439438
1,5,128,116,0.6165518760681152,0.23151181638240814
1,5,128,117,0.6822977066040039,0.12175193428993225
1,5,128,118,0.6673401594161987,0.1390879601240158
1,5,128,119,0.4319950342178345,0.15810978412628174
1,5,128,120,0.5249906778335571,0.24277803301811218
1,5,128,121,0.6517847180366516,0.21846316754817963
1,5,128,122,0.7765060663223267,0.13080725073814392
1,5,128,123,0.39423421025276184,0.22246547043323517
1,5,128,124,0.6133223176002502,0.24855247139930725
1,5,128,125,0.7280171513557434,0.07943898439407349
1,5,128,126,0.792050838470459,0.11424606293439865
1,5,128,127,0.8434944748878479,0.08545331656932831
2,0,32,0,0.3647580146789551,0.08178675174713135
2,0,32,1,0.47681763768196106,0.076500304043293
2,0,32,2,0.5182234048843384,0.07660987973213196
2,0,32,3,0.5821483731269836,0.05332951992750168
2,0,32,4,0.5494570732116699,0.09307354688644409
2,0,32,5,0.3690149188041687,0.09142433106899261
2,0,32,6,0.4676686227321625,0.1161913052201271
2,0,32,7,0.45652756094932556,0.08249198645353317
2,0,32,8,0.5864381194114685,0.11422847211360931
2,0,32,9,0.36482998728752136,0.05256113409996033
2,0,32,10,0.4421979784965515,0.11521542817354202
2,0,32,11,0.3863798677921295,0.07557281851768494
2,0,32,12,0.5040096640586853,0.09358783066272736
2,0,32,13,0.4783889353275299,0.1045868843793869
2,0,32,14,0.4122019410133362,0.11649137735366821
2,0,32,15,0.4190163314342499,0.14730282127857208
2,0,32,16,0.6070073843002319,0.075205959379673
2,0,32,17,0.3926161825656891,0.08057763427495956
2,0,32,18,0.42018118500709534,0.14645017683506012
2,0,32,19,0.5476364493370056,0.1299038529396057
2,0,32,20,0.44371354579925537,0.06236311048269272
2,0,32,21,0.3893589377403259,0.07585717737674713
2,0,32,22,0.5278844237327576,0.07802337408065796
2,0,32,23,0.3517650365829468,0.14466160535812378
2,0,32,24,0.6189111471176147,0.06210136413574219
2,0,32,25,0.46500787138938904,0.1600649356842041
2,0,32,26,0.577224612236023,0.10253459215164185
2,0,32,27,0.42163971066474915,0.04381594434380531
2,0,32,28,0.5664979219436646,0.09966544806957245
2,0,32,29,0.4492241144180298,0.1712953895330429
2,0,32,30,0.524686336517334,0.11592941731214523
2,0,32,31,0.42742541432380676,0.16228267550468445
2,1,32,0,0.4715788960456848,0.03066030517220497
2,1,32,1,0.6109600067138672,0.027222177013754845
2,1,32,2,0.3461398184299469,0.08064230531454086
2,1,32,3,0.6885737180709839,0.11586961895227432
2,1,32,4,0.4249025583267212,0.07906512916088104
2,1,32,5,0.4404394030570984,0.1298854947090149
2,1,32,6,0.6345868110656738,0.11410366743803024
2,1,32,7,0.3442876935005188,0.07530242949724197
2,1,32,8,0.41594743728637695,0.11292702704668045
2,1,32,9,0.43896543979644775,0.015497440472245216
2,1,32,10,0.5673269033432007,0.051203396171331406
2,1,32,11,0.5833797454833984,0.12031251192092896
2,1,32,12,0.6282148957252502,0.09534423053264618
2,1,32,13,0.4345601499080658,0.1436520367860794
2,1,32,14,0.5896739363670349,0.030844874680042267
2,1,32,15,0.4139987826347351,0.02173750475049019
2,1,32,16,0.43593624234199524,0.128441721200943
2,1,32,17,0.5873157978057861,0.05938084051012993
2,1,32,18,0.37715795636177063,0.15091563761234283
2,1,32,19,0.429802805185318,0.028839491307735443
2,1,32,20,0.4786885678768158,0.12215490639209747
2,1,32,21,0.49176234006881714,0.027368368580937386
2,1,32,22,0.5677927136421204,0.06707417219877243
2,1,32,23,0.6561832427978516,0.12141208350658417
2,1,32,24,0.5685892105102539,0.051459986716508865
2,1,32,25,0.4780597984790802,0.02567906863987446
2,1,32,26,0.4232991635799408,0.1284840703010559
2,1,32,27,0.5712538361549377,0.08165466040372849
2,1,32,28,0.4497767388820648,0.08608441799879074
2,1,32,29,0.41808950901031494,0.099209263920784
2,1,32,30,0.5867226719856262,0.027373339980840683
2,1,32,31,0.4381418228149414,0.09232208132743835
2,2,64,0,0.5280969738960266,0.15551793575286865
2,2,64,1,0.4120965003967285,0.15983512997627258
2,2,64,2,0.5326585173606873,0.04834209010004997
2,2,64,3,0.5108279585838318,0.06978519260883331
2,2,64,4,0.4555463194847107,0.09802761673927307
2,2,64,5,0.39140185713768005,0.15351851284503937
2,2,64,6,0.46660345792770386,0.05847983807325363
2,2,64,7,0.5181456208229065,0.1986761838197708
2,2,64,8,0.3763981759548187,0.09052373468875885
2,2,64,9,0.45380476117134094,0.05795932188630104
2,2,64,10,0.4250633716583252,0.117362380027771
2,2,64,11,0.4486028850078583,0.01920132525265217
2,2,64,12,0.5392642021179199,0.08204567432403564
2,2,64,13,0.40696650743484497,0.08243124186992645
2,2,64,14,0.4382293224334717,0.06555012613534927
2,2,64,15,0.569045901298523,0.12922917306423187
2,2,64,16,0.4480259120464325,0.10437310487031937
2,2,64,17,0.5440878868103027,0.14535105228424072
2,2,64,18,0.49841976165771484,0.10244204103946686
2,2,64,19,0.4020749628543854,0.12754902243614197
2,2,64,20,0.4861578941345215,0.15865476429462433
2,2,64,21,0.4804039001464844,0.0999080240726471
2,2,64,22,0.4873825013637543,0.046802718192338943
2,2,64,23,0.39105701446533203,0.11900544166564941
2,2,64,24,0.3813820779323578,0.1226213127374649
2,2,64,25,0.423616886138916,0.14864715933799744
2,2,64,26,0.361294686794281,0.10647813975811005
2,2,64,27,0.41546502709388733,0.08461030572652817
2,2,64,28,0.6036157011985779,0.13885743916034698
2,2,64,29,0.45399153232574463,0.08565810322761536
2,2,64,30,0.5495461821556091,0.09003821015357971
2,2,64,31,0.42307499051094055,0.03238007053732872
2,2,64,32,0.41642019152641296,0.11326718330383301
2,2,64,33,0.4337730407714844,0.06398627161979675
2,2,64,34,0.4553459882736206,0.2000543624162674
2,2,64,35,0.4681307077407837,0.18194709718227386
2,2,64,36,0.4008704125881195,0.19434130191802979
2,2,64,37,0.3899053633213043,0.13913573324680328
2,2,64,38,0.4050370156764984,0.066440150141716
2,2,64,39,0.5714475512504578,0.16583752632141113
2,2,64,40,0.47996485233306885,0.1215406209230423
2,2,64,41,0.5045534372329712,0.1100757047533989
2,2,64,42,0.3945296108722687,0.16321182250976562
2,2,64,43,0.32888925075531006,0.11780960112810135
2,2,64,44,0.5302420854568481,0.1660243719816208
2,2,64,45,0.3259190320968628,0.12306343764066696
2,2,64,46,0.4975314140319824,0.1251663863658905
2,2,64,47,0.48272281885147095,0.10465293377637863
2,2,64,48,0.5576921105384827,0.03261822089552879
2,2,64,49,0.43128252029418945,0.14203736186027527
2,2,64,50,0.4869285523891449,0.10408662259578705
2,2,64,51,0.5667043924331665,0.06459927558898926
2,2,64,52,0.5356998443603516,0.12715381383895874
2,2,64,53,0.5018347501754761,0.09294389188289642
2,2,64,54,0.5697616338729858,0.04909413680434227
2,2,64,55,0.5250872373580933,0.06142532080411911
2,2,64,56,0.3993586301803589,0.18471220135688782
2,2,64,57,0.41266384720802307,0.0858306810259819
2,2,64,58,0.3947908282279968,0.09406516700983047
2,2,64,59,0.57729572057724,0.15671922266483307
2,2,64,60,0.4897717833518982,0.10469823330640793
2,2,64,61,0.5691556334495544,0.11266820132732391
2,2,64,62,0.6569796800613403,0.14261744916439056
2,2,64,63,0.4170832633972168,0.13694140315055847
2,3,64,0,0.5969042778015137,0.21853558719158173
2,3,64,1,0.5596513748168945,0.1500568985939026
2,3,64,2,0.5540580749511719,0.2587858736515045
2,3,64,3,0.4251475930213928,0.19434650242328644
2,3,64,4,0.36382436752319336,0.0710790604352951
2,3,64,5,0.5222578644752502,0.2550024688243866
2,3,64,6,0.5393515229225159,0.09559809416532516
2,3,64,7,0.5325687527656555,0.16065829992294312
2,3,64,8,0.4127941429615021,0.2391679286956787
2,3,64,9,0.4396258592605591,0.06801824271678925
2,3,64,10,0.7186203598976135,0.13900597393512726
2,3,64,11,0.30559465289115906,0.08556622266769409
2,3,64,12,0.5940254926681519,0.1854034811258316
2,3,64,13,0.7671078443527222,0.1053866595029831
2,3,64,14,0.6206233501434326,0.11748369038105011
2,3,64,15,0.3875484764575958,0.07195395231246948
2,3,64,16,0.4411159157752991,0.1459021419286728
2,3,64,17,0.45979735255241394,0.13164354860782623
2,3,64,18,0.3239046335220337,0.17459651827812195
2,3,64,19,0.6206798553466797,0.24823610484600067
2,3,64,20,0.5839793086051941,0.11189835518598557
2,3,64,21,0.5439862012863159,0.21525703370571136
2,3,64,22,0.6557700634002686,0.09602844715118408
2,3,64,23,0.3747253715991974,0.22982555627822876
2,3,64,24,0.439100056886673,0.16997529566287994
2,3,64,25,0.42663657665252686,0.2731796205043793
2,3,64,26,0.26023924350738525,0.12721949815750122
2,3,64,27,0.5441328883171082,0.15224026143550873
2,3,64,28,0.3449442684650421,0.051762379705905914
2,3,64,29,0.5736387968063354,0.06503358483314514
2,3,64,30,0.3698405921459198,0.17442716658115387
2,3,64,31,0.5264113545417786,0.1611563116312027
2,3,64,32,0.4792018234729767,0.14524418115615845
2,3,64,33,0.4149055778980255,0.09710931032896042
2,3,64,34,0.42436861991882324,0.14709137380123138
2,3,64,35,0.5516672730445862,0.2892163097858429
2,3,64,36,0.4497639536857605,0.11496041715145111
2,3,64,37,0.5868374109268188,0.15657787024974823
2,3,64,38,0.4304741621017456,0.23257677257061005
2,3,64,39,0.7181373238563538,0.14095641672611237
2,3,64,40,0.6435515284538269,0.15403106808662415
2,3,64,41,0.6336047053337097,0.06728114932775497
2,3,64,42,0.6360575556755066,0.14360639452934265
2,3,64,43,0.42352786660194397,0.1494639664888382
2,3,64,44,0.4204607903957367,0.11024126410484314
2,3,64,45,0.538148820400238,0.24120043218135834
2,3,64,46,0.4955716133117676,0.10384459793567657
2,3,64,47,0.47739630937576294,0.14670126140117645
2,3,64,48,0.35115838050842285,0.09288740903139114
2,3,64,49,0.5184810161590576,0.23324790596961975
2,3,64,50,0.4143732786178589,0.1865663081407547
2,3,64,51,0.6293147206306458,0.145381361246109
2,3,64,52,0.4545992612838745,0.12328097224235535
2,3,64,53,0.5600218176841736,0.23307524621486664
2,3,64,54,0.5767386555671692,0.170927032828331
2,3,64,55,0.4099009037017822,0.14740994572639465
2,3,64,56,0.3665851354598999,0.1224089190363884
2,3,64,57,0.5118196606636047,0.19850194454193115
2,3,64,58,0.678631067276001,0.1413196325302124
2,3,64,59,0.4898398518562317,0.25965145230293274
2,3,64,60,0.5820558071136475,0.22284328937530518
2,3,64,61,0.30475929379463196,0.12178557366132736
2,3,64,62,0.5600789785385132,0.13292881846427917
2,3,64,63,0.30239778757095337,0.11447077244520187
2,4,128,0,0.3972279131412506,0.09186235070228577
2,4,128,1,0.6019583344459534,0.2046668976545334
2,4,128,2,0.5776692628860474,0.3010137677192688
2,4,128,3,0.32912737131118774,0.2002667337656021
2,4,128,4,0.5264623165130615,0.05450830236077309
2,4,128,5,0.5743616223335266,0.20563185214996338
2,4,128,6,0.3756348788738251,0.11320885270833969
2,4,128,7,0.29182398319244385,0.11233510076999664
2,4,128,8,0.44631427526474,0.16142147779464722
2,4,128,9,0.6714799404144287,0.10607051104307175
2,4,128,10,0.6165945529937744,0.13764771819114685
2,4,128,11,0.46261152625083923,0.21588248014450073
2,4,128,12,0.37537941336631775,0.31791019439697266
2,4,128,13,0.4823662340641022,0.08946691453456879
2,4,128,14,0.4389733672142029,0.09415783733129501
2,4,128,15,0.5750985145568848,0.1234859749674797
2,4,128,16,0.480852335691452,0.09051741659641266
2,4,128,17,0.41198018193244934,0.33434298634529114
2,4,128,18,0.6684545874595642,0.26092228293418884
2,4,128,19,0.6559739708900452,0.12487098574638367
2,4,128,20,0.5738024711608887,0.11145110428333282
2,4,128,21,0.6065587401390076,0.13149158656597137
2,4,128,22,0.31652387976646423,0.2145872712135315
2,4,128,23,0.39963898062705994,0.0976613312959671
2,4,128,24,0.5964357256889343,0.2536977231502533
2,4,128,25,0.3326272964477539,0.21898508071899414
2,4,128,26,0.27442657947540283,0.12791796028614044
2,4,128,27,0.6087627410888672,0.40232235193252563
2,4,128,28,0.6869519948959351,0.1989513337612152
2,4,128,29,0.8455855846405029,0.11134735494852066
2,4,128,30,0.3072478473186493,0.1809462308883667
2,4,128,31,0.5091904401779175,0.11036079376935959
2,4,128,32,0.6597740054130554,0.07026736438274384
2,4,128,33,0.647944986820221,0.34063082933425903
2,4,128,34,0.42785733938217163,0.2800462245941162
2,4,128,35,0.4438877999782562,0.2973645031452179
2,4,128,36,0.596420407295227,0.1028769239783287
2,4,128,37,0.41119176149368286,0.08522801101207733
2,4,128,38,0.6777853965759277,0.2550166845321655
2,4,128,39,0.33127960562705994,0.21191322803497314
2,4,128,40,0.6173036098480225,0.18596816062927246
2,4,128,41,0.7611631155014038,0.11215493083000183
2,4,128,42,0.5283349752426147,0.04574049636721611
2,4,128,43,0.49141302704811096,0.28749293088912964
2,4,128,44,0.5831944942474365,0.08550073206424713
2,4,128,45,0.6386881470680237,0.1584942787885666
2,4,128,46,0.6122008562088013,0.3188348114490509
2,4,128,47,0.6912599205970764,0.09100642055273056
2,4,128,48,0.6101004481315613,0.27209988236427307
2,4,128,49,0.6576676964759827,0.2993839383125305
2,4,128,50,0.5526365637779236,0.06985100358724594
2,4,128,51,0.3848848342895508,0.3334349989891052
2,4,128,52,0.610146701335907,0.2587813138961792
2,4,128,53,0.4287087917327881,0.3607674837112427
2,4,128,54,0.5067213773727417,0.07596582919359207
2,4,128,55,0.6116415858268738,0.15900035202503204
2,4,128,56,0.802676260471344,0.07634714245796204
2,4,128,57,0.511755645275116,0.12117277085781097
2,4,128,58,0.3963389992713928,0.17552831768989563
2,4,128,59,0.6172878742218018,0.1506645828485489
2,4,128,60,0.7561210989952087,0.08841365575790405
2,4,128,61,0.7419468760490417,0.07988183945417404
2,4,128,62,0.6589303016662598,0.21634697914123535
2,4,128,63,0.520632266998291,0.1273433417081833
2,4,128,64,0.41429364681243896,0.1159362941980362
2,4,128,65,0.5072832703590393,0.1350412368774414
2,4,128,66,0.5837766528129578,0.3681325912475586
2,4,128,67,0.749918520450592,0.10362083464860916
2,4,128,68,0.4124291241168976,0.25854742527008057
2,4,128,69,0.44184964895248413,0.2321784496307373
2,4,128,70,0.6135879158973694,0.3321053683757782
2,4,128,71,0.6643983125686646,0.09531986713409424
2,4,128,72,0.30245983600616455,0.13184168934822083
2,4,128,73,0.44118067622184753,0.2709338665008545
2,4,128,74,0.6784919500350952,0.19369164109230042
2,4,128,75,0.489185631275177,0.2073780596256256
2,4,128,76,0.5510451197624207,0.16345520317554474
2,4,128,77,0.6468328237533569,0.32256394624710083
2,4,128,78,0.5939987897872925,0.3977200984954834
2,4,128,79,0.6125309467315674,0.3399762511253357
2,4,128,80,0.7481194138526917,0.16669845581054688
2,4,128,81,0.8273287415504456,0.09552434086799622
2,4,128,82,0.37897709012031555,0.26171058416366577
2,4,128,83,0.6715501546859741,0.19076226651668549
2,4,128,84,0.5468648076057434,0.3240722119808197
2,4,128,85,0.668834388256073,0.20252181589603424
2,4,128,86,0.6306136250495911,0.3847329914569855
2,4,128,87,0.34084901213645935,0.2453456073999405
2,4,128,88,0.1948154866695404,0.1416274756193161
2,4,128,89,0.6125169396400452,0.3583654761314392
2,4,128,90,0.7639272212982178,0.15981322526931763
2,4,128,91,0.740573525428772,0.16222266852855682
2,4,128,92,0.6744778156280518,0.23609459400177002
2,4,128,93,0.49153998494148254,0.15823742747306824
2,4,128,94,0.40836724638938904,0.2729848623275757
2,4,128,95,0.6593741178512573,0.27252069115638733
2,4,128,96,0.791319727897644,0.12390018254518509
2,4,128,97,0.6047372817993164,0.3938056528568268
2,4,128,98,0.8541012406349182,0.11876817792654037
2,4,128,99,0.7246448993682861,0.21838417649269104
2,4,128,100,0.6465368270874023,0.09941311180591583
2,4,128,101,0.5545327067375183,0.16439694166183472
2,4,128,102,0.816798985004425,0.0984407290816307
2,4,128,103,0.44016024470329285,0.14848355948925018
2,4,128,104,0.34771502017974854,0.23570293188095093
2,4,128,105,0.4562884569168091,0.13509497046470642
2,4,128,106,0.43887072801589966,0.05030819773674011
2,4,128,107,0.35874825716018677,0.19872300326824188
2,4,128,108,0.534358024597168,0.2758679986000061
2,4,128,109,0.6467428803443909,0.2238149493932724
2,4,128,110,0.7712132334709167,0.13556648790836334
2,4,128,111,0.5937370657920837,0.2802245318889618
2,4,128,112,0.5878403782844543,0.11178664863109589
2,4,128,113,0.5301398634910583,0.15924742817878723
2,4,128,114,0.7544768452644348,0.16405904293060303
2,4,128,115,0.5175327062606812,0.05776185169816017
2,4,128,116,0.7119596600532532,0.15016591548919678
2,4,128,117,0.4035355746746063,0.21547174453735352
2,4,128,118,0.3962978720664978,0.10513438284397125
2,4,128,119,0.496734082698822,0.11625562608242035
2,4,128,120,0.6697626113891602,0.06222431734204292
2,4,128,121,0.3690582811832428,0.05099393054842949
2,4,128,122,0.3559224307537079,0.13053451478481293
2,4,128,123,0.7157084941864014,0.12787100672721863
2,4,128,124,0.6730085015296936,0.25947773456573486
2,4,128,125,0.4607680141925812,0.11257906258106232
2,4,128,126,0.38612258434295654,0.24435409903526306
2,4,128,127,0.4891166687011719,0.15880724787712097
2,5,128,0,0.6315556168556213,0.3031034767627716
2,5,128,1,0.6692743301391602,0.22305749356746674
2,5,128,2,0.6203998923301697,0.06283257901668549
2,5,128,3,0.7308359146118164,0.1529301255941391
2,5,128,4,0.5872963666915894,0.15122582018375397
2,5,128,5,0.5794910192489624,0.11761385202407837
2,5,128,6,0.5770018100738525,0.13736087083816528
2,5,128,7,0.6656361818313599,0.0700395330786705
2,5,128,8,0.6173073649406433,0.07440595328807831
2,5,128,9,0.6141271591186523,0.20564958453178406
2,5,128,10,0.7746593952178955,0.17922918498516083
2,5,128,11,0.6678775548934937,0.21697086095809937
2,5,128,12,0.7790172696113586,0.18882593512535095
2,5,128,13,0.6079877614974976,0.24821870028972626
2,5,128,14,0.6935227513313293,0.22268934547901154
2,5,128,15,0.5042778253555298,0.07047586888074875
2,5,128,16,0.6958274841308594,0.18803808093070984
2,5,128,17,0.6452921628952026,0.07388205081224442
2,5,128,18,0.6811438202857971,0.25695160031318665
2,5,128,19,0.6958281993865967,0.203782320022583
2,5,128,20,0.6516110897064209,0.17612510919570923
2,5,128,21,0.792137622833252,0.1428154855966568
2,5,128,22,0.6306763887405396,0.2197892665863037
2,5,128,23,0.6482230424880981,0.2978547513484955
2,5,128,24,0.7531099319458008,0.14394862949848175
2,5,128,25,0.7630864381790161,0.1616760790348053
2,5,128,26,0.6392777562141418,0.12286794185638428
2,5,128,27,0.3415970802307129,0.3220795691013336
2,5,128,28,0.7271259427070618,0.22765910625457764
2,5,128,29,0.7543932795524597,0.1713249385356903
2,5,128,30,0.6941353678703308,0.1308334767818451
2,5,128,31,0.7931849956512451,0.15923632681369781
2,5,128,32,0.772296130657196,0.17240576446056366
2,5,128,33,0.7397202849388123,0.0950683131814003
2,5,128,34,0.4894181489944458,0.07668262720108032
2,5,128,35,0.2386525273323059,0.17732544243335724
2,5,128,36,0.7175976037979126,0.13587979972362518
2,5,128,37,0.677847683429718,0.09394521266222
2,5,128,38,0.7360554933547974,0.18595924973487854
2,5,128,39,0.40784788131713867,0.11447353661060333
2,5,128,40,0.5349524617195129,0.22085922956466675
2,5,128,41,0.34761491417884827,0.2576069235801697
2,5,128,42,0.6349540948867798,0.053775615990161896
2,5,128,43,0.6767964959144592,0.2545393705368042
2,5,128,44,0.49337852001190186,0.07733456790447235
2,5,128,45,0.28084805607795715,0.16259662806987762
2,5,128,46,0.6333082318305969,0.2679038345813751
2,5,128,47,0.6314449310302734,0.21826736629009247
2,5,128,48,0.6443390846252441,0.27055665850639343
2,5,128,49,0.7734322547912598,0.1224595382809639
2,5,128,50,0.6905924677848816,0.15513315796852112
2,5,128,51,0.3768801689147949,0.10265589505434036
2,5,128,52,0.7145607471466064,0.08999644219875336
2,5,128,53,0.645257830619812,0.21096524596214294
2,5,128,54,0.714173436164856,0.16207429766654968
2,5,128,55,0.756899356842041,0.14295025169849396
2,5,128,56,0.639647364616394,0.3086217939853668
2,5,128,57,0.7129793763160706,0.09966393560171127
2,5,128,58,0.598558783531189,0.2152223140001297
2,5,128,59,0.7615968585014343,0.18050983548164368
2,5,128,60,0.7595990896224976,0.18743689358234406
2,5,128,61,0.6616755723953247,0.270071804523468
2,5,128,62,0.6974595785140991,0.1835729330778122
2,5,128,63,0.741427481174469,0.17382018268108368
2,5,128,64,0.6079472303390503,0.07373031973838806
2,5,128,65,0.3575364649295807,0.25293245911598206
2,5,128,66,0.7911012768745422,0.1597776859998703
2,5,128,67,0.679619312286377,0.31136494874954224
2,5,128,68,0.6352425217628479,0.06088310107588768
2,5,128,69,0.4469796419143677,0.05487453565001488
2,5,128,70,0.7386374473571777,0.15548419952392578
2,5,128,71,0.5997239351272583,0.2544642984867096
2,5,128,72,0.7085509300231934,0.08578374236822128
2,5,128,73,0.34792080521583557,0.27540323138237
2,5,128,74,0.6568864583969116,0.3109574615955353
2,5,128,75,0.6796881556510925,0.17404824495315552
2,5,128,76,0.2830984890460968,0.2523311972618103
2,5,128,77,0.5435041785240173,0.04009951651096344
2,5,128,78,0.6575266122817993,0.07421509921550751
2,5,128,79,0.7342769503593445,0.17751921713352203
2,5,128,80,0.7003730535507202,0.29734349250793457
2,5,128,81,0.7579142451286316,0.1616508513689041
2,5,128,82,0.6326541900634766,0.10915952920913696
2,5,128,83,0.6429309844970703,0.29650649428367615
2,5,128,84,0.49372774362564087,0.12897007167339325
2,5,128,85,0.6424075365066528,0.14887166023254395
2,5,128,86,0.6923530101776123,0.2638574242591858
2,5,128,87,0.5938724279403687,0.07474881410598755
2,5,128,88,0.3526318073272705,0.23055888712406158
2,5,128,89,0.6476094126701355,0.2958466410636902
2,5,128,90,0.6386357545852661,0.2333984375
2,5,128,91,0.5170668363571167,0.14390680193901062
2,5,128,92,0.7112687230110168,0.17971143126487732
2,5,128,93,0.5450746417045593,0.22617559134960175
2,5,128,94,0.5988938808441162,0.07842967659235
2,5,128,95,0.6392661929130554,0.3518006503582001
2,5,128,96,0.6393085718154907,0.09867075085639954
2,5,128,97,0.715618371963501,0.25904396176338196
2,5,128,98,0.6197011470794678,0.07027632743120193
2,5,128,99,0.6957178115844727,0.19792687892913818
2,5,128,100,0.22714011371135712,0.18212290108203888
2,5,128,101,0.6865800619125366,0.16464325785636902
2,5,128,102,0.7522755265235901,0.14037495851516724
2,5,128,103,0.397036075592041,0.07951085269451141
2,5,128,104,0.4946330189704895,0.08401856571435928
2,5,128,105,0.3089333772659302,0.11966129392385483
2,5,128,106,0.6974433660507202,0.2028089165687561
2,5,128,107,0.41047903895378113,0.23792093992233276
2,5,128,108,0.6242011785507202,0.20703041553497314
2,5,128,109,0.628944993019104,0.15678094327449799
2,5,128,110,0.7177603840827942,0.19178389012813568
2,5,128,111,0.41331547498703003,0.11389623582363129
2,5,128,112,0.6172066926956177,0.15690255165100098
2,5,128,113,0.7027261257171631,0.21341940760612488
2,5,128,114,0.7454066276550293,0.15218371152877808
2,5,128,115,0.335837185382843,0.2970655858516693
2,5,128,116,0.7226706743240356,0.17833322286605835
2,5,128,117,0.6385747790336609,0.060303881764411926
2,5,128,118,0.6671242713928223,0.07636387646198273
2,5,128,119,0.7403901815414429,0.1583617627620697
2,5,128,120,0.6786373257637024,0.1269901543855667
2,5,128,121,0.5267728567123413,0.047658521682024
2,5,128,122,0.5193647742271423,0.2126913070678711
2,5,128,123,0.6708160042762756,0.09479983896017075
2,5,128,124,0.5602690577507019,0.1941971778869629
2,5,128,125,0.29639944434165955,0.15107455849647522
2,5,128,126,0.26826077699661255,0.13471578061580658
2,5,128,127,0.4819563627243042,0.1242036297917366
3,0,32,0,0.39670705795288086,0.12694108486175537
3,0,32,1,0.4929547607898712,0.09413976967334747
3,0,32,2,0.5648902058601379,0.062344323843717575
3,0,32,3,0.5441972613334656,0.05979504808783531
3,0,32,4,0.4607275128364563,0.14672350883483887
3,0,32,5,0.3553147614002228,0.18045082688331604
3,0,32,6,0.4445725381374359,0.16695576906204224
3,0,32,7,0.4094398617744446,0.07370300590991974
3,0,32,8,0.6110774278640747,0.1646115928888321
3,0,32,9,0.3466104567050934,0.037154421210289
3,0,32,10,0.4166368842124939,0.06841973215341568
3,0,32,11,0.36809903383255005,0.12032756209373474
3,0,32,12,0.5340229868888855,0.1164526417851448
3,0,32,13,0.48343151807785034,0.060135308653116226
3,0,32,14,0.41682711243629456,0.06048406660556793
3,0,32,15,0.3486163914203644,0.08782293647527695
3,0,32,16,0.628854513168335,0.07450338453054428
3,0,32,17,0.41443291306495667,0.08388214558362961
3,0,32,18,0.404617577791214,0.11146789789199829
3,0,32,19,0.5801364779472351,0.10645909607410431
3,0,32,20,0.40247103571891785,0.10769268125295639
3,0,32,21,0.4126802682876587,0.09132695198059082
3,0,32,22,0.5137433409690857,0.06057446077466011
3,0,32,23,0.2839127480983734,0.08852852135896683
3,0,32,24,0.571077823638916,0.1197819858789444
3,0,32,25,0.45777347683906555,0.10001984238624573
3,0,32,26,0.6072823405265808,0.12237254530191422
3,0,32,27,0.44974470138549805,0.11983271688222885
3,0,32,28,0.5608205199241638,0.0349288173019886
3,0,32,29,0.4275375306606293,0.08277465403079987
3,0,32,30,0.43835383653640747,0.150688037276268
3,0,32,31,0.38150015473365784,0.15786594152450562
3,1,32,0,0.44509804248809814,0.03890519589185715
3,1,32,1,0.6027167439460754,0.14875133335590363
3,1,32,2,0.316943496465683,0.06089083477854729
3,1,32,3,0.6458358764648438,0.14404381811618805
3,1,32,4,0.4481673836708069,0.06560327857732773
3,1,32,5,0.4318653345108032,0.13086876273155212
3,1,32,6,0.6652182340621948,0.11659376323223114
3,1,32,7,0.29377686977386475,0.05826706439256668
3,1,32,8,0.37129077315330505,0.09489061683416367
3,1,32,9,0.4156181812286377,0.05639280006289482
3,1,32,10,0.5307062268257141,0.05908301845192909
3,1,32,11,0.6570175886154175,0.09201987087726593
3,1,32,12,0.6559152603149414,0.06006070226430893
3,1,32,13,0.47053244709968567,0.1368897259235382
3,1,32,14,0.570478618144989,0.07702802121639252
3,1,32,15,0.48639726638793945,0.08880174160003662
3,1,32,16,0.43482035398483276,0.13632217049598694
3,1,32,17,0.6296993494033813,0.048354167491197586
3,1,32,18,0.3550814092159271,0.12332630157470703
3,1,32,19,0.4535249173641205,0.154908686876297
3,1,32,20,0.4813976287841797,0.1463456004858017
3,1,32,21,0.4866943359375,0.028750132769346237
3,1,32,22,0.5938897728919983,0.04510286822915077
3,1,32,23,0.6934860348701477,0.09509807080030441
3,1,32,24,0.5153985619544983,0.10799640417098999
3,1,32,25,0.4468274414539337,0.16134858131408691
3,1,32,26,0.3823462128639221,0.06363749504089355
3,1,32,27,0.5929021835327148,0.12132528424263
3,1,32,28,0.41788172721862793,0.06811314821243286
3,1,32,29,0.39970818161964417,0.07582636922597885
3,1,32,30,0.5595351457595825,0.06299974769353867
3,1,32,31,0.4436173737049103,0.19665369391441345
3,2,64,0,0.4783477187156677,0.15408863127231598
3,2,64,1,0.4058893322944641,0.11051348596811295
3,2,64,2,0.5806778073310852,0.12839311361312866
3,2,64,3,0.41627517342567444,0.13710027933120728
3,2,64,4,0.42527079582214355,0.1879032403230667
3,2,64,5,0.3878195285797119,0.13203252851963043
3,2,64,6,0.4094100892543793,0.1083313524723053
3,2,64,7,0.508971631526947,0.12557563185691833
3,2,64,8,0.3786015510559082,0.1122070923447609
3,2,64,9,0.5682908296585083,0.17698203027248383
3,2,64,10,0.47915807366371155,0.08062292635440826
3,2,64,11,0.37425220012664795,0.14022573828697205
3,2,64,12,0.5597733855247498,0.15406087040901184
3,2,64,13,0.41801831126213074,0.10175297409296036
3,2,64,14,0.4359513223171234,0.08415010571479797
3,2,64,15,0.5770092606544495,0.1498226821422577
3,2,64,16,0.5237632989883423,0.04787260293960571
3,2,64,17,0.5186754465103149,0.09595683217048645
3,2,64,18,0.5808094143867493,0.06040605530142784
3,2,64,19,0.41063573956489563,0.18985074758529663
3,2,64,20,0.5198659896850586,0.11424804478883743
3,2,64,21,0.521600067615509,0.13217683136463165
3,2,64,22,0.5530641674995422,0.10561911016702652
3,2,64,23,0.3827907145023346,0.11093471199274063
3,2,64,24,0.3915817439556122,0.10994181036949158
3,2,64,25,0.3471549153327942,0.17346282303333282
3,2,64,26,0.4122653603553772,0.08127620816230774
3,2,64,27,0.4677225649356842,0.07236871868371964
3,2,64,28,0.593764066696167,0.13751603662967682
3,2,64,29,0.49005845189094543,0.09682592749595642
3,2,64,30,0.5575457215309143,0.08008251339197159
3,2,64,31,0.4056174159049988,0.10792232304811478
3,2,64,32,0.4469202160835266,0.13636700809001923
3,2,64,33,0.4268079400062561,0.18432815372943878
3,2,64,34,0.40942391753196716,0.1793263703584671
3,2,64,35,0.5006961822509766,0.10324705392122269
3,2,64,36,0.3977741301059723,0.16142261028289795
3,2,64,37,0.41762104630470276,0.16692833602428436
3,2,64,38,0.3989694118499756,0.09010990709066391
3,2,64,39,0.569098174571991,0.1481800228357315
3,2,64,40,0.4897061288356781,0.13565757870674133
3,2,64,41,0.5313936471939087,0.07297547906637192
3,2,64,42,0.3553559184074402,0.1553049385547638
3,2,64,43,0.3486015498638153,0.1463591456413269
3,2,64,44,0.546299934387207,0.11515163630247116
3,2,64,45,0.42645999789237976,0.15259544551372528
3,2,64,46,0.44064366817474365,0.13047386705875397
3,2,64,47,0.48779764771461487,0.09512090682983398
3,2,64,48,0.6888957023620605,0.16843783855438232
3,2,64,49,0.3942737877368927,0.1699632704257965
3,2,64,50,0.471874862909317,0.11924107372760773
3,2,64,51,0.6518712639808655,0.19343827664852142
3,2,64,52,0.5875557661056519,0.17385168373584747
3,2,64,53,0.45724138617515564,0.1180381253361702
3,2,64,54,0.5389996767044067,0.06502310186624527
3,2,64,55,0.5422903895378113,0.1035730242729187
3,2,64,56,0.364267498254776,0.14215031266212463
3,2,64,57,0.41893303394317627,0.17357835173606873
3,2,64,58,0.5109336376190186,0.14796677231788635
3,2,64,59,0.6151618957519531,0.11484239250421524
3,2,64,60,0.4766572415828705,0.10660445690155029
3,2,64,61,0.6018337607383728,0.11752345412969589
3,2,64,62,0.6978363990783691,0.18107078969478607
3,2,64,63,0.3922806978225708,0.1696832925081253
3,3,64,0,0.620521605014801,0.22986921668052673
3,3,64,1,0.5311996936798096,0.165586918592453
3,3,64,2,0.6088346838951111,0.20762799680233002
3,3,64,3,0.4619007706642151,0.10290826857089996
3,3,64,4,0.42107662558555603,0.09125393629074097
3,3,64,5,0.5422753691673279,0.25454896688461304
3,3,64,6,0.5067197680473328,0.07938013970851898
3,3,64,7,0.46189263463020325,0.1351110190153122
3,3,64,8,0.47170644998550415,0.31665170192718506
3,3,64,9,0.4617801308631897,0.05006890371441841
3,3,64,10,0.7219587564468384,0.08650264143943787
3,3,64,11,0.26241427659988403,0.11009316891431808
3,3,64,12,0.5937784910202026,0.15850965678691864
3,3,64,13,0.7489811778068542,0.155073344707489
3,3,64,14,0.6419553160667419,0.10266932845115662
3,3,64,15,0.38396915793418884,0.06477237492799759
3,3,64,16,0.48029428720474243,0.14851534366607666
3,3,64,17,0.5492812395095825,0.1384916454553604
3,3,64,18,0.48520997166633606,0.23050643503665924
3,3,64,19,0.5432246327400208,0.2878495454788208
3,3,64,20,0.5991175770759583,0.12827736139297485
3,3,64,21,0.5946487188339233,0.1501644253730774
3,3,64,22,0.532126784324646,0.16451670229434967
3,3,64,23,0.3965147137641907,0.22223278880119324
3,3,64,24,0.4283859431743622,0.17450280487537384
3,3,64,25,0.5085315704345703,0.20004840195178986
3,3,64,26,0.4160282015800476,0.15234753489494324
3,3,64,27,0.5636523365974426,0.09108676016330719
3,3,64,28,0.5862866044044495,0.11775495111942291
3,3,64,29,0.5777836441993713,0.09390068799257278
3,3,64,30,0.32450583577156067,0.15307237207889557
3,3,64,31,0.5670294165611267,0.12663708627223969
3,3,64,32,0.4087119698524475,0.24397651851177216
3,3,64,33,0.4177691638469696,0.15799951553344727
3,3,64,34,0.444504052400589,0.05341776832938194
3,3,64,35,0.5093356966972351,0.2961365878582001
3,3,64,36,0.4410654604434967,0.16223736107349396
3,3,64,37,0.5681969523429871,0.12223847955465317
3,3,64,38,0.34931209683418274,0.13059307634830475
3,3,64,39,0.7269167900085449,0.17868268489837646
3,3,64,40,0.6179463863372803,0.2510679364204407
3,3,64,41,0.5366066098213196,0.09309260547161102
3,3,64,42,0.5890969634056091,0.1054714247584343
3,3,64,43,0.4236289858818054,0.1958153396844864
3,3,64,44,0.3864806294441223,0.08800768852233887
3,3,64,45,0.6197956204414368,0.23519739508628845
3,3,64,46,0.45263537764549255,0.13653472065925598
3,3,64,47,0.501517117023468,0.11504761129617691
3,3,64,48,0.42470604181289673,0.2640947103500366
3,3,64,49,0.525312602519989,0.24702318012714386
3,3,64,50,0.41215771436691284,0.26007363200187683
3,3,64,51,0.6721773743629456,0.11494868993759155
3,3,64,52,0.4700174629688263,0.15868572890758514
3,3,64,53,0.6422812342643738,0.12377102673053741
3,3,64,54,0.5465642809867859,0.1442895531654358
3,3,64,55,0.4553949236869812,0.10232589393854141
3,3,64,56,0.406529039144516,0.1688028872013092
3,3,64,57,0.5320090055465698,0.22222204506397247
3,3,64,58,0.6733682155609131,0.16787973046302795
3,3,64,59,0.43790557980537415,0.19497884809970856
3,3,64,60,0.5261703729629517,0.30490753054618835
3,3,64,61,0.3305772840976715,0.18454107642173767
3,3,64,62,0.5674888491630554,0.1355355829000473
3,3,64,63,0.2867024540901184,0.1278536468744278
3,4,128,0,0.745232105255127,0.10963006317615509
3,4,128,1,0.601686418056488,0.17546792328357697
3,4,128,2,0.40999943017959595,0.06514433771371841
3,4,128,3,0.5205122828483582,0.2877000868320465
3,4,128,4,0.5222257971763611,0.22079609334468842
3,4,128,5,0.6341718435287476,0.1797710657119751
3,4,128,6,0.4883791208267212,0.19595226645469666
3,4,128,7,0.2633514106273651,0.19794096052646637
3,4,128,8,0.41013303399086,0.2618892192840576
3,4,128,9,0.7248622179031372,0.10644302517175674
3,4,128,10,0.31974947452545166,0.2632574439048767
3,4,128,11,0.6585710644721985,0.15549050271511078
3,4,128,12,0.4999851584434509,0.18589800596237183
3,4,128,13,0.41398870944976807,0.2522096633911133
3,4,128,14,0.6461231112480164,0.17002734541893005
3,4,128,15,0.6437146067619324,0.13377532362937927
3,4,128,16,0.5944766402244568,0.2478019893169403
3,4,128,17,0.44968345761299133,0.2395167499780655
3,4,128,18,0.735284686088562,0.08326003700494766
3,4,128,19,0.5065457820892334,0.13482624292373657
3,4,128,20,0.5972124934196472,0.1522374004125595
3,4,128,21,0.7444559931755066,0.08997327834367752
3,4,128,22,0.37882789969444275,0.22612254321575165
3,4,128,23,0.5625877380371094,0.28094419836997986
3,4,128,24,0.5427477359771729,0.3326951563358307
3,4,128,25,0.3882223963737488,0.2843666076660156
3,4,128,26,0.31744420528411865,0.10753115266561508
3,4,128,27,0.527594804763794,0.23670904338359833
3,4,128,28,0.5581395030021667,0.11046554893255234
3,4,128,29,0.8175065517425537,0.09281749278306961
3,4,128,30,0.4812680184841156,0.21968398988246918
3,4,128,31,0.6740385890007019,0.07710567861795425
3,4,128,32,0.5582243800163269,0.0994904562830925
3,4,128,33,0.615681529045105,0.3829025328159332
3,4,128,34,0.524520218372345,0.23342961072921753
3,4,128,35,0.4724428355693817,0.07589991390705109
3,4,128,36,0.6734399199485779,0.13140669465065002
3,4,128,37,0.4383418560028076,0.17208176851272583
3,4,128,38,0.6528127789497375,0.17469651997089386
3,4,128,39,0.3847971558570862,0.09852458536624908
3,4,128,40,0.5940524935722351,0.08267594128847122
3,4,128,41,0.7635510563850403,0.1321743130683899
3,4,128,42,0.6896932721138,0.1269298791885376
3,4,128,43,0.7927495837211609,0.09950622916221619
3,4,128,44,0.4837378263473511,0.17335516214370728
3,4,128,45,0.3002096712589264,0.1616925150156021
3,4,128,46,0.26436591148376465,0.10897067189216614
3,4,128,47,0.7329932451248169,0.20925180613994598
3,4,128,48,0.6070223450660706,0.27232855558395386
3,4,128,49,0.6810664534568787,0.267127126455307
3,4,128,50,0.6193525195121765,0.23208022117614746
3,4,128,51,0.5258545279502869,0.2499374896287918
3,4,128,52,0.6870989799499512,0.1944054663181305
3,4,128,53,0.4790131449699402,0.35870295763015747
3,4,128,54,0.543846845626831,0.09485779702663422
3,4,128,55,0.6983696818351746,0.13864976167678833
3,4,128,56,0.7527915835380554,0.08751693367958069
3,4,128,57,0.589621365070343,0.2650386393070221
3,4,128,58,0.41122281551361084,0.2144356220960617
3,4,128,59,0.5298426151275635,0.17488032579421997
3,4,128,60,0.7928901314735413,0.1159660741686821
3,4,128,61,0.6661814451217651,0.15442979335784912
3,4,128,62,0.5951610803604126,0.253059983253479
3,4,128,63,0.3602111041545868,0.23855318129062653
3,4,128,64,0.5054508447647095,0.14767397940158844
3,4,128,65,0.6654641628265381,0.15172304213047028
3,4,128,66,0.6101596355438232,0.1268511265516281
3,4,128,67,0.6612080931663513,0.274158239364624
3,4,128,68,0.3321879804134369,0.14899447560310364
3,4,128,69,0.4421200156211853,0.15010252594947815
3,4,128,70,0.4242476224899292,0.258983314037323
3,4,128,71,0.7349583506584167,0.146929532289505
3,4,128,72,0.2922980785369873,0.06415653228759766
3,4,128,73,0.4574846029281616,0.32673516869544983
3,4,128,74,0.4898819327354431,0.1996174156665802
3,4,128,75,0.6882456541061401,0.11743860691785812
3,4,128,76,0.6498184204101562,0.13520210981369019
3,4,128,77,0.6669850945472717,0.16323807835578918
3,4,128,78,0.5755011439323425,0.37484660744667053
3,4,128,79,0.6379541754722595,0.26313287019729614
3,4,128,80,0.6914597153663635,0.30633416771888733
3,4,128,81,0.6641018986701965,0.10937044769525528
3,4,128,82,0.38608667254447937,0.30780112743377686
3,4,128,83,0.3541049361228943,0.24527665972709656
3,4,128,84,0.29998236894607544,0.14468273520469666
3,4,128,85,0.6625384092330933,0.20291027426719666
3,4,128,86,0.6048890948295593,0.39486193656921387
3,4,128,87,0.3772474527359009,0.094506174325943
3,4,128,88,0.3812585175037384,0.3408854603767395
3,4,128,89,0.6588523387908936,0.2481095939874649
3,4,128,90,0.6904816031455994,0.13951875269412994
3,4,128,91,0.6485524773597717,0.13738930225372314
3,4,128,92,0.6530681848526001,0.06725107878446579
3,4,128,93,0.6659172773361206,0.13453799486160278
3,4,128,94,0.4396470785140991,0.29709145426750183
3,4,128,95,0.673760175704956,0.21347999572753906
3,4,128,96,0.6773568391799927,0.14499537646770477
3,4,128,97,0.5987065434455872,0.3272673189640045
3,4,128,98,0.6592758893966675,0.17392316460609436
3,4,128,99,0.6766075491905212,0.1304335594177246
3,4,128,100,0.6577253937721252,0.1599774956703186
3,4,128,101,0.6064832210540771,0.1833956241607666
3,4,128,102,0.8014865517616272,0.1257828176021576
3,4,128,103,0.6629769802093506,0.09375285357236862
3,4,128,104,0.3699207603931427,0.3199806809425354
3,4,128,105,0.4777562916278839,0.2041889876127243
3,4,128,106,0.3817766606807709,0.11763681471347809
3,4,128,107,0.5066245198249817,0.1929219365119934
3,4,128,108,0.5847336649894714,0.16318050026893616
3,4,128,109,0.6835206151008606,0.2004864662885666
3,4,128,110,0.6976537108421326,0.23447254300117493
3,4,128,111,0.21529214084148407,0.09872955828905106
3,4,128,112,0.5384668707847595,0.25336697697639465
3,4,128,113,0.4980117380619049,0.1742386519908905
3,4,128,114,0.6325215697288513,0.14877985417842865
3,4,128,115,0.34304243326187134,0.21344630420207977
3,4,128,116,0.7243624329566956,0.09431842714548111
3,4,128,117,0.46816375851631165,0.05902198702096939
3,4,128,118,0.4735417664051056,0.2235577255487442
3,4,128,119,0.46900278329849243,0.16151612997055054
3,4,128,120,0.766398012638092,0.10282450914382935
3,4,128,121,0.4749351143836975,0.18015140295028687
3,4,128,122,0.5093051195144653,0.20784549415111542
3,4,128,123,0.7593778371810913,0.083246611058712
3,4,128,124,0.6931107044219971,0.15418016910552979
3,4,128,125,0.5437695980072021,0.20760856568813324
3,4,128,126,0.4135560095310211,0.25323057174682617
3,4,128,127,0.41212528944015503,0.19444744288921356
3,5,128,0,0.7825818657875061,0.17235317826271057
3,5,128,1,0.807488739490509,0.07182127982378006
3,5,128,2,0.7686401009559631,0.06909330934286118
3,5,128,3,0.6411423087120056,0.18434733152389526
3,5,128,4,0.7214228510856628,0.10380247235298157
3,5,128,5,0.5096731185913086,0.14066608250141144
3,5,128,6,0.7468704581260681,0.11323900520801544
3,5,128,7,0.8093337416648865,0.07284795492887497
3,5,128,8,0.5999536514282227,0.15717820823192596
3,5,128,9,0.7298832535743713,0.07136999070644379
3,5,128,10,0.8297030329704285,0.06792410463094711
3,5,128,11,0.6059576869010925,0.10378586500883102
3,5,128,12,0.8784140348434448,0.0915234163403511
3,5,128,13,0.5966620445251465,0.16693313419818878
3,5,128,14,0.7954665422439575,0.1774812936782837
3,5,128,15,0.7873270511627197,0.1668742597103119
3,5,128,16,0.6483385562896729,0.15725648403167725
3,5,128,17,0.8396599292755127,0.08476417511701584
3,5,128,18,0.823223352432251,0.16241244971752167
3,5,128,19,0.7461693286895752,0.17622031271457672
3,5,128,20,0.6470560431480408,0.12529894709587097
3,5,128,21,0.881130039691925,0.06688719242811203
3,5,128,22,0.4429974853992462,0.09772221744060516
3,5,128,23,0.7245684862136841,0.1256057173013687
3,5,128,24,0.8235324621200562,0.15561948716640472
3,5,128,25,0.8353359699249268,0.14499695599079132
3,5,128,26,0.7434326410293579,0.1484690010547638
3,5,128,27,0.4179738461971283,0.339744508266449
3,5,128,28,0.8700388073921204,0.06736300140619278
3,5,128,29,0.869775116443634,0.10250450670719147
3,5,128,30,0.6277732253074646,0.1491423398256302
3,5,128,31,0.8888352513313293,0.09643471986055374
3,5,128,32,0.753479540348053,0.21056541800498962
3,5,128,33,0.926122784614563,0.04934980347752571
3,5,128,34,0.7510555386543274,0.11040659993886948
3,5,128,35,0.3657809793949127,0.3268004059791565
3,5,128,36,0.8797620534896851,0.06751761585474014
3,5,128,37,0.5558081865310669,0.21132305264472961
3,5,128,38,0.7758912444114685,0.17941460013389587
3,5,128,39,0.4976891875267029,0.24467499554157257
3,5,128,40,0.37587493658065796,0.12623082101345062
3,5,128,41,0.4053192138671875,0.1222032904624939
3,5,128,42,0.7863473892211914,0.060387011617422104
3,5,128,43,0.8276712894439697,0.10775616019964218
3,5,128,44,0.8045098185539246,0.089347705245018
3,5,128,45,0.37923943996429443,0.3053542971611023
3,5,128,46,0.6675339937210083,0.09616432338953018
3,5,128,47,0.8044766187667847,0.11823577433824539
3,5,128,48,0.6155887842178345,0.25930655002593994
3,5,128,49,0.7889997363090515,0.12803232669830322
3,5,128,50,0.706220269203186,0.23057875037193298
3,5,128,51,0.4581994414329529,0.23752053081989288
3,5,128,52,0.868222713470459,0.09488346427679062
3,5,128,53,0.6402954459190369,0.12935607135295868
3,5,128,54,0.3670244514942169,0.21967510879039764
3,5,128,55,0.8887580633163452,0.06542294472455978
3,5,128,56,0.8824396133422852,0.06479362398386002
3,5,128,57,0.8179097771644592,0.10699517279863358
3,5,128,58,0.820971667766571,0.08066070079803467
3,5,128,59,0.8692327737808228,0.07910893857479095
3,5,128,60,0.8841264843940735,0.06819526106119156
3,5,128,61,0.7578855752944946,0.2674071788787842
3,5,128,62,0.817784309387207,0.16325367987155914
3,5,128,63,0.8264453411102295,0.1742737889289856
3,5,128,64,0.4771997630596161,0.10855542868375778
3,5,128,65,0.40280744433403015,0.34009864926338196
3,5,128,66,0.880515456199646,0.11082787066698074
3,5,128,67,0.7744376063346863,0.13919590413570404
3,5,128,68,0.41464468836784363,0.2707563042640686
3,5,128,69,0.49108290672302246,0.12408820539712906
3,5,128,70,0.8612422943115234,0.12016654759645462
3,5,128,71,0.7551077604293823,0.09803466498851776
3,5,128,72,0.7337589263916016,0.055774200707674026
3,5,128,73,0.39776426553726196,0.28081002831459045
3,5,128,74,0.6497841477394104,0.3846514821052551
3,5,128,75,0.6482611298561096,0.28044989705085754
3,5,128,76,0.37794262170791626,0.36342522501945496
3,5,128,77,0.8268224596977234,0.08034878224134445
3,5,128,78,0.8638820648193359,0.06832556426525116
3,5,128,79,0.7960075736045837,0.12968966364860535
3,5,128,80,0.9218091368675232,0.07788442075252533
3,5,128,81,0.8556565046310425,0.07570542395114899
3,5,128,82,0.5924431085586548,0.20133867859840393
3,5,128,83,0.6692731976509094,0.31489256024360657
3,5,128,84,0.5064749121665955,0.26620757579803467
3,5,128,85,0.805365800857544,0.17214907705783844
3,5,128,86,0.8806425929069519,0.12402427196502686
3,5,128,87,0.5662562251091003,0.1897943913936615
3,5,128,88,0.4403134286403656,0.36769789457321167
3,5,128,89,0.7890065312385559,0.17798180878162384
3,5,128,90,0.7413636445999146,0.1632756143808365
3,5,128,91,0.5576369166374207,0.12260141968727112
3,5,128,92,0.7418866157531738,0.11866122484207153
3,5,128,93,0.7135912179946899,0.2488972395658493
3,5,128,94,0.6286060810089111,0.14796382188796997
3,5,128,95,0.6461056470870972,0.3198953866958618
3,5,128,96,0.5392717123031616,0.1570560783147812
3,5,128,97,0.8840983510017395,0.08935718238353729
3,5,128,98,0.4934390187263489,0.3279343843460083
3,5,128,99,0.7870362401008606,0.17079947888851166
3,5,128,100,0.37643346190452576,0.2704404294490814
3,5,128,101,0.702179491519928,0.18461962044239044
3,5,128,102,0.8736675977706909,0.0719066858291626
3,5,128,103,0.5313649773597717,0.18348227441310883
3,5,128,104,0.6623440384864807,0.13388866186141968
3,5,128,105,0.600559651851654,0.07545717060565948
3,5,128,106,0.40244191884994507,0.12942443788051605
3,5,128,107,0.5193334221839905,0.2712206244468689
3,5,128,108,0.8485912680625916,0.08088867366313934
3,5,128,109,0.7548792958259583,0.12990708649158478
3,5,128,110,0.9031948447227478,0.0604117289185524
3,5,128,111,0.5437731146812439,0.1795380562543869
3,5,128,112,0.8052573204040527,0.1539366990327835
3,5,128,113,0.8000892996788025,0.14387334883213043
3,5,128,114,0.8984141945838928,0.05972522124648094
3,5,128,115,0.4298959970474243,0.07709983736276627
3,5,128,116,0.8944559097290039,0.06641565263271332
3,5,128,117,0.7809404730796814,0.09683467447757721
3,5,128,118,0.6827189326286316,0.08724214136600494
3,5,128,119,0.6222952604293823,0.1854446679353714
3,5,128,120,0.7656992673873901,0.0960582047700882
3,5,128,121,0.43442973494529724,0.1450609713792801
3,5,128,122,0.5261433720588684,0.11083678901195526
3,5,128,123,0.6661546230316162,0.12425806373357773
3,5,128,124,0.7014665603637695,0.219248965382576
3,5,128,125,0.4700978994369507,0.15255136787891388
3,5,128,126,0.41322317719459534,0.28550127148628235
3,5,128,127,0.25787052512168884,0.13661713898181915
4,0,32,0,0.6350736021995544,0.057316023856401443
4,0,32,1,0.3659793734550476,0.06049807742238045
4,0,32,2,0.5795664191246033,0.08847817778587341
4,0,32,3,0.5631669163703918,0.07688301801681519
4,0,32,4,0.3593083918094635,0.07362958043813705
4,0,32,5,0.4498656392097473,0.09580136835575104
4,0,32,6,0.5313595533370972,0.037775732576847076
4,0,32,7,0.6154639720916748,0.05130074918270111
4,0,32,8,0.5374537110328674,0.08956773579120636
4,0,32,9,0.5829012393951416,0.023845622316002846
4,0,32,10,0.3937823176383972,0.04120331257581711
4,0,32,11,0.4714356064796448,0.06483153998851776
4,0,32,12,0.4635772109031677,0.1282220333814621
4,0,32,13,0.3910796046257019,0.09041302651166916
4,0,32,14,0.536939263343811,0.08908869326114655
4,0,32,15,0.5052627325057983,0.10831918567419052
4,0,32,16,0.562380313873291,0.06171892583370209
4,0,32,17,0.5037567615509033,0.042779505252838135
4,0,32,18,0.36257192492485046,0.08482616394758224
4,0,32,19,0.5938584804534912,0.11056829988956451
4,0,32,20,0.4843938946723938,0.10239865630865097
4,0,32,21,0.4765060842037201,0.0978114977478981
4,0,32,22,0.3900870084762573,0.08537834137678146
4,0,32,23,0.3755660355091095,0.11354011297225952
4,0,32,24,0.4731382727622986,0.05518651008605957
4,0,32,25,0.4391701817512512,0.08360357582569122
4,0,32,26,0.3651151657104492,0.05525663122534752
4,0,32,27,0.3904504179954529,0.06125090271234512
4,0,32,28,0.6572993993759155,0.06472574174404144
4,0,32,29,0.4990687072277069,0.06794612854719162
4,0,32,30,0.4045293927192688,0.04268011078238487
4,0,32,31,0.4502337872982025,0.09468697011470795
4,1,32,0,0.3675501346588135,0.04221385344862938
4,1,32,1,0.4503937065601349,0.06708647310733795
4,1,32,2,0.6328946948051453,0.07337357848882675
4,1,32,3,0.4427735209465027,0.16931211948394775
4,1,32,4,0.5023971796035767,0.08228364586830139
4,1,32,5,0.687223494052887,0.05622025206685066
4,1,32,6,0.5967957377433777,0.05296287313103676
4,1,32,7,0.3623189926147461,0.09335790574550629
4,1,32,8,0.3902173936367035,0.16465480625629425
4,1,32,9,0.41302672028541565,0.14228524267673492
4,1,32,10,0.3941960334777832,0.07309018820524216
4,1,32,11,0.4537639021873474,0.08538462221622467
4,1,32,12,0.6555328965187073,0.07961674779653549
4,1,32,13,0.409103661775589,0.12205012887716293
4,1,32,14,0.5367965698242188,0.0683891624212265
4,1,32,15,0.432449072599411,0.1649281084537506
4,1,32,16,0.34947270154953003,0.07992568612098694
4,1,32,17,0.5070934295654297,0.11778659373521805
4,1,32,18,0.47902417182922363,0.18906961381435394
4,1,32,19,0.5104116797447205,0.08320973068475723
4,1,32,20,0.5041425228118896,0.14790423214435577
4,1,32,21,0.5725231766700745,0.07683712989091873
4,1,32,22,0.3850056231021881,0.07162313908338547
4,1,32,23,0.6290123462677002,0.10282673686742783
4,1,32,24,0.39548954367637634,0.09785513579845428
4,1,32,25,0.3240562677383423,0.07454244792461395
4,1,32,26,0.40212175250053406,0.09953977167606354
4,1,32,27,0.4633946120738983,0.08869457989931107
4,1,32,28,0.6389557719230652,0.0730811133980751
4,1,32,29,0.4151609241962433,0.15322063863277435
4,1,32,30,0.5815731883049011,0.10397836565971375
4,1,32,31,0.6834594011306763,0.10862866044044495
4,2,64,0,0.4958212971687317,0.12869904935359955
4,2,64,1,0.4648319482803345,0.13766184449195862
4,2,64,2,0.44059568643569946,0.131126269698143
4,2,64,3,0.5182705521583557,0.13494710624217987
4,2,64,4,0.6323505640029907,0.09424901753664017
4,2,64,5,0.5112870335578918,0.18435336649417877
4,2,64,6,0.5922916531562805,0.12922894954681396
4,2,64,7,0.38734522461891174,0.1390513777732849
4,2,64,8,0.34783539175987244,0.1450759768486023
4,2,64,9,0.6061990857124329,0.07803786545991898
4,2,64,10,0.567253053188324,0.17932812869548798
4,2,64,11,0.5060738921165466,0.11505979299545288
4,2,64,12,0.49731796979904175,0.053886063396930695
4,2,64,13,0.5060417056083679,0.216151624917984
4,2,64,14,0.5614190101623535,0.11365552246570587
4,2,64,15,0.5309625267982483,0.12772096693515778
4,2,64,16,0.48230260610580444,0.1710704267024994
4,2,64,17,0.5099456906318665,0.0953524261713028
4,2,64,18,0.5841782093048096,0.20442678034305573
4,2,64,19,0.5356355309486389,0.10714141279459
4,2,64,20,0.5024648904800415,0.09243312478065491
4,2,64,21,0.610595703125,0.12798696756362915
4,2,64,22,0.5209853053092957,0.10268040001392365
4,2,64,23,0.35061872005462646,0.14960746467113495
4,2,64,24,0.41212525963783264,0.17297661304473877
4,2,64,25,0.4964013993740082,0.11734412610530853
4,2,64,26,0.517461359500885,0.17920610308647156
4,2,64,27,0.47745129466056824,0.19543036818504333
4,2,64,28,0.5526461005210876,0.13785159587860107
4,2,64,29,0.31135550141334534,0.14339692890644073
4,2,64,30,0.35337015986442566,0.15263767540454865
4,2,64,31,0.44206446409225464,0.1326913684606552
4,2,64,32,0.43431904911994934,0.14340195059776306
4,2,64,33,0.5085960626602173,0.07038582116365433
4,2,64,34,0.43972069025039673,0.14812207221984863
4,2,64,35,0.5015068054199219,0.1759185492992401
4,2,64,36,0.512063205242157,0.10724493861198425
4,2,64,37,0.41828224062919617,0.09065525978803635
4,2,64,38,0.3829578459262848,0.1548950970172882
4,2,64,39,0.32574939727783203,0.11991172283887863
4,2,64,40,0.395266056060791,0.14536389708518982
4,2,64,41,0.3436218798160553,0.12327520549297333
4,2,64,42,0.4730887711048126,0.17860156297683716
4,2,64,43,0.5929823517799377,0.09186740219593048
4,2,64,44,0.5012167692184448,0.21271221339702606
4,2,64,45,0.6211662888526917,0.12619231641292572
4,2,64,46,0.42075392603874207,0.17664718627929688
4,2,64,47,0.4796930253505707,0.09042786061763763
4,2,64,48,0.46319448947906494,0.15390150249004364
4,2,64,49,0.6247003078460693,0.1700432300567627
4,2,64,50,0.42192956805229187,0.12502947449684143
4,2,64,51,0.5104254484176636,0.14129096269607544
4,2,64,52,0.4007193148136139,0.148390993475914
4,2,64,53,0.3821779191493988,0.11635245382785797
4,2,64,54,0.37512490153312683,0.10538575053215027
4,2,64,55,0.66982102394104,0.14836104214191437
4,2,64,56,0.5566183924674988,0.112516388297081
4,2,64,57,0.539372980594635,0.18707358837127686
4,2,64,58,0.5327075719833374,0.19996553659439087
4,2,64,59,0.4416813850402832,0.09884542226791382
4,2,64,60,0.5068594217300415,0.13473428785800934
4,2,64,61,0.36761870980262756,0.11702074110507965
4,2,64,62,0.4533314108848572,0.05301625654101372
4,2,64,63,0.6236805319786072,0.11655888706445694
4,3,64,0,0.45487597584724426,0.18811939656734467
4,3,64,1,0.6986897587776184,0.07608095556497574
4,3,64,2,0.5838208198547363,0.0669025108218193
4,3,64,3,0.36646291613578796,0.14754663407802582
4,3,64,4,0.43805351853370667,0.1655655801296234
4,3,64,5,0.35946425795555115,0.14224568009376526
4,3,64,6,0.5344563126564026,0.2306712418794632
4,3,64,7,0.40875115990638733,0.1572573184967041
4,3,64,8,0.5211985111236572,0.0636398121714592
4,3,64,9,0.5849729776382446,0.17976702749729156
4,3,64,10,0.43075016140937805,0.3399624526500702
4,3,64,11,0.3027838170528412,0.08668874204158783
4,3,64,12,0.5170956254005432,0.28460776805877686
4,3,64,13,0.5825427174568176,0.13958486914634705
4,3,64,14,0.5011305212974548,0.1627069115638733
4,3,64,15,0.5273706912994385,0.233280211687088
4,3,64,16,0.6634517908096313,0.14497613906860352
4,3,64,17,0.5909125208854675,0.22200258076190948
4,3,64,18,0.6294225454330444,0.13546396791934967
4,3,64,19,0.31145352125167847,0.15418705344200134
4,3,64,20,0.6516771912574768,0.16177129745483398
4,3,64,21,0.5655643939971924,0.1135898306965828
4,3,64,22,0.4671490490436554,0.20604966580867767
4,3,64,23,0.6916336417198181,0.12126102298498154
4,3,64,24,0.522926926612854,0.12723641097545624
4,3,64,25,0.46452227234840393,0.22999541461467743
4,3,64,26,0.3689296543598175,0.12088759243488312
4,3,64,27,0.5020734667778015,0.1121327131986618
4,3,64,28,0.34530889987945557,0.18003013730049133
4,3,64,29,0.5864706039428711,0.26010680198669434
4,3,64,30,0.47254377603530884,0.23453091084957123
4,3,64,31,0.38769862055778503,0.09658526629209518
4,3,64,32,0.6456807255744934,0.17181143164634705
4,3,64,33,0.6442945599555969,0.10600482672452927
4,3,64,34,0.5379670262336731,0.20249152183532715
4,3,64,35,0.35340553522109985,0.14250381290912628
4,3,64,36,0.42746126651763916,0.11339853703975677
4,3,64,37,0.4135220944881439,0.21676704287528992
4,3,64,38,0.546448290348053,0.25889113545417786
4,3,64,39,0.5280879735946655,0.12245184928178787
4,3,64,40,0.6791822910308838,0.08777758479118347
4,3,64,41,0.40305542945861816,0.10887109488248825
4,3,64,42,0.48776981234550476,0.12587709724903107
4,3,64,43,0.7587791681289673,0.11429514735937119
4,3,64,44,0.6800024509429932,0.0357833132147789
4,3,64,45,0.32015174627304077,0.15027359127998352
4,3,64,46,0.40515074133872986,0.23675991594791412
4,3,64,47,0.371982216835022,0.08109868317842484
4,3,64,48,0.37905988097190857,0.09444770961999893
4,3,64,49,0.6637623906135559,0.09958833456039429
4,3,64,50,0.4617078900337219,0.10415895283222198
4,3,64,51,0.4940928816795349,0.1892029494047165
4,3,64,52,0.3637022376060486,0.0730927363038063
4,3,64,53,0.5734714865684509,0.11612386256456375
4,3,64,54,0.38897430896759033,0.2020494043827057
4,3,64,55,0.43789759278297424,0.21190954744815826
4,3,64,56,0.5861299633979797,0.1273914873600006
4,3,64,57,0.44064101576805115,0.09480798989534378
4,3,64,58,0.5157822370529175,0.0933862030506134
4,3,64,59,0.539906919002533,0.1471850425004959
4,3,64,60,0.4217131435871124,0.23383140563964844
4,3,64,61,0.5843194127082825,0.10690204054117203
4,3,64,62,0.6273784637451172,0.09711680561304092
4,3,64,63,0.44787612557411194,0.1101757287979126
4,4,128,0,0.6524585485458374,0.21170993149280548
4,4,128,1,0.6539427042007446,0.2310514748096466
4,4,128,2,0.46165692806243896,0.16117176413536072
4,4,128,3,0.7748270630836487,0.13698625564575195
4,4,128,4,0.35142096877098083,0.24451175332069397
4,4,128,5,0.758216381072998,0.08217421174049377
4,4,128,6,0.6693028807640076,0.15597842633724213
4,4,128,7,0.5420007705688477,0.2151435911655426
4,4,128,8,0.36000922322273254,0.2661937475204468
4,4,128,9,0.46636447310447693,0.10155028104782104
4,4,128,10,0.38137558102607727,0.15568746626377106
4,4,128,11,0.45678794384002686,0.19521762430667877
4,4,128,12,0.5534517765045166,0.14494091272354126
4,4,128,13,0.7029259204864502,0.3139747679233551
4,4,128,14,0.41885143518447876,0.12422709167003632
4,4,128,15,0.39650875329971313,0.2603003680706024
4,4,128,16,0.5173356533050537,0.11560642719268799
4,4,128,17,0.7878720760345459,0.08610013872385025
4,4,128,18,0.6385123133659363,0.2032906860113144
4,4,128,19,0.6723452806472778,0.28723829984664917
4,4,128,20,0.6586705446243286,0.22306005656719208
4,4,128,21,0.4933829605579376,0.16199171543121338
4,4,128,22,0.4725309908390045,0.08721292018890381
4,4,128,23,0.6701961159706116,0.2500697076320648
4,4,128,24,0.5899532437324524,0.09009360522031784
4,4,128,25,0.3530386686325073,0.12028496712446213
4,4,128,26,0.6211400628089905,0.31538376212120056
4,4,128,27,0.5125477910041809,0.1448877602815628
4,4,128,28,0.37288182973861694,0.30968132615089417
4,4,128,29,0.5984459519386292,0.112134650349617
4,4,128,30,0.5336960554122925,0.1303379088640213
4,4,128,31,0.7800251841545105,0.08966228365898132
4,4,128,32,0.4555247724056244,0.09140685200691223
4,4,128,33,0.6124165654182434,0.3770943880081177
4,4,128,34,0.4720934331417084,0.0894935354590416
4,4,128,35,0.3268917202949524,0.1519704908132553
4,4,128,36,0.5979650616645813,0.12765100598335266
4,4,128,37,0.5805509686470032,0.12427064031362534
4,4,128,38,0.47103968262672424,0.20395299792289734
4,4,128,39,0.45700159668922424,0.12342598289251328
4,4,128,40,0.7493305206298828,0.06733179837465286
4,4,128,41,0.513362467288971,0.14597047865390778
4,4,128,42,0.4009661376476288,0.2706228792667389
4,4,128,43,0.4264228641986847,0.13578078150749207
4,4,128,44,0.6060059070587158,0.033573392778635025
4,4,128,45,0.6812137365341187,0.20546860992908478
4,4,128,46,0.4359041452407837,0.29769739508628845
4,4,128,47,0.6683652997016907,0.11942701041698456
4,4,128,48,0.45601725578308105,0.2403867393732071
4,4,128,49,0.6790825724601746,0.12991398572921753
4,4,128,50,0.5199296474456787,0.027150796726346016
4,4,128,51,0.45059576630592346,0.1723419427871704
4,4,128,52,0.3277032971382141,0.1157272532582283
4,4,128,53,0.43250638246536255,0.30192264914512634
4,4,128,54,0.679641604423523,0.1009855791926384
4,4,128,55,0.5246332287788391,0.17979013919830322
4,4,128,56,0.6674153208732605,0.06651009619235992
4,4,128,57,0.4003547132015228,0.18522188067436218
4,4,128,58,0.776002824306488,0.10723893344402313
4,4,128,59,0.7572775483131409,0.09590475261211395
4,4,128,60,0.7188827991485596,0.07144714891910553
4,4,128,61,0.49682876467704773,0.20571283996105194
4,4,128,62,0.6831416487693787,0.1502608358860016
4,4,128,63,0.7579385042190552,0.17662453651428223
4,4,128,64,0.7984810471534729,0.06858696043491364
4,4,128,65,0.35214319825172424,0.21762478351593018
4,4,128,66,0.8178269863128662,0.07003095000982285
4,4,128,67,0.6610919237136841,0.0824730321764946
4,4,128,68,0.5679861903190613,0.16159379482269287
4,4,128,69,0.5409285426139832,0.11353792250156403
4,4,128,70,0.2774975597858429,0.2084593027830124
4,4,128,71,0.5325847268104553,0.05128207057714462
4,4,128,72,0.3213045001029968,0.2140102982521057
4,4,128,73,0.7769714593887329,0.11442387849092484
4,4,128,74,0.5291966795921326,0.1600225567817688
4,4,128,75,0.5480254292488098,0.10896169394254684
4,4,128,76,0.6494332551956177,0.22712218761444092
4,4,128,77,0.8140213489532471,0.09918961673974991
4,4,128,78,0.6535190343856812,0.11711108684539795
4,4,128,79,0.3144029676914215,0.17141085863113403
4,4,128,80,0.736723005771637,0.14259040355682373
4,4,128,81,0.40513983368873596,0.1873462051153183
4,4,128,82,0.47044625878334045,0.1542118340730667
4,4,128,83,0.4413275420665741,0.20923589169979095
4,4,128,84,0.6148142218589783,0.07878507673740387
4,4,128,85,0.7969006299972534,0.08851038664579391
4,4,128,86,0.7754079699516296,0.10319250077009201
4,4,128,87,0.662827730178833,0.17413900792598724
4,4,128,88,0.7367406487464905,0.13889653980731964
4,4,128,89,0.6173380613327026,0.11291667819023132
4,4,128,90,0.4918431341648102,0.15525802969932556
4,4,128,91,0.6147724390029907,0.2270980030298233
4,4,128,92,0.6807827353477478,0.21719525754451752
4,4,128,93,0.6735017895698547,0.3301123082637787
4,4,128,94,0.5162320137023926,0.07760804891586304
4,4,128,95,0.6509761214256287,0.2305738776922226
4,4,128,96,0.5839112997055054,0.18167199194431305
4,4,128,97,0.6794453859329224,0.092941515147686
4,4,128,98,0.6649103164672852,0.1438399851322174
4,4,128,99,0.4138590693473816,0.23418699204921722
4,4,128,100,0.6425614953041077,0.2256164401769638
4,4,128,101,0.7509483695030212,0.07480370253324509
4,4,128,102,0.5099800229072571,0.07829034328460693
4,4,128,103,0.3705134093761444,0.34124767780303955
4,4,128,104,0.7112783789634705,0.10499317944049835
4,4,128,105,0.7162516117095947,0.17257441580295563
4,4,128,106,0.258215993642807,0.09154362231492996
4,4,128,107,0.4435148239135742,0.2520187497138977
4,4,128,108,0.5363354086875916,0.21685291826725006
4,4,128,109,0.674848198890686,0.18870559334754944
4,4,128,110,0.7129659056663513,0.23249223828315735
4,4,128,111,0.8235821723937988,0.08613668382167816
4,4,128,112,0.6879376769065857,0.28608810901641846
4,4,128,113,0.2931361794471741,0.24320225417613983
4,4,128,114,0.7409021258354187,0.14110809564590454
4,4,128,115,0.6913213729858398,0.06110962852835655
4,4,128,116,0.7037776708602905,0.2869870066642761
4,4,128,117,0.4350297451019287,0.11847590655088425
4,4,128,118,0.39344364404678345,0.22373174130916595
4,4,128,119,0.49935561418533325,0.1045648455619812
4,4,128,120,0.6824052333831787,0.2615779638290405
4,4,128,121,0.4664813280105591,0.22952640056610107
4,4,128,122,0.7393558621406555,0.1044810563325882
4,4,128,123,0.48900413513183594,0.18284983932971954
4,4,128,124,0.46855008602142334,0.10717875510454178
4,4,128,125,0.5504927635192871,0.08123935014009476
4,4,128,126,0.5872387886047363,0.14446941018104553
4,4,128,127,0.676442563533783,0.27124300599098206
4,5,128,0,0.6389257907867432,0.29623204469680786
4,5,128,1,0.7561153173446655,0.1931038647890091
4,5,128,2,0.5278196930885315,0.1310877799987793
4,5,128,3,0.6704211235046387,0.3471306264400482
4,5,128,4,0.6569115519523621,0.13913635909557343
4,5,128,5,0.8112356066703796,0.14320187270641327
4,5,128,6,0.7654221057891846,0.20372536778450012
4,5,128,7,0.30794599652290344,0.14692050218582153
4,5,128,8,0.4054112732410431,0.21389226615428925
4,5,128,9,0.6830410361289978,0.29124554991722107
4,5,128,10,0.7976611256599426,0.09498433023691177
4,5,128,11,0.7293353080749512,0.18554958701133728
4,5,128,12,0.7350307703018188,0.2375769466161728
4,5,128,13,0.7512483596801758,0.20207883417606354
4,5,128,14,0.43733614683151245,0.13055139780044556
4,5,128,15,0.8115423321723938,0.13619674742221832
4,5,128,16,0.7675228118896484,0.07393055409193039
4,5,128,17,0.8161006569862366,0.14632441103458405
4,5,128,18,0.8133448958396912,0.16767767071723938
4,5,128,19,0.6509478092193604,0.060825150460004807
4,5,128,20,0.710033118724823,0.2953767478466034
4,5,128,21,0.7523803114891052,0.21037514507770538
4,5,128,22,0.7131538391113281,0.22288738191127777
4,5,128,23,0.8157088756561279,0.1516629457473755
4,5,128,24,0.39826446771621704,0.11385656148195267
4,5,128,25,0.5864656567573547,0.08942539989948273
4,5,128,26,0.8233888745307922,0.14989227056503296
4,5,128,27,0.8390952944755554,0.09162671864032745
4,5,128,28,0.42646387219429016,0.12485849112272263
4,5,128,29,0.728827178478241,0.11154378205537796
4,5,128,30,0.7581819891929626,0.15650738775730133
4,5,128,31,0.6265547871589661,0.09351848065853119
4,5,128,32,0.4686121344566345,0.16113495826721191
4,5,128,33,0.35295987129211426,0.3343915641307831
4,5,128,34,0.5327708721160889,0.0827624574303627
4,5,128,35,0.6637111902236938,0.052274689078330994
4,5,128,36,0.801665186882019,0.1003241166472435
4,5,128,37,0.3705154359340668,0.27102145552635193
4,5,128,38,0.7197358012199402,0.1259271651506424
4,5,128,39,0.7944344878196716,0.15934260189533234
4,5,128,40,0.8075573444366455,0.12357684969902039
4,5,128,41,0.6713563799858093,0.23959144949913025
4,5,128,42,0.6766536235809326,0.0773906335234642
4,5,128,43,0.4106140434741974,0.07091829180717468
4,5,128,44,0.7379074692726135,0.226866215467453
4,5,128,45,0.46273407340049744,0.19828681647777557
4,5,128,46,0.5323913097381592,0.1753113716840744
4,5,128,47,0.6377971768379211,0.17154379189014435
4,5,128,48,0.6360659003257751,0.25670865178108215
4,5,128,49,0.808983325958252,0.11346541345119476
4,5,128,50,0.4247393310070038,0.14012959599494934
4,5,128,51,0.6565023064613342,0.0852179080247879
4,5,128,52,0.2965496778488159,0.216952845454216
4,5,128,53,0.3891594111919403,0.19648759067058563
4,5,128,54,0.7948927879333496,0.14954422414302826
4,5,128,55,0.7185575366020203,0.21733196079730988
4,5,128,56,0.7620696425437927,0.1264285445213318
4,5,128,57,0.40473347902297974,0.34411340951919556
4,5,128,58,0.7299559712409973,0.2876124978065491
4,5,128,59,0.81454998254776,0.10807421058416367
4,5,128,60,0.5591649413108826,0.07789567112922668
4,5,128,61,0.8507081866264343,0.12953528761863708
4,5,128,62,0.7754968404769897,0.11558954417705536
4,5,128,63,0.8601729869842529,0.10631398856639862
4,5,128,64,0.8531792163848877,0.11848136782646179
4,5,128,65,0.5181525349617004,0.2476612776517868
4,5,128,66,0.8253414034843445,0.08584867417812347
4,5,128,67,0.8373441100120544,0.12651324272155762
4,5,128,68,0.7333652973175049,0.24460549652576447
4,5,128,69,0.35860714316368103,0.21620292961597443
4,5,128,70,0.6403143405914307,0.18218310177326202
4,5,128,71,0.4384271502494812,0.23801027238368988
4,5,128,72,0.8021675944328308,0.13192911446094513
4,5,128,73,0.8379502892494202,0.11909796297550201
4,5,128,74,0.7767336368560791,0.08166956156492233
4,5,128,75,0.39661675691604614,0.22802022099494934
4,5,128,76,0.6880533695220947,0.16502639651298523
4,5,128,77,0.7092398405075073,0.147807314991951
4,5,128,78,0.4483039975166321,0.09577535837888718
4,5,128,79,0.8090598583221436,0.1296045035123825
4,5,128,80,0.6050130724906921,0.1152317225933075
4,5,128,81,0.6113789677619934,0.1397605836391449
4,5,128,82,0.8097901940345764,0.16158097982406616
4,5,128,83,0.34453049302101135,0.15449023246765137
4,5,128,84,0.8171848654747009,0.12145267426967621
4,5,128,85,0.7007242441177368,0.11749199032783508
4,5,128,86,0.7667717933654785,0.09409573674201965
4,5,128,87,0.6964343786239624,0.25327181816101074
4,5,128,88,0.6651983857154846,0.3002176284790039
4,5,128,89,0.7762832045555115,0.17439591884613037
4,5,128,90,0.798276960849762,0.1663452684879303
4,5,128,91,0.7341247200965881,0.23050938546657562
4,5,128,92,0.7455899119377136,0.1512315571308136
4,5,128,93,0.6900650262832642,0.3047095537185669
4,5,128,94,0.6979147791862488,0.25123751163482666
4,5,128,95,0.4452734589576721,0.2538718283176422
4,5,128,96,0.6928738355636597,0.2271583080291748
4,5,128,97,0.678735613822937,0.3322792947292328
4,5,128,98,0.4089783728122711,0.3165875971317291
4,5,128,99,0.6649108529090881,0.0779426172375679
4,5,128,100,0.7592348456382751,0.17279739677906036
4,5,128,101,0.5363567471504211,0.14775072038173676
4,5,128,102,0.6664191484451294,0.3017079532146454
4,5,128,103,0.4533720314502716,0.28142833709716797
4,5,128,104,0.7306272983551025,0.2626989781856537
4,5,128,105,0.8034200072288513,0.16747507452964783
4,5,128,106,0.3602762818336487,0.26701974868774414
4,5,128,107,0.7996070981025696,0.1239156723022461
4,5,128,108,0.7619419097900391,0.20244337618350983
4,5,128,109,0.7319088578224182,0.22189398109912872
4,5,128,110,0.7607702612876892,0.24998688697814941
4,5,128,111,0.8704184293746948,0.09855080395936966
4,5,128,112,0.35154756903648376,0.16301974654197693
4,5,128,113,0.6954202651977539,0.26413464546203613
4,5,128,114,0.7331475615501404,0.11863253265619278
4,5,128,115,0.756341814994812,0.2249375581741333
4,5,128,116,0.8537334203720093,0.13757650554180145
4,5,128,117,0.35649430751800537,0.26156628131866455
4,5,128,118,0.4540281295776367,0.2868529260158539
4,5,128,119,0.48858416080474854,0.07037598639726639
4,5,128,120,0.34683501720428467,0.29180702567100525
4,5,128,121,0.780608057975769,0.13149487972259521
4,5,128,122,0.7822390198707581,0.0707143247127533
4,5,128,123,0.4053601920604706,0.11344953626394272
4,5,128,124,0.4246174097061157,0.14733938872814178
4,5,128,125,0.4085821509361267,0.2286767214536667
4,5,128,126,0.3844551146030426,0.3302362561225891
4,5,128,127,0.6704764366149902,0.2951626777648926
5,0,32,0,0.3335779905319214,0.0793842300772667
5,0,32,1,0.36506515741348267,0.13904453814029694
5,0,32,2,0.4640023708343506,0.05537097156047821
5,0,32,3,0.3427509069442749,0.08536826819181442
5,0,32,4,0.47070589661598206,0.04459398612380028
5,0,32,5,0.5778056979179382,0.14621005952358246
5,0,32,6,0.4521245062351227,0.08810223639011383
5,0,32,7,0.4664269685745239,0.0753365084528923
5,0,32,8,0.5426377058029175,0.07534132897853851
5,0,32,9,0.4923437833786011,0.06880224496126175
5,0,32,10,0.5922985672950745,0.09489116817712784
5,0,32,11,0.47577428817749023,0.1202736645936966
5,0,32,12,0.5987043976783752,0.07786839455366135
5,0,32,13,0.6225249767303467,0.0657777488231659
5,0,32,14,0.5681692957878113,0.10086618363857269
5,0,32,15,0.46371588110923767,0.1330903172492981
5,0,32,16,0.474679559469223,0.10696912556886673
5,0,32,17,0.45268821716308594,0.06252209097146988
5,0,32,18,0.41863152384757996,0.1138920709490776
5,0,32,19,0.4499555230140686,0.0562155619263649
5,0,32,20,0.6540233492851257,0.04789646342396736
5,0,32,21,0.4806017279624939,0.06593732535839081
5,0,32,22,0.46400579810142517,0.06268860399723053
5,0,32,23,0.6013991236686707,0.05871731787919998
5,0,32,24,0.584506094455719,0.04254385828971863
5,0,32,25,0.36829936504364014,0.07721573114395142
5,0,32,26,0.47353479266166687,0.16573894023895264
5,0,32,27,0.4128924012184143,0.17855501174926758
5,0,32,28,0.5039359331130981,0.05258394405245781
5,0,32,29,0.44688764214515686,0.13831780850887299
5,0,32,30,0.32626160979270935,0.03556772693991661
5,0,32,31,0.4345804750919342,0.0812925472855568
5,1,32,0,0.5735939741134644,0.0698971301317215
5,1,32,1,0.623652458190918,0.08397410809993744
5,1,32,2,0.6067511439323425,0.061101458966732025
5,1,32,3,0.4446117877960205,0.07650291174650192
5,1,32,4,0.3982556462287903,0.08460976183414459
5,1,32,5,0.579719066619873,0.023997751995921135
5,1,32,6,0.576453685760498,0.0787632092833519
5,1,32,7,0.5872399210929871,0.06778303533792496
5,1,32,8,0.6556396484375,0.08100085705518723
5,1,32,9,0.3843531310558319,0.03948735445737839
5,1,32,10,0.4869575798511505,0.04387834295630455
5,1,32,11,0.4540577232837677,0.07409238070249557
5,1,32,12,0.47743427753448486,0.04278751462697983
5,1,32,13,0.5403046011924744,0.05519293621182442
5,1,32,14,0.4288952946662903,0.055804163217544556
5,1,32,15,0.5701630115509033,0.05029010772705078
5,1,32,16,0.43991753458976746,0.06347845494747162
5,1,32,17,0.44312748312950134,0.0956505611538887
5,1,32,18,0.5511237978935242,0.0363452285528183
5,1,32,19,0.6137201189994812,0.055509407073259354
5,1,32,20,0.37376663088798523,0.0525389239192009
5,1,32,21,0.574968159198761,0.06963267922401428
5,1,32,22,0.41276735067367554,0.04323141649365425
5,1,32,23,0.4026690125465393,0.015353411436080933
5,1,32,24,0.5420289039611816,0.07924935966730118
5,1,32,25,0.48014718294143677,0.07215000689029694
5,1,32,26,0.530797004699707,0.06400939077138901
5,1,32,27,0.3718973696231842,0.058622799813747406
5,1,32,28,0.5134168863296509,0.057482749223709106
5,1,32,29,0.30314305424690247,0.10641635954380035
5,1,32,30,0.39172568917274475,0.029559729620814323
5,1,32,31,0.4672580063343048,0.09213818609714508
5,2,64,0,0.4811841547489166,0.19115673005580902
5,2,64,1,0.34327685832977295,0.1832384169101715
5,2,64,2,0.45416346192359924,0.15115265548229218
5,2,64,3,0.5218998193740845,0.17441245913505554
5,2,64,4,0.3830619752407074,0.07535373419523239
5,2,64,5,0.44118189811706543,0.2259715050458908
5,2,64,6,0.49958327412605286,0.22027923166751862
5,2,64,7,0.4693065285682678,0.19844858348369598
5,2,64,8,0.4121704399585724,0.13409996032714844
5,2,64,9,0.5429766178131104,0.2555834650993347
5,2,64,10,0.5097815990447998,0.07769908756017685
5,2,64,11,0.5620986819267273,0.08119990676641464
5,2,64,12,0.5351783633232117,0.10242103785276413
5,2,64,13,0.5827414393424988,0.03611718863248825
5,2,64,14,0.36380138993263245,0.15702997148036957
5,2,64,15,0.5205674767494202,0.26493653655052185
5,2,64,16,0.3423948884010315,0.1674901843070984
5,2,64,17,0.6751560568809509,0.07490028440952301
5,2,64,18,0.37584301829338074,0.18233071267604828
5,2,64,19,0.6377935409545898,0.12810564041137695
5,2,64,20,0.4768299162387848,0.057666365057229996
5,2,64,21,0.45172402262687683,0.055750004947185516
5,2,64,22,0.4794144332408905,0.24042214453220367
5,2,64,23,0.3661773204803467,0.17816190421581268
5,2,64,24,0.599096953868866,0.15486477315425873
5,2,64,25,0.6403719186782837,0.09468889236450195
5,2,64,26,0.394904226064682,0.1400606632232666
5,2,64,27,0.5006850361824036,0.11975646018981934
5,2,64,28,0.47604823112487793,0.19405131042003632
5,2,64,29,0.46871843934059143,0.22824440896511078
5,2,64,30,0.4030536413192749,0.15989990532398224
5,2,64,31,0.5030519366264343,0.15462052822113037
5,2,64,32,0.41415712237358093,0.16685077548027039
5,2,64,33,0.47768643498420715,0.1207311600446701
5,2,64,34,0.41309964656829834,0.1872350424528122
5,2,64,35,0.5757548213005066,0.1877046525478363
5,2,64,36,0.43808749318122864,0.18508905172348022
5,2,64,37,0.4694904088973999,0.1697424352169037
5,2,64,38,0.538960337638855,0.24396997690200806
5,2,64,39,0.44411584734916687,0.0962568074464798
5,2,64,40,0.5263927578926086,0.11461693048477173
5,2,64,41,0.39785411953926086,0.14975301921367645
5,2,64,42,0.5474928617477417,0.25928664207458496
5,2,64,43,0.3865872025489807,0.14051268994808197
5,2,64,44,0.31345394253730774,0.15670821070671082
5,2,64,45,0.5662445425987244,0.17676271498203278
5,2,64,46,0.33673378825187683,0.13887342810630798
5,2,64,47,0.3646358847618103,0.1027708649635315
5,2,64,48,0.6347547769546509,0.12266331911087036
5,2,64,49,0.5756363272666931,0.23663197457790375
5,2,64,50,0.5509840250015259,0.22440636157989502
5,2,64,51,0.5365899801254272,0.1380234807729721
5,2,64,52,0.3912597596645355,0.1532832235097885
5,2,64,53,0.3147227466106415,0.14347629249095917
5,2,64,54,0.4354482591152191,0.1889175921678543
5,2,64,55,0.5187745690345764,0.24695037305355072
5,2,64,56,0.4016413390636444,0.11718323081731796
5,2,64,57,0.4108465611934662,0.12712892889976501
5,2,64,58,0.5801324844360352,0.129062682390213
5,2,64,59,0.5618905425071716,0.10462547838687897
5,2,64,60,0.4539906978607178,0.2360496073961258
5,2,64,61,0.4377943277359009,0.0644792765378952
5,2,64,62,0.6113924980163574,0.17782004177570343
5,2,64,63,0.5147313475608826,0.20929871499538422
5,3,64,0,0.34599292278289795,0.09960296005010605
5,3,64,1,0.49192488193511963,0.18459783494472504
5,3,64,2,0.5077089071273804,0.11320971697568893
5,3,64,3,0.5313205718994141,0.0926598384976387
5,3,64,4,0.6321970820426941,0.21326954662799835
5,3,64,5,0.6222699880599976,0.08931981027126312
5,3,64,6,0.38772401213645935,0.08282455801963806
5,3,64,7,0.5763724446296692,0.06877627968788147
5,3,64,8,0.46079957485198975,0.23731808364391327
5,3,64,9,0.5013781785964966,0.040705226361751556
5,3,64,10,0.4897976815700531,0.08781302720308304
5,3,64,11,0.47528016567230225,0.13640931248664856
5,3,64,12,0.5070400834083557,0.08904750645160675
5,3,64,13,0.5203646421432495,0.17183782160282135
5,3,64,14,0.5328368544578552,0.21420824527740479
5,3,64,15,0.602523922920227,0.15783336758613586
5,3,64,16,0.5919976234436035,0.1058679148554802
5,3,64,17,0.5293749570846558,0.08325041830539703
5,3,64,18,0.4308715760707855,0.11993639916181564
5,3,64,19,0.5245511531829834,0.2653392553329468
5,3,64,20,0.6757155656814575,0.11931144446134567
5,3,64,21,0.35062557458877563,0.10600624978542328
5,3,64,22,0.47009655833244324,0.12113860249519348
5,3,64,23,0.7069835066795349,0.10897842049598694
5,3,64,24,0.5460851192474365,0.10511660575866699
5,3,64,25,0.5919095277786255,0.21393628418445587
5,3,64,26,0.2932577431201935,0.13361433148384094
5,3,64,27,0.5849165320396423,0.19853642582893372
5,3,64,28,0.5130757093429565,0.09526506066322327
5,3,64,29,0.6553592085838318,0.10291805118322372
5,3,64,30,0.6739429831504822,0.16078545153141022
5,3,64,31,0.4539920389652252,0.08843274414539337
5,3,64,32,0.5038219690322876,0.2232491672039032
5,3,64,33,0.342427521944046,0.17311915755271912
5,3,64,34,0.49893149733543396,0.09631273150444031
5,3,64,35,0.28808844089508057,0.13471059501171112
5,3,64,36,0.5189969539642334,0.15894393622875214
5,3,64,37,0.5931453108787537,0.23761631548404694
5,3,64,38,0.5826980471611023,0.057717546820640564
5,3,64,39,0.6116703748703003,0.1187560111284256
5,3,64,40,0.45868414640426636,0.18037831783294678
5,3,64,41,0.5776914358139038,0.2546231746673584
5,3,64,42,0.34698018431663513,0.19466936588287354
5,3,64,43,0.48286980390548706,0.14287927746772766
5,3,64,44,0.337401419878006,0.12577681243419647
5,3,64,45,0.605519711971283,0.12847021222114563
5,3,64,46,0.5159817934036255,0.18500488996505737
5,3,64,47,0.5710509419441223,0.20541341602802277
5,3,64,48,0.3884558379650116,0.17977692186832428
5,3,64,49,0.3962475657463074,0.09130912274122238
5,3,64,50,0.6987906694412231,0.13345497846603394
5,3,64,51,0.549342930316925,0.09744439274072647
5,3,64,52,0.4642202854156494,0.1744777262210846
5,3,64,53,0.471323162317276,0.13198065757751465
5,3,64,54,0.4227359890937805,0.2171902358531952
5,3,64,55,0.6384211778640747,0.19933702051639557
5,3,64,56,0.5445129871368408,0.1186651736497879
5,3,64,57,0.5169255137443542,0.16616423428058624
5,3,64,58,0.45275938510894775,0.1387183964252472
5,3,64,59,0.37193596363067627,0.19537726044654846
5,3,64,60,0.4766180217266083,0.21427176892757416
5,3,64,61,0.40506210923194885,0.19915062189102173
5,3,64,62,0.6263498067855835,0.08507953584194183
5,3,64,63,0.6407119035720825,0.0818442776799202
5,4,128,0,0.6206595301628113,0.22651806473731995
5,4,128,1,0.45783424377441406,0.23716938495635986
5,4,128,2,0.4668121337890625,0.2494334727525711
5,4,128,3,0.6697394847869873,0.135923370718956
5,4,128,4,0.5812075138092041,0.21837587654590607
5,4,128,5,0.6029902696609497,0.33759552240371704
5,4,128,6,0.6012206673622131,0.09640754759311676
5,4,128,7,0.5051337480545044,0.22753334045410156
5,4,128,8,0.659290611743927,0.07108082622289658
5,4,128,9,0.6898359656333923,0.10963308066129684
5,4,128,10,0.661115288734436,0.20963263511657715
5,4,128,11,0.4646717607975006,0.1181131973862648
5,4,128,12,0.46858078241348267,0.2970152497291565
5,4,128,13,0.3687095046043396,0.15327154099941254
5,4,128,14,0.6654914021492004,0.13289617002010345
5,4,128,15,0.4538341760635376,0.18627487123012543
5,4,128,16,0.5706397891044617,0.2701299786567688
5,4,128,17,0.6173535585403442,0.18572162091732025
5,4,128,18,0.5022082328796387,0.2926197052001953
5,4,128,19,0.44697290658950806,0.2069089114665985
5,4,128,20,0.6380203366279602,0.32365500926971436
5,4,128,21,0.581925630569458,0.21966718137264252
5,4,128,22,0.5825713276863098,0.07739716023206711
5,4,128,23,0.7246248126029968,0.08869633078575134
5,4,128,24,0.6516588926315308,0.167294442653656
5,4,128,25,0.628849446773529,0.2660939395427704
5,4,128,26,0.613434374332428,0.1329493522644043
5,4,128,27,0.5530219674110413,0.30538618564605713
5,4,128,28,0.39667296409606934,0.14216995239257812
5,4,128,29,0.40208378434181213,0.09334040433168411
5,4,128,30,0.5465527772903442,0.30767279863357544
5,4,128,31,0.2956431806087494,0.16925927996635437
5,4,128,32,0.40668660402297974,0.1276223063468933
5,4,128,33,0.6913412809371948,0.09213092178106308
5,4,128,34,0.48650872707366943,0.23070603609085083
5,4,128,35,0.585074245929718,0.24196605384349823
5,4,128,36,0.5132378339767456,0.29455021023750305
5,4,128,37,0.5887503623962402,0.1110609695315361
5,4,128,38,0.44284459948539734,0.1690203696489334
5,4,128,39,0.4909456670284271,0.3073817491531372
5,4,128,40,0.5070749521255493,0.25432994961738586
5,4,128,41,0.5597530007362366,0.32110926508903503
5,4,128,42,0.5896651148796082,0.10073081403970718
5,4,128,43,0.5224424600601196,0.3614782392978668
5,4,128,44,0.5237434506416321,0.26134344935417175
5,4,128,45,0.5860815644264221,0.18302804231643677
5,4,128,46,0.5270981192588806,0.18833352625370026
5,4,128,47,0.5696485638618469,0.1643604338169098
5,4,128,48,0.6618796586990356,0.12082210928201675
5,4,128,49,0.7261605858802795,0.16744962334632874
5,4,128,50,0.7096944451332092,0.08894137293100357
5,4,128,51,0.5911766290664673,0.1652624011039734
5,4,128,52,0.5801966786384583,0.2846480906009674
5,4,128,53,0.6197256445884705,0.25764918327331543
5,4,128,54,0.6036447882652283,0.11158880591392517
5,4,128,55,0.7069495916366577,0.148289293050766
5,4,128,56,0.45092645287513733,0.3358822464942932
5,4,128,57,0.5740083456039429,0.3585800230503082
5,4,128,58,0.6659188866615295,0.14273007214069366
5,4,128,59,0.49877816438674927,0.34650954604148865
5,4,128,60,0.7745639681816101,0.11019443720579147
5,4,128,61,0.6144763231277466,0.2115066647529602
5,4,128,62,0.5571544170379639,0.2891075909137726
5,4,128,63,0.6994202136993408,0.11868946254253387
5,4,128,64,0.49108874797821045,0.3010876774787903
5,4,128,65,0.5487586259841919,0.2328498363494873
5,4,128,66,0.5527634024620056,0.33341747522354126
5,4,128,67,0.7429498434066772,0.18041782081127167
5,4,128,68,0.5944321155548096,0.13347919285297394
5,4,128,69,0.5787534713745117,0.1800452619791031
5,4,128,70,0.7774675488471985,0.1058957502245903
5,4,128,71,0.4114452004432678,0.21042107045650482
5,4,128,72,0.7215119004249573,0.17214499413967133
5,4,128,73,0.24596937000751495,0.10934219509363174
5,4,128,74,0.48706167936325073,0.18781103193759918
5,4,128,75,0.544321596622467,0.08442903310060501
5,4,128,76,0.6826519966125488,0.14629307389259338
5,4,128,77,0.5791898965835571,0.3149168789386749
5,4,128,78,0.5817846059799194,0.152765154838562
5,4,128,79,0.5304950475692749,0.1821838766336441
5,4,128,80,0.5757580995559692,0.3596595525741577
5,4,128,81,0.6612604856491089,0.06551648676395416
5,4,128,82,0.48454388976097107,0.2578328549861908
5,4,128,83,0.47121790051460266,0.34525489807128906
5,4,128,84,0.5187808275222778,0.25882354378700256
5,4,128,85,0.603430986404419,0.14475010335445404
5,4,128,86,0.657809853553772,0.30669718980789185
5,4,128,87,0.4988379180431366,0.23544587194919586
5,4,128,88,0.48949816823005676,0.2534140646457672
5,4,128,89,0.4840086102485657,0.1566268801689148
5,4,128,90,0.4940089285373688,0.2993805706501007
5,4,128,91,0.5472791194915771,0.24430318176746368
5,4,128,92,0.6706891059875488,0.10697547346353531
5,4,128,93,0.43301546573638916,0.22724385559558868
5,4,128,94,0.4583195447921753,0.33274251222610474
5,4,128,95,0.5802791714668274,0.22041939198970795
5,4,128,96,0.519086480140686,0.3188280761241913
5,4,128,97,0.4605565369129181,0.1018194928765297
5,4,128,98,0.6595219969749451,0.21627314388751984
5,4,128,99,0.5252860188484192,0.3271513879299164
5,4,128,100,0.5122730731964111,0.18263676762580872
5,4,128,101,0.7930468320846558,0.12788981199264526
5,4,128,102,0.5244643688201904,0.14070935547351837
5,4,128,103,0.7440643906593323,0.13695216178894043
5,4,128,104,0.6182805895805359,0.14016248285770416
5,4,128,105,0.7755938768386841,0.08192706853151321
5,4,128,106,0.28485408425331116,0.1019458919763565
5,4,128,107,0.5318202376365662,0.32170921564102173
5,4,128,108,0.5703641176223755,0.05470062792301178
5,4,128,109,0.580492377281189,0.09129753708839417
5,4,128,110,0.49901583790779114,0.27703213691711426
5,4,128,111,0.4653629660606384,0.2722373902797699
5,4,128,112,0.6031931042671204,0.32074275612831116
5,4,128,113,0.665989875793457,0.08715450763702393
5,4,128,114,0.740350604057312,0.09194735437631607
5,4,128,115,0.8113942742347717,0.10253754258155823
5,4,128,116,0.4337283968925476,0.24589991569519043
5,4,128,117,0.5991324186325073,0.3455580472946167
5,4,128,118,0.6706274747848511,0.17807352542877197
5,4,128,119,0.6213858723640442,0.1331242173910141
5,4,128,120,0.521427571773529,0.30107444524765015
5,4,128,121,0.5597097277641296,0.1693820208311081
5,4,128,122,0.5610206723213196,0.25434496998786926
5,4,128,123,0.5367684364318848,0.0742526650428772
5,4,128,124,0.42813730239868164,0.0847909227013588
5,4,128,125,0.5751837491989136,0.24135498702526093
5,4,128,126,0.5481795072555542,0.3195984363555908
5,4,128,127,0.6206105351448059,0.1660957634449005
5,5,128,0,0.3992399275302887,0.2585728168487549
5,5,128,1,0.8043904900550842,0.08430211991071701
5,5,128,2,0.8096128702163696,0.1770908236503601
5,5,128,3,0.42908766865730286,0.21290509402751923
5,5,128,4,0.5302957892417908,0.11198559403419495
5,5,128,5,0.8151938319206238,0.1574012190103531
5,5,128,6,0.5055121183395386,0.2114286869764328
5,5,128,7,0.7818336486816406,0.14486083388328552
5,5,128,8,0.9174361824989319,0.06441384553909302
5,5,128,9,0.7895290851593018,0.205766960978508
5,5,128,10,0.7881645560264587,0.17899706959724426
5,5,128,11,0.7591191530227661,0.09078711271286011
5,5,128,12,0.7132391929626465,0.27289125323295593
5,5,128,13,0.8056910634040833,0.171763613820076
5,5,128,14,0.6803945899009705,0.3019665479660034
5,5,128,15,0.7099373936653137,0.14013755321502686
5,5,128,16,0.8350966572761536,0.06986761838197708
5,5,128,17,0.7818842530250549,0.13000762462615967
5,5,128,18,0.6337155103683472,0.19888503849506378
5,5,128,19,0.8188294768333435,0.08763162791728973
5,5,128,20,0.817257285118103,0.16372939944267273
5,5,128,21,0.6498715281486511,0.30689626932144165
5,5,128,22,0.8433654308319092,0.13099133968353271
5,5,128,23,0.7214136719703674,0.2153974026441574
5,5,128,24,0.7235164046287537,0.14139412343502045
5,5,128,25,0.855434238910675,0.1280648559331894
5,5,128,26,0.8008488416671753,0.1278829574584961
5,5,128,27,0.8409186005592346,0.14612402021884918
5,5,128,28,0.747240424156189,0.261365681886673
5,5,128,29,0.7303990125656128,0.21963538229465485
5,5,128,30,0.7810930013656616,0.1763182282447815
5,5,128,31,0.45923739671707153,0.1670050472021103
5,5,128,32,0.658557116985321,0.30107077956199646
5,5,128,33,0.8413049578666687,0.0826074406504631
5,5,128,34,0.707231879234314,0.17667490243911743
5,5,128,35,0.45846593379974365,0.25867560505867004
5,5,128,36,0.8382104635238647,0.0987250953912735
5,5,128,37,0.8120830059051514,0.12958848476409912
5,5,128,38,0.7581437826156616,0.20579369366168976
5,5,128,39,0.8072770237922668,0.13621757924556732
5,5,128,40,0.5474754571914673,0.1628701388835907
5,5,128,41,0.3977293372154236,0.14888785779476166
5,5,128,42,0.8173986673355103,0.11340910196304321
5,5,128,43,0.7772902846336365,0.1574849635362625
5,5,128,44,0.777133047580719,0.10200721025466919
5,5,128,45,0.6229547262191772,0.10489396750926971
5,5,128,46,0.3750515580177307,0.2602064609527588
5,5,128,47,0.672163724899292,0.22435235977172852
5,5,128,48,0.8326570391654968,0.1373560130596161
5,5,128,49,0.5425552725791931,0.253004789352417
5,5,128,50,0.6692730784416199,0.19962534308433533
5,5,128,51,0.3947196900844574,0.1952436864376068
5,5,128,52,0.5138830542564392,0.13932368159294128
5,5,128,53,0.42338448762893677,0.32236576080322266
5,5,128,54,0.6004438400268555,0.22714821994304657
5,5,128,55,0.7844682931900024,0.18246996402740479
5,5,128,56,0.8311119079589844,0.09537807106971741
5,5,128,57,0.83050137758255,0.1626681089401245
5,5,128,58,0.5204989314079285,0.21799379587173462
5,5,128,59,0.8232530355453491,0.11793599277734756
5,5,128,60,0.8853060007095337,0.10016566514968872
5,5,128,61,0.3469561040401459,0.2526162564754486
5,5,128,62,0.6258352398872375,0.15789894759655
5,5,128,63,0.6922473311424255,0.27147993445396423
5,5,128,64,0.8481971025466919,0.07103670388460159
5,5,128,65,0.5420534610748291,0.13674229383468628
5,5,128,66,0.7977238297462463,0.12229651212692261
5,5,128,67,0.8431218862533569,0.10953955352306366
5,5,128,68,0.7559458613395691,0.09191957116127014
5,5,128,69,0.8099343776702881,0.09593421220779419
5,5,128,70,0.8260015249252319,0.12277016788721085
5,5,128,71,0.8484920263290405,0.09004528075456619
5,5,128,72,0.770480751991272,0.1909123808145523
5,5,128,73,0.48062366247177124,0.2609608471393585
5,5,128,74,0.6894866228103638,0.27558818459510803
5,5,128,75,0.8378257751464844,0.140153169631958
5,5,128,76,0.665564775466919,0.25594252347946167
5,5,128,77,0.49963727593421936,0.21167472004890442
5,5,128,78,0.8097729682922363,0.11972165107727051
5,5,128,79,0.6155652403831482,0.15444715321063995
5,5,128,80,0.8221840858459473,0.17108118534088135
5,5,128,81,0.39568397402763367,0.2594876289367676
5,5,128,82,0.5668806433677673,0.08275043219327927
5,5,128,83,0.40651729702949524,0.24375790357589722
5,5,128,84,0.8053247332572937,0.11744286864995956
5,5,128,85,0.8224999308586121,0.10984215140342712
5,5,128,86,0.5608913898468018,0.24560271203517914
5,5,128,87,0.8146814107894897,0.08527936041355133
5,5,128,88,0.43972739577293396,0.26182666420936584
5,5,128,89,0.4816780686378479,0.2738683521747589
5,5,128,90,0.7943379282951355,0.17514735460281372
5,5,128,91,0.7710411548614502,0.08335722237825394
5,5,128,92,0.8030059337615967,0.13006581366062164
5,5,128,93,0.7611856460571289,0.16091600060462952
5,5,128,94,0.6057542562484741,0.11918101459741592
5,5,128,95,0.7012712955474854,0.13187988102436066
5,5,128,96,0.4878237545490265,0.13670864701271057
5,5,128,97,0.7139385342597961,0.1984870433807373
5,5,128,98,0.6457478404045105,0.3101874887943268
5,5,128,99,0.7958183288574219,0.07426192611455917
5,5,128,100,0.7501125931739807,0.1861385554075241
5,5,128,101,0.5659446716308594,0.16321423649787903
5,5,128,102,0.7087811231613159,0.23663832247257233
5,5,128,103,0.7819318175315857,0.09919366985559464
5,5,128,104,0.7843529582023621,0.18477794528007507
5,5,128,105,0.6891929507255554,0.1383811980485916
5,5,128,106,0.30472397804260254,0.1830972582101822
5,5,128,107,0.6806927919387817,0.16362343728542328
5,5,128,108,0.8376443386077881,0.11338432133197784
5,5,128,109,0.45686253905296326,0.2262306660413742
5,5,128,110,0.8651185035705566,0.09124755859375
5,5,128,111,0.363488107919693,0.3165809214115143
5,5,128,112,0.8585245609283447,0.12714384496212006
5,5,128,113,0.7958526611328125,0.14675620198249817
5,5,128,114,0.7327184081077576,0.06480615586042404
5,5,128,115,0.7926214933395386,0.16694873571395874
5,5,128,116,0.6714464426040649,0.2562958300113678
5,5,128,117,0.8566485643386841,0.11915060132741928
5,5,128,118,0.7310072779655457,0.22690927982330322
5,5,128,119,0.5009351968765259,0.2215900719165802
5,5,128,120,0.3850058317184448,0.25826939940452576
5,5,128,121,0.8921147584915161,0.07377597689628601
5,5,128,122,0.7556886672973633,0.15269392728805542
5,5,128,123,0.5759766697883606,0.19557014107704163
5,5,128,124,0.2978252172470093,0.1359230875968933
5,5,128,125,0.8327702283859253,0.11181571334600449
5,5,128,126,0.7690126299858093,0.12703093886375427
5,5,128,127,0.7482340335845947,0.18508018553256989
6,0,32,0,0.6038472056388855,0.1166386529803276
6,0,32,1,0.6725283265113831,0.10446751117706299
6,0,32,2,0.47428473830223083,0.10770128667354584
6,0,32,3,0.6126758456230164,0.062162574380636215
6,0,32,4,0.4132078289985657,0.1153622418642044
6,0,32,5,0.5842581391334534,0.04785725101828575
6,0,32,6,0.5333587527275085,0.06878701597452164
6,0,32,7,0.4240624010562897,0.04245152324438095
6,0,32,8,0.5616276860237122,0.0814904272556305
6,0,32,9,0.5010765790939331,0.14017081260681152
6,0,32,10,0.3574833571910858,0.1562238484621048
6,0,32,11,0.4318368434906006,0.20032170414924622
6,0,32,12,0.3431087136268616,0.1670514941215515
6,0,32,13,0.46479785442352295,0.1190153956413269
6,0,32,14,0.4083441197872162,0.09769859164953232
6,0,32,15,0.32879340648651123,0.06304468959569931
6,0,32,16,0.3401615619659424,0.10042662918567657
6,0,32,17,0.3405003249645233,0.1424165815114975
6,0,32,18,0.5555890798568726,0.08109636604785919
6,0,32,19,0.4972085654735565,0.17403434216976166
6,0,32,20,0.42238715291023254,0.15260763466358185
6,0,32,21,0.23607073724269867,0.080863356590271
6,0,32,22,0.6268947124481201,0.05341515317559242
6,0,32,23,0.4821104109287262,0.11058223992586136
6,0,32,24,0.2467731237411499,0.0975085124373436
6,0,32,25,0.5271481871604919,0.11616899073123932
6,0,32,26,0.5103039145469666,0.15340128540992737
6,0,32,27,0.5334206223487854,0.14371934533119202
6,0,32,28,0.5782822966575623,0.09669268131256104
6,0,32,29,0.29666242003440857,0.13247206807136536
6,0,32,30,0.47218456864356995,0.14598539471626282
6,0,32,31,0.48341020941734314,0.1514020711183548
6,1,32,0,0.6145190596580505,0.10205372422933578
6,1,32,1,0.34207892417907715,0.14069344103336334
6,1,32,2,0.4632977247238159,0.07618651539087296
6,1,32,3,0.4067021310329437,0.044983137398958206
6,1,32,4,0.5264172554016113,0.11165979504585266
6,1,32,5,0.4703097939491272,0.042091406881809235
6,1,32,6,0.5803923010826111,0.06423220783472061
6,1,32,7,0.5621100664138794,0.08524411171674728
6,1,32,8,0.4582563638687134,0.09304922074079514
6,1,32,9,0.5140353441238403,0.10691217333078384
6,1,32,10,0.4373990595340729,0.0450778603553772
6,1,32,11,0.4683144688606262,0.061422426253557205
6,1,32,12,0.5148725509643555,0.09910143911838531
6,1,32,13,0.40967199206352234,0.13286395370960236
6,1,32,14,0.33241480588912964,0.10761655122041702
6,1,32,15,0.49250996112823486,0.04144689813256264
6,1,32,16,0.4046684801578522,0.09440571814775467
6,1,32,17,0.5926027894020081,0.1318594068288803
6,1,32,18,0.5337333083152771,0.07218325138092041
6,1,32,19,0.4615667462348938,0.08803799748420715
6,1,32,20,0.4591031074523926,0.10544293373823166
6,1,32,21,0.42233118414878845,0.05914383754134178
6,1,32,22,0.47706982493400574,0.14804042875766754
6,1,32,23,0.47355419397354126,0.15919645130634308
6,1,32,24,0.3982609510421753,0.11735466867685318
6,1,32,25,0.6207294464111328,0.05428801849484444
6,1,32,26,0.3402566909790039,0.09932977706193924
6,1,32,27,0.5690959095954895,0.036677904427051544
6,1,32,28,0.5392584800720215,0.07294461131095886
6,1,32,29,0.5510137677192688,0.08202016353607178
6,1,32,30,0.48875367641448975,0.15099917352199554
6,1,32,31,0.3934003710746765,0.07794465869665146
6,2,64,0,0.546591579914093,0.17688676714897156
6,2,64,1,0.43355292081832886,0.1671449989080429
6,2,64,2,0.5333435535430908,0.1743880659341812
6,2,64,3,0.613862931728363,0.1502034068107605
6,2,64,4,0.4954036772251129,0.16832028329372406
6,2,64,5,0.7368970513343811,0.1186557486653328
6,2,64,6,0.36400121450424194,0.11539454758167267
6,2,64,7,0.3632148206233978,0.17631186544895172
6,2,64,8,0.5535656213760376,0.18146353960037231
6,2,64,9,0.5755828022956848,0.15307660400867462
6,2,64,10,0.5708603262901306,0.1913033127784729
6,2,64,11,0.42678019404411316,0.13409215211868286
6,2,64,12,0.47552502155303955,0.12809954583644867
6,2,64,13,0.5499261021614075,0.18418419361114502
6,2,64,14,0.49498412013053894,0.08616168051958084
6,2,64,15,0.5958361029624939,0.16191980242729187
6,2,64,16,0.4031040072441101,0.24198879301548004
6,2,64,17,0.6246790885925293,0.14975690841674805
6,2,64,18,0.589853823184967,0.13256874680519104
6,2,64,19,0.2939262092113495,0.1701364368200302
6,2,64,20,0.6651577949523926,0.251170814037323
6,2,64,21,0.5009756088256836,0.1300770491361618
6,2,64,22,0.315857470035553,0.1573965847492218
6,2,64,23,0.33621057868003845,0.14036598801612854
6,2,64,24,0.42980653047561646,0.10380804538726807
6,2,64,25,0.375177264213562,0.2394273728132248
6,2,64,26,0.37691086530685425,0.1254178285598755
6,2,64,27,0.46098899841308594,0.15441271662712097
6,2,64,28,0.48408111929893494,0.12832342088222504
6,2,64,29,0.44766706228256226,0.19561581313610077
6,2,64,30,0.39673739671707153,0.13824471831321716
6,2,64,31,0.4818142056465149,0.1554042249917984
6,2,64,32,0.3428109884262085,0.15248867869377136
6,2,64,33,0.4957330822944641,0.11837950348854065
6,2,64,34,0.5108597874641418,0.054920945316553116
6,2,64,35,0.494840532541275,0.19207488000392914
6,2,64,36,0.37306514382362366,0.14332830905914307
6,2,64,37,0.5281497240066528,0.18934321403503418
6,2,64,38,0.4263027310371399,0.14584030210971832
6,2,64,39,0.4198603630065918,0.17063157260417938
6,2,64,40,0.5837374925613403,0.20690761506557465
6,2,64,41,0.4646594524383545,0.23097363114356995
6,2,64,42,0.5427743792533875,0.11906418949365616
6,2,64,43,0.5481494069099426,0.16347962617874146
6,2,64,44,0.5725521445274353,0.12303952127695084
6,2,64,45,0.39052844047546387,0.19889919459819794
6,2,64,46,0.3510410785675049,0.11216232180595398
6,2,64,47,0.4673854112625122,0.11665669828653336
6,2,64,48,0.34775587916374207,0.11620701849460602
6,2,64,49,0.37646549940109253,0.07458219677209854
6,2,64,50,0.4977465271949768,0.18235866725444794
6,2,64,51,0.5965350270271301,0.20560279488563538
6,2,64,52,0.3687777817249298,0.15664885938167572
6,2,64,53,0.469392865896225,0.13799282908439636
6,2,64,54,0.7148245573043823,0.10896720737218857
6,2,64,55,0.5686798691749573,0.1457311064004898
6,2,64,56,0.46523842215538025,0.13544362783432007
6,2,64,57,0.5452535152435303,0.2531490921974182
6,2,64,58,0.4993894398212433,0.2041948139667511
6,2,64,59,0.5758192539215088,0.23707854747772217
6,2,64,60,0.3285883963108063,0.13733775913715363
6,2,64,61,0.4773254990577698,0.11847196519374847
6,2,64,62,0.6165916919708252,0.16721442341804504
6,2,64,63,0.5245285034179688,0.193560391664505
6,3,64,0,0.649450421333313,0.08894852548837662
6,3,64,1,0.3702234923839569,0.2506943941116333
6,3,64,2,0.43129000067710876,0.19456027448177338
6,3,64,3,0.5828133821487427,0.07794134318828583
6,3,64,4,0.47165989875793457,0.16120095551013947
6,3,64,5,0.641844630241394,0.11653056740760803
6,3,64,6,0.5442535281181335,0.11446621268987656
6,3,64,7,0.46899351477622986,0.058100730180740356
6,3,64,8,0.628916323184967,0.11469120532274246
6,3,64,9,0.5266237854957581,0.18727260828018188
6,3,64,10,0.6035959124565125,0.1250544786453247
6,3,64,11,0.3794447183609009,0.08010625094175339
6,3,64,12,0.5514275431632996,0.1276479959487915
6,3,64,13,0.5680755972862244,0.09263330698013306
6,3,64,14,0.37204647064208984,0.08372356742620468
6,3,64,15,0.5910881757736206,0.12967176735401154
6,3,64,16,0.7097097039222717,0.1307617872953415
6,3,64,17,0.4753950238227844,0.20123116672039032
6,3,64,18,0.4385495185852051,0.17923608422279358
6,3,64,19,0.5741754174232483,0.09856734424829483
6,3,64,20,0.5862700343132019,0.17058460414409637
6,3,64,21,0.5036029815673828,0.2149101197719574
6,3,64,22,0.5776110887527466,0.10436556488275528
6,3,64,23,0.5586313009262085,0.2778605818748474
6,3,64,24,0.6182014346122742,0.1556982547044754
6,3,64,25,0.5180021524429321,0.1072869598865509
6,3,64,26,0.32278791069984436,0.11781428754329681
6,3,64,27,0.5243674516677856,0.1617245078086853
6,3,64,28,0.5022609829902649,0.2268846184015274
6,3,64,29,0.3033519387245178,0.08174053579568863
6,3,64,30,0.4522424042224884,0.11263345927000046
6,3,64,31,0.5274189114570618,0.1438981592655182
6,3,64,32,0.4713400602340698,0.09668188542127609
6,3,64,33,0.4622410237789154,0.18279196321964264
6,3,64,34,0.4239116609096527,0.12339578568935394
6,3,64,35,0.3484816551208496,0.09657269716262817
6,3,64,36,0.5398536920547485,0.19994601607322693
6,3,64,37,0.5101742744445801,0.2490081489086151
6,3,64,38,0.5375702977180481,0.05471600219607353
6,3,64,39,0.405558317899704,0.1528133600950241
6,3,64,40,0.5639422535896301,0.17025449872016907
6,3,64,41,0.28101831674575806,0.11094853281974792
6,3,64,42,0.7278088927268982,0.11498790979385376
6,3,64,43,0.5134328007698059,0.07378268986940384
6,3,64,44,0.5332515835762024,0.03460392728447914
6,3,64,45,0.5605688095092773,0.2535015344619751
6,3,64,46,0.49548009037971497,0.08811456710100174
6,3,64,47,0.49957457184791565,0.0719335600733757
6,3,64,48,0.5808195471763611,0.09452225267887115
6,3,64,49,0.4095979928970337,0.07667047530412674
6,3,64,50,0.4959189295768738,0.12242405116558075
6,3,64,51,0.3735050559043884,0.12381391227245331
6,3,64,52,0.4238694906234741,0.19598211348056793
6,3,64,53,0.28750690817832947,0.12768547236919403
6,3,64,54,0.5698288083076477,0.14839047193527222
6,3,64,55,0.6302849650382996,0.07843010872602463
6,3,64,56,0.5724415183067322,0.09011134505271912
6,3,64,57,0.5306987166404724,0.0446847639977932
6,3,64,58,0.4746767580509186,0.10725872963666916
6,3,64,59,0.4115692973136902,0.11596927046775818
6,3,64,60,0.6158514022827148,0.09691517055034637
6,3,64,61,0.5790106058120728,0.07859862595796585
6,3,64,62,0.536097526550293,0.21408586204051971
6,3,64,63,0.5965737700462341,0.1273588240146637
