subject,channel,alpha,f1,drop_pp
1,0,1.0,0.6305833698309361,0.0
1,0,0.75,0.6204556738477769,1.0127695983159213
1,0,0.5,0.6173276814049766,1.3255688425959478
1,0,0.25,0.6204652366678831,1.011813316305299
1,0,0.0,0.6187658002719407,1.1817569558995378
1,1,1.0,0.6305833698309361,0.0
1,1,0.75,0.6314713081751825,-0.08879383442463862
1,1,0.5,0.6284494106578247,0.21339591731114327
1,1,0.25,0.6284635918190458,0.21197780118903387
1,1,0.0,0.6283716702865817,0.22116995443544063
1,2,1.0,0.6305833698309361,0.0
1,2,0.75,0.6281327279797912,0.24506418511448524
1,2,0.5,0.6386325578613385,-0.8049188030402443
1,2,0.25,0.6310995869515799,-0.051621712064375824
1,2,0.0,0.6393405242583613,-0.8757154427425196
1,3,1.0,0.6305833698309361,0.0
1,3,0.75,0.6230911742674496,0.7492195563486459
1,3,0.5,0.6163298375124626,1.4253532318473483
1,3,0.25,0.615105301059577,1.5478068771359155
1,3,0.0,0.5992820312627076,3.1301338568228476
1,4,1.0,0.6305833698309361,0.0
1,4,0.75,0.6500787747367935,-1.9495404905857439
1,4,0.5,0.6667786338446025,-3.619526401366635
1,4,0.25,0.6713201798354357,-4.073681000449958
1,4,0.0,0.6549110278237569,-2.4327657992820773
1,5,1.0,0.6305833698309361,0.0
1,5,0.75,0.6118230326759004,1.8760337155035667
1,5,0.5,0.6004402533973225,3.014311643361356
1,5,0.25,0.5901225333825403,4.046083644839582
1,5,0.0,0.5844945338898827,4.60888359410534
1,6,1.0,0.6305833698309361,0.0
1,6,0.75,0.6393493044010377,-0.8765934570101552
1,6,0.5,0.6551533215285255,-2.4569951697589354
1,6,0.25,0.6785287310620997,-4.794536123116355
1,6,0.0,0.6933905192526464,-6.280714942171029
1,7,1.0,0.6305833698309361,0.0
1,7,0.75,0.6153434009509544,1.5239968879981691
1,7,0.5,0.5867510259356553,4.383234389528079
1,7,0.25,0.5808420594599837,4.974131037095242
1,7,0.0,0.5597362672680325,7.084710256290361
1,8,1.0,0.6305833698309361,0.0
1,8,0.75,0.6255833539801294,0.5000015850806672
1,8,0.5,0.6267069044165463,0.3876465414389796
1,8,0.25,0.6164094831784235,1.4173886652512624
1,8,0.0,0.6087214977725776,2.1861872058358545
2,0,1.0,0.9072585532408579,0.0
2,0,0.75,0.8881191841409902,1.9139369099867687
2,0,0.5,0.8913077656107772,1.5950787630080732
2,0,0.25,0.8881844221679638,1.907413107289413
2,0,0.0,0.8809852838884384,2.627326935241947
2,1,1.0,0.9072585532408579,0.0
2,1,0.75,0.8968306323028963,1.0427920937961632
2,1,0.5,0.8834783203636276,2.37802328772303
2,1,0.25,0.8718865035179049,3.5372049722953047
2,1,0.0,0.8653548915046155,4.190366173624238
2,2,1.0,0.9072585532408579,0.0
2,2,0.75,0.9034156863094205,0.38428669314374275
2,2,0.5,0.8986300294484593,0.8628523792398646
2,2,0.25,0.8875514071234153,1.970714611744262
2,2,0.0,0.8753202799573768,3.193827328348109
2,3,1.0,0.9072585532408579,0.0
2,3,0.75,0.9042889110375087,0.29696422033491654
2,3,0.5,0.9013536975026424,0.5904855738215531
2,3,0.25,0.8933894571706965,1.3869096070161402
2,3,0.0,0.8828741219974292,2.4384431243428706
2,4,1.0,0.9072585532408579,0.0
2,4,0.75,0.9037498383518241,0.3508714889033815
2,4,0.5,0.9081988295958249,-0.09402763549669624
2,4,0.25,0.9187958435786843,-1.1537290337826356
2,4,0.0,0.907549331986806,-0.029077874594807263
2,5,1.0,0.9072585532408579,0.0
2,5,0.75,0.9043428579398494,0.29156953010085473
2,5,0.5,0.8901042020797452,1.7154351161112746
2,5,0.25,0.8782576894054408,2.900086383541711
2,5,0.0,0.8729501833849661,3.4308369855891807
2,6,1.0,0.9072585532408579,0.0
2,6,0.75,0.9030174609146957,0.424109232616221
2,6,0.5,0.8924283186548866,1.4830234585971325
2,6,0.25,0.8838086054808005,2.3449947760057377
2,6,0.0,0.8839083976558718,2.33501555849861
2,7,1.0,0.9072585532408579,0.0
2,7,0.75,0.9060724142914812,0.11861389493766916
2,7,0.5,0.8927074214569832,1.4551131783874682
2,7,0.25,0.8773935778465165,2.986497539434141
2,7,0.0,0.8571145459865963,5.01440072542616
2,8,1.0,0.9072585532408579,0.0
2,8,0.75,0.8976737794060051,0.9584773834852789
2,8,0.5,0.900130312492051,0.7128240748806913
2,8,0.25,0.8960553988379208,1.1203154402937066
2,8,0.0,0.8977972382572115,0.946131498364644
3,0,1.0,0.8914916982105365,0.0
3,0,0.75,0.9004327454426581,-0.8941047232121524
3,0,0.5,0.908223421551348,-1.6731723340811522
3,0,0.25,0.9010051606849636,-0.9513462474427081
3,0,0.0,0.8882112632112632,0.32804349992733295
3,1,1.0,0.8914916982105365,0.0
3,1,0.75,0.9000262682706058,-0.8534570060069302
3,1,0.5,0.9046546629746712,-1.31629647641347
3,1,0.25,0.8940301611303959,-0.25384629198593744
3,1,0.0,0.8877558989064955,0.37357993040409987
3,2,1.0,0.8914916982105365,0.0
3,2,0.75,0.8989439107001215,-0.7452212489584942
3,2,0.5,0.8952886582409088,-0.37969600303722206
3,2,0.25,0.8929538180614222,-0.14621198508856237
3,2,0.0,0.8915469451183737,-0.00552469078372031
3,3,1.0,0.8914916982105365,0.0
3,3,0.75,0.8823250505967637,0.9166647613772838
3,3,0.5,0.8642832394249034,2.720845878563316
3,3,0.25,0.8230408698912636,6.8450828319272965
3,3,0.0,0.7751353044774096,11.635639373312689
3,4,1.0,0.8914916982105365,0.0
3,4,0.75,0.898481199683559,-0.6989501473022464
3,4,0.5,0.9010268405667214,-0.9535142356184911
3,4,0.25,0.899385806066182,-0.7894107855645482
3,4,0.0,0.8971693068337714,-0.5677608623234853
3,5,1.0,0.8914916982105365,0.0
3,5,0.75,0.9074315532255796,-1.5939855015043025
3,5,0.5,0.9021054837393919,-1.061378552885539
3,5,0.25,0.8948166893068704,-0.33249910963338847
3,5,0.0,0.8890639592244983,0.24277389860382081
3,6,1.0,0.8914916982105365,0.0
3,6,0.75,0.8884258712481385,0.30658269623979884
3,6,0.5,0.8906638175972709,0.08278806132656635
3,6,0.25,0.8959387173333012,-0.4447019122764684
3,6,0.0,0.8990637060222442,-0.7572007811707637
3,7,1.0,0.8914916982105365,0.0
3,7,0.75,0.8925855618465719,-0.10938636360353637
3,7,0.5,0.8969666785204602,-0.547498030992366
3,7,0.25,0.8875195822061173,0.3972116004419268
3,7,0.0,0.8794339186790654,1.2057779531471136
3,8,1.0,0.8914916982105365,0.0
3,8,0.75,0.8973276016395669,-0.5835903429030398
3,8,0.5,0.897302009413793,-0.581031120325648
3,8,0.25,0.903357150253702,-1.186545204316547
3,8,0.0,0.9043114192718943,-1.2819721061357758
4,0,1.0,0.8427732982852041,0.0
4,0,0.75,0.838917549958159,0.385574832704505
4,0,0.5,0.8350025434198096,0.7770754865394469
4,0,0.25,0.8338171518488486,0.895614643635545
4,0,0.0,0.8249298887882714,1.7843409496932638
4,1,1.0,0.8427732982852041,0.0
4,1,0.75,0.811333796009354,3.143950227585013
4,1,0.5,0.7913010736864221,5.147222459878198
4,1,0.25,0.7600883838383837,8.268491444682036
4,1,0.0,0.7572617688181976,8.551152946700647
4,2,1.0,0.8427732982852041,0.0
4,2,0.75,0.8389264312228001,0.38468670624040024
4,2,0.5,0.8359624753931665,0.6810822892037605
4,2,0.25,0.8291404800456993,1.3632818239504796
4,2,0.0,0.8364370845195183,0.6336213765685828
4,3,1.0,0.8427732982852041,0.0
4,3,0.75,0.8575807497462798,-1.480745146107576
4,3,0.5,0.8694254357666209,-2.6652137481416815
4,3,0.25,0.8793758110648843,-3.6602512779680185
4,3,0.0,0.8829228584202438,-4.0149560135039675
4,4,1.0,0.8427732982852041,0.0
4,4,0.75,0.8973174860802737,-5.454418779506964
4,4,0.5,0.8894191146536076,-4.664581636840348
4,4,0.25,0.8865797872763824,-4.380648899117833
4,4,0.0,0.8965474268573637,-5.377412857215957
4,5,1.0,0.8427732982852041,0.0
4,5,0.75,0.8292962933497328,1.3477004935471326
4,5,0.5,0.8170668072819712,2.5706491003232856
4,5,0.25,0.8271520054809365,1.5621292804267606
4,5,0.0,0.8442681351798939,-0.1494836894689766
4,6,1.0,0.8427732982852041,0.0
4,6,0.75,0.8547887268512864,-1.2015428566082287
4,6,0.5,0.8728045464970247,-3.003124821182057
4,6,0.25,0.8833211441558328,-4.054784587062876
4,6,0.0,0.8845401035443409,-4.176680525913678
4,7,1.0,0.8427732982852041,0.0
4,7,0.75,0.8282610567825683,1.4512241502635748
4,7,0.5,0.8410492999890425,0.1723998296161544
4,7,0.25,0.8370156748273267,0.5757623457877337
4,7,0.0,0.8369728768651513,0.580042142005277
4,8,1.0,0.8427732982852041,0.0
4,8,0.75,0.8446285119150665,-0.18552136298624067
4,8,0.5,0.8539490335784115,-1.1175735293207367
4,8,0.25,0.8576681153985382,-1.489481711333407
4,8,0.0,0.8460125596404261,-0.3239261355222012
5,0,1.0,0.6540041186284148,0.0
5,0,0.75,0.6518054114054855,0.21987072229292526
5,0,0.5,0.656136986467122,-0.2132867838707253
5,0,0.25,0.6460600607912221,0.7944057837192653
5,0,0.0,0.6366213598550896,1.738275877332518
5,1,1.0,0.6540041186284148,0.0
5,1,0.75,0.6600760971424613,-0.6071978514046505
5,1,0.5,0.6627490384098907,-0.8744919781475957
5,1,0.25,0.6661531776848724,-1.2149059056457578
5,1,0.0,0.6675246144795736,-1.3520495851158776
5,2,1.0,0.6540041186284148,0.0
5,2,0.75,0.6612315773758399,-0.7227458747425142
5,2,0.5,0.6567906324649311,-0.2786513836516291
5,2,0.25,0.6562098365742628,-0.2205717945848007
5,2,0.0,0.6583344302023484,-0.43303115739335984
5,3,1.0,0.6540041186284148,0.0
5,3,0.75,0.6837766949453449,-2.977257631693009
5,3,0.5,0.689283985407955,-3.5279866779540203
5,3,0.25,0.6968381315228198,-4.283401289440503
5,3,0.0,0.7030910346100722,-4.9086915981657375
5,4,1.0,0.6540041186284148,0.0
5,4,0.75,0.6429376749012261,1.106644372718868
5,4,0.5,0.633593962617049,2.0410156011365754
5,4,0.25,0.6326284890961856,2.1375629532229157
5,4,0.0,0.626403561759709,2.7600556868705772
5,5,1.0,0.6540041186284148,0.0
5,5,0.75,0.6456259770056944,0.8378141622720436
5,5,0.5,0.6364353235745793,1.7568795053835462
5,5,0.25,0.6247100276381496,2.9294090990265143
5,5,0.0,0.6242930248808493,2.971109374756553
5,6,1.0,0.6540041186284148,0.0
5,6,0.75,0.6545339678640102,-0.05298492355954032
5,6,0.5,0.6552012129815332,-0.1197094353118433
5,6,0.25,0.6558646107217014,-0.18604920932866476
5,6,0.0,0.6509936841474792,0.3010434480935631
5,7,1.0,0.6540041186284148,0.0
5,7,0.75,0.6603266175034991,-0.6322498875084293
5,7,0.5,0.6636803256399877,-0.9676207011572902
5,7,0.25,0.6648923129761029,-1.0888194347688063
5,7,0.0,0.6543094481886023,-0.03053295601874728
5,8,1.0,0.6540041186284148,0.0
5,8,0.75,0.6616129421466873,-0.7608823518272523
5,8,0.5,0.6628493556092605,-0.8845236980845717
5,8,0.25,0.66508629926823,-1.1082180639815253
5,8,0.0,0.650019313694097,0.3984804934317743
6,0,1.0,0.7566321594028842,0.0
6,0,0.75,0.7603401829074168,-0.3708023504532587
6,0,0.5,0.7707635363421201,-1.413137693923594
6,0,0.25,0.7799674085878339,-2.333524918494967
6,0,0.0,0.7440027467745284,1.2629412628355818
6,1,1.0,0.7566321594028842,0.0
6,1,0.75,0.7536103709508882,0.3021788451995966
6,1,0.5,0.7431811889660728,1.3450970436811427
6,1,0.25,0.7347969962855185,2.1835163117365664
6,1,0.0,0.7399087450607686,1.672341434211555
6,2,1.0,0.7566321594028842,0.0
6,2,0.75,0.7686558790382871,-1.202371963540294
6,2,0.5,0.7733695526715514,-1.673739326866719
6,2,0.25,0.776614216998222,-1.9982057595337777
6,2,0.0,0.7796499810553661,-2.3017821652481896
6,3,1.0,0.7566321594028842,0.0
6,3,0.75,0.7617266598724861,-0.5094500469601915
6,3,0.5,0.7819338892492238,-2.5301729846339605
6,3,0.25,0.788922857919965,-3.2290698517080774
6,3,0.0,0.7840215565382179,-2.7389397135333726
6,4,1.0,0.7566321594028842,0.0
6,4,0.75,0.7439255198330836,1.270663956980056
6,4,0.5,0.7413435374114623,1.5288621991421891
6,4,0.25,0.7442235644449534,1.2408594957930785
6,4,0.0,0.7438944131285662,1.2737746274318007
6,5,1.0,0.7566321594028842,0.0
6,5,0.75,0.7464999661017897,1.0132193301094494
6,5,0.5,0.7453777855856362,1.1254373817248031
6,5,0.25,0.7441911021370224,1.2441057265861755
6,5,0.0,0.7510135609156452,0.5618598487239002
6,6,1.0,0.7566321594028842,0.0
6,6,0.75,0.7663725939093586,-0.9740434506474438
6,6,0.5,0.7679098141495067,-1.1277654746622456
6,6,0.25,0.7645773557901681,-0.7945196387283859
6,6,0.0,0.7726068067269594,-1.5974647324075164
6,7,1.0,0.7566321594028842,0.0
6,7,0.75,0.7509882003338464,0.5643959069037807
6,7,0.5,0.7351238527914052,2.1508306611478956
6,7,0.25,0.7071900066323898,4.944215277049436
6,7,0.0,0.6804572586644626,7.617490073842159
6,8,1.0,0.7566321594028842,0.0
6,8,0.75,0.7596640624049262,-0.30319030020420357
6,8,0.5,0.7333473110482587,2.328484835462552
6,8,0.25,0.7174405892034608,3.919157019942343
6,8,0.0,0.7038536495610112,5.277850984187305
7,0,1.0,0.7889899005396471,0.0
7,0,0.75,0.7907610767973458,-0.17711762576986256
7,0,0.5,0.7902439056365078,-0.12540050968606886
7,0,0.25,0.7839829714293843,0.5006929110262792
7,0,0.0,0.760714522546419,2.82753779932281
7,1,1.0,0.7889899005396471,0.0
7,1,0.75,0.7872738257305645,0.1716074809082646
7,1,0.5,0.767842647513307,2.114725302634013
7,1,0.25,0.7586568501792402,3.03330503604069
7,1,0.0,0.758674920543196,3.0314979996451163
7,2,1.0,0.7889899005396471,0.0
7,2,0.75,0.7889788449129316,0.0011055626715550382
7,2,0.5,0.775346178292017,1.3643722247630108
7,2,0.25,0.7518030532771947,3.718684726245247
7,2,0.0,0.7358080465418358,5.318185399781128
7,3,1.0,0.7889899005396471,0.0
7,3,0.75,0.7877566546629441,0.12332458767030374
7,3,0.5,0.7903288694105036,-0.1338968870856494
7,3,0.25,0.782661842011104,0.6328058528543123
7,3,0.0,0.7608828224158605,2.8107078123786655
7,4,1.0,0.7889899005396471,0.0
7,4,0.75,0.7854448876564676,0.35450128831795436
7,4,0.5,0.7767669976050462,1.2222902934600932
7,4,0.25,0.7705535265773295,1.8436373962317676
7,4,0.0,0.7729396164093527,1.6050284130294412
7,5,1.0,0.7889899005396471,0.0
7,5,0.75,0.7866770148416962,0.23128856979509615
7,5,0.5,0.8006835197260938,-1.1693619186446624
7,5,0.25,0.8071279558901656,-1.813805535051849
7,5,0.0,0.8273038321083119,-3.8313931568664805
7,6,1.0,0.7889899005396471,0.0
7,6,0.75,0.7885698672147727,0.04200333248743915
7,6,0.5,0.779657702717584,0.9332197822063182
7,6,0.25,0.7738412288693187,1.5148671670328406
7,6,0.0,0.7617221456878244,2.7267754851822756
7,7,1.0,0.7889899005396471,0.0
7,7,0.75,0.7771751708264685,1.181472971317865
7,7,0.5,0.7826948989600055,0.6295001579641579
7,7,0.25,0.7641015386627816,2.4888361876865495
7,7,0.0,0.7390046825997256,4.9985217939921505
7,8,1.0,0.7889899005396471,0.0
7,8,0.75,0.7860426932471425,0.2947207292504639
7,8,0.5,0.7732506419047989,1.5739258634848263
7,8,0.25,0.7641043337688644,2.4885566770782686
7,8,0.0,0.7713896635934351,1.7600236946212044
8,0,1.0,0.8492415342545689,0.0
8,0,0.75,0.8569882828310711,-0.7746748576502149
8,0,0.5,0.8506105248190647,-0.13689905644957978
8,0,0.25,0.8572625784827638,-0.8021044228194829
8,0,0.0,0.8496088473781563,-0.03673131235873983
8,1,1.0,0.8492415342545689,0.0
8,1,0.75,0.8511921061283635,-0.19505718737945488
8,1,0.5,0.8462365301597521,0.30050040948168544
8,1,0.25,0.8412823121474647,0.7959222107104202
8,1,0.0,0.8381012373041625,1.1140296950406414
8,2,1.0,0.8492415342545689,0.0
8,2,0.75,0.8503125969706048,-0.10710627160358532
8,2,0.5,0.8594990740398263,-1.0257539785257341
8,2,0.25,0.8587540063774046,-0.951247212283568
8,2,0.0,0.8611381041430128,-1.1896569888443898
8,3,1.0,0.8492415342545689,0.0
8,3,0.75,0.8425956384808297,0.6645895773739197
8,3,0.5,0.847570436360986,0.16710978935829957
8,3,0.25,0.8433148276065526,0.5926706648016311
8,3,0.0,0.830528639108482,1.8712895146086983
8,4,1.0,0.8492415342545689,0.0
8,4,0.75,0.8345546625418325,1.4686871712736416
8,4,0.5,0.8137070644978586,3.5534469756710374
8,4,0.25,0.7927023457835973,5.653918847097161
8,4,0.0,0.8081129626274604,4.112857162710859
8,5,1.0,0.8492415342545689,0.0
8,5,0.75,0.8264769508111236,2.276458344344534
8,5,0.5,0.8109235518834863,3.8317982371082637
8,5,0.25,0.808761912618537,4.0479621636031915
8,5,0.0,0.8178047638728845,3.1436770381684465
8,6,1.0,0.8492415342545689,0.0
8,6,0.75,0.8561209479377201,-0.6879413683151148
8,6,0.5,0.8630580282889573,-1.3816494034388338
8,6,0.25,0.8552383139338025,-0.599677967923351
8,6,0.0,0.8351003084141994,1.4141225840369587
8,7,1.0,0.8492415342545689,0.0
8,7,0.75,0.8435404707221158,0.5701063532453143
8,7,0.5,0.8526682307437916,-0.3426696489222669
8,7,0.25,0.8470715280038794,0.21700062506895268
8,7,0.0,0.7936535072129247,5.558802704164423
8,8,1.0,0.8492415342545689,0.0
8,8,0.75,0.8536442351392306,-0.4402700884661659
8,8,0.5,0.8509683516294096,-0.17268173748407056
8,8,0.25,0.8404266040363672,0.8814930218201789
8,8,0.0,0.8367817418158379,1.2459792438731077
9,0,1.0,0.7960082817810936,0.0
9,0,0.75,0.8168640573039245,-2.085577552283091
9,0,0.5,0.8009391952076238,-0.4930913426530181
9,0,0.25,0.7941917392291535,0.18165425519400813
9,0,0.0,0.7895138283879124,0.6494453393181221
9,1,1.0,0.7960082817810936,0.0
9,1,0.75,0.8126029064390196,-1.6594624657925938
9,1,0.5,0.8082349949227206,-1.2226713141626933
9,1,0.25,0.7885158739127384,0.7492407868355255
9,1,0.0,0.7656195944752366,3.0388687305856976
9,2,1.0,0.7960082817810936,0.0
9,2,0.75,0.8123968687657213,-1.638858698462764
9,2,0.5,0.8180990231921862,-2.2090741411092574
9,2,0.25,0.8087786652169315,-1.2770383435837918
9,2,0.0,0.7915564096280163,0.44518721530772964
9,3,1.0,0.7960082817810936,0.0
9,3,0.75,0.807182932813146,-1.1174651032052396
9,3,0.5,0.8108629380962472,-1.4854656315153592
9,3,0.25,0.8112205260482017,-1.52122442671081
9,3,0.0,0.8063539158353399,-1.0345634054246267
9,4,1.0,0.7960082817810936,0.0
9,4,0.75,0.8094292137739176,-1.3420931992824015
9,4,0.5,0.7943817082267625,0.16265735543311566
9,4,0.25,0.7874711839493003,0.853709783179335
9,4,0.0,0.8099247745121134,-1.3916492731019803
9,5,1.0,0.7960082817810936,0.0
9,5,0.75,0.8086001896620731,-1.2591907880979525
9,5,0.5,0.809414566411849,-1.3406284630755327
9,5,0.25,0.8148315158228127,-1.882323404171904
9,5,0.0,0.8183056077516107,-2.2297325970517035
9,6,1.0,0.7960082817810936,0.0
9,6,0.75,0.7971030998285356,-0.10948180474419367
9,6,0.5,0.7830763679937663,1.2931913787327276
9,6,0.25,0.7702669307439163,2.574135103717734
9,6,0.0,0.7636729559469074,3.233532583418619
9,7,1.0,0.7960082817810936,0.0
9,7,0.75,0.806594447369712,-1.0586165588618357
9,7,0.5,0.8003153760631152,-0.4307094282021584
9,7,0.25,0.7832034077186631,1.2804874062430471
9,7,0.0,0.7684355827727817,2.757269900831194
9,8,1.0,0.7960082817810936,0.0
9,8,0.75,0.8077871323594931,-1.1778850578399447
9,8,0.5,0.8071759008907399,-1.1167619109646254
9,8,0.25,0.7993874677095144,-0.33791859284207915
9,8,0.0,0.7910130324432432,0.4995249337850449
10,0,1.0,0.7366724738675957,0.0
10,0,0.75,0.7064232869002305,3.0249186967365227
10,0,0.5,0.7067546796454163,2.991779422217944
10,0,0.25,0.6946693302232405,4.2003143644355205
10,0,0.0,0.6718624736394634,6.481000022813232
10,1,1.0,0.7366724738675957,0.0
10,1,0.75,0.7323060294539672,0.4366444413628545
10,1,0.5,0.7273010291072952,0.9371444760300496
10,1,0.25,0.7326217427727848,0.4050731094810911
10,1,0.0,0.7353871112944753,0.12853625731203966
10,2,1.0,0.7366724738675957,0.0
10,2,0.75,0.7410563231354858,-0.43838492678900387
10,2,0.5,0.7417497103158353,-0.5077236448239542
10,2,0.25,0.718175305250212,1.8497168617383708
10,2,0.0,0.7043946577615933,3.2277816106002444
10,3,1.0,0.7366724738675957,0.0
10,3,0.75,0.7376165783495952,-0.09441044819994415
10,3,0.5,0.7322911525714375,0.43813212961582026
10,3,0.25,0.7087206652996128,2.795180856798296
10,3,0.0,0.7054973297483661,3.1175144119229614
10,4,1.0,0.7366724738675957,0.0
10,4,0.75,0.7106255485748666,2.6046925292729117
10,4,0.5,0.7066760539569877,2.9996419910607974
10,4,0.25,0.7042763825898599,3.2396091277735795
10,4,0.0,0.7081982467318195,2.8474227135776187
10,5,1.0,0.7366724738675957,0.0
10,5,0.75,0.745054546902373,-0.8382073034777338
10,5,0.5,0.7397214327022961,-0.3048958834700355
10,5,0.25,0.7310994668137525,0.5573007053843226
10,5,0.0,0.7377081104812597,-0.1035636613664015
10,6,1.0,0.7366724738675957,0.0
10,6,0.75,0.7534558019627258,-1.6783328095130057
10,6,0.5,0.749338434457751,-1.2665960590155234
10,6,0.25,0.7716816610076602,-3.5009187140064513
10,6,0.0,0.7694648673545341,-3.279239348693841
10,7,1.0,0.7366724738675957,0.0
10,7,0.75,0.7414185125902149,-0.4746038722619139
10,7,0.5,0.7330427881622399,0.3629685705355823
10,7,0.25,0.724503259969923,1.216921389767267
10,7,0.0,0.708532763057015,2.8139710810580754
10,8,1.0,0.7366724738675957,0.0
10,8,0.75,0.7496839229045635,-1.3011449036967826
10,8,0.5,0.756913866189688,-2.024139232209232
10,8,0.25,0.7674763009601593,-3.0803827092563574
10,8,0.0,0.781366998218086,-4.469452435049027
11,0,1.0,0.9096863647787246,0.0
11,0,0.75,0.918869750559769,-0.9183385781044495
11,0,0.5,0.9179330729497471,-0.8246708171022576
11,0,0.25,0.9207699435300098,-1.1083578751285295
11,0,0.0,0.9117886915549113,-0.21023267761867137
11,1,1.0,0.9096863647787246,0.0
11,1,0.75,0.905011373226567,0.4674991552157559
11,1,0.5,0.904623604083292,0.5062760695432544
11,1,0.25,0.9081467053181608,0.15396594605637803
11,1,0.0,0.9016379788032461,0.8048385975478412
11,2,1.0,0.9096863647787246,0.0
11,2,0.75,0.8993748707462514,1.0311494032473112
11,2,0.5,0.8861594695812174,2.352689519750717
11,2,0.25,0.88080306532289,2.8883299455834566
11,2,0.0,0.8743051007789158,3.5381263999808787
11,3,1.0,0.9096863647787246,0.0
11,3,0.75,0.9096098218636983,0.007654291502623423
11,3,0.5,0.9048704252944952,0.48159394842293146
11,3,0.25,0.892730991779163,1.6955372999561513
11,3,0.0,0.8775378883734412,3.21484764052834
11,4,1.0,0.9096863647787246,0.0
11,4,0.75,0.8999338141351035,0.9752550643621016
11,4,0.5,0.8907274115518871,1.8958953226837494
11,4,0.25,0.8808298667793737,2.885649799935086
11,4,0.0,0.8654775859303472,4.420877884837737
11,5,1.0,0.9096863647787246,0.0
11,5,0.75,0.8913627041174704,1.8323660661254126
11,5,0.5,0.8830389518207944,2.664741295793016
11,5,0.25,0.8754809743006681,3.4205390478056485
11,5,0.0,0.8831016538048644,2.658471097386017
11,6,1.0,0.9096863647787246,0.0
11,6,0.75,0.912337743596145,-0.2651378817420391
11,6,0.5,0.9165420381554981,-0.6855673376773508
11,6,0.25,0.9276634088603268,-1.7977044081602278
11,6,0.0,0.9208280462645816,-1.1141681485857036
11,7,1.0,0.9096863647787246,0.0
11,7,0.75,0.9146482115746095,-0.4961846795884961
11,7,0.5,0.9164808703508394,-0.6794505572114806
11,7,0.25,0.9085537197326456,0.11326450460789061
11,7,0.0,0.8937881426730667,1.5898222105657833
11,8,1.0,0.9096863647787246,0.0
11,8,0.75,0.913151165808875,-0.3464801030150455
11,8,0.5,0.9110566501607859,-0.1370285382061298
11,8,0.25,0.9183272246726303,-0.8640859893905728
11,8,0.0,0.9123456512827999,-0.265928650407532
12,0,1.0,0.8869901776162057,0.0
12,0,0.75,0.9020356292933708,-1.504545167716509
12,0,0.5,0.9076890821788763,-2.069890456267065
12,0,0.25,0.9072336704226835,-2.024349280647786
12,0,0.0,0.9064498766716889,-1.945969905548317
12,1,1.0,0.8869901776162057,0.0
12,1,0.75,0.8820827086456772,0.4907468970528517
12,1,0.5,0.8747627063505231,1.2227471265682577
12,1,0.25,0.8636547340854686,2.333544353073713
12,1,0.0,0.8741073008131747,1.2882876803031018
12,2,1.0,0.8869901776162057,0.0
12,2,0.75,0.8974425809208418,-1.0452403304636149
12,2,0.5,0.897246020267202,-1.0255842650996327
12,2,0.25,0.8916155220026991,-0.4625344386493424
12,2,0.0,0.9056428365071997,-1.865265889099399
12,3,1.0,0.8869901776162057,0.0
12,3,0.75,0.8879795152274074,-0.09893376112016794
12,3,0.5,0.8759337980117583,1.1056379604447386
12,3,0.25,0.8612071086520974,2.5783068964108313
12,3,0.0,0.835972629423765,5.101754819244064
12,4,1.0,0.8869901776162057,0.0
12,4,0.75,0.885961458258109,0.10287193580966747
12,4,0.5,0.8758681185722929,1.1122059043912835
12,4,0.25,0.8776088450810384,0.9381332535167264
12,4,0.0,0.8759468902304361,1.104328738576954
12,5,1.0,0.8869901776162057,0.0
12,5,0.75,0.8931259548705687,-0.6135777254362984
12,5,0.5,0.8921150686407279,-0.5124891024522182
12,5,0.25,0.9005145865457409,-1.3524408929535214
12,5,0.0,0.8942958844883886,-0.7305706872182904
12,6,1.0,0.8869901776162057,0.0
12,6,0.75,0.8944019933554818,-0.7411815739276073
12,6,0.5,0.897516430437881,-1.0526252821675297
12,6,0.25,0.9097095136719154,-2.271933605570975
12,6,0.0,0.9051403726092819,-1.815019499307624
12,7,1.0,0.8869901776162057,0.0
12,7,0.75,0.8875573941959469,-0.05672165797412365
12,7,0.5,0.893654763630615,-0.6664586014409335
12,7,0.25,0.904644922676891,-1.7654745060685317
12,7,0.0,0.8844298670168265,0.2560310599379223
12,8,1.0,0.8869901776162057,0.0
12,8,0.75,0.8861305934809975,0.08595841352081468
12,8,0.5,0.8889114320619844,-0.19212544457787306
12,8,0.25,0.8944707430728533,-0.7480565456647659
12,8,0.0,0.9017730646871686,-1.478288707096287
13,0,1.0,0.9376669282861652,0.0
13,0,0.75,0.9338502947265803,0.38166335595848366
13,0,0.5,0.9299009951538344,0.776593313233076
13,0,0.25,0.9235821288782166,1.40847994079486
13,0,0.0,0.9235539835281398,1.411294475802538
13,1,1.0,0.9376669282861652,0.0
13,1,0.75,0.9328363297365133,0.48305985496518433
13,1,0.5,0.9244184144496557,1.324851383650949
13,1,0.25,0.9282698817312385,0.939704655492668
13,1,0.0,0.9293852705820903,0.8281657704074852
13,2,1.0,0.9376669282861652,0.0
13,2,0.75,0.9365850072752058,0.10819210109593858
13,2,0.5,0.9366426982736569,0.1024230012508287
13,2,0.25,0.9297110966293702,0.795583165679492
13,2,0.0,0.9070418173247777,3.0625110961387425
13,3,1.0,0.9376669282861652,0.0
13,3,0.75,0.9292149996644636,0.8451928621701521
13,3,0.5,0.9315787503987938,0.6088177887371371
13,3,0.25,0.9334166584584761,0.4250269827689057
13,3,0.0,0.9051131989650946,3.255372932107059
13,4,1.0,0.9376669282861652,0.0
13,4,0.75,0.9256190932939912,1.204783499217399
13,4,0.5,0.9256394769745905,1.2027451311574677
13,4,0.25,0.9147075135514112,2.2959414734753936
13,4,0.0,0.9188776294257242,1.8789298860441006
13,5,1.0,0.9376669282861652,0.0
13,5,0.75,0.9208106833033649,1.685624498280025
13,5,0.5,0.9116955081716408,2.5971420114524357
13,5,0.25,0.9070781070666398,3.058882121952533
13,5,0.0,0.9076513663413526,3.0015561944812585
13,6,1.0,0.9376669282861652,0.0
13,6,0.75,0.9376386556135157,0.002827267264948752
13,6,0.5,0.9337290290176528,0.39378992685124015
13,6,0.25,0.9263837901827796,1.1283138103385548
13,6,0.0,0.9303790239214837,0.7287904364681408
13,7,1.0,0.9376669282861652,0.0
13,7,0.75,0.9423793681850426,-0.4712439898877485
13,7,0.5,0.9199386860432932,1.772824224287195
13,7,0.25,0.922324681603216,1.5342246682949146
13,7,0.0,0.920465746075039,1.720118221112621
13,8,1.0,0.9376669282861652,0.0
13,8,0.75,0.9303816900584777,0.7285238227687452
13,8,0.5,0.9225796495423974,1.5087278743767807
13,8,0.25,0.9189891031235762,1.867782516258898
13,8,0.0,0.9116053920568119,2.6061536229353255
14,0,1.0,0.8472273731130233,0.0
14,0,0.75,0.8443497475049105,0.2877625608112777
14,0,0.5,0.8421613739672864,0.506599914573691
14,0,0.25,0.8400479883266211,0.7179384786402232
14,0,0.0,0.8379117045168009,0.931566859622246
14,1,1.0,0.8472273731130233,0.0
14,1,0.75,0.8384707069993063,0.875666611371706
14,1,0.5,0.8250937592283374,2.213361388468593
14,1,0.25,0.8267845080901173,2.0442865022906043
14,1,0.0,0.812072135105843,3.5155238007180345
14,2,1.0,0.8472273731130233,0.0
14,2,0.75,0.8529737635632741,-0.5746390450250827
14,2,0.5,0.8576070100999351,-1.03796369869118
14,2,0.25,0.8595631873639592,-1.2335814250935884
14,2,0.0,0.85111918361344,-0.3891810500416648
14,3,1.0,0.8472273731130233,0.0
14,3,0.75,0.8359637771246637,1.1263595988359576
14,3,0.5,0.824722331168088,2.25050419449353
14,3,0.25,0.8058059932284513,4.142137988457206
14,3,0.0,0.7564869891769668,9.074038393605655
14,4,1.0,0.8472273731130233,0.0
14,4,0.75,0.8461815200963444,0.10458530166789215
14,4,0.5,0.852721578595385,-0.549420548236168
14,4,0.25,0.8555811509901191,-0.8353777877095792
14,4,0.0,0.8560713721235444,-0.8843999010521131
14,5,1.0,0.8472273731130233,0.0
14,5,0.75,0.8486157012963382,-0.1388328183314913
14,5,0.5,0.8418236969413233,0.5403676171700011
14,5,0.25,0.8354495535130045,1.177781960001878
14,5,0.0,0.8335445335360537,1.3682839576969585
14,6,1.0,0.8472273731130233,0.0
14,6,0.75,0.8408064810436324,0.6420892069390893
14,6,0.5,0.8392839161922466,0.7943456920776693
14,6,0.25,0.8373690149096411,0.9858358203382211
14,6,0.0,0.8279849538535317,1.924241925949166
14,7,1.0,0.8472273731130233,0.0
14,7,0.75,0.8297218296286778,1.750554348434552
14,7,0.5,0.8252866217994348,2.1940751313588525
14,7,0.25,0.8067410911514825,4.04862819615408
14,7,0.0,0.7942953693983779,5.293200371464546
14,8,1.0,0.8472273731130233,0.0
14,8,0.75,0.8379448722867467,0.9282500826276574
14,8,0.5,0.8402859701474046,0.6941402965618737
14,8,0.25,0.8372887421498363,0.9938630963187034
14,8,0.0,0.8119100344779937,3.5317338635029616
15,0,1.0,0.9300108011646473,0.0
15,0,0.75,0.9273300111248768,0.26807900397705087
15,0,0.5,0.9188560875602216,1.115471360442566
15,0,0.25,0.8951240393199138,3.4886761844733494
15,0,0.0,0.8869967624220205,4.301403874262677
15,1,1.0,0.9300108011646473,0.0
15,1,0.75,0.9327155936102359,-0.2704792445588633
15,1,0.5,0.9232918376061726,0.6718963558474678
15,1,0.25,0.91426203081497,1.5748770349677255
15,1,0.0,0.911913562896961,1.8097238267686278
15,2,1.0,0.9300108011646473,0.0
15,2,0.75,0.9205805173502393,0.9430283814408025
15,2,0.5,0.9160837921254588,1.3927009039188532
15,2,0.25,0.9091646317835396,2.0846169381107726
15,2,0.0,0.8701754728496514,5.983532831499594
15,3,1.0,0.9300108011646473,0.0
15,3,0.75,0.9274082810216944,0.26025201429529243
15,3,0.5,0.9173046441339288,1.2706157030718535
15,3,0.25,0.9096301771966522,2.0380623967995115
15,3,0.0,0.898242392402654,3.176840876199327
15,4,1.0,0.9300108011646473,0.0
15,4,0.75,0.9360141204934728,-0.6003319328825474
15,4,0.5,0.9230445205789851,0.6966280585662177
15,4,0.25,0.9220418815413085,0.7968919623338788
15,4,0.0,0.9451911128103121,-1.5180311645664801
15,5,1.0,0.9300108011646473,0.0
15,5,0.75,0.9314089447370748,-0.13981435724275126
15,5,0.5,0.9125476536852725,1.746314747937483
15,5,0.25,0.9155617251547841,1.4449076009863226
15,5,0.0,0.9356216959875792,-0.5610894822931867
15,6,1.0,0.9300108011646473,0.0
15,6,0.75,0.9296562607987384,0.035454036590887306
15,6,0.5,0.9213123687740954,0.8698432390551902
15,6,0.25,0.9184447290419508,1.1566072122696447
15,6,0.0,0.9096097698627048,2.0401031301942485
15,7,1.0,0.9300108011646473,0.0
15,7,0.75,0.9316229037684519,-0.16121026038046216
15,7,0.5,0.9250276835500537,0.49831176145935796
15,7,0.25,0.912737514855951,1.727328630869629
15,7,0.0,0.9116971934071966,1.8313607757450723
15,8,1.0,0.9300108011646473,0.0
15,8,0.75,0.9330331518343176,-0.30223506696702707
15,8,0.5,0.9383670872659113,-0.8356286101264043
15,8,0.25,0.9395605683700687,-0.9549767205421444
15,8,0.0,0.9295622654172838,0.04485357473634766
16,0,1.0,0.8016188495363985,0.0
16,0,0.75,0.8152592708905175,-1.3640421354119026
16,0,0.5,0.8064425962277452,-0.4823746691346664
16,0,0.25,0.7911368548345095,1.0481994701889041
16,0,0.0,0.7794554083911369,2.2163441145261586
16,1,1.0,0.8016188495363985,0.0
16,1,0.75,0.8093673524316318,-0.7748502895233322
16,1,0.5,0.8085812327872121,-0.6962383250813553
16,1,0.25,0.8161752893123502,-1.4556439775951668
16,1,0.0,0.8122590946403973,-1.0640245103998747
16,2,1.0,0.8016188495363985,0.0
16,2,0.75,0.807723076485027,-0.6104226948628444
16,2,0.5,0.8055810965651538,-0.396224702875525
16,2,0.25,0.8095196871901671,-0.7900837653768589
16,2,0.0,0.8073852262444157,-0.5766376708017162
16,3,1.0,0.8016188495363985,0.0
16,3,0.75,0.8026209043161343,-0.10020547797358059
16,3,0.5,0.807858476819749,-0.623962728335048
16,3,0.25,0.806091218617877,-0.4472369081478522
16,3,0.0,0.8034892315427228,-0.18703820063242782
16,4,1.0,0.8016188495363985,0.0
16,4,0.75,0.7978251923511833,0.37936571852151824
16,4,0.5,0.7937239489097074,0.789490062669107
16,4,0.25,0.7878093435641682,1.3809505972230296
16,4,0.0,0.7837917724515663,1.7827077084832221
16,5,1.0,0.8016188495363985,0.0
16,5,0.75,0.7904838979508104,1.1134951585588082
16,5,0.5,0.783013268928428,1.8605580607970462
16,5,0.25,0.7805506368881019,2.1068212648296614
16,5,0.0,0.7765993111950419,2.5019538341356617
16,6,1.0,0.8016188495363985,0.0
16,6,0.75,0.8028200952949877,-0.12012457585891534
16,6,0.5,0.8026605309244231,-0.1041681388024629
16,6,0.25,0.807545693690122,-0.5926844153723465
16,6,0.0,0.8153227103034137,-1.3703860767015241
16,7,1.0,0.8016188495363985,0.0
16,7,0.75,0.8078084459423474,-0.618959640594885
16,7,0.5,0.7933834604093016,0.823538912709687
16,7,0.25,0.7623398308596963,3.927901867670225
16,7,0.0,0.7453257033992154,5.629314613718305
16,8,1.0,0.8016188495363985,0.0
16,8,0.75,0.8106975062696162,-0.9078656733217727
16,8,0.5,0.8174724421836339,-1.5853592647235404
16,8,0.25,0.8165778065830578,-1.4958957046659282
16,8,0.0,0.7934518129441986,0.8167036592199861
17,0,1.0,0.8306991366961605,0.0
17,0,0.75,0.8370683754941699,-0.6369238798009436
17,0,0.5,0.8425135889497007,-1.1814452253540275
17,0,0.25,0.8364492417355853,-0.5750105039424858
17,0,0.0,0.8444164471440774,-1.3717310447916908
17,1,1.0,0.8306991366961605,0.0
17,1,0.75,0.845161015663199,-1.4461878967038544
17,1,0.5,0.8459284790058209,-1.5229342309660443
17,1,0.25,0.853140207388622,-2.2441070692461484
17,1,0.0,0.8528142473292121,-2.2115110633051605
17,2,1.0,0.8306991366961605,0.0
17,2,0.75,0.8408513969396629,-1.0152260243502464
17,2,0.5,0.8343621846088823,-0.3663047912721873
17,2,0.25,0.8355444456646257,-0.4845308968465245
17,2,0.0,0.8310567010309279,-0.03575643347674129
17,3,1.0,0.8306991366961605,0.0
17,3,0.75,0.8263192898346359,0.43798468615245945
17,3,0.5,0.8211592189491096,0.9539917747050874
17,3,0.25,0.8033851110896837,2.7314025606476777
17,3,0.0,0.8037951288346414,2.690400786151903
17,4,1.0,0.8306991366961605,0.0
17,4,0.75,0.8189766324312004,1.172250426496002
17,4,0.5,0.8113042470556336,1.9394889640526825
17,4,0.25,0.8271675654712363,0.35315712249242015
17,4,0.0,0.8686487095502166,-3.794957285405609
17,5,1.0,0.8306991366961605,0.0
17,5,0.75,0.8033827721182648,2.7316364577895658
17,5,0.5,0.8062984244900231,2.4400712206137376
17,5,0.25,0.797412589266699,3.3286547429461466
17,5,0.0,0.8076095797510763,2.308955694508419
17,6,1.0,0.8306991366961605,0.0
17,6,0.75,0.8434068751494866,-1.2707738453326178
17,6,0.5,0.8505620202955229,-1.986288359936239
17,6,0.25,0.852858177777068,-2.2159041080907493
17,6,0.0,0.846864435340551,-1.6165298644390536
17,7,1.0,0.8306991366961605,0.0
17,7,0.75,0.853278673297826,-2.257953660166556
17,7,0.5,0.8517375600262349,-2.103842333007444
17,7,0.25,0.8305114313766744,0.01877053194860867
17,7,0.0,0.8194159842174369,1.128315247872358
17,8,1.0,0.8306991366961605,0.0
17,8,0.75,0.8349897606371788,-0.4290623941018312
17,8,0.5,0.8325896785413374,-0.18905418451768963
17,8,0.25,0.8272249015950315,0.3474235101128986
17,8,0.0,0.814819379645247,1.587975705091349
18,0,1.0,0.870101485020494,0.0
18,0,0.75,0.872851450364325,-0.27499653438309846
18,0,0.5,0.8684658886169156,0.16355964035783543
18,0,0.25,0.8634991710948885,0.6602313925605507
18,0,0.0,0.8563684642329025,1.3733020787591532
18,1,1.0,0.870101485020494,0.0
18,1,0.75,0.8759953673514778,-0.5893882330983757
18,1,0.5,0.8773431728705143,-0.7241687850020329
18,1,0.25,0.8810939496152341,-1.0992464594740126
18,1,0.0,0.8675252348792192,0.25762501412748273
18,2,1.0,0.870101485020494,0.0
18,2,0.75,0.8647035634660258,0.5397921554468166
18,2,0.5,0.8686686168915796,0.14328681289144107
18,2,0.25,0.8745095432436654,-0.4408058223171363
18,2,0.0,0.8792657047617851,-0.9164219741291113
18,3,1.0,0.870101485020494,0.0
18,3,0.75,0.8639615750307568,0.6139909989737236
18,3,0.5,0.8455661829687083,2.453530205178567
18,3,0.25,0.8163309017139214,5.377058330657258
18,3,0.0,0.7719067567034585,9.819472831703546
18,4,1.0,0.870101485020494,0.0
18,4,0.75,0.8797246971960769,-0.9623212175582929
18,4,0.5,0.8826839314633957,-1.258244644290174
18,4,0.25,0.8828648888708979,-1.2763403850403865
18,4,0.0,0.8732400990401048,-0.3138614019610797
18,5,1.0,0.870101485020494,0.0
18,5,0.75,0.8908583367939472,-2.075685177345321
18,5,0.5,0.875671565175906,-0.5570080155412049
18,5,0.25,0.8744530796943215,-0.4351594673827508
18,5,0.0,0.8742072197982647,-0.4105734777770653
18,6,1.0,0.870101485020494,0.0
18,6,0.75,0.8823473210372518,-1.2245836016757772
18,6,0.5,0.8809386270554435,-1.0837142034949454
18,6,0.25,0.8853829196882504,-1.5281434667756444
18,6,0.0,0.8882295707200405,-1.8128085699546492
18,7,1.0,0.870101485020494,0.0
18,7,0.75,0.8569682910009608,1.3133194019533168
18,7,0.5,0.8461567396115313,2.394474540896274
18,7,0.25,0.8350659953396831,3.503548968081094
18,7,0.0,0.8384998764126363,3.1601608607857656
18,8,1.0,0.870101485020494,0.0
18,8,0.75,0.8807844914357239,-1.06830064152299
18,8,0.5,0.8792518178135897,-0.9150332793095739
18,8,0.25,0.8737969829311558,-0.3695497910661816
18,8,0.0,0.8715710808753365,-0.14695958548425203
19,0,1.0,0.815174106410435,0.0
19,0,0.75,0.8165527037727847,-0.13785973623496872
19,0,0.5,0.8184392963392108,-0.326518992877578
19,0,0.25,0.8026025697645143,1.25715366459207
19,0,0.0,0.7903149607201458,2.485914569028913
19,1,1.0,0.815174106410435,0.0
19,1,0.75,0.8130148657881968,0.21592406222381566
19,1,0.5,0.8034584255736086,1.1715680836826392
19,1,0.25,0.7954965086926225,1.9677597717812523
19,1,0.0,0.7937753195581362,2.139878685229879
19,2,1.0,0.815174106410435,0.0
19,2,0.75,0.8136200231876187,0.15540832228162493
19,2,0.5,0.8117905103197024,0.3383596090732577
19,2,0.25,0.8011937381740354,1.3980368236399587
19,2,0.0,0.7927878421662428,2.238626424419221
19,3,1.0,0.815174106410435,0.0
19,3,0.75,0.8099420432223318,0.5232063188103209
19,3,0.5,0.7906932071678541,2.44808992425809
19,3,0.25,0.7771341299183838,3.8039976492051153
19,3,0.0,0.7637051419216272,5.146896448880778
19,4,1.0,0.815174106410435,0.0
19,4,0.75,0.8166263547355836,-0.1452248325148675
19,4,0.5,0.7941638007216119,2.1010305688823117
19,4,0.25,0.7895561370787385,2.5617969331696466
19,4,0.0,0.7859658679397334,2.920823847070153
19,5,1.0,0.815174106410435,0.0
19,5,0.75,0.8122824223323453,0.2891684078089707
19,5,0.5,0.8040414165303921,1.11326898800429
19,5,0.25,0.7968270272497192,1.8347079160715762
19,5,0.0,0.7814532006789792,3.372090573145581
19,6,1.0,0.815174106410435,0.0
19,6,0.75,0.8098317341120845,0.534237229835044
19,6,0.5,0.8108052220578688,0.4368884352566216
19,6,0.25,0.8052842926238697,0.9889813786565282
19,6,0.0,0.8059568637470079,0.921724266342705
19,7,1.0,0.815174106410435,0.0
19,7,0.75,0.8017110520360888,1.346305437434614
19,7,0.5,0.8057856918270108,0.9388414583424209
19,7,0.25,0.8011614529873985,1.401265342303648
19,7,0.0,0.7865280138409148,2.864609256952022
19,8,1.0,0.815174106410435,0.0
19,8,0.75,0.8110246490011437,0.41494574092912906
19,8,0.5,0.8101652049844525,0.5008901425982426
19,8,0.25,0.8013642084076851,1.3809898002749899
19,8,0.0,0.7898723499637303,2.5301756446704626
20,0,1.0,0.8062819315129113,0.0
20,0,0.75,0.7932979712828976,1.2983960230013691
20,0,0.5,0.7932610605175717,1.302087099533955
20,0,0.25,0.7903305940257777,1.595133748713362
20,0,0.0,0.8007684275044835,0.5513504008427761
20,1,1.0,0.8062819315129113,0.0
20,1,0.75,0.7950943110704198,1.1187620442491442
20,1,0.5,0.7951673529228275,1.1114578590083801
20,1,0.25,0.7904856520717591,1.579627944115214
20,1,0.0,0.7872333837270723,1.9048547785838976
20,2,1.0,0.8062819315129113,0.0
20,2,0.75,0.802781421841333,0.35005096715782225
20,2,0.5,0.7984710770137469,0.781085449916441
20,2,0.25,0.7775529046854919,2.87290268274194
20,2,0.0,0.780935099467341,2.534683204557031
20,3,1.0,0.8062819315129113,0.0
20,3,0.75,0.8000656642570488,0.621626725586244
20,3,0.5,0.8071266549077832,-0.08447233948719601
20,3,0.25,0.8112893822777107,-0.500745076479947
20,3,0.0,0.8220188417327023,-1.5736910219791067
20,4,1.0,0.8062819315129113,0.0
20,4,0.75,0.8042431463051153,0.203878520779599
20,4,0.5,0.8049730733124146,0.13088582004966431
20,4,0.25,0.7941457062543333,1.2136225258577937
20,4,0.0,0.7871995344313589,1.908239708155235
20,5,1.0,0.8062819315129113,0.0
20,5,0.75,0.8220414475799891,-1.5759516067077817
20,5,0.5,0.8093372504478978,-0.30553189349865617
20,5,0.25,0.7998245057931703,0.645742571974095
20,5,0.0,0.8032515814424104,0.3030350070500898
20,6,1.0,0.8062819315129113,0.0
20,6,0.75,0.8034401906549656,0.28417408579456405
20,6,0.5,0.8125569583439192,-0.627502683100789
20,6,0.25,0.8105641317175541,-0.4282200204642872
20,6,0.0,0.8172667204215557,-1.0984788908644405
20,7,1.0,0.8062819315129113,0.0
20,7,0.75,0.8016577439429013,0.462418757000993
20,7,0.5,0.777203243171521,2.907868834139027
20,7,0.25,0.7767784904441475,2.950344106876379
20,7,0.0,0.8065217432840841,-0.023981177117282648
20,8,1.0,0.8062819315129113,0.0
20,8,0.75,0.8036523616114567,0.2629569901454576
20,8,0.5,0.7816428441293115,2.4639087383599767
20,8,0.25,0.7612333376041834,4.5048593908727845
20,8,0.0,0.7361675550096024,7.011437650330887
21,0,1.0,0.8730085219146831,0.0
21,0,0.75,0.8605188567898759,1.2489665124807203
21,0,0.5,0.8447402728857727,2.8268249028910453
21,0,0.25,0.8367267470783462,3.628177483633699
21,0,0.0,0.8184628864123048,5.454563550237834
21,1,1.0,0.8730085219146831,0.0
21,1,0.75,0.8700377971233657,0.2970724791317436
21,1,0.5,0.8667745272654785,0.62339946492046
21,1,0.25,0.863713676739249,0.9294845175434108
21,1,0.0,0.865632167657492,0.7376354257191187
21,2,1.0,0.8730085219146831,0.0
21,2,0.75,0.86741933004124,0.5589191873443089
21,2,0.5,0.8562531789684878,1.6755342946195295
21,2,0.25,0.8494583284998427,2.3550193414840437
21,2,0.0,0.847800330531887,2.5208191382796175
21,3,1.0,0.8730085219146831,0.0
21,3,0.75,0.8590875048926045,1.3921017022078597
21,3,0.5,0.8562976399573219,1.6710881957361257
21,3,0.25,0.8457101192273029,2.7298402687380263
21,3,0.0,0.8191496623717687,5.385885954291448
21,4,1.0,0.8730085219146831,0.0
21,4,0.75,0.8749183888015318,-0.1909866886848688
21,4,0.5,0.8660276127185536,0.6980909196129592
21,4,0.25,0.8528696462472721,2.0138875667411016
21,4,0.0,0.855147128104298,1.7861393810385096
21,5,1.0,0.8730085219146831,0.0
21,5,0.75,0.8768484666762368,-0.3839944761553693
21,5,0.5,0.8763928096682598,-0.3384287753576687
21,5,0.25,0.8859439225617385,-1.293540064705534
21,5,0.0,0.8868739143846748,-1.3865392469991633
21,6,1.0,0.8730085219146831,0.0
21,6,0.75,0.8602334160620004,1.277510585268271
21,6,0.5,0.8526714835731863,2.0337038341496805
21,6,0.25,0.8487162636046238,2.4292258310059323
21,6,0.0,0.8504785638114324,2.252995810325076
21,7,1.0,0.8730085219146831,0.0
21,7,0.75,0.8639522630082076,0.9056258906475545
21,7,0.5,0.8582243491662851,1.478417274839805
21,7,0.25,0.8481863608670863,2.4822161047596825
21,7,0.0,0.8368436100027106,3.6164911911972575
21,8,1.0,0.8730085219146831,0.0
21,8,0.75,0.8662892417900012,0.6719280124681926
21,8,0.5,0.854034564007958,1.897395790672518
21,8,0.25,0.8485150100873997,2.449351182728343
21,8,0.0,0.8285173390774196,4.449118283726349
22,0,1.0,0.823116213489727,0.0
22,0,0.75,0.8228602774441638,0.02559360455631765
22,0,0.5,0.8189419033666281,0.4174310123098879
22,0,0.25,0.8138557209944972,0.9260492495229755
22,0,0.0,0.7819297356345474,4.118647785517959
22,1,1.0,0.823116213489727,0.0
22,1,0.75,0.8251601714968791,-0.204395800715218
22,1,0.5,0.8277955847640567,-0.46793712743297133
22,1,0.25,0.8270880398848407,-0.3971826395113731
22,1,0.0,0.8273594544881495,-0.42432409984225483
22,2,1.0,0.823116213489727,0.0
22,2,0.75,0.8246795914913211,-0.1563378001594118
22,2,0.5,0.8285326227030456,-0.5416409213318651
22,2,0.25,0.8299396224754618,-0.6823408985734858
22,2,0.0,0.8219594441537537,0.11567693359733067
22,3,1.0,0.823116213489727,0.0
22,3,0.75,0.8146386545030544,0.8477558986672573
22,3,0.5,0.8093975643997269,1.371864909000009
22,3,0.25,0.8049169444255103,1.819926906421665
22,3,0.0,0.7960177488671227,2.7098464622604235
22,4,1.0,0.823116213489727,0.0
22,4,0.75,0.8234461588352173,-0.03299453454903567
22,4,0.5,0.8182908243156135,0.4825389174113459
22,4,0.25,0.8192359313487796,0.38802821409473776
22,4,0.0,0.8107096948306048,1.2406518659122123
22,5,1.0,0.823116213489727,0.0
22,5,0.75,0.8253302969208871,-0.2214083431160141
22,5,0.5,0.8322481293685164,-0.9131915878789476
22,5,0.25,0.826073039704069,-0.2956826214342012
22,5,0.0,0.8342441685472737,-1.1127955057546712
22,6,1.0,0.823116213489727,0.0
22,6,0.75,0.8188065424822986,0.4309671007428406
22,6,0.5,0.8046036150120233,1.8512598477703701
22,6,0.25,0.7981293095095303,2.498690398019665
22,6,0.0,0.792902455010487,3.0213758479240016
22,7,1.0,0.823116213489727,0.0
22,7,0.75,0.8011593705115452,2.195684297818179
22,7,0.5,0.7722078131068528,5.090840038287414
22,7,0.25,0.7550108857241851,6.81053277655419
22,7,0.0,0.7275137455615741,9.560246792815285
22,8,1.0,0.823116213489727,0.0
22,8,0.75,0.817237399727491,0.5878813762235979
22,8,0.5,0.8221601380341883,0.0956075455538663
22,8,0.25,0.8064581173893544,1.665809610037261
22,8,0.0,0.7927117879691756,3.0404425520551337
23,0,1.0,0.7845252710036301,0.0
23,0,0.75,0.7963418579938566,-1.1816586990226474
23,0,0.5,0.7768871701216271,0.7638100882003007
23,0,0.25,0.7564456977528162,2.8079573250813894
23,0,0.0,0.7460370677569567,3.848820324667346
23,1,1.0,0.7845252710036301,0.0
23,1,0.75,0.794036742531554,-0.9511471527923865
23,1,0.5,0.8000457269768416,-1.55204559732115
23,1,0.25,0.7971929091246368,-1.2667638121006686
23,1,0.0,0.7927731802915898,-0.8247909287959709
23,2,1.0,0.7845252710036301,0.0
23,2,0.75,0.8093117705404363,-2.478649953680623
23,2,0.5,0.8220938523412287,-3.756858133759855
23,2,0.25,0.8378210031645603,-5.32957321609302
23,2,0.0,0.8395339686426432,-5.500869763901306
23,3,1.0,0.7845252710036301,0.0
23,3,0.75,0.7897443958287805,-0.5219124825150412
23,3,0.5,0.7943039989182201,-0.9778727914590002
23,3,0.25,0.7796151812378092,0.49100897658209686
23,3,0.0,0.7489599167171916,3.5565354286438478
23,4,1.0,0.7845252710036301,0.0
23,4,0.75,0.7726351679026736,1.1890103100956506
23,4,0.5,0.7708652112444095,1.3660059759220577
23,4,0.25,0.764459016045903,2.006625495772707
23,4,0.0,0.7434212066626111,4.110406434101899
23,5,1.0,0.7845252710036301,0.0
23,5,0.75,0.771043890398729,1.3481380604901116
23,5,0.5,0.7630935965540192,2.1431674449610916
23,5,0.25,0.7552980589198555,2.9227212083774656
23,5,0.0,0.7595740418199033,2.495122918372683
23,6,1.0,0.7845252710036301,0.0
23,6,0.75,0.7854248651089214,-0.08995941052912793
23,6,0.5,0.775203074748073,0.932219625555708
23,6,0.25,0.7733230080033977,1.1202263000232415
23,6,0.0,0.7666515234467394,1.7873747556890751
23,7,1.0,0.7845252710036301,0.0
23,7,0.75,0.8108840007308922,-2.6358729727262054
23,7,0.5,0.8161055359794276,-3.1580264975797467
23,7,0.25,0.8022737141148644,-1.7748443111234247
23,7,0.0,0.7886758613011748,-0.41505902975447206
23,8,1.0,0.7845252710036301,0.0
23,8,0.75,0.7938643866546569,-0.9339115651026741
23,8,0.5,0.7947337951548963,-1.0208524151266163
23,8,0.25,0.7839334474249392,0.059182357869091984
23,8,0.0,0.7803940213994294,0.41312496042007485
24,0,1.0,0.807387365937265,0.0
24,0,0.75,0.8107261962785252,-0.3338830341260146
24,0,0.5,0.7916942827793179,1.5693083157947152
24,0,0.25,0.785094613005209,2.2292752932056015
24,0,0.0,0.771890121194497,3.5497244742768053
24,1,1.0,0.807387365937265,0.0
24,1,0.75,0.8121259170815259,-0.47385511442609163
24,1,0.5,0.8114058945346244,-0.40185285973594054
24,1,0.25,0.8044673493594467,0.2920016577818263
24,1,0.0,0.8042459272572254,0.31414386800395766
24,2,1.0,0.807387365937265,0.0
24,2,0.75,0.8160360152327661,-0.8648649295501132
24,2,0.5,0.8119299948534802,-0.45426289162151523
24,2,0.25,0.7984382537264305,0.8949112210834498
24,2,0.0,0.7841231134303693,2.3264252506895677
24,3,1.0,0.807387365937265,0.0
24,3,0.75,0.8276144617762189,-2.022709583895388
24,3,0.5,0.8195760356162114,-1.2188669678946384
24,3,0.25,0.8278082117270146,-2.0420845789749564
24,3,0.0,0.8040217797231346,0.33655862141304116
24,4,1.0,0.807387365937265,0.0
24,4,0.75,0.794092755680304,1.3294610256960993
24,4,0.5,0.761697871237345,4.568949469992001
24,4,0.25,0.7141244039421788,9.326296199508622
24,4,0.0,0.7299758981822355,7.7411467755029495
24,5,1.0,0.807387365937265,0.0
24,5,0.75,0.7593501155409411,4.80372503963239
24,5,0.5,0.7372561403754732,7.0131225561791855
24,5,0.25,0.7514576142345176,5.592975170274739
24,5,0.0,0.7572496547158397,5.013771122142529
24,6,1.0,0.807387365937265,0.0
24,6,0.75,0.8123615416102308,-0.4974175672965764
24,6,0.5,0.8119216762664815,-0.4534310329216473
24,6,0.25,0.7985213911851788,0.886597475208617
24,6,0.0,0.791833102894738,1.555426304252705
24,7,1.0,0.807387365937265,0.0
24,7,0.75,0.8128252061243569,-0.5437840187091925
24,7,0.5,0.7977142878430491,0.9673078094215914
24,7,0.25,0.7698715591717185,3.7515806765546555
24,7,0.0,0.7268416656349093,8.054570030235574
24,8,1.0,0.807387365937265,0.0
24,8,0.75,0.8048945946537819,0.24927712834831306
24,8,0.5,0.79030754964519,1.7079816292075
24,8,0.25,0.7655263392718028,4.186102666546221
24,8,0.0,0.741505134234586,6.588223170267904
25,0,1.0,0.8707749055878058,0.0
25,0,0.75,0.86904781927278,0.17270863150258275
25,0,0.5,0.8596853336886043,1.1089571899201456
25,0,0.25,0.8674288009156037,0.3346104672202088
25,0,0.0,0.861122832111568,0.9652073476237755
25,1,1.0,0.8707749055878058,0.0
25,1,0.75,0.875057287417373,-0.42823818295671945
25,1,0.5,0.8716796634610224,-0.09047578732166439
25,1,0.25,0.8704359951310612,0.03389104567446122
25,1,0.0,0.8623181595292579,0.8456746058547848
25,2,1.0,0.8707749055878058,0.0
25,2,0.75,0.8730165778469158,-0.22416722591099836
25,2,0.5,0.8692513572058096,0.1523548381996198
25,2,0.25,0.8646204652149914,0.6154440372814429
25,2,0.0,0.861158658248178,0.9616247339627737
25,3,1.0,0.8707749055878058,0.0
25,3,0.75,0.8608831395446942,0.9891766043111594
25,3,0.5,0.8664358443142149,0.43390612735908496
25,3,0.25,0.8531143272655384,1.7660578322267417
25,3,0.0,0.8412702823426598,2.950462324514602
25,4,1.0,0.8707749055878058,0.0
25,4,0.75,0.8692958934776797,0.14790121101261322
25,4,0.5,0.8666982944815527,0.4076611106253125
25,4,0.25,0.8793542859428978,-0.8579380355091981
25,4,0.0,0.8672245621639278,0.3550343423877944
25,5,1.0,0.8707749055878058,0.0
25,5,0.75,0.8489220296543142,2.185287593349161
25,5,0.5,0.8565412434147335,1.4233662173072315
25,5,0.25,0.8676139655972761,0.31609399905296875
25,5,0.0,0.8661708386020535,0.4604066985752331
25,6,1.0,0.8707749055878058,0.0
25,6,0.75,0.8736625614705338,-0.2887655882727991
25,6,0.5,0.8873480654910008,-1.6573159903194967
25,6,0.25,0.8896186783800215,-1.8843772792215718
25,6,0.0,0.8858726828888002,-1.5097777300994375
25,7,1.0,0.8707749055878058,0.0
25,7,0.75,0.8640944231379184,0.6680482449887393
25,7,0.5,0.8598010863591758,1.0973819228629944
25,7,0.25,0.8468528947620512,2.3922010825754625
25,7,0.0,0.8297176058336697,4.105729975413608
25,8,1.0,0.8707749055878058,0.0
25,8,0.75,0.8766814708817456,-0.5906565293939847
25,8,0.5,0.8838906496979673,-1.3115744110161476
25,8,0.25,0.8859271411501696,-1.515223556236378
25,8,0.0,0.8761559172842746,-0.5381011696468763
26,0,1.0,0.8017942539878896,0.0
26,0,0.75,0.7930306909107913,0.8763563077098357
26,0,0.5,0.7849727385598746,1.6821515428015021
26,0,0.25,0.7828525106795747,1.8941743308314885
26,0,0.0,0.7668140829481846,3.4980171039704966
26,1,1.0,0.8017942539878896,0.0
26,1,0.75,0.8014017591333141,0.039249485457548694
26,1,0.5,0.8066525208120945,-0.4858266824204871
26,1,0.25,0.8059491241851345,-0.415487019724492
26,1,0.0,0.7973837612619709,0.44104927259187576
26,2,1.0,0.8017942539878896,0.0
26,2,0.75,0.8042797279507865,-0.24854739628968892
26,2,0.5,0.7981422959958557,0.3651957992033883
26,2,0.25,0.7891760842781674,1.2618169709722182
26,2,0.0,0.7731197601249955,2.8674493862894113
26,3,1.0,0.8017942539878896,0.0
26,3,0.75,0.7853632773794557,1.6430976608433956
26,3,0.5,0.7953687455895752,0.6425508398314461
26,3,0.25,0.8059035526832393,-0.41092986953497057
26,3,0.0,0.7911243526808451,1.0669901307044483
26,4,1.0,0.8017942539878896,0.0
26,4,0.75,0.7919231379284154,0.9871116059474216
26,4,0.5,0.7815231603087205,2.0271093679169128
26,4,0.25,0.7832308956798475,1.8563358308042122
26,4,0.0,0.7737777653818982,2.8016488605991374
26,5,1.0,0.8017942539878896,0.0
26,5,0.75,0.7620298297299476,3.976442425794202
26,5,0.5,0.7463726214802255,5.542163250766407
26,5,0.25,0.7557331403008682,4.6061113687021376
26,5,0.0,0.764340325792736,3.7453928195153585
26,6,1.0,0.8017942539878896,0.0
26,6,0.75,0.8018801266325929,-0.00858726447032776
26,6,0.5,0.7997392066127242,0.20550473751653753
26,6,0.25,0.7965171107903739,0.527714319751571
26,6,0.0,0.7893100793931775,1.2484174594712072
26,7,1.0,0.8017942539878896,0.0
26,7,0.75,0.8089389703042513,-0.714471631636171
26,7,0.5,0.80425761464295,-0.24633606550603648
26,7,0.25,0.7875530154174131,1.4241238570476544
26,7,0.0,0.7677225366396584,3.4071717348231223
26,8,1.0,0.8017942539878896,0.0
26,8,0.75,0.7915529241864204,1.024132980146919
26,8,0.5,0.7934497255124606,0.8344528475428992
26,8,0.25,0.7908550353074866,1.093921868040304
26,8,0.0,0.7738661293785227,2.792812460936689
27,0,1.0,0.9026314709352034,0.0
27,0,0.75,0.9028396121412776,-0.02081412060742638
27,0,0.5,0.9023903834802314,0.02410874549719777
27,0,0.25,0.8977739590034058,0.4857511931797509
27,0,0.0,0.891291709674132,1.133976126107139
27,1,1.0,0.9026314709352034,0.0
27,1,0.75,0.8921401236002567,1.049134733494661
27,1,0.5,0.8956299458504772,0.7001525084726179
27,1,0.25,0.8994304820689885,0.32009888662148933
27,1,0.0,0.9013899547610913,0.12415161741120562
27,2,1.0,0.9026314709352034,0.0
27,2,0.75,0.8970494611087669,0.5582009826436418
27,2,0.5,0.8940779650343105,0.8553505900892877
27,2,0.25,0.8813536585689636,2.1277812366239712
27,2,0.0,0.8639945594735923,3.863691146161108
27,3,1.0,0.9026314709352034,0.0
27,3,0.75,0.9060193791670255,-0.3387908231822112
27,3,0.5,0.9001573964670812,0.24740744681222004
27,3,0.25,0.8931432922071274,0.9488178728075947
27,3,0.0,0.8577143496276317,4.491712130757164
27,4,1.0,0.9026314709352034,0.0
27,4,0.75,0.8923534084594782,1.0278062475725158
27,4,0.5,0.882301191803867,2.0330279131336337
27,4,0.25,0.870388400552335,3.2243070382868333
27,4,0.0,0.8765540246399947,2.6077446295208695
27,5,1.0,0.9026314709352034,0.0
27,5,0.75,0.8907341150439466,1.1897355891256733
27,5,0.5,0.8770790411232391,2.555242981196426
27,5,0.25,0.876395444414867,2.6236026520336297
27,5,0.0,0.8755462666506502,2.708520428455319
27,6,1.0,0.9026314709352034,0.0
27,6,0.75,0.9004224634994331,0.22090074357702383
27,6,0.5,0.8993836302715534,0.32478406636499146
27,6,0.25,0.8939931651593144,0.8638305775888977
27,6,0.0,0.9044672628786627,-0.18357919434593972
27,7,1.0,0.9026314709352034,0.0
27,7,0.75,0.8976900052518741,0.4941465683329205
27,7,0.5,0.8869723181339465,1.5659152801256848
27,7,0.25,0.8735873941280263,2.904407680717702
27,7,0.0,0.8723405107768083,3.0290960158395053
27,8,1.0,0.9026314709352034,0.0
27,8,0.75,0.9018440326385744,0.07874382966289728
27,8,0.5,0.8938824047430302,0.8749066192173194
27,8,0.25,0.8930540708409684,0.9577400094234911
27,8,0.0,0.8822087843747173,2.042268656048607
28,0,1.0,0.844454863307728,0.0
28,0,0.75,0.8609408614671087,-1.6485998159380677
28,0,0.5,0.8806926351434493,-3.62377718357213
28,0,0.25,0.8754146095013227,-3.095974619359465
28,0,0.0,0.8580112744173605,-1.355641110963246
28,1,1.0,0.844454863307728,0.0
28,1,0.75,0.8520670156407462,-0.7612152333018152
28,1,0.5,0.8538767737107682,-0.942191040304019
28,1,0.25,0.8515949169153157,-0.7140053607587737
28,1,0.0,0.8372752540662138,0.7179609241514173
28,2,1.0,0.844454863307728,0.0
28,2,0.75,0.8389205185940865,0.5534344713641559
28,2,0.5,0.8422162006895687,0.2238662618159304
28,2,0.25,0.8406745488586662,0.37803144490617946
28,2,0.0,0.8404314046790184,0.4023458628709564
28,3,1.0,0.844454863307728,0.0
28,3,0.75,0.8564753532406384,-1.2020489932910383
28,3,0.5,0.8531293060608168,-0.8674442753088818
28,3,0.25,0.8363957194602797,0.8059143847448325
28,3,0.0,0.8086416427966581,3.5813220511069943
28,4,1.0,0.844454863307728,0.0
28,4,0.75,0.8262735564434676,1.818130686426045
28,4,0.5,0.8041652757455144,4.028958756221357
28,4,0.25,0.8126765037436257,3.1778359564102354
28,4,0.0,0.8399457349227569,0.4509128384971084
28,5,1.0,0.844454863307728,0.0
28,5,0.75,0.724909016706224,11.954584660150402
28,5,0.5,0.6983162795982331,14.613858370949496
28,5,0.25,0.6995264899786424,14.49283733290856
28,5,0.0,0.6952257423043529,14.922912100337516
28,6,1.0,0.844454863307728,0.0
28,6,0.75,0.8472118034002311,-0.27569400925030463
28,6,0.5,0.8493999706022343,-0.4945107294506257
28,6,0.25,0.8397179029338355,0.4736960373892485
28,6,0.0,0.8386220347011871,0.5832828606540885
28,7,1.0,0.844454863307728,0.0
28,7,0.75,0.8410061737886191,0.34486895191089273
28,7,0.5,0.835228909536931,0.9225953770797046
28,7,0.25,0.8139064096579316,3.0548453649796414
28,7,0.0,0.81204097083824,3.2413892469488004
28,8,1.0,0.844454863307728,0.0
28,8,0.75,0.8488586483577807,-0.44037850500526776
28,8,0.5,0.8390290476480841,0.5425815659643951
28,8,0.25,0.8374998143196672,0.6955048988060764
28,8,0.0,0.805817297030401,3.8637566277327062
29,0,1.0,0.8430959906064086,0.0
29,0,0.75,0.8535822866709558,-1.0486296064547207
29,0,0.5,0.8535943890028137,-1.0498398396405095
29,0,0.25,0.8433240552895009,-0.022806468309233274
29,0,0.0,0.8463077119710555,-0.3211721364646869
29,1,1.0,0.8430959906064086,0.0
29,1,0.75,0.8561303634907689,-1.3034372884360268
29,1,0.5,0.8538001615684685,-1.070417096205989
29,1,0.25,0.8508341869929319,-0.7738196386523288
29,1,0.0,0.8457041027951471,-0.2608112188738465
29,2,1.0,0.8430959906064086,0.0
29,2,0.75,0.8462786803265842,-0.31826897201755466
29,2,0.5,0.8384239723235042,0.4672018282904422
29,2,0.25,0.8386757666277961,0.4420223978612525
29,2,0.0,0.8328729953634989,1.0222995242909705
29,3,1.0,0.8430959906064086,0.0
29,3,0.75,0.8465889125057277,-0.3492921899319046
29,3,0.5,0.8467741840060308,-0.3678193399622165
29,3,0.25,0.8268952252253131,1.6200765381095494
29,3,0.0,0.8214315492224242,2.166444138398438
29,4,1.0,0.8430959906064086,0.0
29,4,0.75,0.8292936320742262,1.3802358532182368
29,4,0.5,0.8140802882594375,2.901570234697115
29,4,0.25,0.8050865669117948,3.8009423694613798
29,4,0.0,0.815749206768812,2.734678383759659
29,5,1.0,0.8430959906064086,0.0
29,5,0.75,0.8403042152074701,0.27917753989384897
29,5,0.5,0.8340449862871449,0.9051004319263756
29,5,0.25,0.8311774649712806,1.1918525635127963
29,5,0.0,0.8302560750588417,1.2839915547566916
29,6,1.0,0.8430959906064086,0.0
29,6,0.75,0.8465102381594366,-0.34142475530279937
29,6,0.5,0.8510182259241982,-0.7922235317789572
29,6,0.25,0.8582531595683867,-1.5157168961978051
29,6,0.0,0.8611521134123652,-1.8056122805956587
29,7,1.0,0.8430959906064086,0.0
29,7,0.75,0.8448511482955678,-0.1755157689159237
29,7,0.5,0.8457009846423615,-0.26049940359529344
29,7,0.25,0.8474452278322098,-0.43492372258011613
29,7,0.0,0.8457875921380053,-0.26916015315966435
29,8,1.0,0.8430959906064086,0.0
29,8,0.75,0.8447933191623979,-0.16973285559892526
29,8,0.5,0.8347870708057986,0.8308919800609993
29,8,0.25,0.8284320456450444,1.466394496136425
29,8,0.0,0.8051639182516025,3.7932072354806112
30,0,1.0,0.8076824516033299,0.0
30,0,0.75,0.8188019429469902,-1.1119491343660304
30,0,0.5,0.8159007964008194,-0.8218344797489507
30,0,0.25,0.8276496214346857,-1.9967169831355824
30,0,0.0,0.8386364825167081,-3.0954030913378228
30,1,1.0,0.8076824516033299,0.0
30,1,0.75,0.8066618177834163,0.10206338199135745
30,1,0.5,0.7989684057025074,0.8714045900822476
30,1,0.25,0.8118275276937933,-0.414507609046344
30,1,0.0,0.7960920535920536,1.159039801127626
30,2,1.0,0.8076824516033299,0.0
30,2,0.75,0.8203887920435045,-1.2706340440174602
30,2,0.5,0.8214480360117058,-1.3765584408375942
30,2,0.25,0.8357816062507404,-2.809915464741053
30,2,0.0,0.8436011904761905,-3.591873887286068
30,3,1.0,0.8076824516033299,0.0
30,3,0.75,0.8068924004344952,0.07900511688346823
30,3,0.5,0.8069772420509045,0.07052095524253676
30,3,0.25,0.8031211641570584,0.4561287446271489
30,3,0.0,0.7882503293807642,1.9432122222565629
30,4,1.0,0.8076824516033299,0.0
30,4,0.75,0.8088710751840987,-0.11886235807688772
30,4,0.5,0.8087776222318674,-0.10951706285375895
30,4,0.25,0.7963262393778507,1.1356212225479112
30,4,0.0,0.7899268662971877,1.7755585306142185
30,5,1.0,0.8076824516033299,0.0
30,5,0.75,0.8076824516033299,0.0
30,5,0.5,0.801162306688649,0.6520144914680892
30,5,0.25,0.7905201301740434,1.716232142928642
30,5,0.0,0.7837456862504556,2.3936765352874256
30,6,1.0,0.8076824516033299,0.0
30,6,0.75,0.8111750371276824,-0.34925855243524984
30,6,0.5,0.8140249427232874,-0.634249111995755
30,6,0.25,0.8354527901078463,-2.777033850451649
30,6,0.0,0.8316040689500077,-2.392161734667786
30,7,1.0,0.8076824516033299,0.0
30,7,0.75,0.8144107678645075,-0.6728316261177647
30,7,0.5,0.8168019877916142,-0.9119536188284316
30,7,0.25,0.7938356621078801,1.3846789495449707
30,7,0.0,0.793956018599137,1.372643300419285
30,8,1.0,0.8076824516033299,0.0
30,8,0.75,0.8222923408142592,-1.4609889210929317
30,8,0.5,0.825645875695528,-1.79634240921982
30,8,0.25,0.8238734905895905,-1.619103898626062
30,8,0.0,0.8223428760499093,-1.4660424446579445
31,0,1.0,0.8039012070242475,0.0
31,0,0.75,0.7985139142681036,0.5387292756143913
31,0,0.5,0.7971025790653735,0.6798627958873982
31,0,0.25,0.7827021747253163,2.1199032298931164
31,0,0.0,0.7795564436391149,2.4344763385132584
31,1,1.0,0.8039012070242475,0.0
31,1,0.75,0.7978249045350221,0.6076302489225416
31,1,0.5,0.7916641151413315,1.2237091882915996
31,1,0.25,0.7892117380318199,1.4689468992427623
31,1,0.0,0.7776836932964982,2.6217513727749275
31,2,1.0,0.8039012070242475,0.0
31,2,0.75,0.8020728866029958,0.18283204212516946
31,2,0.5,0.7968932268757131,0.7007980148534432
31,2,0.25,0.784924570850866,1.8976636173381523
31,2,0.0,0.7748233284843061,2.907787853994137
31,3,1.0,0.8039012070242475,0.0
31,3,0.75,0.7991097680157767,0.4791439008470788
31,3,0.5,0.8093997356467738,-0.5498528622526311
31,3,0.25,0.8059484245333656,-0.2047217509118071
31,3,0.0,0.7987066007494695,0.5194606274777969
31,4,1.0,0.8039012070242475,0.0
31,4,0.75,0.8199295051360856,-1.6028298111838146
31,4,0.5,0.800165142802751,0.3736064221496527
31,4,0.25,0.7823396643776466,2.156154264660093
31,4,0.0,0.8000139939332526,0.38872130909949343
31,5,1.0,0.8039012070242475,0.0
31,5,0.75,0.7903783491157623,1.3522857908485175
31,5,0.5,0.7851716307717155,1.872957625253202
31,5,0.25,0.7883715460664438,1.5529660957803726
31,5,0.0,0.7857038428773221,1.819736414692541
31,6,1.0,0.8039012070242475,0.0
31,6,0.75,0.800031717884225,0.38694891400224973
31,6,0.5,0.8017290369996238,0.21721700246236653
31,6,0.25,0.7888553488158414,1.5045858208406093
31,6,0.0,0.7836754388842747,2.022576813997279
31,7,1.0,0.8039012070242475,0.0
31,7,0.75,0.7869065107196369,1.699469630461059
31,7,0.5,0.7812568541873922,2.2644352836855286
31,7,0.25,0.7449036985257091,5.899750849853835
31,7,0.0,0.7224872796288084,8.141392739543907
31,8,1.0,0.8039012070242475,0.0
31,8,0.75,0.8004331614530267,0.34680455712208236
31,8,0.5,0.7822987400366531,2.160246698759438
31,8,0.25,0.769881421847352,3.4019785176895523
31,8,0.0,0.7485838628444261,5.531734417982137
32,0,1.0,0.8477028163891163,0.0
32,0,0.75,0.8500201455541476,-0.23173291650313566
32,0,0.5,0.834882744540659,1.2820071848457237
32,0,0.25,0.8340022383994319,1.3700577989684382
32,0,0.0,0.8313647688948672,1.6338047494249053
32,1,1.0,0.8477028163891163,0.0
32,1,0.75,0.8424887553559054,0.521406103321087
32,1,0.5,0.8362129449750358,1.1489871414080421
32,1,0.25,0.8285234302462308,1.9179386142885502
32,1,0.0,0.8152246148269706,3.2478201562145648
32,2,1.0,0.8477028163891163,0.0
32,2,0.75,0.8443029813013325,0.33998350877837424
32,2,0.5,0.8300421230206662,1.7660693368450109
32,2,0.25,0.8092952258587891,3.8407590530327163
32,2,0.0,0.8079343876281653,3.976842876095099
32,3,1.0,0.8477028163891163,0.0
32,3,0.75,0.8491647035914052,-0.1461887202288903
32,3,0.5,0.8402356053359881,0.7467211053128198
32,3,0.25,0.8298206102892176,1.7882206099898657
32,3,0.0,0.8146874785100051,3.301533787911115
32,4,1.0,0.8477028163891163,0.0
32,4,0.75,0.823849487185058,2.385332920405825
32,4,0.5,0.8331548975049423,1.454791888417395
32,4,0.25,0.8295752924210233,1.8127523968092918
32,4,0.0,0.8413123010452519,0.6390515343864367
32,5,1.0,0.8477028163891163,0.0
32,5,0.75,0.8324367525245335,1.5266063864582735
32,5,0.5,0.8301431821180094,1.755963427110685
32,5,0.25,0.8273812523039872,2.0321564085129085
32,5,0.0,0.8453776363823092,0.23251800068070372
32,6,1.0,0.8477028163891163,0.0
32,6,0.75,0.8449159398219248,0.2786876567191454
32,6,0.5,0.8443292544586516,0.33735619304646747
32,6,0.25,0.8400872945633131,0.7615521825803162
32,6,0.0,0.8390248624172918,0.867795397182447
32,7,1.0,0.8477028163891163,0.0
32,7,0.75,0.8484365493727555,-0.07337329836392126
32,7,0.5,0.8380544798582905,0.9648336530825752
32,7,0.25,0.8216992435986279,2.600357279048837
32,7,0.0,0.7734870898358989,7.421572655321739
32,8,1.0,0.8477028163891163,0.0
32,8,0.75,0.860278691896339,-1.2575875507222722
32,8,0.5,0.8717078048965159,-2.4004988507399627
32,8,0.25,0.8667902882894571,-1.908747190034088
32,8,0.0,0.8634851082903359,-1.5782291901219603
33,0,1.0,0.8937456470103164,0.0
33,0,0.75,0.8963410321868424,-0.25953851765259106
33,0,0.5,0.8842352348530331,0.9510412157283321
33,0,0.25,0.8729293595789178,2.081628743139863
33,0,0.0,0.8629403684633176,3.080527854699888
33,1,1.0,0.8937456470103164,0.0
33,1,0.75,0.8990498483766816,-0.5304201366365113
33,1,0.5,0.90280372010038,-0.9058073090063568
33,1,0.25,0.8916635659055433,0.2082081104773148
33,1,0.0,0.8741026832914187,1.9642963718897732
33,2,1.0,0.8937456470103164,0.0
33,2,0.75,0.8870612832351008,0.668436377521564
33,2,0.5,0.8870612832351008,0.668436377521564
33,2,0.25,0.8808739098827473,1.2871737127569172
33,2,0.0,0.8694973859783679,2.424826103194855
33,3,1.0,0.8937456470103164,0.0
33,3,0.75,0.8984027500290075,-0.46571030186910445
33,3,0.5,0.8931268351291284,0.061881188118806385
33,3,0.25,0.8809554917843686,1.2790155225947841
33,3,0.0,0.8627018194258167,3.104382758449975
33,4,1.0,0.8937456470103164,0.0
33,4,0.75,0.902766291700338,-0.9020644690021506
33,4,0.5,0.9053525172776321,-1.160687026731566
33,4,0.25,0.9039124881826054,-1.0166841172288943
33,4,0.0,0.9038104679133492,-1.0064820903032734
33,5,1.0,0.8937456470103164,0.0
33,5,0.75,0.9060739143436378,-1.2328267333321374
33,5,0.5,0.897697353566897,-0.3951706556580503
33,5,0.25,0.9039013636168107,-1.015571660649428
33,5,0.0,0.9006181152550929,-0.6872468244776497
33,6,1.0,0.8937456470103164,0.0
33,6,0.75,0.8968606524707238,-0.31150054604073274
33,6,0.5,0.8878925069431571,0.5853140067159313
33,6,0.25,0.8817097193193113,1.2035927691005144
33,6,0.0,0.8875860875709097,0.6159559439406714
33,7,1.0,0.8937456470103164,0.0
33,7,0.75,0.896388577536999,-0.26429305266825187
33,7,0.5,0.8838655910133634,0.9880055996953074
33,7,0.25,0.8768556459019915,1.6890001108324948
33,7,0.0,0.8697661026260834,2.3979544384233
33,8,1.0,0.8937456470103164,0.0
33,8,0.75,0.8915804138633433,0.21652331469731445
33,8,0.5,0.8924916287352405,0.12540182750759854
33,8,0.25,0.8930713036252469,0.06743433850695535
33,8,0.0,0.8849185469974511,0.8827100012865352
34,0,1.0,0.9023247786301327,0.0
34,0,0.75,0.9117448179511091,-0.9420039320976348
34,0,0.5,0.9192322443681139,-1.6907465737981187
34,0,0.25,0.9048578904822926,-0.2533111852159875
34,0,0.0,0.8918726112597347,1.0452167370398002
34,1,1.0,0.9023247786301327,0.0
34,1,0.75,0.9083104855566242,-0.5985706926491474
34,1,0.5,0.9042616218255748,-0.19368431954420728
34,1,0.25,0.9039852404966089,-0.16604618664761706
34,1,0.0,0.9029823126071372,-0.06575339770045208
34,2,1.0,0.9023247786301327,0.0
34,2,0.75,0.9084868312946849,-0.6162052664552164
34,2,0.5,0.9113213074801589,-0.899652885002622
34,2,0.25,0.9153626428216592,-1.3037864191526527
34,2,0.0,0.9179488989271598,-1.5624120297027089
34,3,1.0,0.9023247786301327,0.0
34,3,0.75,0.8957272809628214,0.6597497667311325
34,3,0.5,0.8943713866061038,0.7953392024028894
34,3,0.25,0.8864851104761153,1.5839668154017383
34,3,0.0,0.886608684447516,1.5716094182616769
34,4,1.0,0.9023247786301327,0.0
34,4,0.75,0.9002808239910718,0.20439546390609298
34,4,0.5,0.893010440847813,0.9314337782319715
34,4,0.25,0.8892971463490329,1.3027632281099821
34,4,0.0,0.8894155100928931,1.2909268537239615
34,5,1.0,0.9023247786301327,0.0
34,5,0.75,0.8952876156579861,0.7037162972146627
34,5,0.5,0.8894535729401405,1.2871205689992227
34,5,0.25,0.8891040268888283,1.3220751741304437
34,5,0.0,0.8905817355215909,1.1743043108541795
34,6,1.0,0.9023247786301327,0.0
34,6,0.75,0.9006078802650779,0.1716898365054842
34,6,0.5,0.8966855821537518,0.5639196476380892
34,6,0.25,0.9024627460208337,-0.013796739070093267
34,6,0.0,0.9040665713265549,-0.1741792696422162
34,7,1.0,0.9023247786301327,0.0
34,7,0.75,0.8995597953268897,0.27649833032430404
34,7,0.5,0.8753504247014663,2.697435392866643
34,7,0.25,0.870306145378597,3.2018633251535755
34,7,0.0,0.8833427335421419,1.898204508799084
34,8,1.0,0.9023247786301327,0.0
34,8,0.75,0.902476383085087,-0.015160445495432384
34,8,0.5,0.8996003813129204,0.27243973172123015
34,8,0.25,0.8942061963141855,0.8118582315947198
34,8,0.0,0.876591457315997,2.573332131413575
35,0,1.0,0.6930601470503048,0.0
35,0,0.75,0.7004789606177784,-0.7418813567473537
35,0,0.5,0.6930433567113564,0.0016790338948413641
35,0,0.25,0.6784949983211601,1.4565148729144717
35,0,0.0,0.6620934690434724,3.0966678006832393
35,1,1.0,0.6930601470503048,0.0
35,1,0.75,0.6969592473005443,-0.3899100250239429
35,1,0.5,0.6841468943463211,0.8913252703983687
35,1,0.25,0.6862886104843816,0.677153656592322
35,1,0.0,0.6876260370308052,0.5434110019499672
35,2,1.0,0.6930601470503048,0.0
35,2,0.75,0.6949073018604265,-0.1847154810121654
35,2,0.5,0.6948724124286252,-0.18122653783203546
35,2,0.25,0.6864468389320251,0.6613308118279759
35,2,0.0,0.6726360767673805,2.0424070282924367
35,3,1.0,0.6930601470503048,0.0
35,3,0.75,0.6825088062622309,1.055134078807396
35,3,0.5,0.685849662972436,0.721048407786884
35,3,0.25,0.687384892280816,0.5675254769488824
35,3,0.0,0.6848650583713324,0.8195088678972451
35,4,1.0,0.6930601470503048,0.0
35,4,0.75,0.6861957683621464,0.6864378688158479
35,4,0.5,0.6946994574697811,-0.1639310419476292
35,4,0.25,0.6977144079901502,-0.4654260939845334
35,4,0.0,0.6939692346842341,-0.0909087633929273
35,5,1.0,0.6930601470503048,0.0
35,5,0.75,0.6947793215339754,-0.1719174483670538
35,5,0.5,0.6816666750275727,1.139347202273211
35,5,0.25,0.6681834137723268,2.4876733277978014
35,5,0.0,0.6706303283667921,2.242981868351268
35,6,1.0,0.6930601470503048,0.0
35,6,0.75,0.6925793266459126,0.048082040439223483
35,6,0.5,0.6849858023136799,0.8074344736624939
35,6,0.25,0.6884012213163294,0.46589257339754164
35,6,0.0,0.6908145498148157,0.22455972354891163
35,7,1.0,0.6930601470503048,0.0
35,7,0.75,0.7009558792999648,-0.7895732249660004
35,7,0.5,0.6952059601174745,-0.21458130671696551
35,7,0.25,0.7014651462145273,-0.8404999164222438
35,7,0.0,0.6889464372700154,0.4113709780289465
35,8,1.0,0.6930601470503048,0.0
35,8,0.75,0.6963247373576639,-0.3264590307359039
35,8,0.5,0.6996744677620899,-0.6614320711785027
35,8,0.25,0.7018045708905977,-0.8744423840292836
35,8,0.0,0.6974828570213496,-0.4422709971044769
36,0,1.0,0.7836336966672193,0.0
36,0,0.75,0.7789221346586884,0.4711562008530845
36,0,0.5,0.7703589569337123,1.3274739733507013
36,0,0.25,0.7760977932462741,0.7535903420945123
36,0,0.0,0.7750477760586263,0.8585920608592978
36,1,1.0,0.7836336966672193,0.0
36,1,0.75,0.7727470384395262,1.088665822769308
36,1,0.5,0.76554227267474,1.8091423992479316
36,1,0.25,0.7702467788595746,1.3386917807644672
36,1,0.0,0.7563435055535329,2.7290191113686357
36,2,1.0,0.7836336966672193,0.0
36,2,0.75,0.772645809268615,1.0987887398604235
36,2,0.5,0.7604438754383137,2.318982122890556
36,2,0.25,0.7480516420720744,3.558205459514485
36,2,0.0,0.7414988068500843,4.213488981713498
36,3,1.0,0.7836336966672193,0.0
36,3,0.75,0.7750961988683687,0.8537497798850602
36,3,0.5,0.7820736076939081,0.1560088973311169
36,3,0.25,0.7680680548693914,1.5565641797827823
36,3,0.0,0.7561420114292635,2.7491685237955754
36,4,1.0,0.7836336966672193,0.0
36,4,0.75,0.8053334311712145,-2.1699734503995205
36,4,0.5,0.7978681984499097,-1.4234501782690478
36,4,0.25,0.8114155705082386,-2.7781873841019378
36,4,0.0,0.7928201220040852,-0.9186425336865978
36,5,1.0,0.7836336966672193,0.0
36,5,0.75,0.8072600155175985,-2.3626318850379247
36,5,0.5,0.8186570758493279,-3.5023379182108627
36,5,0.25,0.8236104060247564,-3.9976709357537166
36,5,0.0,0.8105467639103054,-2.6913067243086175
36,6,1.0,0.7836336966672193,0.0
36,6,0.75,0.7851303794759332,-0.1496682808713956
36,6,0.5,0.7847814246777978,-0.1147728010578497
36,6,0.25,0.770311715375995,1.3321981291224305
36,6,0.0,0.7581626155271015,2.5471081140117757
36,7,1.0,0.7836336966672193,0.0
36,7,0.75,0.7879003913513254,-0.42666946841061204
36,7,0.5,0.7811117917651185,0.2521904902100802
36,7,0.25,0.760671733733626,2.2961962933593316
36,7,0.0,0.7334284631514637,5.020523351575557
36,8,1.0,0.7836336966672193,0.0
36,8,0.75,0.7695369233535243,1.4096773313694966
36,8,0.5,0.7463547589143544,3.727893775286484
36,8,0.25,0.7343637603140648,4.926993635315446
36,8,0.0,0.7322551598768556,5.137853679036364
37,0,1.0,0.872399916240496,0.0
37,0,0.75,0.8667582143795683,0.5641701860927606
37,0,0.5,0.8695932087236435,0.28067075168524136
37,0,0.25,0.8649074969553693,0.7492419285126672
37,0,0.0,0.859192256313658,1.3207659926837922
37,1,1.0,0.872399916240496,0.0
37,1,0.75,0.874138983596192,-0.17390673556960667
37,1,0.5,0.8740275659188098,-0.16276496783138583
37,1,0.25,0.8632220509858777,0.9177865254618278
37,1,0.0,0.8689255998703462,0.34743163701497215
37,2,1.0,0.872399916240496,0.0
37,2,0.75,0.8778704568487571,-0.5470540608261132
37,2,0.5,0.8635609171862524,0.8838999054243568
37,2,0.25,0.8480156516060771,2.4384264634418895
37,2,0.0,0.8442486323545829,2.8151283885913037
37,3,1.0,0.872399916240496,0.0
37,3,0.75,0.8695459858708423,0.28539303696536455
37,3,0.5,0.8619302763074886,1.0469639933007313
37,3,0.25,0.8643708613958201,0.8029054844675865
37,3,0.0,0.8492649610476593,2.3134955192836704
37,4,1.0,0.872399916240496,0.0
37,4,0.75,0.8795510178750118,-0.7151101634515822
37,4,0.5,0.8819564524710268,-0.9556536230530877
37,4,0.25,0.8572724742697734,1.5127441970722577
37,4,0.0,0.8793531490350159,-0.6953232794519981
37,5,1.0,0.872399916240496,0.0
37,5,0.75,0.8729285888146808,-0.05286725741848741
37,5,0.5,0.8758057642396603,-0.3405847999164324
37,5,0.25,0.8607875310203469,1.1612385220149068
37,5,0.0,0.8649673672274669,0.7432549013029033
37,6,1.0,0.872399916240496,0.0
37,6,0.75,0.8694571148802582,0.29428013602377234
37,6,0.5,0.8694571148802582,0.29428013602377234
37,6,0.25,0.8632490445447397,0.9150871695756235
37,6,0.0,0.8567903148693933,1.5609601371102677
37,7,1.0,0.872399916240496,0.0
37,7,0.75,0.8468415518149278,2.5558364425568136
37,7,0.5,0.8234300909233083,4.896982531718763
37,7,0.25,0.812633684288785,5.9766231951710935
37,7,0.0,0.8077410659775751,6.465885026292084
37,8,1.0,0.872399916240496,0.0
37,8,0.75,0.8636277992694543,0.8772116971041632
37,8,0.5,0.8607916082369171,1.1608308003578816
37,8,0.25,0.8634538687737017,0.8946047466794282
37,8,0.0,0.8656530391547779,0.6746877085718084
38,0,1.0,0.8332445705302995,0.0
38,0,0.75,0.8257497540393037,0.7494816490995815
38,0,0.5,0.8159155638017623,1.732900672853721
38,0,0.25,0.8135239509071787,1.9720619623120883
38,0,0.0,0.8033414071510958,2.9903163379203734
38,1,1.0,0.8332445705302995,0.0
38,1,0.75,0.8280608794450046,0.5183691085294928
38,1,0.5,0.8231114281150196,1.013314241527996
38,1,0.25,0.822778122541707,1.046644798859253
38,1,0.0,0.823480885644936,0.9763684885363499
38,2,1.0,0.8332445705302995,0.0
38,2,0.75,0.8391558993124337,-0.5911328782134184
38,2,0.5,0.8433423617899425,-1.009779125964294
38,2,0.25,0.8359255373541716,-0.26809668238720885
38,2,0.0,0.8396194391759453,-0.6374868645645737
38,3,1.0,0.8332445705302995,0.0
38,3,0.75,0.8404203633909204,-0.7175792860620867
38,3,0.5,0.8625759774325463,-2.933140690224678
38,3,0.25,0.8671057415351298,-3.3861171004830215
38,3,0.0,0.8340231590066463,-0.07785884763467088
38,4,1.0,0.8332445705302995,0.0
38,4,0.75,0.8213664133639716,1.1878157166327896
38,4,0.5,0.8199235275213276,1.3321043008971967
38,4,0.25,0.83417726906385,-0.09326985335504911
38,4,0.0,0.8260559907006895,0.7188579829610076
38,5,1.0,0.8332445705302995,0.0
38,5,0.75,0.8151028107436002,1.8141759786699296
38,5,0.5,0.8031047151900232,3.01398553402763
38,5,0.25,0.8036616195694224,2.9582950960877152
38,5,0.0,0.8094709741660516,2.3773596364247918
38,6,1.0,0.8332445705302995,0.0
38,6,0.75,0.8340037286114718,-0.07591580811722176
38,6,0.5,0.8390992614623393,-0.5854690932039719
38,6,0.25,0.8347959254853585,-0.1551354955058981
38,6,0.0,0.8256105604950403,0.7634010035259209
38,7,1.0,0.8332445705302995,0.0
38,7,0.75,0.8380050031269544,-0.4760432596654818
38,7,0.5,0.8413095247355535,-0.8064954205253994
38,7,0.25,0.8324660913067045,0.07784792235950855
38,7,0.0,0.8173084397916612,1.593613073863831
38,8,1.0,0.8332445705302995,0.0
38,8,0.75,0.8347916714739521,-0.1547100943652513
38,8,0.5,0.8434036571620703,-1.0159086631770786
38,8,0.25,0.8405624775446457,-0.7317907014346203
38,8,0.0,0.8446528250423487,-1.1408254512049187
39,0,1.0,0.8438130020788679,0.0
39,0,0.75,0.8275666144890054,1.624638758986252
39,0,0.5,0.8175041157324623,2.63088863464056
39,0,0.25,0.8042696026158553,3.954339946301255
39,0,0.0,0.7936570367681131,5.0155965310754835
39,1,1.0,0.8438130020788679,0.0
39,1,0.75,0.8461083858977483,-0.2295383818880392
39,1,0.5,0.8312628417891577,1.2550160289710233
39,1,0.25,0.8313322105079308,1.2480791570937066
39,1,0.0,0.83564364826813,0.8169353810737912
39,2,1.0,0.8438130020788679,0.0
39,2,0.75,0.8372648964754228,0.6548105603445098
39,2,0.5,0.8438171678898989,-0.0004165811031020539
39,2,0.25,0.8342570443274961,0.9555957751371746
39,2,0.0,0.8424068851813006,0.1406116897567311
39,3,1.0,0.8438130020788679,0.0
39,3,0.75,0.8393892883185694,0.44237137602984866
39,3,0.5,0.8110460639605844,3.276693811828346
39,3,0.25,0.7739407480140239,6.987225406484399
39,3,0.0,0.7342409756695472,10.957202640932074
39,4,1.0,0.8438130020788679,0.0
39,4,0.75,0.8249944894328782,1.881851264598966
39,4,0.5,0.8210827978814637,2.2730204197404236
39,4,0.25,0.8043475426260697,3.9465459452798224
39,4,0.0,0.7853087957478649,5.8504206331002955
39,5,1.0,0.8438130020788679,0.0
39,5,0.75,0.8348705216352275,0.8942480443640433
39,5,0.5,0.8229747326228598,2.0838269456008085
39,5,0.25,0.820114966048401,2.369803603046694
39,5,0.0,0.8158432549821083,2.796974709675959
39,6,1.0,0.8438130020788679,0.0
39,6,0.75,0.8481247090262762,-0.43117069474083447
39,6,0.5,0.8491831904051005,-0.5370188326232594
39,6,0.25,0.8553507690411504,-1.153776696228248
39,6,0.0,0.8625139551611565,-1.8700953082288585
39,7,1.0,0.8438130020788679,0.0
39,7,0.75,0.8415425109504056,0.22704911284623375
39,7,0.5,0.8308026624512737,1.3010339627594236
39,7,0.25,0.8339530491351981,0.9859952943669814
39,7,0.0,0.8462099133793614,-0.2396911300493465
39,8,1.0,0.8438130020788679,0.0
39,8,0.75,0.8552106366130756,-1.1397634534207723
39,8,0.5,0.8658464265420123,-2.203342446314438
39,8,0.25,0.8528904420856653,-0.9077440006797444
39,8,0.0,0.8562893009275481,-1.2476298848680178
40,0,1.0,0.8232284939625936,0.0
40,0,0.75,0.8118653259189932,1.136316804360038
40,0,0.5,0.7995404886881063,2.3688005274487223
40,0,0.25,0.7845183390104791,3.8710154952114495
40,0,0.0,0.7611232222483177,6.210527171427582
40,1,1.0,0.8232284939625936,0.0
40,1,0.75,0.8075051420992074,1.5723351863386137
40,1,0.5,0.7973323060290427,2.5896187933550863
40,1,0.25,0.7794002411135084,4.38282528490852
40,1,0.0,0.7740032847513381,4.9225209211255505
40,2,1.0,0.8232284939625936,0.0
40,2,0.75,0.8259964933028465,-0.2767999340252958
40,2,0.5,0.8526869817233824,-2.9458487760788854
40,2,0.25,0.8422332946848585,-1.9004800722264958
40,2,0.0,0.8319886973323634,-0.8760203369769792
40,3,1.0,0.8232284939625936,0.0
40,3,0.75,0.8170123727795199,0.6216121183073686
40,3,0.5,0.8120425945566748,1.1185899405918742
40,3,0.25,0.7876368087093075,3.5591685253286043
40,3,0.0,0.792293482269469,3.0935011693124514
40,4,1.0,0.8232284939625936,0.0
40,4,0.75,0.821871304483433,0.13571894791605255
40,4,0.5,0.8218910819690977,0.13374119934959072
40,4,0.25,0.8018242282421539,2.140426572043963
40,4,0.0,0.8107384349777547,1.2490058984838903
40,5,1.0,0.8232284939625936,0.0
40,5,0.75,0.8294585787692694,-0.6230084806675862
40,5,0.5,0.8268223935098757,-0.35938995472821755
40,5,0.25,0.8196034722606621,0.36250217019314634
40,5,0.0,0.803823539338447,1.9404954624146598
40,6,1.0,0.8232284939625936,0.0
40,6,0.75,0.8252150537113533,-0.19865597487597197
40,6,0.5,0.8323970368787458,-0.9168542916152211
40,6,0.25,0.8265047923994266,-0.32762984368330805
40,6,0.0,0.8134760985694562,0.9752395393137325
40,7,1.0,0.8232284939625936,0.0
40,7,0.75,0.8089700465338181,1.4258447428775467
40,7,0.5,0.8060639858077878,1.7164508154805747
40,7,0.25,0.8039189559284048,1.9309538034188778
40,7,0.0,0.7707890248433165,5.2439469119277105
40,8,1.0,0.8232284939625936,0.0
40,8,0.75,0.8370474808952298,-1.381898693263628
40,8,0.5,0.8330348283400962,-0.9806334377502668
40,8,0.25,0.8183724102697885,0.4856083692805102
40,8,0.0,0.8024099104698202,2.0818583492773324
