subject,channel,f1_full,f1_occluded,drop_pp
1,0,0.6305833698309361,0.6187658002719407,1.1817569558995378
1,1,0.6305833698309361,0.6283716702865817,0.22116995443544063
1,2,0.6305833698309361,0.6393405242583613,-0.8757154427425196
1,3,0.6305833698309361,0.5992820312627076,3.1301338568228476
1,4,0.6305833698309361,0.6549110278237569,-2.4327657992820773
1,5,0.6305833698309361,0.5844945338898827,4.60888359410534
1,6,0.6305833698309361,0.6933905192526464,-6.280714942171029
1,7,0.6305833698309361,0.5597362672680325,7.084710256290361
1,8,0.6305833698309361,0.6087214977725776,2.1861872058358545
2,0,0.9072585532408579,0.8809852838884384,2.627326935241947
2,1,0.9072585532408579,0.8653548915046155,4.190366173624238
2,2,0.9072585532408579,0.8753202799573768,3.193827328348109
2,3,0.9072585532408579,0.8828741219974292,2.4384431243428706
2,4,0.9072585532408579,0.907549331986806,-0.029077874594807263
2,5,0.9072585532408579,0.8729501833849661,3.4308369855891807
2,6,0.9072585532408579,0.8839083976558718,2.33501555849861
2,7,0.9072585532408579,0.8571145459865963,5.01440072542616
2,8,0.9072585532408579,0.8977972382572115,0.946131498364644
3,0,0.8914916982105365,0.8882112632112632,0.32804349992733295
3,1,0.8914916982105365,0.8877558989064955,0.37357993040409987
3,2,0.8914916982105365,0.8915469451183737,-0.00552469078372031
3,3,0.8914916982105365,0.7751353044774096,11.635639373312689
3,4,0.8914916982105365,0.8971693068337714,-0.5677608623234853
3,5,0.8914916982105365,0.8890639592244983,0.24277389860382081
3,6,0.8914916982105365,0.8990637060222442,-0.7572007811707637
3,7,0.8914916982105365,0.8794339186790654,1.2057779531471136
3,8,0.8914916982105365,0.9043114192718943,-1.2819721061357758
4,0,0.8427732982852041,0.8249298887882714,1.7843409496932638
4,1,0.8427732982852041,0.7572617688181976,8.551152946700647
4,2,0.8427732982852041,0.8364370845195183,0.6336213765685828
4,3,0.8427732982852041,0.8829228584202438,-4.0149560135039675
4,4,0.8427732982852041,0.8965474268573637,-5.377412857215957
4,5,0.8427732982852041,0.8442681351798939,-0.1494836894689766
4,6,0.8427732982852041,0.8845401035443409,-4.176680525913678
4,7,0.8427732982852041,0.8369728768651513,0.580042142005277
4,8,0.8427732982852041,0.8460125596404261,-0.3239261355222012
5,0,0.6540041186284148,0.6366213598550896,1.738275877332518
5,1,0.6540041186284148,0.6675246144795736,-1.3520495851158776
5,2,0.6540041186284148,0.6583344302023484,-0.43303115739335984
5,3,0.6540041186284148,0.7030910346100722,-4.9086915981657375
5,4,0.6540041186284148,0.626403561759709,2.7600556868705772
5,5,0.6540041186284148,0.6242930248808493,2.971109374756553
5,6,0.6540041186284148,0.6509936841474792,0.3010434480935631
5,7,0.6540041186284148,0.6543094481886023,-0.03053295601874728
5,8,0.6540041186284148,0.650019313694097,0.3984804934317743
6,0,0.7566321594028842,0.7440027467745284,1.2629412628355818
6,1,0.7566321594028842,0.7399087450607686,1.672341434211555
6,2,0.7566321594028842,0.7796499810553661,-2.3017821652481896
6,3,0.7566321594028842,0.7840215565382179,-2.7389397135333726
6,4,0.7566321594028842,0.7438944131285662,1.2737746274318007
6,5,0.7566321594028842,0.7510135609156452,0.5618598487239002
6,6,0.7566321594028842,0.7726068067269594,-1.5974647324075164
6,7,0.7566321594028842,0.6804572586644626,7.617490073842159
6,8,0.7566321594028842,0.7038536495610112,5.277850984187305
7,0,0.7889899005396471,0.760714522546419,2.82753779932281
7,1,0.7889899005396471,0.758674920543196,3.0314979996451163
7,2,0.7889899005396471,0.7358080465418358,5.318185399781128
7,3,0.7889899005396471,0.7608828224158605,2.8107078123786655
7,4,0.7889899005396471,0.7729396164093527,1.6050284130294412
7,5,0.7889899005396471,0.8273038321083119,-3.8313931568664805
7,6,0.7889899005396471,0.7617221456878244,2.7267754851822756
7,7,0.7889899005396471,0.7390046825997256,4.9985217939921505
7,8,0.7889899005396471,0.7713896635934351,1.7600236946212044
8,0,0.8492415342545689,0.8496088473781563,-0.03673131235873983
8,1,0.8492415342545689,0.8381012373041625,1.1140296950406414
8,2,0.8492415342545689,0.8611381041430128,-1.1896569888443898
8,3,0.8492415342545689,0.830528639108482,1.8712895146086983
8,4,0.8492415342545689,0.8081129626274604,4.112857162710859
8,5,0.8492415342545689,0.8178047638728845,3.1436770381684465
8,6,0.8492415342545689,0.8351003084141994,1.4141225840369587
8,7,0.8492415342545689,0.7936535072129247,5.558802704164423
8,8,0.8492415342545689,0.8367817418158379,1.2459792438731077
9,0,0.7960082817810936,0.7895138283879124,0.6494453393181221
9,1,0.7960082817810936,0.7656195944752366,3.0388687305856976
9,2,0.7960082817810936,0.7915564096280163,0.44518721530772964
9,3,0.7960082817810936,0.8063539158353399,-1.0345634054246267
9,4,0.7960082817810936,0.8099247745121134,-1.3916492731019803
9,5,0.7960082817810936,0.8183056077516107,-2.2297325970517035
9,6,0.7960082817810936,0.7636729559469074,3.233532583418619
9,7,0.7960082817810936,0.7684355827727817,2.757269900831194
9,8,0.7960082817810936,0.7910130324432432,0.4995249337850449
10,0,0.7366724738675957,0.6718624736394634,6.481000022813232
10,1,0.7366724738675957,0.7353871112944753,0.12853625731203966
10,2,0.7366724738675957,0.7043946577615933,3.2277816106002444
10,3,0.7366724738675957,0.7054973297483661,3.1175144119229614
10,4,0.7366724738675957,0.7081982467318195,2.8474227135776187
10,5,0.7366724738675957,0.7377081104812597,-0.1035636613664015
10,6,0.7366724738675957,0.7694648673545341,-3.279239348693841
10,7,0.7366724738675957,0.708532763057015,2.8139710810580754
10,8,0.7366724738675957,0.781366998218086,-4.469452435049027
11,0,0.9096863647787246,0.9117886915549113,-0.21023267761867137
11,1,0.9096863647787246,0.9016379788032461,0.8048385975478412
11,2,0.9096863647787246,0.8743051007789158,3.5381263999808787
11,3,0.9096863647787246,0.8775378883734412,3.21484764052834
11,4,0.9096863647787246,0.8654775859303472,4.420877884837737
11,5,0.9096863647787246,0.8831016538048644,2.658471097386017
11,6,0.9096863647787246,0.9208280462645816,-1.1141681485857036
11,7,0.9096863647787246,0.8937881426730667,1.5898222105657833
11,8,0.9096863647787246,0.9123456512827999,-0.265928650407532
12,0,0.8869901776162057,0.9064498766716889,-1.945969905548317
12,1,0.8869901776162057,0.8741073008131747,1.2882876803031018
12,2,0.8869901776162057,0.9056428365071997,-1.865265889099399
12,3,0.8869901776162057,0.835972629423765,5.101754819244064
12,4,0.8869901776162057,0.8759468902304361,1.104328738576954
12,5,0.8869901776162057,0.8942958844883886,-0.7305706872182904
12,6,0.8869901776162057,0.9051403726092819,-1.815019499307624
12,7,0.8869901776162057,0.8844298670168265,0.2560310599379223
12,8,0.8869901776162057,0.9017730646871686,-1.478288707096287
13,0,0.9376669282861652,0.9235539835281398,1.411294475802538
13,1,0.9376669282861652,0.9293852705820903,0.8281657704074852
13,2,0.9376669282861652,0.9070418173247777,3.0625110961387425
13,3,0.9376669282861652,0.9051131989650946,3.255372932107059
13,4,0.9376669282861652,0.9188776294257242,1.8789298860441006
13,5,0.9376669282861652,0.9076513663413526,3.0015561944812585
13,6,0.9376669282861652,0.9303790239214837,0.7287904364681408
13,7,0.9376669282861652,0.920465746075039,1.720118221112621
13,8,0.9376669282861652,0.9116053920568119,2.6061536229353255
14,0,0.8472273731130233,0.8379117045168009,0.931566859622246
14,1,0.8472273731130233,0.812072135105843,3.5155238007180345
14,2,0.8472273731130233,0.85111918361344,-0.3891810500416648
14,3,0.8472273731130233,0.7564869891769668,9.074038393605655
14,4,0.8472273731130233,0.8560713721235444,-0.8843999010521131
14,5,0.8472273731130233,0.8335445335360537,1.3682839576969585
14,6,0.8472273731130233,0.8279849538535317,1.924241925949166
14,7,0.8472273731130233,0.7942953693983779,5.293200371464546
14,8,0.8472273731130233,0.8119100344779937,3.5317338635029616
15,0,0.9300108011646473,0.8869967624220205,4.301403874262677
15,1,0.9300108011646473,0.911913562896961,1.8097238267686278
15,2,0.9300108011646473,0.8701754728496514,5.983532831499594
15,3,0.9300108011646473,0.898242392402654,3.176840876199327
15,4,0.9300108011646473,0.9451911128103121,-1.5180311645664801
15,5,0.9300108011646473,0.9356216959875792,-0.5610894822931867
15,6,0.9300108011646473,0.9096097698627048,2.0401031301942485
15,7,0.9300108011646473,0.9116971934071966,1.8313607757450723
15,8,0.9300108011646473,0.9295622654172838,0.04485357473634766
16,0,0.8016188495363985,0.7794554083911369,2.2163441145261586
16,1,0.8016188495363985,0.8122590946403973,-1.0640245103998747
16,2,0.8016188495363985,0.8073852262444157,-0.5766376708017162
16,3,0.8016188495363985,0.8034892315427228,-0.18703820063242782
16,4,0.8016188495363985,0.7837917724515663,1.7827077084832221
16,5,0.8016188495363985,0.7765993111950419,2.5019538341356617
16,6,0.8016188495363985,0.8153227103034137,-1.3703860767015241
16,7,0.8016188495363985,0.7453257033992154,5.629314613718305
16,8,0.8016188495363985,0.7934518129441986,0.8167036592199861
17,0,0.8306991366961605,0.8444164471440774,-1.3717310447916908
17,1,0.8306991366961605,0.8528142473292121,-2.2115110633051605
17,2,0.8306991366961605,0.8310567010309279,-0.03575643347674129
17,3,0.8306991366961605,0.8037951288346414,2.690400786151903
17,4,0.8306991366961605,0.8686487095502166,-3.794957285405609
17,5,0.8306991366961605,0.8076095797510763,2.308955694508419
17,6,0.8306991366961605,0.846864435340551,-1.6165298644390536
17,7,0.8306991366961605,0.8194159842174369,1.128315247872358
17,8,0.8306991366961605,0.814819379645247,1.587975705091349
18,0,0.870101485020494,0.8563684642329025,1.3733020787591532
18,1,0.870101485020494,0.8675252348792192,0.25762501412748273
18,2,0.870101485020494,0.8792657047617851,-0.9164219741291113
18,3,0.870101485020494,0.7719067567034585,9.819472831703546
18,4,0.870101485020494,0.8732400990401048,-0.3138614019610797
18,5,0.870101485020494,0.8742072197982647,-0.4105734777770653
18,6,0.870101485020494,0.8882295707200405,-1.8128085699546492
18,7,0.870101485020494,0.8384998764126363,3.1601608607857656
18,8,0.870101485020494,0.8715710808753365,-0.14695958548425203
19,0,0.815174106410435,0.7903149607201458,2.485914569028913
19,1,0.815174106410435,0.7937753195581362,2.139878685229879
19,2,0.815174106410435,0.7927878421662428,2.238626424419221
19,3,0.815174106410435,0.7637051419216272,5.146896448880778
19,4,0.815174106410435,0.7859658679397334,2.920823847070153
19,5,0.815174106410435,0.7814532006789792,3.372090573145581
19,6,0.815174106410435,0.8059568637470079,0.921724266342705
19,7,0.815174106410435,0.7865280138409148,2.864609256952022
19,8,0.815174106410435,0.7898723499637303,2.5301756446704626
20,0,0.8062819315129113,0.8007684275044835,0.5513504008427761
20,1,0.8062819315129113,0.7872333837270723,1.9048547785838976
20,2,0.8062819315129113,0.780935099467341,2.534683204557031
20,3,0.8062819315129113,0.8220188417327023,-1.5736910219791067
20,4,0.8062819315129113,0.7871995344313589,1.908239708155235
20,5,0.8062819315129113,0.8032515814424104,0.3030350070500898
20,6,0.8062819315129113,0.8172667204215557,-1.0984788908644405
20,7,0.8062819315129113,0.8065217432840841,-0.023981177117282648
20,8,0.8062819315129113,0.7361675550096024,7.011437650330887
21,0,0.8730085219146831,0.8184628864123048,5.454563550237834
21,1,0.8730085219146831,0.865632167657492,0.7376354257191187
21,2,0.8730085219146831,0.847800330531887,2.5208191382796175
21,3,0.8730085219146831,0.8191496623717687,5.385885954291448
21,4,0.8730085219146831,0.855147128104298,1.7861393810385096
21,5,0.8730085219146831,0.8868739143846748,-1.3865392469991633
21,6,0.8730085219146831,0.8504785638114324,2.252995810325076
21,7,0.8730085219146831,0.8368436100027106,3.6164911911972575
21,8,0.8730085219146831,0.8285173390774196,4.449118283726349
22,0,0.823116213489727,0.7819297356345474,4.118647785517959
22,1,0.823116213489727,0.8273594544881495,-0.42432409984225483
22,2,0.823116213489727,0.8219594441537537,0.11567693359733067
22,3,0.823116213489727,0.7960177488671227,2.7098464622604235
22,4,0.823116213489727,0.8107096948306048,1.2406518659122123
22,5,0.823116213489727,0.8342441685472737,-1.1127955057546712
22,6,0.823116213489727,0.792902455010487,3.0213758479240016
22,7,0.823116213489727,0.7275137455615741,9.560246792815285
22,8,0.823116213489727,0.7927117879691756,3.0404425520551337
23,0,0.7845252710036301,0.7460370677569567,3.848820324667346
23,1,0.7845252710036301,0.7927731802915898,-0.8247909287959709
23,2,0.7845252710036301,0.8395339686426432,-5.500869763901306
23,3,0.7845252710036301,0.7489599167171916,3.5565354286438478
23,4,0.7845252710036301,0.7434212066626111,4.110406434101899
23,5,0.7845252710036301,0.7595740418199033,2.495122918372683
23,6,0.7845252710036301,0.7666515234467394,1.7873747556890751
23,7,0.7845252710036301,0.7886758613011748,-0.41505902975447206
23,8,0.7845252710036301,0.7803940213994294,0.41312496042007485
24,0,0.807387365937265,0.771890121194497,3.5497244742768053
24,1,0.807387365937265,0.8042459272572254,0.31414386800395766
24,2,0.807387365937265,0.7841231134303693,2.3264252506895677
24,3,0.807387365937265,0.8040217797231346,0.33655862141304116
24,4,0.807387365937265,0.7299758981822355,7.7411467755029495
24,5,0.807387365937265,0.7572496547158397,5.013771122142529
24,6,0.807387365937265,0.791833102894738,1.555426304252705
24,7,0.807387365937265,0.7268416656349093,8.054570030235574
24,8,0.807387365937265,0.741505134234586,6.588223170267904
25,0,0.8707749055878058,0.861122832111568,0.9652073476237755
25,1,0.8707749055878058,0.8623181595292579,0.8456746058547848
25,2,0.8707749055878058,0.861158658248178,0.9616247339627737
25,3,0.8707749055878058,0.8412702823426598,2.950462324514602
25,4,0.8707749055878058,0.8672245621639278,0.3550343423877944
25,5,0.8707749055878058,0.8661708386020535,0.4604066985752331
25,6,0.8707749055878058,0.8858726828888002,-1.5097777300994375
25,7,0.8707749055878058,0.8297176058336697,4.105729975413608
25,8,0.8707749055878058,0.8761559172842746,-0.5381011696468763
26,0,0.8017942539878896,0.7668140829481846,3.4980171039704966
26,1,0.8017942539878896,0.7973837612619709,0.44104927259187576
26,2,0.8017942539878896,0.7731197601249955,2.8674493862894113
26,3,0.8017942539878896,0.7911243526808451,1.0669901307044483
26,4,0.8017942539878896,0.7737777653818982,2.8016488605991374
26,5,0.8017942539878896,0.764340325792736,3.7453928195153585
26,6,0.8017942539878896,0.7893100793931775,1.2484174594712072
26,7,0.8017942539878896,0.7677225366396584,3.4071717348231223
26,8,0.8017942539878896,0.7738661293785227,2.792812460936689
27,0,0.9026314709352034,0.891291709674132,1.133976126107139
27,1,0.9026314709352034,0.9013899547610913,0.12415161741120562
27,2,0.9026314709352034,0.8639945594735923,3.863691146161108
27,3,0.9026314709352034,0.8577143496276317,4.491712130757164
27,4,0.9026314709352034,0.8765540246399947,2.6077446295208695
27,5,0.9026314709352034,0.8755462666506502,2.708520428455319
27,6,0.9026314709352034,0.9044672628786627,-0.18357919434593972
27,7,0.9026314709352034,0.8723405107768083,3.0290960158395053
27,8,0.9026314709352034,0.8822087843747173,2.042268656048607
28,0,0.844454863307728,0.8580112744173605,-1.355641110963246
28,1,0.844454863307728,0.8372752540662138,0.7179609241514173
28,2,0.844454863307728,0.8404314046790184,0.4023458628709564
28,3,0.844454863307728,0.8086416427966581,3.5813220511069943
28,4,0.844454863307728,0.8399457349227569,0.4509128384971084
28,5,0.844454863307728,0.6952257423043529,14.922912100337516
28,6,0.844454863307728,0.8386220347011871,0.5832828606540885
28,7,0.844454863307728,0.81204097083824,3.2413892469488004
28,8,0.844454863307728,0.805817297030401,3.8637566277327062
29,0,0.8430959906064086,0.8463077119710555,-0.3211721364646869
29,1,0.8430959906064086,0.8457041027951471,-0.2608112188738465
29,2,0.8430959906064086,0.8328729953634989,1.0222995242909705
29,3,0.8430959906064086,0.8214315492224242,2.166444138398438
29,4,0.8430959906064086,0.815749206768812,2.734678383759659
29,5,0.8430959906064086,0.8302560750588417,1.2839915547566916
29,6,0.8430959906064086,0.8611521134123652,-1.8056122805956587
29,7,0.8430959906064086,0.8457875921380053,-0.26916015315966435
29,8,0.8430959906064086,0.8051639182516025,3.7932072354806112
30,0,0.8076824516033299,0.8386364825167081,-3.0954030913378228
30,1,0.8076824516033299,0.7960920535920536,1.159039801127626
30,2,0.8076824516033299,0.8436011904761905,-3.591873887286068
30,3,0.8076824516033299,0.7882503293807642,1.9432122222565629
30,4,0.8076824516033299,0.7899268662971877,1.7755585306142185
30,5,0.8076824516033299,0.7837456862504556,2.3936765352874256
30,6,0.8076824516033299,0.8316040689500077,-2.392161734667786
30,7,0.8076824516033299,0.793956018599137,1.372643300419285
30,8,0.8076824516033299,0.8223428760499093,-1.4660424446579445
31,0,0.8039012070242475,0.7795564436391149,2.4344763385132584
31,1,0.8039012070242475,0.7776836932964982,2.6217513727749275
31,2,0.8039012070242475,0.7748233284843061,2.907787853994137
31,3,0.8039012070242475,0.7987066007494695,0.5194606274777969
31,4,0.8039012070242475,0.8000139939332526,0.38872130909949343
31,5,0.8039012070242475,0.7857038428773221,1.819736414692541
31,6,0.8039012070242475,0.7836754388842747,2.022576813997279
31,7,0.8039012070242475,0.7224872796288084,8.141392739543907
31,8,0.8039012070242475,0.7485838628444261,5.531734417982137
32,0,0.8477028163891163,0.8313647688948672,1.6338047494249053
32,1,0.8477028163891163,0.8152246148269706,3.2478201562145648
32,2,0.8477028163891163,0.8079343876281653,3.976842876095099
32,3,0.8477028163891163,0.8146874785100051,3.301533787911115
32,4,0.8477028163891163,0.8413123010452519,0.6390515343864367
32,5,0.8477028163891163,0.8453776363823092,0.23251800068070372
32,6,0.8477028163891163,0.8390248624172918,0.867795397182447
32,7,0.8477028163891163,0.7734870898358989,7.421572655321739
32,8,0.8477028163891163,0.8634851082903359,-1.5782291901219603
33,0,0.8937456470103164,0.8629403684633176,3.080527854699888
33,1,0.8937456470103164,0.8741026832914187,1.9642963718897732
33,2,0.8937456470103164,0.8694973859783679,2.424826103194855
33,3,0.8937456470103164,0.8627018194258167,3.104382758449975
33,4,0.8937456470103164,0.9038104679133492,-1.0064820903032734
33,5,0.8937456470103164,0.9006181152550929,-0.6872468244776497
33,6,0.8937456470103164,0.8875860875709097,0.6159559439406714
33,7,0.8937456470103164,0.8697661026260834,2.3979544384233
33,8,0.8937456470103164,0.8849185469974511,0.8827100012865352
34,0,0.9023247786301327,0.8918726112597347,1.0452167370398002
34,1,0.9023247786301327,0.9029823126071372,-0.06575339770045208
34,2,0.9023247786301327,0.9179488989271598,-1.5624120297027089
34,3,0.9023247786301327,0.886608684447516,1.5716094182616769
34,4,0.9023247786301327,0.8894155100928931,1.2909268537239615
34,5,0.9023247786301327,0.8905817355215909,1.1743043108541795
34,6,0.9023247786301327,0.9040665713265549,-0.1741792696422162
34,7,0.9023247786301327,0.8833427335421419,1.898204508799084
34,8,0.9023247786301327,0.876591457315997,2.573332131413575
35,0,0.6930601470503048,0.6620934690434724,3.0966678006832393
35,1,0.6930601470503048,0.6876260370308052,0.5434110019499672
35,2,0.6930601470503048,0.6726360767673805,2.0424070282924367
35,3,0.6930601470503048,0.6848650583713324,0.8195088678972451
35,4,0.6930601470503048,0.6939692346842341,-0.0909087633929273
35,5,0.6930601470503048,0.6706303283667921,2.242981868351268
35,6,0.6930601470503048,0.6908145498148157,0.22455972354891163
35,7,0.6930601470503048,0.6889464372700154,0.4113709780289465
35,8,0.6930601470503048,0.6974828570213496,-0.4422709971044769
36,0,0.7836336966672193,0.7750477760586263,0.8585920608592978
36,1,0.7836336966672193,0.7563435055535329,2.7290191113686357
36,2,0.7836336966672193,0.7414988068500843,4.213488981713498
36,3,0.7836336966672193,0.7561420114292635,2.7491685237955754
36,4,0.7836336966672193,0.7928201220040852,-0.9186425336865978
36,5,0.7836336966672193,0.8105467639103054,-2.6913067243086175
36,6,0.7836336966672193,0.7581626155271015,2.5471081140117757
36,7,0.7836336966672193,0.7334284631514637,5.020523351575557
36,8,0.7836336966672193,0.7322551598768556,5.137853679036364
37,0,0.872399916240496,0.859192256313658,1.3207659926837922
37,1,0.872399916240496,0.8689255998703462,0.34743163701497215
37,2,0.872399916240496,0.8442486323545829,2.8151283885913037
37,3,0.872399916240496,0.8492649610476593,2.3134955192836704
37,4,0.872399916240496,0.8793531490350159,-0.6953232794519981
37,5,0.872399916240496,0.8649673672274669,0.7432549013029033
37,6,0.872399916240496,0.8567903148693933,1.5609601371102677
37,7,0.872399916240496,0.8077410659775751,6.465885026292084
37,8,0.872399916240496,0.8656530391547779,0.6746877085718084
38,0,0.8332445705302995,0.8033414071510958,2.9903163379203734
38,1,0.8332445705302995,0.823480885644936,0.9763684885363499
38,2,0.8332445705302995,0.8396194391759453,-0.6374868645645737
38,3,0.8332445705302995,0.8340231590066463,-0.07785884763467088
38,4,0.8332445705302995,0.8260559907006895,0.7188579829610076
38,5,0.8332445705302995,0.8094709741660516,2.3773596364247918
38,6,0.8332445705302995,0.8256105604950403,0.7634010035259209
38,7,0.8332445705302995,0.8173084397916612,1.593613073863831
38,8,0.8332445705302995,0.8446528250423487,-1.1408254512049187
39,0,0.8438130020788679,0.7936570367681131,5.0155965310754835
39,1,0.8438130020788679,0.83564364826813,0.8169353810737912
39,2,0.8438130020788679,0.8424068851813006,0.1406116897567311
39,3,0.8438130020788679,0.7342409756695472,10.957202640932074
39,4,0.8438130020788679,0.7853087957478649,5.8504206331002955
39,5,0.8438130020788679,0.8158432549821083,2.796974709675959
39,6,0.8438130020788679,0.8625139551611565,-1.8700953082288585
39,7,0.8438130020788679,0.8462099133793614,-0.2396911300493465
39,8,0.8438130020788679,0.8562893009275481,-1.2476298848680178
40,0,0.8232284939625936,0.7611232222483177,6.210527171427582
40,1,0.8232284939625936,0.7740032847513381,4.9225209211255505
40,2,0.8232284939625936,0.8319886973323634,-0.8760203369769792
40,3,0.8232284939625936,0.792293482269469,3.0935011693124514
40,4,0.8232284939625936,0.8107384349777547,1.2490058984838903
40,5,0.8232284939625936,0.803823539338447,1.9404954624146598
40,6,0.8232284939625936,0.8134760985694562,0.9752395393137325
40,7,0.8232284939625936,0.7707890248433165,5.2439469119277105
40,8,0.8232284939625936,0.8024099104698202,2.0818583492773324
