subject,channel,alpha,f1,drop_pp
1,0,1.0,0.681202376381949,0.0
1,0,0.75,0.6791865726695676,0.20158037123814143
1,0,0.5,0.6709030820507058,1.0299294331243214
1,0,0.25,0.6601507472019944,2.1051629179954623
1,0,0.0,0.651731692818604,2.9470683563345035
1,1,1.0,0.681202376381949,0.0
1,1,0.75,0.6826291458284148,-0.14267694464658032
1,1,0.5,0.684258009746301,-0.3055633364351995
1,1,0.25,0.6851135820181731,-0.39112056362240466
1,1,0.0,0.6885616366890597,-0.7359260307110649
1,2,1.0,0.681202376381949,0.0
1,2,0.75,0.6934012672213313,-1.2198890839382304
1,2,0.5,0.709884493790515,-2.8682117408565966
1,2,0.25,0.7167010037305084,-3.5498627348559353
1,2,0.0,0.7023430280673629,-2.1140651685413903
1,3,1.0,0.681202376381949,0.0
1,3,0.75,0.6768671996631973,0.4335176718751721
1,3,0.5,0.6729217133245184,0.8280663057430582
1,3,0.25,0.6554423317764497,2.57600446054993
1,3,0.0,0.6499309945338452,3.127138184810385
1,4,1.0,0.681202376381949,0.0
1,4,0.75,0.7162316099036248,-3.502923352167575
1,4,0.5,0.7281842591239482,-4.6981882741999215
1,4,0.25,0.7348665013783967,-5.366412499644769
1,4,0.0,0.7124899586088831,-3.1287582226934063
1,5,1.0,0.681202376381949,0.0
1,5,0.75,0.6680701024759861,1.3132273905962943
1,5,0.5,0.6438590055877637,3.734337079418537
1,5,0.25,0.6568109646172887,2.439141176466031
1,5,0.0,0.6283931714793428,5.2809204902606215
1,6,1.0,0.681202376381949,0.0
1,6,0.75,0.6963201531064735,-1.5117776724524523
1,6,0.5,0.7100647135395501,-2.8862337157601115
1,6,0.25,0.7117572046600559,-3.055482827810685
1,6,0.0,0.7137910569623999,-3.2588680580450835
1,7,1.0,0.681202376381949,0.0
1,7,0.75,0.6770688344685674,0.41335419133816664
1,7,0.5,0.6680683707279117,1.3134005654037328
1,7,0.25,0.6516026964747108,2.959967990723822
1,7,0.0,0.6276233584302355,5.357901795171349
1,8,1.0,0.681202376381949,0.0
1,8,0.75,0.67452746214598,0.6674914235968998
1,8,0.5,0.6775717571335106,0.3630619248438438
1,8,0.25,0.6730877226376,0.8114653744349054
1,8,0.0,0.6731737697851254,0.8028606596823584
2,0,1.0,0.8554306923918993,0.0
2,0,0.75,0.8478429941275984,0.7587698264300835
2,0,0.5,0.8341304274711601,2.130026492073922
2,0,0.25,0.8203075413140581,3.512315107784114
2,0,0.0,0.8108485749522016,4.458211743969764
2,1,1.0,0.8554306923918993,0.0
2,1,0.75,0.8427285911048831,1.270210128701621
2,1,0.5,0.8349234992872419,2.050719310465743
2,1,0.25,0.8286477384122567,2.6782953979642588
2,1,0.0,0.8223749630286857,3.305572936321355
2,2,1.0,0.8554306923918993,0.0
2,2,0.75,0.84075484272782,1.467584966407931
2,2,0.5,0.8478572801669687,0.7573412224930576
2,2,0.25,0.8417245135906508,1.370617880124847
2,2,0.0,0.8203627007561107,3.5067991635788553
2,3,1.0,0.8554306923918993,0.0
2,3,0.75,0.8561011069813869,-0.06704145894875779
2,3,0.5,0.8386447213232624,1.6785971068636885
2,3,0.25,0.8350039036464567,2.042678874544257
2,3,0.0,0.8206105114889861,3.4820180902913167
2,4,1.0,0.8554306923918993,0.0
2,4,0.75,0.871533347366529,-1.6102654974629704
2,4,0.5,0.868064107418457,-1.2633415026557682
2,4,0.25,0.8635837527355547,-0.8153060343655372
2,4,0.0,0.8561826170833795,-0.07519246914802213
2,5,1.0,0.8554306923918993,0.0
2,5,0.75,0.8548321461072343,0.05985462846649359
2,5,0.5,0.8441740110678417,1.125668132405755
2,5,0.25,0.8288167885625668,2.6613903829332486
2,5,0.0,0.8322354909751556,2.3195201416743694
2,6,1.0,0.8554306923918993,0.0
2,6,0.75,0.8593610433979267,-0.3930351006027455
2,6,0.5,0.8558637154073185,-0.04330230154192538
2,6,0.25,0.8595644300124843,-0.41337376205849985
2,6,0.0,0.8563159584651201,-0.0885266073220814
2,7,1.0,0.8554306923918993,0.0
2,7,0.75,0.8403850181068134,1.5045674285085853
2,7,0.5,0.8216849072181069,3.374578517379234
2,7,0.25,0.8157763888935345,3.965430349836474
2,7,0.0,0.7865489612959166,6.888173109598272
2,8,1.0,0.8554306923918993,0.0
2,8,0.75,0.8416720463428944,1.3758646049004897
2,8,0.5,0.8483493130272788,0.7081379364620499
2,8,0.25,0.8464964029686232,0.893428942327612
2,8,0.0,0.8362140938175312,1.9216598574368082
3,0,1.0,0.8561362054235293,0.0
3,0,0.75,0.8657514095211893,-0.9615204097660035
3,0,0.5,0.8668135047337507,-1.0677299310221433
3,0,0.25,0.855995183508055,0.01410219154742709
3,0,0.0,0.8432873418334434,1.2848863590085857
3,1,1.0,0.8561362054235293,0.0
3,1,0.75,0.8565010280879144,-0.03648226643850894
3,1,0.5,0.8513593074446753,0.47768979788540555
3,1,0.25,0.849335816034515,0.6800389389014283
3,1,0.0,0.8311496713581132,2.4986534065416066
3,2,1.0,0.8561362054235293,0.0
3,2,0.75,0.859074557463265,-0.2938352039735692
3,2,0.5,0.8591462012114548,-0.300999578792549
3,2,0.25,0.857439213572534,-0.13030081490047474
3,2,0.0,0.8615132274362827,-0.5377022012753363
3,3,1.0,0.8561362054235293,0.0
3,3,0.75,0.852086814867288,0.4049390556241317
3,3,0.5,0.828819174155558,2.731703126797136
3,3,0.25,0.7829371704719278,7.319903495160151
3,3,0.0,0.7440015515121892,11.213465391134015
3,4,1.0,0.8561362054235293,0.0
3,4,0.75,0.8749969635391119,-1.8860758115582632
3,4,0.5,0.8674809376830647,-1.1344732259535362
3,4,0.25,0.8616400233803332,-0.550381795680388
3,4,0.0,0.8527439451223104,0.33922603012188635
3,5,1.0,0.8561362054235293,0.0
3,5,0.75,0.8751544764690029,-1.90182710454736
3,5,0.5,0.8719610612606623,-1.5824855837133
3,5,0.25,0.8788836785237528,-2.2747473100223514
3,5,0.0,0.884403873139793,-2.8267667716263656
3,6,1.0,0.8561362054235293,0.0
3,6,0.75,0.8580802357392936,-0.1944030315764289
3,6,0.5,0.8618439014946173,-0.5707696071088009
3,6,0.25,0.8586337665092018,-0.24975610856724506
3,6,0.0,0.8578068871494975,-0.16706817259681817
3,7,1.0,0.8561362054235293,0.0
3,7,0.75,0.8572603503006858,-0.11241448771565077
3,7,0.5,0.8351547451288384,2.0981460294690946
3,7,0.25,0.8245935786546172,3.1542626768912063
3,7,0.0,0.8212418772475557,3.48943281759736
3,8,1.0,0.8561362054235293,0.0
3,8,0.75,0.8595275503363738,-0.33913449128445405
3,8,0.5,0.860164832395857,-0.40286269723276424
3,8,0.25,0.8583742972815134,-0.22380918579840703
3,8,0.0,0.849194603272773,0.6941602150756343
4,0,1.0,0.8860357551153635,0.0
4,0,0.75,0.8947882032342162,-0.8752448118852674
4,0,0.5,0.893729558741601,-0.7693803626237505
4,0,0.25,0.8999416090253027,-1.3905853909939259
4,0,0.0,0.8871345878925814,-0.10988327772178952
4,1,1.0,0.8860357551153635,0.0
4,1,0.75,0.864841322043642,2.119443307172153
4,1,0.5,0.8685898252164101,1.7445929898953327
4,1,0.25,0.840100455266972,4.593529984839151
4,1,0.0,0.8204341462298683,6.5601608885495155
4,2,1.0,0.8860357551153635,0.0
4,2,0.75,0.8699222819233511,1.6113473192012395
4,2,0.5,0.8595778139727498,2.6457941142613683
4,2,0.25,0.8489019951725111,3.7133759942852396
4,2,0.0,0.8400801578132616,4.595559730210185
4,3,1.0,0.8860357551153635,0.0
4,3,0.75,0.8836153705325555,0.24203845828080217
4,3,0.5,0.8886762574281167,-0.2640502312753257
4,3,0.25,0.8913110855644599,-0.5275330449096449
4,3,0.0,0.8909088912888306,-0.4873136173467074
4,4,1.0,0.8860357551153635,0.0
4,4,0.75,0.8740252238374892,1.2010531277874326
4,4,0.5,0.8675738298385647,1.8461925276798796
4,4,0.25,0.8752841556666067,1.075159944875681
4,4,0.0,0.8836771871869578,0.23585679284057193
4,5,1.0,0.8860357551153635,0.0
4,5,0.75,0.8944592469812687,-0.8423491865905186
4,5,0.5,0.8899258027160091,-0.38900476006455964
4,5,0.25,0.8828072497936783,0.3228505321685171
4,5,0.0,0.8930735545661715,-0.7037799450808069
4,6,1.0,0.8860357551153635,0.0
4,6,0.75,0.8861966338259442,-0.01608787105806808
4,6,0.5,0.8863329064484029,-0.029715133303942487
4,6,0.25,0.883560649058051,0.24751060573124928
4,6,0.0,0.8841247089103006,0.1911046205062883
4,7,1.0,0.8860357551153635,0.0
4,7,0.75,0.8815609796550198,0.4474775460343694
4,7,0.5,0.8853908184681158,0.06449366472476292
4,7,0.25,0.88444528775135,0.15904673640134703
4,7,0.0,0.8841957053911874,0.18400497241760627
4,8,1.0,0.8860357551153635,0.0
4,8,0.75,0.8733391725243987,1.2696582590964733
4,8,0.5,0.8731761427337171,1.2859612381646346
4,8,0.25,0.8680211394610848,1.8014615654278643
4,8,0.0,0.8496250999423588,3.641065517300468
5,0,1.0,0.6153264323198588,0.0
5,0,0.75,0.624484810821373,-0.9158378501514131
5,0,0.5,0.6306221385074395,-1.5295706187580693
5,0,0.25,0.6236636315894255,-0.8337199269566664
5,0,0.0,0.6258139242576888,-1.048749193782994
5,1,1.0,0.6153264323198588,0.0
5,1,0.75,0.6192000154293948,-0.3873583109536005
5,1,0.5,0.6221679837989104,-0.6841551479051522
5,1,0.25,0.6344792252858253,-1.9152792965966503
5,1,0.0,0.6379398475440544,-2.2613415224195577
5,2,1.0,0.6153264323198588,0.0
5,2,0.75,0.6142163286907978,0.11101036290610544
5,2,0.5,0.6129482306126792,0.2378201707179617
5,2,0.25,0.6028132772470478,1.2513155072811033
5,2,0.0,0.6011215891605146,1.4204843159344227
5,3,1.0,0.6153264323198588,0.0
5,3,0.75,0.6275189832460428,-1.2192550926183987
5,3,0.5,0.6559368068158903,-4.061037449603145
5,3,0.25,0.6487632323972647,-3.3436800077405904
5,3,0.0,0.6493094390736209,-3.398300675376209
5,4,1.0,0.6153264323198588,0.0
5,4,0.75,0.6015128713317786,1.3813560988080287
5,4,0.5,0.5814854813840762,3.3840950935782654
5,4,0.25,0.5808624639241425,3.4463968395716305
5,4,0.0,0.5789858619703976,3.6340570349461254
5,5,1.0,0.6153264323198588,0.0
5,5,0.75,0.5921441768891826,2.31822554306762
5,5,0.5,0.5794760388241436,3.5850393495715283
5,5,0.25,0.5824239697750193,3.290246254483953
5,5,0.0,0.5975613999379186,1.7765032381940271
5,6,1.0,0.6153264323198588,0.0
5,6,0.75,0.6159441326758373,-0.06177003559784122
5,6,0.5,0.610726021479295,0.460041084056384
5,6,0.25,0.6103873919450992,0.49390403747596734
5,6,0.0,0.6081223466686132,0.720408565124564
5,7,1.0,0.6153264323198588,0.0
5,7,0.75,0.6158210652089664,-0.04946328891075602
5,7,0.5,0.6207444554882885,-0.5418023168429653
5,7,0.25,0.6180785792045873,-0.2752146884728468
5,7,0.0,0.6095762981794804,0.5750134140378393
5,8,1.0,0.6153264323198588,0.0
5,8,0.75,0.6156579124133937,-0.033148009353489716
5,8,0.5,0.6210200930405633,-0.569366072070443
5,8,0.25,0.6041492559027218,1.1177176417137002
5,8,0.0,0.6002817201702799,1.504471214957892
6,0,1.0,0.7759662975996338,0.0
6,0,0.75,0.7817320488717692,-0.5765751272135411
6,0,0.5,0.786128836537441,-1.0162538937807275
6,0,0.25,0.7789200450623374,-0.2953747462703604
6,0,0.0,0.7713838619918563,0.4582435607777491
6,1,1.0,0.7759662975996338,0.0
6,1,0.75,0.7687758065542196,0.7190491045414138
6,1,0.5,0.7773641419485517,-0.1397844348917987
6,1,0.25,0.7732074751554261,0.2758822444207665
6,1,0.0,0.7680716306524994,0.7894666947134366
6,2,1.0,0.7759662975996338,0.0
6,2,0.75,0.7790636778025534,-0.30973802029196085
6,2,0.5,0.7806234780724685,-0.4657180472834699
6,2,0.25,0.7903492886436482,-1.4382991044014415
6,2,0.0,0.7821034356992218,-0.6137138099588046
6,3,1.0,0.7759662975996338,0.0
6,3,0.75,0.7784314389017897,-0.24651413021559154
6,3,0.5,0.79133267912316,-1.5366381523526207
6,3,0.25,0.8140016645429936,-3.803536694335985
6,3,0.0,0.8117283494154344,-3.576205181580061
6,4,1.0,0.7759662975996338,0.0
6,4,0.75,0.7762212180379929,-0.02549204383591741
6,4,0.5,0.7637527433670841,1.2213554232549662
6,4,0.25,0.7766783582452708,-0.07120606456370027
6,4,0.0,0.7972083982612974,-2.1242100661663654
6,5,1.0,0.7759662975996338,0.0
6,5,0.75,0.7707932707555287,0.5173026844105033
6,5,0.5,0.7646196984744175,1.1346599125216295
6,5,0.25,0.7534896479765335,2.2476649623100253
6,5,0.0,0.762701211088724,1.326508651090974
6,6,1.0,0.7759662975996338,0.0
6,6,0.75,0.7760842925477072,-0.011799494807340771
6,6,0.5,0.7663129937817946,0.9653303817839132
6,6,0.25,0.7602626162846029,1.570368131503086
6,6,0.0,0.7721261900425278,0.3840107557105954
6,7,1.0,0.7759662975996338,0.0
6,7,0.75,0.7647465503544293,1.121974724520447
6,7,0.5,0.7670805449090661,0.8885752690567683
6,7,0.25,0.7529771919938941,2.2989105605739635
6,7,0.0,0.7341103413842602,4.185595621537352
6,8,1.0,0.7759662975996338,0.0
6,8,0.75,0.7719802604514258,0.3986037148207999
6,8,0.5,0.7679696930532492,0.7996604546384511
6,8,0.25,0.7700412625909328,0.5925035008701007
6,8,0.0,0.7704778810067472,0.5488416592886569
7,0,1.0,0.7767895116826817,0.0
7,0,0.75,0.7910778201421457,-1.4288308459463939
7,0,0.5,0.7969585565120701,-2.0169044829388416
7,0,0.25,0.7904527858888915,-1.366327420620972
7,0,0.0,0.7636909495195241,1.3098562163157634
7,1,1.0,0.7767895116826817,0.0
7,1,0.75,0.7738476950672152,0.29418166154665526
7,1,0.5,0.7580995758627338,1.8689935819947934
7,1,0.25,0.7536242562723083,2.3165255410373398
7,1,0.0,0.7542422727519366,2.2547238930745173
7,2,1.0,0.7767895116826817,0.0
7,2,0.75,0.7757266378840904,0.10628737985913794
7,2,0.5,0.775033396451546,0.17561152311357242
7,2,0.25,0.7651577581139938,1.1631753568687953
7,2,0.0,0.7537009660898145,2.3088545592867216
7,3,1.0,0.7767895116826817,0.0
7,3,0.75,0.7813478192929061,-0.45583076102243547
7,3,0.5,0.7937840724201257,-1.6994560737443987
7,3,0.25,0.7945730869081586,-1.778357522547691
7,3,0.0,0.7875785807771102,-1.078906909442845
7,4,1.0,0.7767895116826817,0.0
7,4,0.75,0.7645087825407517,1.2280729141930014
7,4,0.5,0.7688965235064877,0.7892988176193994
7,4,0.25,0.7450367211561242,3.175279052655755
7,4,0.0,0.7491394951172087,2.7650016565473057
7,5,1.0,0.7767895116826817,0.0
7,5,0.75,0.7811017072005015,-0.43121955178198057
7,5,0.5,0.7912414441159588,-1.4451932433277026
7,5,0.25,0.8038272563016463,-2.7037744618964576
7,5,0.0,0.8283125335692776,-5.1523021886595854
7,6,1.0,0.7767895116826817,0.0
7,6,0.75,0.7710076795454646,0.5781832137217169
7,6,0.5,0.764276529779272,1.251298190340977
7,6,0.25,0.747120848822552,2.96686628601297
7,6,0.0,0.7412442075996293,3.5545304083052454
7,7,1.0,0.7767895116826817,0.0
7,7,0.75,0.7720415303590604,0.47479813236213086
7,7,0.5,0.7686541311968624,0.8135380485819299
7,7,0.25,0.7544549416005117,2.233457008216999
7,7,0.0,0.7441788119117817,3.261069977090003
7,8,1.0,0.7767895116826817,0.0
7,8,0.75,0.7820682954250251,-0.5278783742343363
7,8,0.5,0.7455804810319799,3.1209030650701797
7,8,0.25,0.7321170245165218,4.46724871661599
7,8,0.0,0.7343181953377266,4.247131634495515
8,0,1.0,0.8454301179686707,0.0
8,0,0.75,0.8472988875790233,-0.18687696103525386
8,0,0.5,0.8414622103008629,0.39679076678078573
8,0,0.25,0.8322907038578111,1.3139414110859615
8,0,0.0,0.8206196625739162,2.481045539475457
8,1,1.0,0.8454301179686707,0.0
8,1,0.75,0.8648118156286991,-1.9381697660028396
8,1,0.5,0.8642360309989991,-1.8805913030328414
8,1,0.25,0.8692925173579742,-2.3862399389303457
8,1,0.0,0.8685450529704013,-2.3114935001730563
8,2,1.0,0.8454301179686707,0.0
8,2,0.75,0.8554249987364984,-0.9994880767827619
8,2,0.5,0.8585988241450426,-1.3168706176371892
8,2,0.25,0.8610347179687479,-1.560460000007713
8,2,0.0,0.8650436881422163,-1.9613570173545591
8,3,1.0,0.8454301179686707,0.0
8,3,0.75,0.8460236310532392,-0.05935130845684533
8,3,0.5,0.8438010112417227,0.16291067269480486
8,3,0.25,0.8346022176054123,1.0827900363258425
8,3,0.0,0.8074767990833838,3.795331888528697
8,4,1.0,0.8454301179686707,0.0
8,4,0.75,0.8486211763274749,-0.31910583588041774
8,4,0.5,0.8402755202661335,0.5154597702537234
8,4,0.25,0.8181420350582239,2.728808291044682
8,4,0.0,0.8168974484833356,2.853266948533517
8,5,1.0,0.8454301179686707,0.0
8,5,0.75,0.7982960750626421,4.713404290602863
8,5,0.5,0.755684332850082,8.974578511858876
8,5,0.25,0.7852962811051147,6.0133836863556
8,5,0.0,0.8073535810153867,3.8076536953284057
8,6,1.0,0.8454301179686707,0.0
8,6,0.75,0.8561693579359809,-1.0739239967310188
8,6,0.5,0.8555803402091882,-1.0150222240517426
8,6,0.25,0.8457398108476688,-0.030969287899806908
8,6,0.0,0.8404218301365184,0.5008287832152347
8,7,1.0,0.8454301179686707,0.0
8,7,0.75,0.845101872232211,0.03282457364597313
8,7,0.5,0.8362048194515637,0.9225298517107072
8,7,0.25,0.8267229191860368,1.8707198782633938
8,7,0.0,0.7913497409630819,5.4080377005588876
8,8,1.0,0.8454301179686707,0.0
8,8,0.75,0.8533092834447543,-0.7879165476083583
8,8,0.5,0.8528671316942307,-0.7437013725559938
8,8,0.25,0.844399200038042,0.10309179306287053
8,8,0.0,0.8210746880946044,2.435542987406636
9,0,1.0,0.8321791203958556,0.0
9,0,0.75,0.825696051693514,0.648306870234161
9,0,0.5,0.8266525207360355,0.5526599659820164
9,0,0.25,0.8359827861079321,-0.3803665712076465
9,0,0.0,0.819908178518044,1.2270941877811636
9,1,1.0,0.8321791203958556,0.0
9,1,0.75,0.8317912358659418,0.03878845299137845
9,1,0.5,0.8251922939639962,0.6986826431859439
9,1,0.25,0.8130435037128749,1.9135616682980694
9,1,0.0,0.7952099432046367,3.696917719121895
9,2,1.0,0.8321791203958556,0.0
9,2,0.75,0.8288450013360897,0.3334119059765883
9,2,0.5,0.8283079827774766,0.38711376183789836
9,2,0.25,0.8114147496156953,2.0764370780160357
9,2,0.0,0.7934422874252366,3.873683297061903
9,3,1.0,0.8321791203958556,0.0
9,3,0.75,0.8286282486129977,0.3550871782857956
9,3,0.5,0.8297800022724103,0.23991181234452874
9,3,0.25,0.8261528847917814,0.6026235604074226
9,3,0.0,0.8241936207466549,0.79854996492007
9,4,1.0,0.8321791203958556,0.0
9,4,0.75,0.8339135055456187,-0.17343851497630958
9,4,0.5,0.8283175334835309,0.38615869123247437
9,4,0.25,0.8215352544197212,1.0643865976134426
9,4,0.0,0.8278681284664243,0.4310991929431296
9,5,1.0,0.8321791203958556,0.0
9,5,0.75,0.835894992493416,-0.3715872097560413
9,5,0.5,0.8315361087174167,0.06430116784389428
9,5,0.25,0.8308363790309093,0.1342741364946276
9,5,0.0,0.8289692103024681,0.3209910093387558
9,6,1.0,0.8321791203958556,0.0
9,6,0.75,0.8323944140927131,-0.02152936968574659
9,6,0.5,0.8289858726019781,0.31932477938775294
9,6,0.25,0.8292870578088181,0.2892062587037558
9,6,0.0,0.8233808568692289,0.8798263526626715
9,7,1.0,0.8321791203958556,0.0
9,7,0.75,0.837925381234777,-0.574626083892138
9,7,0.5,0.8358649385952158,-0.36858181993602024
9,7,0.25,0.8281412447201921,0.40378756756634937
9,7,0.0,0.8253929098152353,0.6786210580620344
9,8,1.0,0.8321791203958556,0.0
9,8,0.75,0.839300532942947,-0.7121412547091421
9,8,0.5,0.8405554519231268,-0.837633152727113
9,8,0.25,0.8410456997073035,-0.8866579311447853
9,8,0.0,0.8337299201136777,-0.15507997178221267
10,0,1.0,0.7895206893609783,0.0
10,0,0.75,0.7757459671159925,1.377472224498577
10,0,0.5,0.7830795705503236,0.6441118810654678
10,0,0.25,0.8185469019188498,-2.9026212557871522
10,0,0.0,0.8190205822079822,-2.949989284700394
10,1,1.0,0.7895206893609783,0.0
10,1,0.75,0.7831074953091878,0.6413194051790527
10,1,0.5,0.8001800316086654,-1.0659342247687054
10,1,0.25,0.7873917656158242,0.21289237451540544
10,1,0.0,0.7841447786531537,0.5375910707824616
10,2,1.0,0.7895206893609783,0.0
10,2,0.75,0.7839800292306417,0.5540660130336605
10,2,0.5,0.7746698078281963,1.4850881532782023
10,2,0.25,0.7664306530494494,2.309003631152895
10,2,0.0,0.7619513940275688,2.756929533340946
10,3,1.0,0.7895206893609783,0.0
10,3,0.75,0.7753104548953406,1.4210234465637739
10,3,0.5,0.7699790138702116,1.9541675490766686
10,3,0.25,0.7643555105189215,2.5165178842056823
10,3,0.0,0.7571080258009111,3.2412663560067223
10,4,1.0,0.7895206893609783,0.0
10,4,0.75,0.7747069444149427,1.48137449460356
10,4,0.5,0.7676334697521139,2.1887219608864417
10,4,0.25,0.7557691827869301,3.375150657404824
10,4,0.0,0.7727880222435226,1.673266711745569
10,5,1.0,0.7895206893609783,0.0
10,5,0.75,0.7623992340385783,2.7121455322399957
10,5,0.5,0.7443139531746727,4.520673618630555
10,5,0.25,0.7571261098677868,3.2394579493191467
10,5,0.0,0.7719906473788462,1.753004198213215
10,6,1.0,0.7895206893609783,0.0
10,6,0.75,0.7954125981770431,-0.5891908816064828
10,6,0.5,0.7890419452079587,0.04787441530196279
10,6,0.25,0.7844865095349887,0.5034179825989638
10,6,0.0,0.7831618356402383,0.6358853720739965
10,7,1.0,0.7895206893609783,0.0
10,7,0.75,0.790716844952444,-0.11961555914656863
10,7,0.5,0.7775769840637898,1.1943705297188467
10,7,0.25,0.7834824329587087,0.6038256402269626
10,7,0.0,0.7919856129705667,-0.24649236095883875
10,8,1.0,0.7895206893609783,0.0
10,8,0.75,0.7720061945053671,1.7514494855611185
10,8,0.5,0.7585793512768424,3.0941338084135905
10,8,0.25,0.7596525167850431,2.9868172575935215
10,8,0.0,0.7621400345740506,2.738065478692775
11,0,1.0,0.8953710760385669,0.0
11,0,0.75,0.9012901485889272,-0.5919072550360283
11,0,0.5,0.9024057142677531,-0.7034638229186152
11,0,0.25,0.8989327218887575,-0.3561645850190587
11,0,0.0,0.8876817561533362,0.7689319885230694
11,1,1.0,0.8953710760385669,0.0
11,1,0.75,0.907119561791604,-1.1748485753037108
11,1,0.5,0.9103413147230751,-1.4970238684508197
11,1,0.25,0.9047447329001999,-0.937365686163294
11,1,0.0,0.8815929715428507,1.377810449571626
11,2,1.0,0.8953710760385669,0.0
11,2,0.75,0.8988021294814781,-0.34310534429111694
11,2,0.5,0.897280749977491,-0.19096739389240502
11,2,0.25,0.8920204655814761,0.3350610457090841
11,2,0.0,0.8770839997512412,1.8287076287325732
11,3,1.0,0.8953710760385669,0.0
11,3,0.75,0.8973104905392373,-0.19394145006703667
11,3,0.5,0.8742607293893631,2.111034664920386
11,3,0.25,0.8736713936241539,2.1699682414413
11,3,0.0,0.8444820859235302,5.088899011503667
11,4,1.0,0.8953710760385669,0.0
11,4,0.75,0.8910178889643942,0.43531870741727596
11,4,0.5,0.8839729232833154,1.1398152755251467
11,4,0.25,0.8830728314052894,1.2298244633277555
11,4,0.0,0.8701953386686438,2.517573736992307
11,5,1.0,0.8953710760385669,0.0
11,5,0.75,0.8819041417544418,1.3466934284125154
11,5,0.5,0.8847809598598395,1.0590116178727405
11,5,0.25,0.899923817151824,-0.4552741113257097
11,5,0.0,0.9065084032357266,-1.1137327197159652
11,6,1.0,0.8953710760385669,0.0
11,6,0.75,0.9000659812903316,-0.4694905251764636
11,6,0.5,0.9034793406611891,-0.8108264622622152
11,6,0.25,0.9114765830672819,-1.6105507028714938
11,6,0.0,0.9085756406502105,-1.3204564611643543
11,7,1.0,0.8953710760385669,0.0
11,7,0.75,0.9108479932141066,-1.5476917175539673
11,7,0.5,0.9071780193700821,-1.1806943331515218
11,7,0.25,0.8961612997968658,-0.0790223758298847
11,7,0.0,0.8810528530923267,1.4318222946240189
11,8,1.0,0.8953710760385669,0.0
11,8,0.75,0.9011235020303986,-0.5752425991831678
11,8,0.5,0.9011082736405523,-0.5737197601985433
11,8,0.25,0.8927972322980622,0.2573843740504733
11,8,0.0,0.8907102856776182,0.46607903609486856
12,0,1.0,0.921101723032098,0.0
12,0,0.75,0.9145408450916228,0.6560877940475218
12,0,0.5,0.9177016898525874,0.3400033179510653
12,0,0.25,0.9074953644273285,1.3606358604769553
12,0,0.0,0.8969773828823384,2.4124340149759615
12,1,1.0,0.921101723032098,0.0
12,1,0.75,0.9091024759783359,1.1999247053762097
12,1,0.5,0.9081340938883374,1.2967629143760595
12,1,0.25,0.8889486764952774,3.2153046536820606
12,1,0.0,0.8828464579745119,3.825526505758614
12,2,1.0,0.921101723032098,0.0
12,2,0.75,0.9118495019428494,0.9252221089248613
12,2,0.5,0.9061659343768106,1.493578865528744
12,2,0.25,0.8975745744406793,2.352714859141869
12,2,0.0,0.887347238935835,3.3754484096263027
12,3,1.0,0.921101723032098,0.0
12,3,0.75,0.895550063451206,2.5551659580892006
12,3,0.5,0.888537625458125,3.256409757397305
12,3,0.25,0.8769269133512412,4.417480968085686
12,3,0.0,0.8410030160944482,8.009870693764986
12,4,1.0,0.921101723032098,0.0
12,4,0.75,0.9073720871327254,1.3729635899372594
12,4,0.5,0.8817571133143806,3.934460971771747
12,4,0.25,0.8854114500318616,3.5690273000236417
12,4,0.0,0.886059362605593,3.5042360426504993
12,5,1.0,0.921101723032098,0.0
12,5,0.75,0.9074731085509782,1.362861448111985
12,5,0.5,0.9045755341113069,1.6526188920791163
12,5,0.25,0.8930834594046431,2.8018263627454965
12,5,0.0,0.8937383803078753,2.7363342724222695
12,6,1.0,0.921101723032098,0.0
12,6,0.75,0.9165722555836454,0.45294674484526176
12,6,0.5,0.9219835726060439,-0.08818495739458809
12,6,0.25,0.9170381275322345,0.40635954998635704
12,6,0.0,0.9196947947308513,0.14069283012467793
12,7,1.0,0.921101723032098,0.0
12,7,0.75,0.9183333154442748,0.2768407587823263
12,7,0.5,0.925494556061646,-0.439283302954796
12,7,0.25,0.9265689594937162,-0.5467236461618175
12,7,0.0,0.9157603326340128,0.5341390398085233
12,8,1.0,0.921101723032098,0.0
12,8,0.75,0.916295353266912,0.48063697651860027
12,8,0.5,0.9235684948988231,-0.24667718667250593
12,8,0.25,0.921160909247581,-0.005918621548295366
12,8,0.0,0.9186051826107636,0.24965404213344033
13,0,1.0,0.9190193051191919,0.0
13,0,0.75,0.924148549542402,-0.5129244423210055
13,0,0.5,0.9191988264110326,-0.017952129184062304
13,0,0.25,0.9172564453800225,0.17628597391694534
13,0,0.0,0.922358425029296,-0.3339119910104049
13,1,1.0,0.9190193051191919,0.0
13,1,0.75,0.9155719415444301,0.34473635747618303
13,1,0.5,0.9159963058194913,0.3022999299700624
13,1,0.25,0.9136122493160912,0.5407055803100747
13,1,0.0,0.9097753435209809,0.9243961598211059
13,2,1.0,0.9190193051191919,0.0
13,2,0.75,0.9206433051058275,-0.1623999986635538
13,2,0.5,0.9202822877643405,-0.12629826451485693
13,2,0.25,0.9142500111572277,0.4769293961964238
13,2,0.0,0.903487922877654,1.5531382241537939
13,3,1.0,0.9190193051191919,0.0
13,3,0.75,0.9205440107997779,-0.1524705680585936
13,3,0.5,0.9183601629609484,0.06591421582435864
13,3,0.25,0.9162550030450225,0.27643020741694446
13,3,0.0,0.9057146943245462,1.3304610794645733
13,4,1.0,0.9190193051191919,0.0
13,4,0.75,0.9128087254498257,0.6210579669366223
13,4,0.5,0.89640590665584,2.2613398463351975
13,4,0.25,0.8919327749769073,2.708653014228468
13,4,0.0,0.8955951795348736,2.342412558431839
13,5,1.0,0.9190193051191919,0.0
13,5,0.75,0.9058751649394738,1.31441401797181
13,5,0.5,0.8957019341409077,2.3317370978284235
13,5,0.25,0.892068047018963,2.6951258100228914
13,5,0.0,0.8859657955095428,3.3053509609649145
13,6,1.0,0.9190193051191919,0.0
13,6,0.75,0.9140562992774627,0.4963005841729262
13,6,0.5,0.9186873940518389,0.03319110673530856
13,6,0.25,0.9220100684329393,-0.2990763313747369
13,6,0.0,0.9144285283338142,0.45907767853777814
13,7,1.0,0.9190193051191919,0.0
13,7,0.75,0.9197189610145474,-0.06996558953554777
13,7,0.5,0.9236140843928605,-0.4594779273668581
13,7,0.25,0.9172729435876709,0.1746361531521079
13,7,0.0,0.9084486205097865,1.0570684609405467
13,8,1.0,0.9190193051191919,0.0
13,8,0.75,0.9178043674896645,0.12149376295274017
13,8,0.5,0.9231554818450168,-0.41361767258248916
13,8,0.25,0.9253854794144883,-0.6366174295296401
13,8,0.0,0.9118805531118964,0.7138752007295524
14,0,1.0,0.8462402525940291,0.0
14,0,0.75,0.8487409731143092,-0.2500720520280053
14,0,0.5,0.8419414161110619,0.429883648296725
14,0,0.25,0.8411456194386584,0.5094633155370731
14,0,0.0,0.8364085256590355,0.9831726934993679
14,1,1.0,0.8462402525940291,0.0
14,1,0.75,0.8471592371592371,-0.09189845652080031
14,1,0.5,0.8475228115442409,-0.12825589502117873
14,1,0.25,0.8435211578572178,0.27190947368113116
14,1,0.0,0.8264950528203605,1.974519977366862
14,2,1.0,0.8462402525940291,0.0
14,2,0.75,0.8488362195697177,-0.2595966975688535
14,2,0.5,0.8496957053546962,-0.3455452760667055
14,2,0.25,0.8532161360935713,-0.6975883499542146
14,2,0.0,0.8661882180598084,-1.994796546577926
14,3,1.0,0.8462402525940291,0.0
14,3,0.75,0.8396460735675337,0.6594179026495395
14,3,0.5,0.8203695572594822,2.587069533454689
14,3,0.25,0.8071613755571928,3.9078877036836324
14,3,0.0,0.7841499603858203,6.209029220820883
14,4,1.0,0.8462402525940291,0.0
14,4,0.75,0.8579689932377481,-1.1728740643718982
14,4,0.5,0.8668340383993263,-2.059378580529714
14,4,0.25,0.8522710597551414,-0.6030807161112262
14,4,0.0,0.8422741689429869,0.3966083651042229
14,5,1.0,0.8462402525940291,0.0
14,5,0.75,0.844064211156407,0.21760414376221782
14,5,0.5,0.8426046803392007,0.36355722548284675
14,5,0.25,0.8438081943045422,0.24320582894868936
14,5,0.0,0.8423217183173732,0.3918534276655894
14,6,1.0,0.8462402525940291,0.0
14,6,0.75,0.8496433073774132,-0.34030547833840963
14,6,0.5,0.8416764018940763,0.45638506999527984
14,6,0.25,0.8377391517578127,0.8501100836216469
14,6,0.0,0.8390454637100095,0.7194788884019587
14,7,1.0,0.8462402525940291,0.0
14,7,0.75,0.8430272495610917,0.3213003032937478
14,7,0.5,0.8299064714569855,1.6333781137043646
14,7,0.25,0.8038545175151542,4.238573507887489
14,7,0.0,0.7831566532362803,6.308359935774888
14,8,1.0,0.8462402525940291,0.0
14,8,0.75,0.850655948140985,-0.4415695546955867
14,8,0.5,0.8445296395241138,0.17106130699153788
14,8,0.25,0.8375980462258248,0.8642206368204342
14,8,0.0,0.8135905161096606,3.264973648436853
15,0,1.0,0.8890262291088729,0.0
15,0,0.75,0.8852769664528793,0.37492626559935127
15,0,0.5,0.878147587683817,1.0878641425055902
15,0,0.25,0.8573435657263122,3.168266338256065
15,0,0.0,0.8420621391458956,4.69640899629773
15,1,1.0,0.8890262291088729,0.0
15,1,0.75,0.9058877351616322,-1.6861506052759379
15,1,0.5,0.9035990442306231,-1.4572815121750238
15,1,0.25,0.8836306363172108,0.5395592791662018
15,1,0.0,0.8702051634173125,1.882106569156039
15,2,1.0,0.8890262291088729,0.0
15,2,0.75,0.8903800562081935,-0.1353827099320637
15,2,0.5,0.8890806861522336,-0.0054457043360711666
15,2,0.25,0.8583214423920128,3.0704786716860055
15,2,0.0,0.8340265708264625,5.499965828241038
15,3,1.0,0.8890262291088729,0.0
15,3,0.75,0.8744470715016789,1.457915760719397
15,3,0.5,0.8794759066749466,0.9550322433926284
15,3,0.25,0.8864075914929919,0.2618637615880992
15,3,0.0,0.894434318588908,-0.5408089480035128
15,4,1.0,0.8890262291088729,0.0
15,4,0.75,0.8858575226583933,0.3168706450479508
15,4,0.5,0.8936564852790311,-0.463025617015822
15,4,0.25,0.8929924284212765,-0.39661993124036066
15,4,0.0,0.9154016608561427,-2.637543174726986
15,5,1.0,0.8890262291088729,0.0
15,5,0.75,0.8796470153175023,0.9379213791370522
15,5,0.5,0.8799114498231551,0.91147792857178
15,5,0.25,0.8946707802214181,-0.5644551112545249
15,5,0.0,0.8956906817502699,-0.6664452641397034
15,6,1.0,0.8890262291088729,0.0
15,6,0.75,0.8900454514465814,-0.10192223377085696
15,6,0.5,0.9054093272079182,-1.6383098099045368
15,6,0.25,0.8994364958239025,-1.0410266715029648
15,6,0.0,0.8989919012623532,-0.996567215348032
15,7,1.0,0.8890262291088729,0.0
15,7,0.75,0.8774634759072439,1.1562753201628917
15,7,0.5,0.8759370276124003,1.3089201496472525
15,7,0.25,0.8782912120639879,1.0735017044884998
15,7,0.0,0.8901530361530361,-0.11268070441632361
15,8,1.0,0.8890262291088729,0.0
15,8,0.75,0.9006323626127717,-1.160613350389883
15,8,0.5,0.9000553452313553,-1.1029116122482474
15,8,0.25,0.9124681514977044,-2.344192238883158
15,8,0.0,0.9094234772746693,-2.0397248165796467
16,0,1.0,0.869859730809599,0.0
16,0,0.75,0.8695513422632135,0.03083885463854852
16,0,0.5,0.8559536560330365,1.3906074776562471
16,0,0.25,0.847944899303595,2.191483150600404
16,0,0.0,0.8438688100030298,2.5990920806569173
16,1,1.0,0.869859730809599,0.0
16,1,0.75,0.8752232236730917,-0.5363492863492691
16,1,0.5,0.8783449749499355,-0.8485244140336468
16,1,0.25,0.8796072673058047,-0.9747536496205744
16,1,0.0,0.8707184534637973,-0.08587226541982851
16,2,1.0,0.869859730809599,0.0
16,2,0.75,0.8768271404609964,-0.6967409651397416
16,2,0.5,0.8751516471259111,-0.5291916316312095
16,2,0.25,0.8769054904959794,-0.7045759686380437
16,2,0.0,0.8623033601874084,0.7556370622190611
16,3,1.0,0.869859730809599,0.0
16,3,0.75,0.8786613615075727,-0.8801630697973684
16,3,0.5,0.8826562070080516,-1.2796476198452589
16,3,0.25,0.8720154326835361,-0.21557018739370992
16,3,0.0,0.8618055921924428,0.8054138617156203
16,4,1.0,0.869859730809599,0.0
16,4,0.75,0.8738285405189432,-0.3968809709344212
16,4,0.5,0.866784430737546,0.3075300072053033
16,4,0.25,0.8578599688616811,1.1999761947917853
16,4,0.0,0.8535131531859103,1.634657762368874
16,5,1.0,0.869859730809599,0.0
16,5,0.75,0.8374558110377132,3.2403919771885836
16,5,0.5,0.833541940118587,3.631779069101204
16,5,0.25,0.8312013879054216,3.8658342904177356
16,5,0.0,0.8446885221289888,2.517120868061018
16,6,1.0,0.869859730809599,0.0
16,6,0.75,0.8649241346609768,0.49355961486221567
16,6,0.5,0.8615166154296588,0.8343115379940147
16,6,0.25,0.8615166154296588,0.8343115379940147
16,6,0.0,0.8578195436252775,1.2040187184321538
16,7,1.0,0.869859730809599,0.0
16,7,0.75,0.8715355426224322,-0.16758118128331612
16,7,0.5,0.8572146937027294,1.2645037106869594
16,7,0.25,0.8291947187578761,4.06650120517229
16,7,0.0,0.8041938465345388,6.566588427506015
16,8,1.0,0.869859730809599,0.0
16,8,0.75,0.8732587452690206,-0.339901445942159
16,8,0.5,0.8649427468409028,0.491698396869622
16,8,0.25,0.8579810477899568,1.1878683019642233
16,8,0.0,0.8532840402567375,1.6575690552861455
17,0,1.0,0.8529662798066227,0.0
17,0,0.75,0.8480924465006687,0.4873833305953923
17,0,0.5,0.8468598946129049,0.6106385193717756
17,0,0.25,0.846182328152623,0.6783951653999698
17,0,0.0,0.8392377191963427,1.3728560610279938
17,1,1.0,0.8529662798066227,0.0
17,1,0.75,0.8582371361760108,-0.5270856369388177
17,1,0.5,0.8616966978427263,-0.8730418036103638
17,1,0.25,0.8584780120160358,-0.5511732209413145
17,1,0.0,0.8546213561579956,-0.16550763513729638
17,2,1.0,0.8529662798066227,0.0
17,2,0.75,0.8534858767644785,-0.051959695785586124
17,2,0.5,0.8484561751064874,0.45101047001352423
17,2,0.25,0.8522865121444851,0.06797676621375093
17,2,0.0,0.8512471055736397,0.17191742329829562
17,3,1.0,0.8529662798066227,0.0
17,3,0.75,0.8479537846286094,0.5012495178013276
17,3,0.5,0.8535047578665964,-0.05384780599737571
17,3,0.25,0.8377183499594587,1.5247929847163944
17,3,0.0,0.8258757438547546,2.7090535951868056
17,4,1.0,0.8529662798066227,0.0
17,4,0.75,0.8592095019151089,-0.6243222108486268
17,4,0.5,0.8541409715389863,-0.11746917323636197
17,4,0.25,0.8593104099101866,-0.6344130103563939
17,4,0.0,0.8744672079164453,-2.1500928109822626
17,5,1.0,0.8529662798066227,0.0
17,5,0.75,0.824676719758593,2.8289560048029627
17,5,0.5,0.8192379154912288,3.3728364315393833
17,5,0.25,0.8179376763587289,3.5028603447893714
17,5,0.0,0.815385238814851,3.758104099177162
17,6,1.0,0.8529662798066227,0.0
17,6,0.75,0.8606679580121006,-0.7701678205477958
17,6,0.5,0.8543052063169227,-0.1338926510300098
17,6,0.25,0.8608898842700194,-0.7923604463396794
17,6,0.0,0.8562302896498388,-0.32640098432161757
17,7,1.0,0.8529662798066227,0.0
17,7,0.75,0.8534077049697651,-0.04414251631424948
17,7,0.5,0.8414351023304165,1.1531177476206134
17,7,0.25,0.8372249693634037,1.5741310443218914
17,7,0.0,0.8169641587388673,3.6002121067755355
17,8,1.0,0.8529662798066227,0.0
17,8,0.75,0.8500400143499738,0.2926265456648869
17,8,0.5,0.8431355333383701,0.9830746468252549
17,8,0.25,0.8385108439545278,1.4455435852094856
17,8,0.0,0.8282606733934167,2.470560641320596
18,0,1.0,0.9142040019847105,0.0
18,0,0.75,0.9089220030857901,0.5281998898920448
18,0,0.5,0.909471460950236,0.47325410344745134
18,0,0.25,0.9024856233836278,1.1718378601082713
18,0,0.0,0.8920771906764391,2.2126811308271432
18,1,1.0,0.9142040019847105,0.0
18,1,0.75,0.9063176137232343,0.7886388261476251
18,1,0.5,0.8958466001352346,1.8357401849475874
18,1,0.25,0.8984667074709641,1.5737294513746392
18,1,0.0,0.8953746326383942,1.8829369346316294
18,2,1.0,0.9142040019847105,0.0
18,2,0.75,0.9056969872419067,0.8507014742803798
18,2,0.5,0.9004588997404821,1.3745102244228424
18,2,0.25,0.9004344808007785,1.3769521183932043
18,2,0.0,0.8991528362373238,1.505116574738674
18,3,1.0,0.9142040019847105,0.0
18,3,0.75,0.8997268477878116,1.4477154196898878
18,3,0.5,0.8740992719056722,4.010473007903837
18,3,0.25,0.832456760726623,8.174724125808751
18,3,0.0,0.802352568302886,11.185143368182448
18,4,1.0,0.9142040019847105,0.0
18,4,0.75,0.9111045024129851,0.3099499571725395
18,4,0.5,0.9167919607032489,-0.2587958718538341
18,4,0.25,0.9073039216614874,0.690008032322309
18,4,0.0,0.8829060943156661,3.129790766904439
18,5,1.0,0.9142040019847105,0.0
18,5,0.75,0.8971146877233884,1.7089314261322097
18,5,0.5,0.8928675638067324,2.1336438177978145
18,5,0.25,0.8887489103035129,2.545509168119764
18,5,0.0,0.8811912643962286,3.301273758848189
18,6,1.0,0.9142040019847105,0.0
18,6,0.75,0.9143930790766294,-0.018907709191884337
18,6,0.5,0.9074864758681133,0.6717526116597261
18,6,0.25,0.9102187191087444,0.3985282875966112
18,6,0.0,0.9062665851874303,0.7937416797280217
18,7,1.0,0.9142040019847105,0.0
18,7,0.75,0.887912318075939,2.629168390877157
18,7,0.5,0.8672684727989869,4.6935529185723635
18,7,0.25,0.8614043835925174,5.279961839219316
18,7,0.0,0.8743269659029049,3.9877036081805595
18,8,1.0,0.9142040019847105,0.0
18,8,0.75,0.9012416834975177,1.296231848719287
18,8,0.5,0.903764050729291,1.0439951255419522
18,8,0.25,0.9076920295202717,0.6511972464438798
18,8,0.0,0.9009716967170106,1.3232305267699918
19,0,1.0,0.8501352252346767,0.0
19,0,0.75,0.8492937129449334,0.08415122897432736
19,0,0.5,0.8533635344947852,-0.32283092601085306
19,0,0.25,0.8485170803418622,0.16181448928144215
19,0,0.0,0.8414003244264752,0.8734900808201496
19,1,1.0,0.8501352252346767,0.0
19,1,0.75,0.8503157836460173,-0.018055841134068107
19,1,0.5,0.843548127772066,0.6587097462610658
19,1,0.25,0.8406549116004208,0.9480313634255833
19,1,0.0,0.8218076674459148,2.8327557788761837
19,2,1.0,0.8501352252346767,0.0
19,2,0.75,0.8474190783358468,0.2716146898829819
19,2,0.5,0.846067908207347,0.40673170273296533
19,2,0.25,0.8452557059668315,0.4879519267845134
19,2,0.0,0.8327829217706859,1.7352303463990748
19,3,1.0,0.8501352252346767,0.0
19,3,0.75,0.8446761964434606,0.545902879121607
19,3,0.5,0.8336206932808314,1.6514531953845224
19,3,0.25,0.824862582584412,2.527264265026463
19,3,0.0,0.8213481083880383,2.878711684663837
19,4,1.0,0.8501352252346767,0.0
19,4,0.75,0.8444969312776269,0.5638293957049734
19,4,0.5,0.8439941923047475,0.614103292992918
19,4,0.25,0.8421037212575414,0.8031503977135257
19,4,0.0,0.8368594771382134,1.3275748096463258
19,5,1.0,0.8501352252346767,0.0
19,5,0.75,0.8394244664574411,1.0710758777235596
19,5,0.5,0.8360811783573227,1.405404687735401
19,5,0.25,0.8379174543035162,1.2217770931160499
19,5,0.0,0.8331625614667468,1.697266376792983
19,6,1.0,0.8501352252346767,0.0
19,6,0.75,0.8485761172140309,0.15591080206457386
19,6,0.5,0.8611231091280603,-1.0987883893383676
19,6,0.25,0.861792402676216,-1.165717744153938
19,6,0.0,0.8600892239174265,-0.9953998682749821
19,7,1.0,0.8501352252346767,0.0
19,7,0.75,0.842448858159196,0.7686367075480649
19,7,0.5,0.8447615153133223,0.537370992135433
19,7,0.25,0.8394986512436999,1.0636573990976728
19,7,0.0,0.8341417295476676,1.599349568700903
19,8,1.0,0.8501352252346767,0.0
19,8,0.75,0.8470315593007045,0.3103665933972155
19,8,0.5,0.8377990822681088,1.233614296656782
19,8,0.25,0.8289510892093384,2.1184136025338307
19,8,0.0,0.8304343891758391,1.9700836058837545
20,0,1.0,0.8357496604529355,0.0
20,0,0.75,0.8372464126245805,-0.14967521716450216
20,0,0.5,0.8357815390558895,-0.003187860295394973
20,0,0.25,0.8339248812177994,0.18247792351361314
20,0,0.0,0.822517488371019,1.3232172081916516
20,1,1.0,0.8357496604529355,0.0
20,1,0.75,0.8266543963867752,0.9095264066160347
20,1,0.5,0.8147879983115819,2.0961662141353643
20,1,0.25,0.8174773090723807,1.827235138055483
20,1,0.0,0.8194394271337687,1.6310233319166811
20,2,1.0,0.8357496604529355,0.0
20,2,0.75,0.8290586098940484,0.669105055888708
20,2,0.5,0.8106034026631543,2.514625778978119
20,2,0.25,0.8046861693747659,3.1063491078169636
20,2,0.0,0.8028517802972529,3.2897880155682624
20,3,1.0,0.8357496604529355,0.0
20,3,0.75,0.8250644324926445,1.0685227960291033
20,3,0.5,0.8221019278497603,1.36477326031752
20,3,0.25,0.8282832346850402,0.7466425767895357
20,3,0.0,0.8286099141039175,0.7139746349018039
20,4,1.0,0.8357496604529355,0.0
20,4,0.75,0.8428097280578898,-0.7060067604954257
20,4,0.5,0.8395096319870387,-0.37599715341031237
20,4,0.25,0.8375481488586216,-0.17984884056860828
20,4,0.0,0.8342209920080208,0.1528668444914727
20,5,1.0,0.8357496604529355,0.0
20,5,0.75,0.8378468782630254,-0.20972178100898686
20,5,0.5,0.8453005213053691,-0.9550860852433618
20,5,0.25,0.8332373678634541,0.25122925894813797
20,5,0.0,0.8475976892154922,-1.184802876255664
20,6,1.0,0.8357496604529355,0.0
20,6,0.75,0.8323469464118312,0.3402714041104371
20,6,0.5,0.8350103699385829,0.07392905143526196
20,6,0.25,0.8286670965375924,0.7082563915343121
20,6,0.0,0.8279211806367182,0.7828479816217371
20,7,1.0,0.8357496604529355,0.0
20,7,0.75,0.8313245851161746,0.4425075336760953
20,7,0.5,0.8143216948730276,2.1427965579907893
20,7,0.25,0.8199305163242048,1.5819144128730755
20,7,0.0,0.8216004350051547,1.4149225447780855
20,8,1.0,0.8357496604529355,0.0
20,8,0.75,0.8237550818347612,1.1994578618174323
20,8,0.5,0.8176331978420912,1.811646261084432
20,8,0.25,0.801128586884384,3.4621073568551486
20,8,0.0,0.7748328731753458,6.091678727758976
21,0,1.0,0.8244499386805981,0.0
21,0,0.75,0.8211840256445783,0.3265913036019863
21,0,0.5,0.8161290749181607,0.8320863762437458
21,0,0.25,0.8075485494908726,1.6901389189725502
21,0,0.0,0.806940689696973,1.7509248983625159
21,1,1.0,0.8244499386805981,0.0
21,1,0.75,0.8226647120227059,0.17852266578922693
21,1,0.5,0.8218493538050596,0.2600584875538492
21,1,0.25,0.8263845115304244,-0.19345728498262327
21,1,0.0,0.8164033661805644,0.8046572500033711
21,2,1.0,0.8244499386805981,0.0
21,2,0.75,0.8157182303341266,0.8731708346471523
21,2,0.5,0.8187357478639161,0.5714190816682008
21,2,0.25,0.8155774117723136,0.887252690828455
21,2,0.0,0.8261077723820145,-0.1657833701416367
21,3,1.0,0.8244499386805981,0.0
21,3,0.75,0.8209413052582073,0.3508633422390828
21,3,0.5,0.813633463357862,1.0816475322736108
21,3,0.25,0.8109182007814714,1.3531737899126761
21,3,0.0,0.7934815274081412,3.0968411272456975
21,4,1.0,0.8244499386805981,0.0
21,4,0.75,0.8350053145116023,-1.0555375831004188
21,4,0.5,0.8370296049308033,-1.2579666250205124
21,4,0.25,0.8401407259237259,-1.569078724312778
21,4,0.0,0.8415157253851112,-1.7065786704513086
21,5,1.0,0.8244499386805981,0.0
21,5,0.75,0.839542673159996,-1.5092734479397851
21,5,0.5,0.8404578248175933,-1.600788613699522
21,5,0.25,0.8385928833096531,-1.4142944629054965
21,5,0.0,0.8334141882884634,-0.8964249607865238
21,6,1.0,0.8244499386805981,0.0
21,6,0.75,0.8263517328656037,-0.19017941850055786
21,6,0.5,0.8233016303882883,0.11483082923098298
21,6,0.25,0.8127938299892806,1.1656108691317502
21,6,0.0,0.8079205121154693,1.652942656512879
21,7,1.0,0.8244499386805981,0.0
21,7,0.75,0.8297380524184648,-0.528811373786664
21,7,0.5,0.8167885587632291,0.7661379917369038
21,7,0.25,0.8253723277248206,-0.09223890442224825
21,7,0.0,0.8262919741730934,-0.18420354924952864
21,8,1.0,0.8244499386805981,0.0
21,8,0.75,0.8347297584667981,-1.0279819786199962
21,8,0.5,0.8183756721422897,0.6074266538308448
21,8,0.25,0.8183975959217257,0.6052342758872453
21,8,0.0,0.7944427855173336,3.000715316326452
22,0,1.0,0.7643537624339012,0.0
22,0,0.75,0.763599448912551,0.07543135213501362
22,0,0.5,0.7692065294177011,-0.4852766983799883
22,0,0.25,0.7725627728531667,-0.8209010419265472
22,0,0.0,0.757034284654061,0.7319477779840211
22,1,1.0,0.7643537624339012,0.0
22,1,0.75,0.7686902466061707,-0.4336484172269506
22,1,0.5,0.7723925950451876,-0.8038832611286462
22,1,0.25,0.7841912705849751,-1.983750815107388
22,1,0.0,0.7882940947483432,-2.3940332314442037
22,2,1.0,0.7643537624339012,0.0
22,2,0.75,0.7649406850253379,-0.058692259143666714
22,2,0.5,0.762630244949056,0.17235174848452273
22,2,0.25,0.75626506953159,0.8088692902311179
22,2,0.0,0.7549107253895215,0.9443037044379654
22,3,1.0,0.7643537624339012,0.0
22,3,0.75,0.7476481581741594,1.6705604259741769
22,3,0.5,0.742285692574213,2.2068069859688233
22,3,0.25,0.7232347227890077,4.11190396448935
22,3,0.0,0.7188928086579094,4.54609537759918
22,4,1.0,0.7643537624339012,0.0
22,4,0.75,0.7670044491426876,-0.26506867087864316
22,4,0.5,0.7502678986581601,1.4085863775741059
22,4,0.25,0.7457594424420468,1.8594319991854347
22,4,0.0,0.733564891107841,3.078887132606023
22,5,1.0,0.7643537624339012,0.0
22,5,0.75,0.7667929053727216,-0.24391429388204156
22,5,0.5,0.7690934532165477,-0.4739690782646466
22,5,0.25,0.7673095564341432,-0.295579400024204
22,5,0.0,0.764216847517666,0.01369149162351313
22,6,1.0,0.7643537624339012,0.0
22,6,0.75,0.7769671747256999,-1.2613412291798687
22,6,0.5,0.7718235571960386,-0.7469794762137383
22,6,0.25,0.7695949797536032,-0.5241217319702063
22,6,0.0,0.770315056518376,-0.5961294084474766
22,7,1.0,0.7643537624339012,0.0
22,7,0.75,0.7606193248074019,0.3734437626499276
22,7,0.5,0.742371355951235,2.198240648266614
22,7,0.25,0.7244001281554555,3.995363427844567
22,7,0.0,0.6867060251194799,7.764773731442132
22,8,1.0,0.7643537624339012,0.0
22,8,0.75,0.7665010047945482,-0.2147242360647006
22,8,0.5,0.7679327140997384,-0.35789516658372156
22,8,0.25,0.7577262069346458,0.6627555499255422
22,8,0.0,0.7240042171105053,4.034954532339585
23,0,1.0,0.807731752002834,0.0
23,0,0.75,0.7977467500515962,0.9985001951237749
23,0,0.5,0.7902928360776041,1.7438915925229836
23,0,0.25,0.7659163337601972,4.181541824263679
23,0,0.0,0.7504870872107466,5.7244664792087345
23,1,1.0,0.807731752002834,0.0
23,1,0.75,0.8071069717886613,0.062478021417267104
23,1,0.5,0.7958402364364051,1.1891515566428867
23,1,0.25,0.7882973109119168,1.9434441090917187
23,1,0.0,0.7727842358638011,3.494751613903291
23,2,1.0,0.807731752002834,0.0
23,2,0.75,0.8142769266854987,-0.654517468266469
23,2,0.5,0.820907098219318,-1.3175346216483974
23,2,0.25,0.8235545251137484,-1.58227731109144
23,2,0.0,0.8336883186949058,-2.5956566692071803
23,3,1.0,0.807731752002834,0.0
23,3,0.75,0.8254886567712798,-1.7756904768445825
23,3,0.5,0.8250519447708627,-1.7320192768028764
23,3,0.25,0.8247873118901624,-1.705555988732843
23,3,0.0,0.8143475315472708,-0.6615779544436817
23,4,1.0,0.807731752002834,0.0
23,4,0.75,0.8059156013763322,0.18161506265017557
23,4,0.5,0.7888274063478754,1.8904345654958576
23,4,0.25,0.7863147837927471,2.1416968210086873
23,4,0.0,0.7954687043960843,1.2263047606749677
23,5,1.0,0.807731752002834,0.0
23,5,0.75,0.7961551876443391,1.1576564358494856
23,5,0.5,0.7940889493472142,1.364280265561979
23,5,0.25,0.8014414142950064,0.6290337707827609
23,5,0.0,0.7995296860055593,0.8202065997274688
23,6,1.0,0.807731752002834,0.0
23,6,0.75,0.8216089525405177,-1.387720053768371
23,6,0.5,0.8117247106232699,-0.3992958620435916
23,6,0.25,0.8160080926673512,-0.8276340664517212
23,6,0.0,0.8111464705462648,-0.34147185434307836
23,7,1.0,0.807731752002834,0.0
23,7,0.75,0.8121524928984649,-0.4420740895630937
23,7,0.5,0.8078047113388915,-0.0072959336057554225
23,7,0.25,0.8019029914024949,0.58287606003391
23,7,0.0,0.8022264748608745,0.5505277141959475
23,8,1.0,0.807731752002834,0.0
23,8,0.75,0.8120951856298676,-0.43634336270336194
23,8,0.5,0.8047278661770706,0.3003885825763386
23,8,0.25,0.7906330671716428,1.7098684831191147
23,8,0.0,0.7825615390234264,2.517021297940758
24,0,1.0,0.8018276606039506,0.0
24,0,0.75,0.8027940171640858,-0.09663565601352175
24,0,0.5,0.7856820791033289,1.614558150062173
24,0,0.25,0.7653598638536976,3.6467796750253023
24,0,0.0,0.7643757946859031,3.74518659180475
24,1,1.0,0.8018276606039506,0.0
24,1,0.75,0.8009094210074602,0.09182395964904
24,1,0.5,0.8006797755754811,0.11478850284695197
24,1,0.25,0.793433350487555,0.8394310116395576
24,1,0.0,0.7917837133127813,1.0043947291169308
24,2,1.0,0.8018276606039506,0.0
24,2,0.75,0.7947795460021918,0.7048114601758804
24,2,0.5,0.7793891273569498,2.2438533247000847
24,2,0.25,0.7742733502854584,2.7554310318492203
24,2,0.0,0.7544166672710437,4.741099333290688
24,3,1.0,0.8018276606039506,0.0
24,3,0.75,0.813563825923171,-1.1736165319220393
24,3,0.5,0.8205936064183506,-1.8765945814399942
24,3,0.25,0.8182957647362747,-1.6468104132324135
24,3,0.0,0.8188713442212883,-1.7043683617337657
24,4,1.0,0.8018276606039506,0.0
24,4,0.75,0.7825815537235353,1.9246106880415281
24,4,0.5,0.7476664707636074,5.416118984034323
24,4,0.25,0.7349547806994616,6.6872879904488975
24,4,0.0,0.7285253330038577,7.330232760009292
24,5,1.0,0.8018276606039506,0.0
24,5,0.75,0.7695783129545369,3.2249347649413673
24,5,0.5,0.7757182278958152,2.610943270813537
24,5,0.25,0.7764261644034187,2.5401496200531892
24,5,0.0,0.7781127087461644,2.371495185778616
24,6,1.0,0.8018276606039506,0.0
24,6,0.75,0.7978358843537414,0.3991776250209189
24,6,0.5,0.7913429045901588,1.048475601379184
24,6,0.25,0.7869030101442549,1.492465045969571
24,6,0.0,0.7846427719224238,1.7184888681526789
24,7,1.0,0.8018276606039506,0.0
24,7,0.75,0.7980698613089223,0.37577992950282857
24,7,0.5,0.7940795374535922,0.7748123150358444
24,7,0.25,0.7854529113325948,1.6374749271355848
24,7,0.0,0.7383462241608643,6.348143644308635
24,8,1.0,0.8018276606039506,0.0
24,8,0.75,0.805506705369615,-0.36790447656643854
24,8,0.5,0.7836690300698511,1.8158630534099496
24,8,0.25,0.7647182855119115,3.7109375092039154
24,8,0.0,0.7501956382123616,5.163202239158904
25,0,1.0,0.8718520737867659,0.0
25,0,0.75,0.8495607019656249,2.2291371821140937
25,0,0.5,0.8457662590554291,2.6085814731336754
25,0,0.25,0.8319602315187004,3.9891842268065525
25,0,0.0,0.8305288782748376,4.132319551192831
25,1,1.0,0.8718520737867659,0.0
25,1,0.75,0.8662343826742678,0.5617691112498102
25,1,0.5,0.8720325094938536,-0.01804357070877005
25,1,0.25,0.8634312759618135,0.842079782495242
25,1,0.0,0.8448421735475415,2.700990023922434
25,2,1.0,0.8718520737867659,0.0
25,2,0.75,0.856081445016472,1.5770628770293893
25,2,0.5,0.8497071349702929,2.2144938816472948
25,2,0.25,0.8473559773559773,2.449609643078854
25,2,0.0,0.8415418908752966,3.0310182911469252
25,3,1.0,0.8718520737867659,0.0
25,3,0.75,0.8613936805310523,1.0458393255713627
25,3,0.5,0.8606086022370824,1.1243471549683526
25,3,0.25,0.8604141222512969,1.1437951535469004
25,3,0.0,0.8443472290833417,2.750484470342418
25,4,1.0,0.8718520737867659,0.0
25,4,0.75,0.8614856493042264,1.0366424482539438
25,4,0.5,0.8562885793090519,1.556349447771399
25,4,0.25,0.850938100485511,2.0913973301254885
25,4,0.0,0.8337749164681485,3.8077157318617383
25,5,1.0,0.8718520737867659,0.0
25,5,0.75,0.8600686030232999,1.1783470763465975
25,5,0.5,0.8510676668343359,2.078440695243
25,5,0.25,0.8506083150819993,2.124375870476658
25,5,0.0,0.8521937172487968,1.9658356537969102
25,6,1.0,0.8718520737867659,0.0
25,6,0.75,0.8764118092770821,-0.4559735490316186
25,6,0.5,0.8766749591553221,-0.482288536855624
25,6,0.25,0.8812594638248489,-0.9407390038082997
25,6,0.0,0.8811783014606203,-0.9326227673854381
25,7,1.0,0.8718520737867659,0.0
25,7,0.75,0.864181654587465,0.7670419199300893
25,7,0.5,0.8596494565417677,1.220261724499816
25,7,0.25,0.8332553755999087,3.859669818685718
25,7,0.0,0.8255149193080228,4.633715447874309
25,8,1.0,0.8718520737867659,0.0
25,8,0.75,0.8831232398072405,-1.1271166020474621
25,8,0.5,0.8886729413113463,-1.6820867524580452
25,8,0.25,0.8792197528750649,-0.7367679088299051
25,8,0.0,0.8731664041887287,-0.13143304019628266
26,0,1.0,0.7627878825792627,0.0
26,0,0.75,0.773758304972507,-1.0970422393244306
26,0,0.5,0.7805422976304497,-1.7754415051187022
26,0,0.25,0.7698446120576461,-0.7056729478383428
26,0,0.0,0.7608659752635686,0.19219073156940825
26,1,1.0,0.7627878825792627,0.0
26,1,0.75,0.7681612246234216,-0.5373342044158957
26,1,0.5,0.7815134084590513,-1.8725525879788596
26,1,0.25,0.7868492131175246,-2.4061330538261982
26,1,0.0,0.7717529965575151,-0.8965113978252393
26,2,1.0,0.7627878825792627,0.0
26,2,0.75,0.7668059283502463,-0.4018045770983636
26,2,0.5,0.757296207813875,0.54916747653877
26,2,0.25,0.7493693961383495,1.3418486440913147
26,2,0.0,0.7296492091957265,3.3138673383536155
26,3,1.0,0.7627878825792627,0.0
26,3,0.75,0.7652445754387407,-0.24566928594780268
26,3,0.5,0.7678174528145113,-0.5029570235248637
26,3,0.25,0.7639831308399173,-0.11952482606546466
26,3,0.0,0.7436265072587702,1.9161375320492446
26,4,1.0,0.7627878825792627,0.0
26,4,0.75,0.7342621624168796,2.8525720162383084
26,4,0.5,0.7335154091797105,2.927247339955219
26,4,0.25,0.7431323161637038,1.9655566415558878
26,4,0.0,0.7476041445296654,1.5183738049597273
26,5,1.0,0.7627878825792627,0.0
26,5,0.75,0.7235712546314399,3.921662794782277
26,5,0.5,0.7011824522857145,6.160543029354814
26,5,0.25,0.7176300224914269,4.515786008783573
26,5,0.0,0.737682762546681,2.5105120032581696
26,6,1.0,0.7627878825792627,0.0
26,6,0.75,0.7714327860373689,-0.8644903458106201
26,6,0.5,0.78490193686444,-2.211405428517732
26,6,0.25,0.7886217790100786,-2.5833896430815906
26,6,0.0,0.7895471043035578,-2.6759221724295124
26,7,1.0,0.7627878825792627,0.0
26,7,0.75,0.7729031972059731,-1.0115314626710448
26,7,0.5,0.7807917373113784,-1.8003854732115743
26,7,0.25,0.765817370713704,-0.30294881344413715
26,7,0.0,0.7413846679226781,2.140321465658457
26,8,1.0,0.7627878825792627,0.0
26,8,0.75,0.7685103066966777,-0.5722424117415081
26,8,0.5,0.7625461911187175,0.02416914605452014
26,8,0.25,0.7459263365824744,1.686154599678824
26,8,0.0,0.7230110688018808,3.9776813777381848
27,0,1.0,0.8619262530592612,0.0
27,0,0.75,0.8769841695935952,-1.505791653433397
27,0,0.5,0.8812344766628654,-1.930822360360418
27,0,0.25,0.8839323491173164,-2.200609605805526
27,0,0.0,0.8748643607380318,-1.2938107678770572
27,1,1.0,0.8619262530592612,0.0
27,1,0.75,0.8619483173974736,-0.0022064338212390844
27,1,0.5,0.8605139702353373,0.1412282823923916
27,1,0.25,0.8711005066246541,-0.917425356539292
27,1,0.0,0.8780665092021799,-1.6140256142918696
27,2,1.0,0.8619262530592612,0.0
27,2,0.75,0.8538803007722187,0.8045952287042524
27,2,0.5,0.8553424052466586,0.6583847812602572
27,2,0.25,0.8384897062001176,2.3436546859143537
27,2,0.0,0.8354144276894315,2.6511825369829656
27,3,1.0,0.8619262530592612,0.0
27,3,0.75,0.8624283953702718,-0.05021423110106449
27,3,0.5,0.862405043812997,-0.04787907537358027
27,3,0.25,0.8405226677175827,2.140358534167852
27,3,0.0,0.8228684463112226,3.9057806748038604
27,4,1.0,0.8619262530592612,0.0
27,4,0.75,0.8512138898149478,1.071236324431335
27,4,0.5,0.8382673428123064,2.3658910246954767
27,4,0.25,0.8286515015885301,3.327475147073111
27,4,0.0,0.8308507816766026,3.1075471382658537
27,5,1.0,0.8619262530592612,0.0
27,5,0.75,0.8479043994657419,1.4021853593519262
27,5,0.5,0.8491743770121059,1.275187604715533
27,5,0.25,0.8486998660297492,1.3226387029511955
27,5,0.0,0.8617189335577059,0.02073195015552809
27,6,1.0,0.8619262530592612,0.0
27,6,0.75,0.8732330173368681,-1.1306764277606907
27,6,0.5,0.8862830589265016,-2.4356805867240428
27,6,0.25,0.8783486583397963,-1.6422405280535068
27,6,0.0,0.8806539340002811,-1.8727680941019953
27,7,1.0,0.8619262530592612,0.0
27,7,0.75,0.8650516499405847,-0.31253968813235167
27,7,0.5,0.87482214783296,-1.289589477369879
27,7,0.25,0.8788173119911484,-1.6891058931887248
27,7,0.0,0.8761009867757968,-1.417473371653566
27,8,1.0,0.8619262530592612,0.0
27,8,0.75,0.8653773485717322,-0.3451095512471025
27,8,0.5,0.8805991331044353,-1.867288004517409
27,8,0.25,0.8930805018712357,-3.1154248811974483
27,8,0.0,0.8966678899848811,-3.4741636925619934
28,0,1.0,0.8262862125919892,0.0
28,0,0.75,0.8425506198576149,-1.6264407265625724
28,0,0.5,0.852318796088372,-2.603258349638282
28,0,0.25,0.8654408136876515,-3.9154601095662267
28,0,0.0,0.8590130088030996,-3.272679621111041
28,1,1.0,0.8262862125919892,0.0
28,1,0.75,0.8221093451155426,0.4176867476446633
28,1,0.5,0.8113613372215255,1.492487537046372
28,1,0.25,0.809103140093129,1.7183072498860197
28,1,0.0,0.8204707086777976,0.5815503914191611
28,2,1.0,0.8262862125919892,0.0
28,2,0.75,0.8247523491971394,0.15338633948498437
28,2,0.5,0.8254322175143912,0.08539950775979799
28,2,0.25,0.8219309389968229,0.4355273595166298
28,2,0.0,0.8197893013552795,0.6496911236709701
28,3,1.0,0.8262862125919892,0.0
28,3,0.75,0.8400322226792815,-1.374601008729226
28,3,0.5,0.8291431123709605,-0.28568997789713
28,3,0.25,0.8183211298016262,0.796508279036301
28,3,0.0,0.7999620128030995,2.632419978888967
28,4,1.0,0.8262862125919892,0.0
28,4,0.75,0.8138559919152855,1.243022067670374
28,4,0.5,0.8018227016958827,2.4463510896106544
28,4,0.25,0.790646207755818,3.5640004836171246
28,4,0.0,0.776332312297353,4.9953900294636195
28,5,1.0,0.8262862125919892,0.0
28,5,0.75,0.8067872063633996,1.9499006228589577
28,5,0.5,0.7823888908606978,4.3897321731291346
28,5,0.25,0.7619568529464582,6.432935964553099
28,5,0.0,0.7495724864859374,7.671372610605176
28,6,1.0,0.8262862125919892,0.0
28,6,0.75,0.8312812929599276,-0.4995080367938387
28,6,0.5,0.8329218445700703,-0.6635631978081147
28,6,0.25,0.8307547828950368,-0.4468570303047592
28,6,0.0,0.8247690835697988,0.15171290221903666
28,7,1.0,0.8262862125919892,0.0
28,7,0.75,0.8341689900403224,-0.7882777448333211
28,7,0.5,0.8326462936483716,-0.6360081056382416
28,7,0.25,0.8190589638510106,0.7227248740978576
28,7,0.0,0.8181096605177652,0.8176552074223964
28,8,1.0,0.8262862125919892,0.0
28,8,0.75,0.8349417632698214,-0.8655550677832191
28,8,0.5,0.8301140493886046,-0.3827836796615358
28,8,0.25,0.8337565638872015,-0.7470351295212341
28,8,0.0,0.811171533936897,1.5114678655092195
29,0,1.0,0.8183727838746788,0.0
29,0,0.75,0.8165322966222923,0.18404872523865023
29,0,0.5,0.829379453888986,-1.1006670014307218
29,0,0.25,0.8225020548848101,-0.41292710101312746
29,0,0.0,0.8072726969432236,1.1100086931455255
29,1,1.0,0.8183727838746788,0.0
29,1,0.75,0.8178032931392987,0.05694907353801515
29,1,0.5,0.8162025537007154,0.217023017396345
29,1,0.25,0.8144422543913475,0.393052948333128
29,1,0.0,0.8145571057958917,0.38156780787871325
29,2,1.0,0.8183727838746788,0.0
29,2,0.75,0.8159467926550771,0.2425991219601742
29,2,0.5,0.8150909634502017,0.3281820424477111
29,2,0.25,0.8108965618546456,0.7476222020033174
29,2,0.0,0.8085661034874523,0.9806680387226541
29,3,1.0,0.8183727838746788,0.0
29,3,0.75,0.8080585371900273,1.031424668465153
29,3,0.5,0.7998620316571949,1.8510752217483883
29,3,0.25,0.7966014135984745,2.177137027620435
29,3,0.0,0.7888540107107747,2.9518773163904166
29,4,1.0,0.8183727838746788,0.0
29,4,0.75,0.7903185568402088,2.8054227034470025
29,4,0.5,0.7630031761941972,5.536960768048161
29,4,0.25,0.7564751128832293,6.18976709914495
29,4,0.0,0.759483463902745,5.888931997193381
29,5,1.0,0.8183727838746788,0.0
29,5,0.75,0.806960778293375,1.1412005581303841
29,5,0.5,0.789647140449995,2.8725643424683867
29,5,0.25,0.7820258149341497,3.6346968940529134
29,5,0.0,0.7743247746392035,4.404800923547536
29,6,1.0,0.8183727838746788,0.0
29,6,0.75,0.8238532797315634,-0.5480495856884593
29,6,0.5,0.828638837997588,-1.0266054122909152
29,6,0.25,0.8288536008873745,-1.0480817012695653
29,6,0.0,0.8261756980663184,-0.7802914191639587
29,7,1.0,0.8183727838746788,0.0
29,7,0.75,0.8156768834819966,0.26959003926821934
29,7,0.5,0.8098371416070329,0.8535642267645915
29,7,0.25,0.8113849003360665,0.698788353861235
29,7,0.0,0.7972792982799884,2.1093485594690375
29,8,1.0,0.8183727838746788,0.0
29,8,0.75,0.8149692960770569,0.3403487797621896
29,8,0.5,0.807985791199519,1.0386992675159856
29,8,0.25,0.789283998594299,2.9088785280379836
29,8,0.0,0.7697178652676309,4.865491860704796
30,0,1.0,0.8674602222966241,0.0
30,0,0.75,0.8586374479757952,0.8822774320828897
30,0,0.5,0.8590270651433838,0.8433157153240334
30,0,0.25,0.862955063775795,0.4505158520829111
30,0,0.0,0.8664374208646196,0.10228014320045054
30,1,1.0,0.8674602222966241,0.0
30,1,0.75,0.8596208200470793,0.7839402249544825
30,1,0.5,0.8422565900781946,2.5203632218429473
30,1,0.25,0.8231434719695627,4.431675032706139
30,1,0.0,0.8217232410226889,4.573698127393522
30,2,1.0,0.8674602222966241,0.0
30,2,0.75,0.8675478363344166,-0.008761403779244947
30,2,0.5,0.859164345340034,0.8295876956590065
30,2,0.25,0.8638187828858418,0.3641439410782321
30,2,0.0,0.8681509649617074,-0.06907426650832882
30,3,1.0,0.8674602222966241,0.0
30,3,0.75,0.8583264830189807,0.9133739277643382
30,3,0.5,0.8541703695862414,1.3289852710382744
30,3,0.25,0.831283509412801,3.617671288382307
30,3,0.0,0.8305850370518613,3.6875185244762854
30,4,1.0,0.8674602222966241,0.0
30,4,0.75,0.8630809912485632,0.43792310480609276
30,4,0.5,0.852393546451933,1.5066675844691124
30,4,0.25,0.8572922295931018,1.016799270352231
30,4,0.0,0.8661767799509292,0.1283442345694885
30,5,1.0,0.8674602222966241,0.0
30,5,0.75,0.8622148471514122,0.524537514521195
30,5,0.5,0.8652996145705372,0.21606077260869494
30,5,0.25,0.8570456313506127,1.0414590946011382
30,5,0.0,0.8529734476659885,1.4486774630635635
30,6,1.0,0.8674602222966241,0.0
30,6,0.75,0.8576509824602523,0.980923983637183
30,6,0.5,0.8560610918991788,1.1399130397445334
30,6,0.25,0.8639005715055601,0.35596507910640174
30,6,0.0,0.8742476802314222,-0.6787457934798069
30,7,1.0,0.8674602222966241,0.0
30,7,0.75,0.8439254303900673,2.353479190655683
30,7,0.5,0.8341222840878536,3.3337938208770512
30,7,0.25,0.8091146733580684,5.83455489385557
30,7,0.0,0.8239647582960993,4.349546400052484
30,8,1.0,0.8674602222966241,0.0
30,8,0.75,0.8542431604152884,1.3217061881335757
30,8,0.5,0.8524462509762454,1.5013971320378738
30,8,0.25,0.8609280900933947,0.6532132203229457
30,8,0.0,0.8536597207148601,1.3800501581764046
31,0,1.0,0.7813093162142867,0.0
31,0,0.75,0.7807440321091521,0.056528410513456695
31,0,0.5,0.775182047365833,0.6127268848453715
31,0,0.25,0.7747871228612154,0.6522193353071248
31,0,0.0,0.7615274238359642,1.9781892378322508
31,1,1.0,0.7813093162142867,0.0
31,1,0.75,0.7695682102628285,1.1741105951458164
31,1,0.5,0.7703871491130914,1.0922167101195313
31,1,0.25,0.7701802263813011,1.112908983298555
31,1,0.0,0.7581938753794536,2.311544083483308
31,2,1.0,0.7813093162142867,0.0
31,2,0.75,0.7754497912455571,0.5859524968729546
31,2,0.5,0.7588442743754872,2.2465041838799493
31,2,0.25,0.7489161351348315,3.2393181079455213
31,2,0.0,0.7348312819589558,4.647803425533093
31,3,1.0,0.7813093162142867,0.0
31,3,0.75,0.7975905727425624,-1.6281256528275723
31,3,0.5,0.7949130387839918,-1.3603722569705101
31,3,0.25,0.785394537523863,-0.4085221309576337
31,3,0.0,0.7851529796660924,-0.38436634518057566
31,4,1.0,0.7813093162142867,0.0
31,4,0.75,0.7757538884859654,0.5555427728321294
31,4,0.5,0.7587141555657952,2.259516064849143
31,4,0.25,0.7489505995466685,3.2358716667618137
31,4,0.0,0.7578523893203679,2.345692689391876
31,5,1.0,0.7813093162142867,0.0
31,5,0.75,0.7870655048255315,-0.5756188611244828
31,5,0.5,0.7668638954947513,1.4445420719535362
31,5,0.25,0.7651242870637806,1.6185029150506125
31,5,0.0,0.7683062249704314,1.3003091243855236
31,6,1.0,0.7813093162142867,0.0
31,6,0.75,0.7740097099092429,0.7299606305043782
31,6,0.5,0.7788577021128245,0.24516141014622184
31,6,0.25,0.776805576218172,0.4503739996114642
31,6,0.0,0.7777935621606287,0.35157540536580045
31,7,1.0,0.7813093162142867,0.0
31,7,0.75,0.7768922795629798,0.44170366513068826
31,7,0.5,0.7670879335064249,1.4221382707861774
31,7,0.25,0.7439318749283931,3.73774412858936
31,7,0.0,0.7331657260217144,4.81435901925723
31,8,1.0,0.7813093162142867,0.0
31,8,0.75,0.7762000141315524,0.5109302082734302
31,8,0.5,0.7603446106224885,2.0964705591798194
31,8,0.25,0.7357585821967121,4.5550734017574595
31,8,0.0,0.7268613699438644,5.444794627042226
32,0,1.0,0.8231640899596245,0.0
32,0,0.75,0.8256416428944946,-0.24775529348700642
32,0,0.5,0.835319357916058,-1.2155267956433513
32,0,0.25,0.8269626126929711,-0.37985227333465765
32,0,0.0,0.8113032901052611,1.186079985436339
32,1,1.0,0.8231640899596245,0.0
32,1,0.75,0.8285470061945607,-0.5382916234936141
32,1,0.5,0.8277095888525184,-0.45454988928939066
32,1,0.25,0.8248238639179322,-0.1659773958307631
32,1,0.0,0.8136122472005873,0.9551842759037199
32,2,1.0,0.8231640899596245,0.0
32,2,0.75,0.8189441259207939,0.4219964038830626
32,2,0.5,0.8037276831172512,1.9436406842373355
32,2,0.25,0.7995638706175323,2.360021934209222
32,2,0.0,0.7958189094612405,2.734518049838408
32,3,1.0,0.8231640899596245,0.0
32,3,0.75,0.8186109507547537,0.4553139204870882
32,3,0.5,0.8071381155691226,1.6025974390501907
32,3,0.25,0.7866383260177124,3.6525763941912093
32,3,0.0,0.789248451224088,3.391563873553649
32,4,1.0,0.8231640899596245,0.0
32,4,0.75,0.8096962942054893,1.3467795754135259
32,4,0.5,0.7995098942547665,2.365419570485805
32,4,0.25,0.7993536198910045,2.3810470068620027
32,4,0.0,0.8258748016454881,-0.2710711685863565
32,5,1.0,0.8231640899596245,0.0
32,5,0.75,0.8219441821177196,0.12199078419049547
32,5,0.5,0.8184929227122377,0.46711672473868093
32,5,0.25,0.8179394073793173,0.5224682580307283
32,5,0.0,0.8109732875600925,1.2190802399532075
32,6,1.0,0.8231640899596245,0.0
32,6,0.75,0.8222058148924216,0.09582750672029183
32,6,0.5,0.8202990726332229,0.2865017326401653
32,6,0.25,0.8163341037715056,0.6829986188118919
32,6,0.0,0.8325504442487031,-0.9386354289078525
32,7,1.0,0.8231640899596245,0.0
32,7,0.75,0.8265267785580703,-0.33626885984457955
32,7,0.5,0.810546604234282,1.2617485725342492
32,7,0.25,0.7971065204714937,2.605756948813087
32,7,0.0,0.8020972800547468,2.106680990487775
32,8,1.0,0.8231640899596245,0.0
32,8,0.75,0.8291718856439668,-0.6007795684342288
32,8,0.5,0.8268005336382173,-0.3636443678592727
32,8,0.25,0.8447285713984217,-2.156448143879719
32,8,0.0,0.8399273519917224,-1.676326203209788
33,0,1.0,0.8708466222717128,0.0
33,0,0.75,0.8722929627879055,-0.14463405161926346
33,0,0.5,0.8728173578004891,-0.19707355287762462
33,0,0.25,0.8690274815726662,0.18191406990466508
33,0,0.0,0.8463986926506791,2.4447929621033704
33,1,1.0,0.8708466222717128,0.0
33,1,0.75,0.8748381465348303,-0.3991524263117441
33,1,0.5,0.8751979251979252,-0.43513029262123304
33,1,0.25,0.8748859248859249,-0.4039302614212037
33,1,0.0,0.8615845535862343,0.926206868547852
33,2,1.0,0.8708466222717128,0.0
33,2,0.75,0.8774550160799589,-0.6608393808246071
33,2,0.5,0.8717705497731938,-0.09239275014809589
33,2,0.25,0.8700284862539142,0.08181360177986763
33,2,0.0,0.8564325653137954,1.441405695791742
33,3,1.0,0.8708466222717128,0.0
33,3,0.75,0.872536632835744,-0.16900105640311747
33,3,0.5,0.8698062564508148,0.10403658208980593
33,3,0.25,0.859197973409733,1.1648648861979805
33,3,0.0,0.8586539647096401,1.2192657562072773
33,4,1.0,0.8708466222717128,0.0
33,4,0.75,0.8838224438547778,-1.2975821583064984
33,4,0.5,0.9027006616986466,-3.1854039426933767
33,4,0.25,0.8992961577913035,-2.844953551959062
33,4,0.0,0.8760392771056278,-0.5192654833914956
33,5,1.0,0.8708466222717128,0.0
33,5,0.75,0.8745121559256569,-0.3665533653944064
33,5,0.5,0.8728605596560863,-0.20139373843734987
33,5,0.25,0.8682581176727084,0.2588504599004393
33,5,0.0,0.8768359585792103,-0.5989336307497428
33,6,1.0,0.8708466222717128,0.0
33,6,0.75,0.8677373412494334,0.31092810222794753
33,6,0.5,0.8531831109094884,1.7663511362224438
33,6,0.25,0.8377461900556804,3.3100432216032427
33,6,0.0,0.8469473771317879,2.389924513992492
33,7,1.0,0.8708466222717128,0.0
33,7,0.75,0.8693829520407248,0.14636702309880345
33,7,0.5,0.8592184798482146,1.162814242349819
33,7,0.25,0.8520554755919614,1.8791146679751458
33,7,0.0,0.8404543867727718,3.039223549894099
33,8,1.0,0.8708466222717128,0.0
33,8,0.75,0.8613001444407011,0.9546477831011702
33,8,0.5,0.8613169038895538,0.9529718382158991
33,8,0.25,0.8468950270715987,2.395159520011414
33,8,0.0,0.8250350510128894,4.58115712588234
34,0,1.0,0.9100410246784243,0.0
34,0,0.75,0.9008994585079724,0.914156617045192
34,0,0.5,0.9048947787113358,0.5146245967088459
34,0,0.25,0.9106107258834788,-0.056970120505450694
34,0,0.0,0.8909257748549028,1.911524982352153
34,1,1.0,0.9100410246784243,0.0
34,1,0.75,0.9088893688516311,0.11516558267932187
34,1,0.5,0.9124135539893755,-0.23725293109512213
34,1,0.25,0.9116406420002791,-0.15996173218547627
34,1,0.0,0.9113983542451942,-0.1357329566769927
34,2,1.0,0.9100410246784243,0.0
34,2,0.75,0.9051177059385982,0.4923318739826099
34,2,0.5,0.9052963654693963,0.47446592090280015
34,2,0.25,0.9091698141547402,0.08712105236841072
34,2,0.0,0.9051112542602541,0.49297704181702207
34,3,1.0,0.9100410246784243,0.0
34,3,0.75,0.9077154432830755,0.23255813953487747
34,3,0.5,0.899568623355214,1.0472401323210256
34,3,0.25,0.8884276275106949,2.1613397167729365
34,3,0.0,0.8779710945362141,3.2069930142210157
34,4,1.0,0.9100410246784243,0.0
34,4,0.75,0.9043639772857046,0.5677047392719681
34,4,0.5,0.8936330915975492,1.640793308087507
34,4,0.25,0.8967393996420377,1.3301625036386544
34,4,0.0,0.9068134062668392,0.32276184115851425
34,5,1.0,0.9100410246784243,0.0
34,5,0.75,0.8980877981917001,1.1953226486724144
34,5,0.5,0.8953563460835511,1.4684678594873213
34,5,0.25,0.8936301847323479,1.6410839946076394
34,5,0.0,0.8846296616435453,2.541136303487901
34,6,1.0,0.9100410246784243,0.0
34,6,0.75,0.9100410246784243,0.0
34,6,0.5,0.9045199127345385,0.5521111943885826
34,6,0.25,0.8940779621783176,1.5963062500106706
34,6,0.0,0.8924649136204731,1.7576111057951205
34,7,1.0,0.9100410246784243,0.0
34,7,0.75,0.8972781504434832,1.2762874234941046
34,7,0.5,0.8860548988178721,2.3986125860552154
34,7,0.25,0.8731834198635079,3.68576048149164
34,7,0.0,0.8729093231739093,3.7131701504514947
34,8,1.0,0.9100410246784243,0.0
34,8,0.75,0.9073899533584092,0.2651071320015075
34,8,0.5,0.9042240755186057,0.5816949159818563
34,8,0.25,0.9053789505346018,0.466207414382247
34,8,0.0,0.8826535365879964,2.7387488090427903
35,0,1.0,0.701646290946849,0.0
35,0,0.75,0.690411888944698,1.123440200215109
35,0,0.5,0.6883963315074615,1.324995943938756
35,0,0.25,0.6899584742828131,1.1687816664035955
35,0,0.0,0.6886869261311936,1.2959364815655405
35,1,1.0,0.701646290946849,0.0
35,1,0.75,0.7014363398649864,0.02099510818626138
35,1,0.5,0.689462681263408,1.218360968344101
35,1,0.25,0.6862240561265315,1.542223482031757
35,1,0.0,0.6857072882454103,1.5939002701438776
35,2,1.0,0.701646290946849,0.0
35,2,0.75,0.7054007870721266,-0.3754496125277562
35,2,0.5,0.7092370748995618,-0.7590783952712732
35,2,0.25,0.70591983251415,-0.4273541567300976
35,2,0.0,0.7083209304530069,-0.6674639506157876
35,3,1.0,0.701646290946849,0.0
35,3,0.75,0.6943869833608787,0.7259307585970376
35,3,0.5,0.6939820107566168,0.7664280190232242
35,3,0.25,0.6906392654097531,1.1007025537095982
35,3,0.0,0.6936227984975809,0.8023492449268144
35,4,1.0,0.701646290946849,0.0
35,4,0.75,0.7070776771426646,-0.5431386195815513
35,4,0.5,0.7090827148209304,-0.7436423874081388
35,4,0.25,0.7126597754941673,-1.1013484547318209
35,4,0.0,0.7260136310610557,-2.4367340114206604
35,5,1.0,0.701646290946849,0.0
35,5,0.75,0.6978497208769515,0.37965700698975313
35,5,0.5,0.699784848809605,0.18614421372440404
35,5,0.25,0.6966447573732103,0.500153357363875
35,5,0.0,0.687512276987261,1.413401395958802
35,6,1.0,0.701646290946849,0.0
35,6,0.75,0.7047704156020371,-0.31241246551880764
35,6,0.5,0.7162097852894271,-1.4563494342578087
35,6,0.25,0.7184510642276393,-1.680477328079022
35,6,0.0,0.7159584946998527,-1.4312203753003683
35,7,1.0,0.701646290946849,0.0
35,7,0.75,0.7069015792394078,-0.5255288292558724
35,7,0.5,0.7063810275339928,-0.47347365871437397
35,7,0.25,0.6997675307214568,0.18787602253922397
35,7,0.0,0.7030131839702142,-0.13668930233651233
35,8,1.0,0.701646290946849,0.0
35,8,0.75,0.7049172990233661,-0.32710080765170346
35,8,0.5,0.6978793384233868,0.37669525234622636
35,8,0.25,0.6988222193284179,0.2824071618431123
35,8,0.0,0.6821404370727292,1.950585387411985
36,0,1.0,0.6354447341303459,0.0
36,0,0.75,0.6431103894820005,-0.7665655351654643
36,0,0.5,0.6393146671221537,-0.3869932991807823
36,0,0.25,0.6378886097010398,-0.24438755706939208
36,0,0.0,0.6453617480469698,-0.9917013916623918
36,1,1.0,0.6354447341303459,0.0
36,1,0.75,0.655696682307543,-2.025194817719711
36,1,0.5,0.6678961205026324,-3.2451386372286506
36,1,0.25,0.6564176008620453,-2.09728667316994
36,1,0.0,0.6526972095473954,-1.725247541704955
36,2,1.0,0.6354447341303459,0.0
36,2,0.75,0.6368097208579768,-0.1364986727630968
36,2,0.5,0.6514702290087111,-1.6025494878365243
36,2,0.25,0.6481390002274612,-1.2694266097115325
36,2,0.0,0.6432187615075536,-0.7774027377207782
36,3,1.0,0.6354447341303459,0.0
36,3,0.75,0.6351777831984813,0.026695093186457353
36,3,0.5,0.6195227325106925,1.5922001619653403
36,3,0.25,0.615429980845736,2.0014753284609887
36,3,0.0,0.6082965993347471,2.7148134795598744
36,4,1.0,0.6354447341303459,0.0
36,4,0.75,0.6408342042122257,-0.5389470081879844
36,4,0.5,0.6376471948896751,-0.22024607593292833
36,4,0.25,0.6487912365804582,-1.3346502450112374
36,4,0.0,0.6478011381957669,-1.2356404065421045
36,5,1.0,0.6354447341303459,0.0
36,5,0.75,0.647551702311382,-1.2106968181036182
36,5,0.5,0.6596265523709722,-2.4181818240626374
36,5,0.25,0.673336643197189,-3.7891909066843144
36,5,0.0,0.6616775554425894,-2.623282131224358
36,6,1.0,0.6354447341303459,0.0
36,6,0.75,0.6430987054222645,-0.7653971291918693
36,6,0.5,0.6341043620582566,0.13403720720892576
36,6,0.25,0.6242758830401047,1.1168851090241128
36,6,0.0,0.623904422804278,1.154031132606781
36,7,1.0,0.6354447341303459,0.0
36,7,0.75,0.6308469215770073,0.4597812553338576
36,7,0.5,0.6074679484913987,2.797678563894712
36,7,0.25,0.585451375855658,4.999335827468787
36,7,0.0,0.5352239478098368,10.022078632050901
36,8,1.0,0.6354447341303459,0.0
36,8,0.75,0.6242019567174617,1.1242777412884153
36,8,0.5,0.6160225354288402,1.9422198701505633
36,8,0.25,0.600283318195687,3.5161415934658824
36,8,0.0,0.5781835454702543,5.7261188660091555
37,0,1.0,0.8640198621085634,0.0
37,0,0.75,0.8559149026558163,0.810495945274714
37,0,0.5,0.8535979658369433,1.0421896271620157
37,0,0.25,0.8397595860660514,2.426027604251202
37,0,0.0,0.8539937915477935,1.0026070560769873
37,1,1.0,0.8640198621085634,0.0
37,1,0.75,0.8664228172046873,-0.2402955096123871
37,1,0.5,0.8526413275049121,1.1378534603651347
37,1,0.25,0.8358729320323623,2.814693007620106
37,1,0.0,0.8363235249598886,2.769633714867481
37,2,1.0,0.8640198621085634,0.0
37,2,0.75,0.8550387266777393,0.8981135430824128
37,2,0.5,0.8514782754945455,1.254158661401794
37,2,0.25,0.845617492655167,1.840236945339646
37,2,0.0,0.8354070167512467,2.8612845357316674
37,3,1.0,0.8640198621085634,0.0
37,3,0.75,0.8525218344345811,1.1498027673982336
37,3,0.5,0.8532046081507557,1.0815253957807691
37,3,0.25,0.8370484113256537,2.6971450782909745
37,3,0.0,0.8515214304900042,1.2498431618559236
37,4,1.0,0.8640198621085634,0.0
37,4,0.75,0.8716549333681748,-0.7635071259611381
37,4,0.5,0.8621908854797793,0.1828976628784118
37,4,0.25,0.8569053869900981,0.7114475118465302
37,4,0.0,0.8586961434504865,0.5323718658076904
37,5,1.0,0.8640198621085634,0.0
37,5,0.75,0.8701928269604238,-0.6172964851860363
37,5,0.5,0.8637344527615,0.028540934706344778
37,5,0.25,0.8658235292075352,-0.18036670989718395
37,5,0.0,0.8606221667567706,0.33976953517927955
37,6,1.0,0.8640198621085634,0.0
37,6,0.75,0.8549800221724184,0.9039839936144989
37,6,0.5,0.8594595516735475,0.4560310435015924
37,6,0.25,0.8514189213235817,1.2600940784981751
37,6,0.0,0.8473615806679541,1.6658281440609324
37,7,1.0,0.8640198621085634,0.0
37,7,0.75,0.8519170786885539,1.2102783420009477
37,7,0.5,0.8388426096471873,2.5177252461376143
37,7,0.25,0.8252094855491459,3.8810376559417548
37,7,0.0,0.8198219087314876,4.419795337707577
37,8,1.0,0.8640198621085634,0.0
37,8,0.75,0.8557334445952429,0.8286417513320488
37,8,0.5,0.8617863624482804,0.2233499660282967
37,8,0.25,0.8509503589700009,1.3069503138562477
37,8,0.0,0.8543736668085881,0.9646195299975346
38,0,1.0,0.8119186190314499,0.0
38,0,0.75,0.79868143858262,1.3237180448829933
38,0,0.5,0.7835317891762952,2.8386829855154727
38,0,0.25,0.7792501100912124,3.266850894023754
38,0,0.0,0.7569753501624573,5.494326886899259
38,1,1.0,0.8119186190314499,0.0
38,1,0.75,0.8126275277354147,-0.07089087039647834
38,1,0.5,0.8094666230396772,0.2451995991772704
38,1,0.25,0.8032339550701877,0.8684663961262218
38,1,0.0,0.7999958648807617,1.192275415068822
38,2,1.0,0.8119186190314499,0.0
38,2,0.75,0.8236570954525511,-1.1738476421101152
38,2,0.5,0.8140846354993354,-0.2166016467885501
38,2,0.25,0.8148254586140844,-0.29068395826344906
38,2,0.0,0.8191834171047327,-0.7264798073282841
38,3,1.0,0.8119186190314499,0.0
38,3,0.75,0.8356124933127356,-2.3693874281285665
38,3,0.5,0.8262672359593142,-1.4348616927864266
38,3,0.25,0.8165896924940887,-0.46710734626388417
38,3,0.0,0.7867708876683748,2.514773136307513
38,4,1.0,0.8119186190314499,0.0
38,4,0.75,0.8050782565548937,0.6840362476556172
38,4,0.5,0.8026502055367454,0.926841349470453
38,4,0.25,0.7974053378804182,1.4513281151031676
38,4,0.0,0.8003725143439866,1.154610468746331
38,5,1.0,0.8119186190314499,0.0
38,5,0.75,0.804587239260274,0.7331379771175928
38,5,0.5,0.7993670665790525,1.2551552452397363
38,5,0.25,0.8001822471241573,1.1736371907292598
38,5,0.0,0.808528296118084,0.33903229133659396
38,6,1.0,0.8119186190314499,0.0
38,6,0.75,0.8093649419090427,0.2553677122407172
38,6,0.5,0.805318438309665,0.6600180721784921
38,6,0.25,0.8059448800259446,0.5973739005505352
38,6,0.0,0.80421529899224,0.7703320039209927
38,7,1.0,0.8119186190314499,0.0
38,7,0.75,0.806682174785623,0.5236444245826921
38,7,0.5,0.8151087808229911,-0.31901617915411906
38,7,0.25,0.7910258004167849,2.0892818614664965
38,7,0.0,0.7638264237096384,4.809219532181153
38,8,1.0,0.8119186190314499,0.0
38,8,0.75,0.8144802942545049,-0.2561675223054949
38,8,0.5,0.810525021866559,0.13935971648909584
38,8,0.25,0.7996824090151073,1.2236210016342564
38,8,0.0,0.8011399618033088,1.0778657228141086
39,0,1.0,0.8481787668689991,0.0
39,0,0.75,0.8251153705688302,2.306339630016885
39,0,0.5,0.827553659740636,2.0625107128363074
39,0,0.25,0.831036418692741,1.7142348176258038
39,0,0.0,0.821859493505835,2.6319273363164086
39,1,1.0,0.8481787668689991,0.0
39,1,0.75,0.8431994121898769,0.4979354679122139
39,1,0.5,0.8455511018635962,0.26276650054029016
39,1,0.25,0.8330093474531013,1.5169419415897778
39,1,0.0,0.8279168467021575,2.0261920166841585
39,2,1.0,0.8481787668689991,0.0
39,2,0.75,0.8489456191210932,-0.07668522520941634
39,2,0.5,0.8463339674242376,0.1844799444761458
39,2,0.25,0.8443749193971065,0.3803847471892552
39,2,0.0,0.8317981973728572,1.6380569496141861
39,3,1.0,0.8481787668689991,0.0
39,3,0.75,0.8394996481314164,0.8679118737582647
39,3,0.5,0.8200715806697263,2.810718619927277
39,3,0.25,0.7917820065736733,5.6396760295325805
39,3,0.0,0.7355975547033573,11.258121216564177
39,4,1.0,0.8481787668689991,0.0
39,4,0.75,0.8326438883831975,1.5534878485801595
39,4,0.5,0.8200832568652991,2.809551000369992
39,4,0.25,0.7998671773865551,4.831158948244396
39,4,0.0,0.7859755651695467,6.2203201699452375
39,5,1.0,0.8481787668689991,0.0
39,5,0.75,0.8264999355735624,2.1678831295436685
39,5,0.5,0.8289784269596988,1.9200339909300257
39,5,0.25,0.8292530127885658,1.8925754080433288
39,5,0.0,0.8173422438327628,3.0836523036236296
39,6,1.0,0.8481787668689991,0.0
39,6,0.75,0.8454652232970574,0.27135435719416456
39,6,0.5,0.8505347480224733,-0.23559811534742403
39,6,0.25,0.8378279133448185,1.0350853524180526
39,6,0.0,0.8512464129200481,-0.30676460510490333
39,7,1.0,0.8481787668689991,0.0
39,7,0.75,0.854579263078201,-0.6400496209201911
39,7,0.5,0.8541964462182506,-0.601767934925157
39,7,0.25,0.8267914651443498,2.138730172464931
39,7,0.0,0.8250811724552288,2.309759441377024
39,8,1.0,0.8481787668689991,0.0
39,8,0.75,0.8493436852862063,-0.1164918417207228
39,8,0.5,0.8576109725221285,-0.9432205653129411
39,8,0.25,0.8660187622164373,-1.7839995347438187
39,8,0.0,0.8665954775149254,-1.8416710645926315
40,0,1.0,0.8201013364199023,0.0
40,0,0.75,0.7960315464100031,2.4069790009899283
40,0,0.5,0.7767226381511398,4.337869826876251
40,0,0.25,0.753489649677488,6.661168674241436
40,0,0.0,0.7428807865257817,7.722054989412063
40,1,1.0,0.8201013364199023,0.0
40,1,0.75,0.8115139390916921,0.8587397328210233
40,1,0.5,0.7995939685952428,2.050736782465956
40,1,0.25,0.7822203770443656,3.7880959375536705
40,1,0.0,0.7742453274169692,4.5856009002933185
40,2,1.0,0.8201013364199023,0.0
40,2,0.75,0.8252936212381597,-0.5192284818257398
40,2,0.5,0.8265392103153013,-0.643787389539896
40,2,0.25,0.8180972968353668,0.2004039584535544
40,2,0.0,0.8372791332745566,-1.717779685465426
40,3,1.0,0.8201013364199023,0.0
40,3,0.75,0.8123541262314817,0.7747210188420617
40,3,0.5,0.8112558980923665,0.8845438327535815
40,3,0.25,0.7923512222727507,2.775011414715167
40,3,0.0,0.7867376864362773,3.3363649983625066
40,4,1.0,0.8201013364199023,0.0
40,4,0.75,0.8183827469321614,0.17185894877409513
40,4,0.5,0.8186003483636345,0.150098805626786
40,4,0.25,0.8155011652451847,0.4600171174717671
40,4,0.0,0.830666435941408,-1.0565099521505639
40,5,1.0,0.8201013364199023,0.0
40,5,0.75,0.8155812025500152,0.4520133869887144
40,5,0.5,0.8143817294947249,0.5719606925177478
40,5,0.25,0.8068342415619744,1.3267094857927986
40,5,0.0,0.8223239998406644,-0.222266342076205
40,6,1.0,0.8201013364199023,0.0
40,6,0.75,0.8146803091308226,0.5421027289079783
40,6,0.5,0.8113752623248245,0.8726074095077863
40,6,0.25,0.8114383938393839,0.8662942580518473
40,6,0.0,0.8050363288852035,1.506500753469886
40,7,1.0,0.8201013364199023,0.0
40,7,0.75,0.8127519217060042,0.7349414713898161
40,7,0.5,0.7998063314578565,2.0295004962045837
40,7,0.25,0.776020815435961,4.408052098394133
40,7,0.0,0.7510425469157967,6.90587895041056
40,8,1.0,0.8201013364199023,0.0
40,8,0.75,0.826156551712476,-0.605521529257369
40,8,0.5,0.821084319566751,-0.09829831468486372
40,8,0.25,0.8218949509509785,-0.1793614531076182
40,8,0.0,0.8220310745979116,-0.19297381780092326
