subject,channel,f1_full,f1_occluded,drop_pp
1,0,0.681202376381949,0.651731692818604,2.9470683563345035
1,1,0.681202376381949,0.6885616366890597,-0.7359260307110649
1,2,0.681202376381949,0.7023430280673629,-2.1140651685413903
1,3,0.681202376381949,0.6499309945338452,3.127138184810385
1,4,0.681202376381949,0.7124899586088831,-3.1287582226934063
1,5,0.681202376381949,0.6283931714793428,5.2809204902606215
1,6,0.681202376381949,0.7137910569623999,-3.2588680580450835
1,7,0.681202376381949,0.6276233584302355,5.357901795171349
1,8,0.681202376381949,0.6731737697851254,0.8028606596823584
2,0,0.8554306923918993,0.8108485749522016,4.458211743969764
2,1,0.8554306923918993,0.8223749630286857,3.305572936321355
2,2,0.8554306923918993,0.8203627007561107,3.5067991635788553
2,3,0.8554306923918993,0.8206105114889861,3.4820180902913167
2,4,0.8554306923918993,0.8561826170833795,-0.07519246914802213
2,5,0.8554306923918993,0.8322354909751556,2.3195201416743694
2,6,0.8554306923918993,0.8563159584651201,-0.0885266073220814
2,7,0.8554306923918993,0.7865489612959166,6.888173109598272
2,8,0.8554306923918993,0.8362140938175312,1.9216598574368082
3,0,0.8561362054235293,0.8432873418334434,1.2848863590085857
3,1,0.8561362054235293,0.8311496713581132,2.4986534065416066
3,2,0.8561362054235293,0.8615132274362827,-0.5377022012753363
3,3,0.8561362054235293,0.7440015515121892,11.213465391134015
3,4,0.8561362054235293,0.8527439451223104,0.33922603012188635
3,5,0.8561362054235293,0.884403873139793,-2.8267667716263656
3,6,0.8561362054235293,0.8578068871494975,-0.16706817259681817
3,7,0.8561362054235293,0.8212418772475557,3.48943281759736
3,8,0.8561362054235293,0.849194603272773,0.6941602150756343
4,0,0.8860357551153635,0.8871345878925814,-0.10988327772178952
4,1,0.8860357551153635,0.8204341462298683,6.5601608885495155
4,2,0.8860357551153635,0.8400801578132616,4.595559730210185
4,3,0.8860357551153635,0.8909088912888306,-0.4873136173467074
4,4,0.8860357551153635,0.8836771871869578,0.23585679284057193
4,5,0.8860357551153635,0.8930735545661715,-0.7037799450808069
4,6,0.8860357551153635,0.8841247089103006,0.1911046205062883
4,7,0.8860357551153635,0.8841957053911874,0.18400497241760627
4,8,0.8860357551153635,0.8496250999423588,3.641065517300468
5,0,0.6153264323198588,0.6258139242576888,-1.048749193782994
5,1,0.6153264323198588,0.6379398475440544,-2.2613415224195577
5,2,0.6153264323198588,0.6011215891605146,1.4204843159344227
5,3,0.6153264323198588,0.6493094390736209,-3.398300675376209
5,4,0.6153264323198588,0.5789858619703976,3.6340570349461254
5,5,0.6153264323198588,0.5975613999379186,1.7765032381940271
5,6,0.6153264323198588,0.6081223466686132,0.720408565124564
5,7,0.6153264323198588,0.6095762981794804,0.5750134140378393
5,8,0.6153264323198588,0.6002817201702799,1.504471214957892
6,0,0.7759662975996338,0.7713838619918563,0.4582435607777491
6,1,0.7759662975996338,0.7680716306524994,0.7894666947134366
6,2,0.7759662975996338,0.7821034356992218,-0.6137138099588046
6,3,0.7759662975996338,0.8117283494154344,-3.576205181580061
6,4,0.7759662975996338,0.7972083982612974,-2.1242100661663654
6,5,0.7759662975996338,0.762701211088724,1.326508651090974
6,6,0.7759662975996338,0.7721261900425278,0.3840107557105954
6,7,0.7759662975996338,0.7341103413842602,4.185595621537352
6,8,0.7759662975996338,0.7704778810067472,0.5488416592886569
7,0,0.7767895116826817,0.7636909495195241,1.3098562163157634
7,1,0.7767895116826817,0.7542422727519366,2.2547238930745173
7,2,0.7767895116826817,0.7537009660898145,2.3088545592867216
7,3,0.7767895116826817,0.7875785807771102,-1.078906909442845
7,4,0.7767895116826817,0.7491394951172087,2.7650016565473057
7,5,0.7767895116826817,0.8283125335692776,-5.1523021886595854
7,6,0.7767895116826817,0.7412442075996293,3.5545304083052454
7,7,0.7767895116826817,0.7441788119117817,3.261069977090003
7,8,0.7767895116826817,0.7343181953377266,4.247131634495515
8,0,0.8454301179686707,0.8206196625739162,2.481045539475457
8,1,0.8454301179686707,0.8685450529704013,-2.3114935001730563
8,2,0.8454301179686707,0.8650436881422163,-1.9613570173545591
8,3,0.8454301179686707,0.8074767990833838,3.795331888528697
8,4,0.8454301179686707,0.8168974484833356,2.853266948533517
8,5,0.8454301179686707,0.8073535810153867,3.8076536953284057
8,6,0.8454301179686707,0.8404218301365184,0.5008287832152347
8,7,0.8454301179686707,0.7913497409630819,5.4080377005588876
8,8,0.8454301179686707,0.8210746880946044,2.435542987406636
9,0,0.8321791203958556,0.819908178518044,1.2270941877811636
9,1,0.8321791203958556,0.7952099432046367,3.696917719121895
9,2,0.8321791203958556,0.7934422874252366,3.873683297061903
9,3,0.8321791203958556,0.8241936207466549,0.79854996492007
9,4,0.8321791203958556,0.8278681284664243,0.4310991929431296
9,5,0.8321791203958556,0.8289692103024681,0.3209910093387558
9,6,0.8321791203958556,0.8233808568692289,0.8798263526626715
9,7,0.8321791203958556,0.8253929098152353,0.6786210580620344
9,8,0.8321791203958556,0.8337299201136777,-0.15507997178221267
10,0,0.7895206893609783,0.8190205822079822,-2.949989284700394
10,1,0.7895206893609783,0.7841447786531537,0.5375910707824616
10,2,0.7895206893609783,0.7619513940275688,2.756929533340946
10,3,0.7895206893609783,0.7571080258009111,3.2412663560067223
10,4,0.7895206893609783,0.7727880222435226,1.673266711745569
10,5,0.7895206893609783,0.7719906473788462,1.753004198213215
10,6,0.7895206893609783,0.7831618356402383,0.6358853720739965
10,7,0.7895206893609783,0.7919856129705667,-0.24649236095883875
10,8,0.7895206893609783,0.7621400345740506,2.738065478692775
11,0,0.8953710760385669,0.8876817561533362,0.7689319885230694
11,1,0.8953710760385669,0.8815929715428507,1.377810449571626
11,2,0.8953710760385669,0.8770839997512412,1.8287076287325732
11,3,0.8953710760385669,0.8444820859235302,5.088899011503667
11,4,0.8953710760385669,0.8701953386686438,2.517573736992307
11,5,0.8953710760385669,0.9065084032357266,-1.1137327197159652
11,6,0.8953710760385669,0.9085756406502105,-1.3204564611643543
11,7,0.8953710760385669,0.8810528530923267,1.4318222946240189
11,8,0.8953710760385669,0.8907102856776182,0.46607903609486856
12,0,0.921101723032098,0.8969773828823384,2.4124340149759615
12,1,0.921101723032098,0.8828464579745119,3.825526505758614
12,2,0.921101723032098,0.887347238935835,3.3754484096263027
12,3,0.921101723032098,0.8410030160944482,8.009870693764986
12,4,0.921101723032098,0.886059362605593,3.5042360426504993
12,5,0.921101723032098,0.8937383803078753,2.7363342724222695
12,6,0.921101723032098,0.9196947947308513,0.14069283012467793
12,7,0.921101723032098,0.9157603326340128,0.5341390398085233
12,8,0.921101723032098,0.9186051826107636,0.24965404213344033
13,0,0.9190193051191919,0.922358425029296,-0.3339119910104049
13,1,0.9190193051191919,0.9097753435209809,0.9243961598211059
13,2,0.9190193051191919,0.903487922877654,1.5531382241537939
13,3,0.9190193051191919,0.9057146943245462,1.3304610794645733
13,4,0.9190193051191919,0.8955951795348736,2.342412558431839
13,5,0.9190193051191919,0.8859657955095428,3.3053509609649145
13,6,0.9190193051191919,0.9144285283338142,0.45907767853777814
13,7,0.9190193051191919,0.9084486205097865,1.0570684609405467
13,8,0.9190193051191919,0.9118805531118964,0.7138752007295524
14,0,0.8462402525940291,0.8364085256590355,0.9831726934993679
14,1,0.8462402525940291,0.8264950528203605,1.974519977366862
14,2,0.8462402525940291,0.8661882180598084,-1.994796546577926
14,3,0.8462402525940291,0.7841499603858203,6.209029220820883
14,4,0.8462402525940291,0.8422741689429869,0.3966083651042229
14,5,0.8462402525940291,0.8423217183173732,0.3918534276655894
14,6,0.8462402525940291,0.8390454637100095,0.7194788884019587
14,7,0.8462402525940291,0.7831566532362803,6.308359935774888
14,8,0.8462402525940291,0.8135905161096606,3.264973648436853
15,0,0.8890262291088729,0.8420621391458956,4.69640899629773
15,1,0.8890262291088729,0.8702051634173125,1.882106569156039
15,2,0.8890262291088729,0.8340265708264625,5.499965828241038
15,3,0.8890262291088729,0.894434318588908,-0.5408089480035128
15,4,0.8890262291088729,0.9154016608561427,-2.637543174726986
15,5,0.8890262291088729,0.8956906817502699,-0.6664452641397034
15,6,0.8890262291088729,0.8989919012623532,-0.996567215348032
15,7,0.8890262291088729,0.8901530361530361,-0.11268070441632361
15,8,0.8890262291088729,0.9094234772746693,-2.0397248165796467
16,0,0.869859730809599,0.8438688100030298,2.5990920806569173
16,1,0.869859730809599,0.8707184534637973,-0.08587226541982851
16,2,0.869859730809599,0.8623033601874084,0.7556370622190611
16,3,0.869859730809599,0.8618055921924428,0.8054138617156203
16,4,0.869859730809599,0.8535131531859103,1.634657762368874
16,5,0.869859730809599,0.8446885221289888,2.517120868061018
16,6,0.869859730809599,0.8578195436252775,1.2040187184321538
16,7,0.869859730809599,0.8041938465345388,6.566588427506015
16,8,0.869859730809599,0.8532840402567375,1.6575690552861455
17,0,0.8529662798066227,0.8392377191963427,1.3728560610279938
17,1,0.8529662798066227,0.8546213561579956,-0.16550763513729638
17,2,0.8529662798066227,0.8512471055736397,0.17191742329829562
17,3,0.8529662798066227,0.8258757438547546,2.7090535951868056
17,4,0.8529662798066227,0.8744672079164453,-2.1500928109822626
17,5,0.8529662798066227,0.815385238814851,3.758104099177162
17,6,0.8529662798066227,0.8562302896498388,-0.32640098432161757
17,7,0.8529662798066227,0.8169641587388673,3.6002121067755355
17,8,0.8529662798066227,0.8282606733934167,2.470560641320596
18,0,0.9142040019847105,0.8920771906764391,2.2126811308271432
18,1,0.9142040019847105,0.8953746326383942,1.8829369346316294
18,2,0.9142040019847105,0.8991528362373238,1.505116574738674
18,3,0.9142040019847105,0.802352568302886,11.185143368182448
18,4,0.9142040019847105,0.8829060943156661,3.129790766904439
18,5,0.9142040019847105,0.8811912643962286,3.301273758848189
18,6,0.9142040019847105,0.9062665851874303,0.7937416797280217
18,7,0.9142040019847105,0.8743269659029049,3.9877036081805595
18,8,0.9142040019847105,0.9009716967170106,1.3232305267699918
19,0,0.8501352252346767,0.8414003244264752,0.8734900808201496
19,1,0.8501352252346767,0.8218076674459148,2.8327557788761837
19,2,0.8501352252346767,0.8327829217706859,1.7352303463990748
19,3,0.8501352252346767,0.8213481083880383,2.878711684663837
19,4,0.8501352252346767,0.8368594771382134,1.3275748096463258
19,5,0.8501352252346767,0.8331625614667468,1.697266376792983
19,6,0.8501352252346767,0.8600892239174265,-0.9953998682749821
19,7,0.8501352252346767,0.8341417295476676,1.599349568700903
19,8,0.8501352252346767,0.8304343891758391,1.9700836058837545
20,0,0.8357496604529355,0.822517488371019,1.3232172081916516
20,1,0.8357496604529355,0.8194394271337687,1.6310233319166811
20,2,0.8357496604529355,0.8028517802972529,3.2897880155682624
20,3,0.8357496604529355,0.8286099141039175,0.7139746349018039
20,4,0.8357496604529355,0.8342209920080208,0.1528668444914727
20,5,0.8357496604529355,0.8475976892154922,-1.184802876255664
20,6,0.8357496604529355,0.8279211806367182,0.7828479816217371
20,7,0.8357496604529355,0.8216004350051547,1.4149225447780855
20,8,0.8357496604529355,0.7748328731753458,6.091678727758976
21,0,0.8244499386805981,0.806940689696973,1.7509248983625159
21,1,0.8244499386805981,0.8164033661805644,0.8046572500033711
21,2,0.8244499386805981,0.8261077723820145,-0.1657833701416367
21,3,0.8244499386805981,0.7934815274081412,3.0968411272456975
21,4,0.8244499386805981,0.8415157253851112,-1.7065786704513086
21,5,0.8244499386805981,0.8334141882884634,-0.8964249607865238
21,6,0.8244499386805981,0.8079205121154693,1.652942656512879
21,7,0.8244499386805981,0.8262919741730934,-0.18420354924952864
21,8,0.8244499386805981,0.7944427855173336,3.000715316326452
22,0,0.7643537624339012,0.757034284654061,0.7319477779840211
22,1,0.7643537624339012,0.7882940947483432,-2.3940332314442037
22,2,0.7643537624339012,0.7549107253895215,0.9443037044379654
22,3,0.7643537624339012,0.7188928086579094,4.54609537759918
22,4,0.7643537624339012,0.733564891107841,3.078887132606023
22,5,0.7643537624339012,0.764216847517666,0.01369149162351313
22,6,0.7643537624339012,0.770315056518376,-0.5961294084474766
22,7,0.7643537624339012,0.6867060251194799,7.764773731442132
22,8,0.7643537624339012,0.7240042171105053,4.034954532339585
23,0,0.807731752002834,0.7504870872107466,5.7244664792087345
23,1,0.807731752002834,0.7727842358638011,3.494751613903291
23,2,0.807731752002834,0.8336883186949058,-2.5956566692071803
23,3,0.807731752002834,0.8143475315472708,-0.6615779544436817
23,4,0.807731752002834,0.7954687043960843,1.2263047606749677
23,5,0.807731752002834,0.7995296860055593,0.8202065997274688
23,6,0.807731752002834,0.8111464705462648,-0.34147185434307836
23,7,0.807731752002834,0.8022264748608745,0.5505277141959475
23,8,0.807731752002834,0.7825615390234264,2.517021297940758
24,0,0.8018276606039506,0.7643757946859031,3.74518659180475
24,1,0.8018276606039506,0.7917837133127813,1.0043947291169308
24,2,0.8018276606039506,0.7544166672710437,4.741099333290688
24,3,0.8018276606039506,0.8188713442212883,-1.7043683617337657
24,4,0.8018276606039506,0.7285253330038577,7.330232760009292
24,5,0.8018276606039506,0.7781127087461644,2.371495185778616
24,6,0.8018276606039506,0.7846427719224238,1.7184888681526789
24,7,0.8018276606039506,0.7383462241608643,6.348143644308635
24,8,0.8018276606039506,0.7501956382123616,5.163202239158904
25,0,0.8718520737867659,0.8305288782748376,4.132319551192831
25,1,0.8718520737867659,0.8448421735475415,2.700990023922434
25,2,0.8718520737867659,0.8415418908752966,3.0310182911469252
25,3,0.8718520737867659,0.8443472290833417,2.750484470342418
25,4,0.8718520737867659,0.8337749164681485,3.8077157318617383
25,5,0.8718520737867659,0.8521937172487968,1.9658356537969102
25,6,0.8718520737867659,0.8811783014606203,-0.9326227673854381
25,7,0.8718520737867659,0.8255149193080228,4.633715447874309
25,8,0.8718520737867659,0.8731664041887287,-0.13143304019628266
26,0,0.7627878825792627,0.7608659752635686,0.19219073156940825
26,1,0.7627878825792627,0.7717529965575151,-0.8965113978252393
26,2,0.7627878825792627,0.7296492091957265,3.3138673383536155
26,3,0.7627878825792627,0.7436265072587702,1.9161375320492446
26,4,0.7627878825792627,0.7476041445296654,1.5183738049597273
26,5,0.7627878825792627,0.737682762546681,2.5105120032581696
26,6,0.7627878825792627,0.7895471043035578,-2.6759221724295124
26,7,0.7627878825792627,0.7413846679226781,2.140321465658457
26,8,0.7627878825792627,0.7230110688018808,3.9776813777381848
27,0,0.8619262530592612,0.8748643607380318,-1.2938107678770572
27,1,0.8619262530592612,0.8780665092021799,-1.6140256142918696
27,2,0.8619262530592612,0.8354144276894315,2.6511825369829656
27,3,0.8619262530592612,0.8228684463112226,3.9057806748038604
27,4,0.8619262530592612,0.8308507816766026,3.1075471382658537
27,5,0.8619262530592612,0.8617189335577059,0.02073195015552809
27,6,0.8619262530592612,0.8806539340002811,-1.8727680941019953
27,7,0.8619262530592612,0.8761009867757968,-1.417473371653566
27,8,0.8619262530592612,0.8966678899848811,-3.4741636925619934
28,0,0.8262862125919892,0.8590130088030996,-3.272679621111041
28,1,0.8262862125919892,0.8204707086777976,0.5815503914191611
28,2,0.8262862125919892,0.8197893013552795,0.6496911236709701
28,3,0.8262862125919892,0.7999620128030995,2.632419978888967
28,4,0.8262862125919892,0.776332312297353,4.9953900294636195
28,5,0.8262862125919892,0.7495724864859374,7.671372610605176
28,6,0.8262862125919892,0.8247690835697988,0.15171290221903666
28,7,0.8262862125919892,0.8181096605177652,0.8176552074223964
28,8,0.8262862125919892,0.811171533936897,1.5114678655092195
29,0,0.8183727838746788,0.8072726969432236,1.1100086931455255
29,1,0.8183727838746788,0.8145571057958917,0.38156780787871325
29,2,0.8183727838746788,0.8085661034874523,0.9806680387226541
29,3,0.8183727838746788,0.7888540107107747,2.9518773163904166
29,4,0.8183727838746788,0.759483463902745,5.888931997193381
29,5,0.8183727838746788,0.7743247746392035,4.404800923547536
29,6,0.8183727838746788,0.8261756980663184,-0.7802914191639587
29,7,0.8183727838746788,0.7972792982799884,2.1093485594690375
29,8,0.8183727838746788,0.7697178652676309,4.865491860704796
30,0,0.8674602222966241,0.8664374208646196,0.10228014320045054
30,1,0.8674602222966241,0.8217232410226889,4.573698127393522
30,2,0.8674602222966241,0.8681509649617074,-0.06907426650832882
30,3,0.8674602222966241,0.8305850370518613,3.6875185244762854
30,4,0.8674602222966241,0.8661767799509292,0.1283442345694885
30,5,0.8674602222966241,0.8529734476659885,1.4486774630635635
30,6,0.8674602222966241,0.8742476802314222,-0.6787457934798069
30,7,0.8674602222966241,0.8239647582960993,4.349546400052484
30,8,0.8674602222966241,0.8536597207148601,1.3800501581764046
31,0,0.7813093162142867,0.7615274238359642,1.9781892378322508
31,1,0.7813093162142867,0.7581938753794536,2.311544083483308
31,2,0.7813093162142867,0.7348312819589558,4.647803425533093
31,3,0.7813093162142867,0.7851529796660924,-0.38436634518057566
31,4,0.7813093162142867,0.7578523893203679,2.345692689391876
31,5,0.7813093162142867,0.7683062249704314,1.3003091243855236
31,6,0.7813093162142867,0.7777935621606287,0.35157540536580045
31,7,0.7813093162142867,0.7331657260217144,4.81435901925723
31,8,0.7813093162142867,0.7268613699438644,5.444794627042226
32,0,0.8231640899596245,0.8113032901052611,1.186079985436339
32,1,0.8231640899596245,0.8136122472005873,0.9551842759037199
32,2,0.8231640899596245,0.7958189094612405,2.734518049838408
32,3,0.8231640899596245,0.789248451224088,3.391563873553649
32,4,0.8231640899596245,0.8258748016454881,-0.2710711685863565
32,5,0.8231640899596245,0.8109732875600925,1.2190802399532075
32,6,0.8231640899596245,0.8325504442487031,-0.9386354289078525
32,7,0.8231640899596245,0.8020972800547468,2.106680990487775
32,8,0.8231640899596245,0.8399273519917224,-1.676326203209788
33,0,0.8708466222717128,0.8463986926506791,2.4447929621033704
33,1,0.8708466222717128,0.8615845535862343,0.926206868547852
33,2,0.8708466222717128,0.8564325653137954,1.441405695791742
33,3,0.8708466222717128,0.8586539647096401,1.2192657562072773
33,4,0.8708466222717128,0.8760392771056278,-0.5192654833914956
33,5,0.8708466222717128,0.8768359585792103,-0.5989336307497428
33,6,0.8708466222717128,0.8469473771317879,2.389924513992492
33,7,0.8708466222717128,0.8404543867727718,3.039223549894099
33,8,0.8708466222717128,0.8250350510128894,4.58115712588234
34,0,0.9100410246784243,0.8909257748549028,1.911524982352153
34,1,0.9100410246784243,0.9113983542451942,-0.1357329566769927
34,2,0.9100410246784243,0.9051112542602541,0.49297704181702207
34,3,0.9100410246784243,0.8779710945362141,3.2069930142210157
34,4,0.9100410246784243,0.9068134062668392,0.32276184115851425
34,5,0.9100410246784243,0.8846296616435453,2.541136303487901
34,6,0.9100410246784243,0.8924649136204731,1.7576111057951205
34,7,0.9100410246784243,0.8729093231739093,3.7131701504514947
34,8,0.9100410246784243,0.8826535365879964,2.7387488090427903
35,0,0.701646290946849,0.6886869261311936,1.2959364815655405
35,1,0.701646290946849,0.6857072882454103,1.5939002701438776
35,2,0.701646290946849,0.7083209304530069,-0.6674639506157876
35,3,0.701646290946849,0.6936227984975809,0.8023492449268144
35,4,0.701646290946849,0.7260136310610557,-2.4367340114206604
35,5,0.701646290946849,0.687512276987261,1.413401395958802
35,6,0.701646290946849,0.7159584946998527,-1.4312203753003683
35,7,0.701646290946849,0.7030131839702142,-0.13668930233651233
35,8,0.701646290946849,0.6821404370727292,1.950585387411985
36,0,0.6354447341303459,0.6453617480469698,-0.9917013916623918
36,1,0.6354447341303459,0.6526972095473954,-1.725247541704955
36,2,0.6354447341303459,0.6432187615075536,-0.7774027377207782
36,3,0.6354447341303459,0.6082965993347471,2.7148134795598744
36,4,0.6354447341303459,0.6478011381957669,-1.2356404065421045
36,5,0.6354447341303459,0.6616775554425894,-2.623282131224358
36,6,0.6354447341303459,0.623904422804278,1.154031132606781
36,7,0.6354447341303459,0.5352239478098368,10.022078632050901
36,8,0.6354447341303459,0.5781835454702543,5.7261188660091555
37,0,0.8640198621085634,0.8539937915477935,1.0026070560769873
37,1,0.8640198621085634,0.8363235249598886,2.769633714867481
37,2,0.8640198621085634,0.8354070167512467,2.8612845357316674
37,3,0.8640198621085634,0.8515214304900042,1.2498431618559236
37,4,0.8640198621085634,0.8586961434504865,0.5323718658076904
37,5,0.8640198621085634,0.8606221667567706,0.33976953517927955
37,6,0.8640198621085634,0.8473615806679541,1.6658281440609324
37,7,0.8640198621085634,0.8198219087314876,4.419795337707577
37,8,0.8640198621085634,0.8543736668085881,0.9646195299975346
38,0,0.8119186190314499,0.7569753501624573,5.494326886899259
38,1,0.8119186190314499,0.7999958648807617,1.192275415068822
38,2,0.8119186190314499,0.8191834171047327,-0.7264798073282841
38,3,0.8119186190314499,0.7867708876683748,2.514773136307513
38,4,0.8119186190314499,0.8003725143439866,1.154610468746331
38,5,0.8119186190314499,0.808528296118084,0.33903229133659396
38,6,0.8119186190314499,0.80421529899224,0.7703320039209927
38,7,0.8119186190314499,0.7638264237096384,4.809219532181153
38,8,0.8119186190314499,0.8011399618033088,1.0778657228141086
39,0,0.8481787668689991,0.821859493505835,2.6319273363164086
39,1,0.8481787668689991,0.8279168467021575,2.0261920166841585
39,2,0.8481787668689991,0.8317981973728572,1.6380569496141861
39,3,0.8481787668689991,0.7355975547033573,11.258121216564177
39,4,0.8481787668689991,0.7859755651695467,6.2203201699452375
39,5,0.8481787668689991,0.8173422438327628,3.0836523036236296
39,6,0.8481787668689991,0.8512464129200481,-0.30676460510490333
39,7,0.8481787668689991,0.8250811724552288,2.309759441377024
39,8,0.8481787668689991,0.8665954775149254,-1.8416710645926315
40,0,0.8201013364199023,0.7428807865257817,7.722054989412063
40,1,0.8201013364199023,0.7742453274169692,4.5856009002933185
40,2,0.8201013364199023,0.8372791332745566,-1.717779685465426
40,3,0.8201013364199023,0.7867376864362773,3.3363649983625066
40,4,0.8201013364199023,0.830666435941408,-1.0565099521505639
40,5,0.8201013364199023,0.8223239998406644,-0.222266342076205
40,6,0.8201013364199023,0.8050363288852035,1.506500753469886
40,7,0.8201013364199023,0.7510425469157967,6.90587895041056
40,8,0.8201013364199023,0.8220310745979116,-0.19297381780092326
