subject,channel,r,f1_drop_mean,f1_drop_sd
1,0,5,0.08299633294515896,0.0048684491791076605
1,1,5,0.06690893391305705,0.011466971614693695
1,2,5,0.06925614623650811,0.009540341133022372
1,3,5,0.06612914661982124,0.01539779494266928
1,4,5,0.051537933298187275,0.008930000530622028
1,5,5,0.10464653130658177,0.008688014823144182
1,6,5,0.045307412163159214,0.010485973602865576
1,7,5,0.1060747196143517,0.014169367836528082
1,8,5,0.09990359695731925,0.011053367502662457
2,0,5,0.06762930054590477,0.01824674617969732
2,1,5,0.07095826673442322,0.011724168557452386
2,2,5,0.09961443168697655,0.017837520504781715
2,3,5,0.07002600320039916,0.013919877247641252
2,4,5,0.14072428220623232,0.012626582152318419
2,5,5,0.07994617757203844,0.02680649032961059
2,6,5,0.046211497475691664,0.008625304263835964
2,7,5,0.12012214151477756,0.01746252507333089
2,8,5,0.08291207331989343,0.00840246670669903
3,0,5,0.07090485360007366,0.010821395151381691
3,1,5,0.08347634661824159,0.01803183500445838
3,2,5,0.14688319915866738,0.02031953686966521
3,3,5,0.07278695897498884,0.006718188402586654
3,4,5,0.07326256334762352,0.01212797236871201
3,5,5,0.04031228185411566,0.00939259511696144
3,6,5,0.020124304419335194,0.009360819655365936
3,7,5,0.0883082442635379,0.009038295152171765
3,8,5,0.08729442621041843,0.0117686302374667
4,0,5,0.08111293884005129,0.009923611111513696
4,1,5,0.10631112622040458,0.0233532115501368
4,2,5,0.10720854630456167,0.017040573828218216
4,3,5,0.05692683632709539,0.009453296173256416
4,4,5,0.1296844790964153,0.014176318719284091
4,5,5,0.10142169776884562,0.017316034358106795
4,6,5,0.03709529849526179,0.011511741989118467
4,7,5,0.10269500024426585,0.014920865196990433
4,8,5,0.085700749656868,0.009205719988300642
5,0,5,0.08860492855719823,0.009832777108406033
5,1,5,0.05958994965242013,0.01789927685685207
5,2,5,0.06580509980642055,0.012280000685089885
5,3,5,0.020350094204879144,0.011212274554780651
5,4,5,0.11316654666007589,0.009530633257344726
5,5,5,0.05760501880607329,0.014517925222967706
5,6,5,0.03452944630541839,0.012212097553213692
5,7,5,0.05098539515472535,0.007711953426470257
5,8,5,0.10222233177105508,0.017123429894089895
6,0,5,0.0622275000465814,0.010669374780371553
6,1,5,0.06446194830895571,0.011250583781654985
6,2,5,0.03932123455713539,0.008493138352524335
6,3,5,0.018706422534445655,0.010838768743346126
6,4,5,0.06716468401334372,0.006374548007163864
6,5,5,0.06711556816268963,0.015965536561847432
6,6,5,0.08383956467709452,0.012441825618189848
6,7,5,0.08029292907777949,0.008979030164953989
6,8,5,0.09113258884714226,0.009869129582227543
7,0,5,0.09456672210652269,0.006453213333569784
7,1,5,0.05477640204414278,0.00782645588536682
7,2,5,0.05388568108108789,0.01299099006706906
7,3,5,-0.010819025235814395,0.024194962694328442
7,4,5,0.08621077383520728,0.011931173474490965
7,5,5,0.11490200547399795,0.01119416390750042
7,6,5,0.036869253359592125,0.014789984492229041
7,7,5,0.08131865166056325,0.010231402121521918
7,8,5,0.07464910424291801,0.013411370565561891
8,0,5,0.09468400104853625,0.012108970911478683
8,1,5,0.08429997235034643,0.008505117807563963
8,2,5,0.04963283222381561,0.012954203383414273
8,3,5,0.08510738429881645,0.007163635855910025
8,4,5,0.10569712174296209,0.025789710552695723
8,5,5,0.1481974838360315,0.021096432210828013
8,6,5,0.05673598076848565,0.009408688111073779
8,7,5,0.15171989887945986,0.01771355735970332
8,8,5,0.12164766623481578,0.018783897118891984
9,0,5,0.041739934007070524,0.011179276018158518
9,1,5,0.10346003164301665,0.01945285122223561
9,2,5,0.07806735991972291,0.008344469922831117
9,3,5,0.021557986307986488,0.010758938404382674
9,4,5,0.08956663211321303,0.009043554537822964
9,5,5,0.07171403258074197,0.009749274676989834
9,6,5,0.023274602623441498,0.007898598616144541
9,7,5,0.11057310002988327,0.014075279887034371
9,8,5,0.04926217045510217,0.01162023149724113
10,0,5,0.06322309512607834,0.015995867016489217
10,1,5,0.040573763389025255,0.013049460397642878
10,2,5,0.1023860119895023,0.007799516810927398
10,3,5,0.04662511805612206,0.01382065669631778
10,4,5,0.10016990327336442,0.016669456325786876
10,5,5,0.12325493879796201,0.012710349897065666
10,6,5,0.04633159081166176,0.013577207017838913
10,7,5,0.05584074954837448,0.009600263774824825
10,8,5,0.06135439904115132,0.012282732665695835
11,0,5,0.06170780731393053,0.013995543138347838
11,1,5,0.12044398202997715,0.0076579690785702394
11,2,5,0.11908427263862056,0.0067346850045991655
11,3,5,0.08913231482788062,0.010415799331615657
11,4,5,0.1483174401089426,0.011741683926022236
11,5,5,0.044728582975766984,0.011712320365386705
11,6,5,0.03949784850080471,0.008000428238028025
11,7,5,0.10332216166743699,0.0094357630889971
11,8,5,0.08059436550110392,0.009482954710665677
12,0,5,0.0766800958636092,0.008401495011194773
12,1,5,0.10471748907728021,0.005023459851354997
12,2,5,0.118576870914334,0.005458867524778513
12,3,5,0.10054625488000649,0.014072028350451963
12,4,5,0.1346099219532356,0.0111865069312025
12,5,5,0.01835359230740865,0.007244098591098655
12,6,5,0.029001187064574198,0.00964545293683539
12,7,5,0.09676006465757021,0.010400704347793402
12,8,5,0.05979668155379632,0.009527485904477169
13,0,5,0.04403315187137782,0.008741135987309547
13,1,5,0.07291770889553273,0.017427958624763054
13,2,5,0.09363836992307747,0.0061960066626421655
13,3,5,0.02977063793830248,0.01017474755656226
13,4,5,0.11731627996999179,0.006037680586567367
13,5,5,0.13374465491428317,0.009986378054211764
13,6,5,0.042263585783976355,0.0058068471271888545
13,7,5,0.07525306954474068,0.010713442940304905
13,8,5,0.053007014795207086,0.015687294034879166
14,0,5,0.10542887396831158,0.01569594801062682
14,1,5,0.07522602603395603,0.005598478770858151
14,2,5,0.068368560756262,0.014194105168300625
14,3,5,0.10559901324689083,0.009878320973857716
14,4,5,0.051413933306035345,0.008946713947075727
14,5,5,0.09917163082960594,0.008448262468355179
14,6,5,0.019208855680227788,0.007388120301859504
14,7,5,0.10731863813766655,0.009269381643249367
14,8,5,0.06319018509025828,0.013001485635343002
15,0,5,0.10873512201126838,0.018221179963291055
15,1,5,0.08313509197194113,0.010683398087209967
15,2,5,0.1191258940418601,0.016045482587668573
15,3,5,0.04344650288071787,0.016755684280597264
15,4,5,0.09936142569690805,0.01971460425339612
15,5,5,0.06342355558250352,0.018851804904179044
15,6,5,0.06756548897058598,0.014255417935513767
15,7,5,0.06792375691637709,0.00855243554299337
15,8,5,0.06394649770113023,0.02088597482602156
16,0,5,0.0871444741678448,0.010953238555537214
16,1,5,0.07217138134268279,0.00908874085852426
16,2,5,0.09127133589270256,0.010446352859388015
16,3,5,0.07214927818233956,0.015250126524295096
16,4,5,0.08596833164068998,0.019527801684417836
16,5,5,0.06459177688790811,0.008474885613672418
16,6,5,0.03892130307389998,0.013986830350800354
16,7,5,0.11371148048869736,0.011770328232052625
16,8,5,0.12069156574009923,0.00794202975140119
17,0,5,0.1271772783887582,0.01148497573783613
17,1,5,0.07025573873689923,0.012231353237509646
17,2,5,0.035967753716422246,0.019269535392484292
17,3,5,0.03953389395406211,0.010977075230338201
17,4,5,0.11264302232114842,0.011958052791055308
17,5,5,0.085099190989979,0.01672967213542882
17,6,5,0.06409781832529433,0.015812874902302498
17,7,5,0.08330791244939825,0.005432341035144003
17,8,5,0.11861324534939008,0.012652470815626506
18,0,5,0.08449464267795807,0.016959625841540437
18,1,5,0.04975862581862258,0.00995638959334653
18,2,5,0.08217961704886531,0.0033493767936995634
18,3,5,0.10455420898213377,0.007842596877623363
18,4,5,0.09088625851405754,0.010445297883142792
18,5,5,0.12042143527518678,0.02229333619957267
18,6,5,0.06672754484137271,0.004410204614609544
18,7,5,0.1525594736075691,0.009708301010298839
18,8,5,0.06371390715126868,0.007490214185300167
19,0,5,0.05302938737551326,0.0036806365981203967
19,1,5,0.06726604044521338,0.010412449618416947
19,2,5,0.08553628302885816,0.009347264135173986
19,3,5,0.06368250422694462,0.009026018647327383
19,4,5,0.10056853717759495,0.007770907792230035
19,5,5,0.049803471692296486,0.011983735378712996
19,6,5,0.03809705473224534,0.00589049960875292
19,7,5,0.11623868644701144,0.007487106744187437
19,8,5,0.07259250587089625,0.011705068306951382
20,0,5,0.06071921861069416,0.01798662274822316
20,1,5,0.06486725665557976,0.018678195464082295
20,2,5,0.06890874953685182,0.007108829112939557
20,3,5,0.026538778414309384,0.011760501532049644
20,4,5,0.10665494523768153,0.02326348616043827
20,5,5,0.10343724811767126,0.015922269255586277
20,6,5,0.018615559521301672,0.01114423027276239
20,7,5,0.08807532085340834,0.0041050040334538575
20,8,5,0.13557763994986327,0.010523614783873883
21,0,5,0.08917587184521716,0.01667818417803773
21,1,5,0.04695955119470056,0.011554145141190972
21,2,5,0.06366878805825667,0.020650830365435094
21,3,5,0.05523721840901108,0.010808519265483691
21,4,5,0.08545066006754547,0.01772350549585583
21,5,5,0.07213900081924911,0.017132594834807405
21,6,5,0.016654803683080033,0.0045412121918891055
21,7,5,0.07097571168621834,0.006401922221301586
21,8,5,0.07549360520541264,0.008717647895706128
22,0,5,0.0716489740653405,0.008487847684151707
22,1,5,0.06708371840690786,0.0066602305024206394
22,2,5,0.11040857094727692,0.01644641547603608
22,3,5,0.0821832611398902,0.00894539861759409
22,4,5,0.1260171582370297,0.018026099118144175
22,5,5,0.07124229724936304,0.012001064112855961
22,6,5,0.055686021535304886,0.007681544573063071
22,7,5,0.13881407077829372,0.004255366934737333
22,8,5,0.0893528351625589,0.006385786257469915
23,0,5,0.140804953511807,0.01320194675213663
23,1,5,0.08430408070816228,0.01194696481917412
23,2,5,0.06461153171296743,0.00699665029628682
23,3,5,0.06257758465619168,0.012345310507756701
23,4,5,0.1112971214905705,0.00784379695021344
23,5,5,0.13003347774285584,0.005434475678855754
23,6,5,0.039849245797477686,0.005286372550089235
23,7,5,0.10966357145295617,0.011310265705599122
23,8,5,0.09392726332166845,0.01537618274640114
24,0,5,0.0582317982343679,0.015303544140612678
24,1,5,0.02439008270767997,0.01822510082816566
24,2,5,0.07153282681409437,0.011354784292130188
24,3,5,0.059281791871149944,0.010765217706809573
24,4,5,0.11638577385218304,0.01693025018744484
24,5,5,0.05694982338661965,0.014463299959626256
24,6,5,0.03851480996900632,0.005319080899186214
24,7,5,0.1086246408319392,0.014034483626180486
24,8,5,0.06176191171228109,0.008966345182464246
25,0,5,0.06801728905004986,0.012140134412536962
25,1,5,0.05336717642952189,0.005974245072755427
25,2,5,0.10957337978124963,0.015868434270957663
25,3,5,0.09061532023517935,0.01780042463654922
25,4,5,0.1256378175914785,0.0023971786107816855
25,5,5,0.05388583519704264,0.013234755553441658
25,6,5,0.039582688077523034,0.004768856281506659
25,7,5,0.10716604014029965,0.007297524105945462
25,8,5,0.05956400919602289,0.007953252645712098
26,0,5,0.061870751132525804,0.003800134012267459
26,1,5,0.04469410438331094,0.009802725317551981
26,2,5,0.08914122714631294,0.005157598266143015
26,3,5,0.04686176630724288,0.009159299175012145
26,4,5,0.0927979941803961,0.009862729064774913
26,5,5,0.09431284946050525,0.010173260313627005
26,6,5,0.038443677495930514,0.004992782857817184
26,7,5,0.1238861308085587,0.004722381573475775
26,8,5,0.07511770895504713,0.004080639636339073
27,0,5,0.06689495598183828,0.011453858912074408
27,1,5,0.05203637433271311,0.010219996267678076
27,2,5,0.06810594104889785,0.004262835219628862
27,3,5,0.0697247461194371,0.009282989929002252
27,4,5,0.10520005030164421,0.009355072319311911
27,5,5,0.10043170823828854,0.004533806683922799
27,6,5,0.0498868663125714,0.011993098079852861
27,7,5,0.11720909133252148,0.008632845623657358
27,8,5,0.04332611398572528,0.006617359299884635
28,0,5,0.06405063472268516,0.006705968410082435
28,1,5,0.05516747101401483,0.010527050653237594
28,2,5,0.06047752460722004,0.005728178956453308
28,3,5,0.0724892038413936,0.019237695085059653
28,4,5,0.13472257293094586,0.010261010569803762
28,5,5,0.2385364230411006,0.025329361518306167
28,6,5,0.047617231310918974,0.005783387488624642
28,7,5,0.10322111509276855,0.004527475278734617
28,8,5,0.10724157729994659,0.010687823410783842
29,0,5,0.0753949332240484,0.007011548127512531
29,1,5,0.044235053054036855,0.012844797166869785
29,2,5,0.09187027156556442,0.013000130361413528
29,3,5,0.03540826157224315,0.01011135615193314
29,4,5,0.12810577902516326,0.006994550165561619
29,5,5,0.14009454489441908,0.01485367317131121
29,6,5,0.02995510917260913,0.008022099406464379
29,7,5,0.09607731563670982,0.013006999103203134
29,8,5,0.08360351303049618,0.009794417101804412
30,0,5,0.04519134380761465,0.011493282839899532
30,1,5,0.060250369676634066,0.011144748092823589
30,2,5,0.014413505629777034,0.009200794917565263
30,3,5,0.05781013940073702,0.007327571375525326
30,4,5,0.06493982942587359,0.011661206307389127
30,5,5,0.10027171938934205,0.012068738832719965
30,6,5,0.031068162752856576,0.009909001359771566
30,7,5,0.09620966934967586,0.010246673082014164
30,8,5,0.0997340176070122,0.017537644701885565
31,0,5,0.09521176991489393,0.008893798366749903
31,1,5,0.08227166425147218,0.009295123087113564
31,2,5,0.11697808638787752,0.01556409923490395
31,3,5,0.04411678564718249,0.009559081189360445
31,4,5,0.169884340821916,0.016479058500535455
31,5,5,0.02440445228950765,0.015524803893179475
31,6,5,0.07582948871228778,0.0071935846129767035
31,7,5,0.11257900849800415,0.011405334712714635
31,8,5,0.10577761608233735,0.008212610070418652
32,0,5,0.08312699776356929,0.0166467647861288
32,1,5,0.08357511531547601,0.010130722078678166
32,2,5,0.08190665775124764,0.012524566311172804
32,3,5,0.04709264444774217,0.005732521141199396
32,4,5,0.1316868231490928,0.010648202242814127
32,5,5,0.14101332838534938,0.011092872302686433
32,6,5,0.03354413438307267,0.004720235468686997
32,7,5,0.1243500297100173,0.006824271737997564
32,8,5,0.05499524246423308,0.007154249839527228
33,0,5,0.10424559415827624,0.0068910940824606715
33,1,5,0.09793824653722297,0.013559196629197577
33,2,5,0.07552171992675354,0.012375418079140908
33,3,5,0.05219427762043556,0.0111998152691241
33,4,5,0.1369057685691574,0.013233549675012762
33,5,5,0.06054405183576619,0.010832804386429267
33,6,5,0.08801374541302757,0.007060172976240681
33,7,5,0.0941256999345654,0.003058639602858731
33,8,5,0.12204537281523084,0.01498177364008037
34,0,5,0.1072793911060473,0.010499725916664615
34,1,5,0.06339811314412988,0.018317652583781183
34,2,5,0.060616137057691,0.008099883539552965
34,3,5,0.0648967382480872,0.013736987001411924
34,4,5,0.07495117579035127,0.0028624780071868387
34,5,5,0.0914276823667222,0.010226447203825945
34,6,5,0.02676143322333362,0.002073512062548013
34,7,5,0.11127323546189496,0.00852205201686932
34,8,5,0.08621376239509951,0.003098177861390722
35,0,5,0.10152942165259618,0.007001308728051287
35,1,5,0.05928230386734712,0.006434153973497288
35,2,5,0.043389547289650165,0.014252665882510682
35,3,5,0.041190394439828616,0.009242410562289548
35,4,5,0.08303106158458806,0.007624150282974071
35,5,5,0.11073766001160376,0.008615555655806508
35,6,5,0.023339901324012757,0.014713261609174183
35,7,5,0.05140400306272763,0.011151946582315619
35,8,5,0.038910471537045896,0.009446537297516367
36,0,5,0.024843165218143382,0.011899003224031085
36,1,5,0.06877744436495262,0.006855834431647804
36,2,5,0.062322451092361564,0.008161678543989572
36,3,5,0.06025405630749818,0.010765673723161286
36,4,5,0.07338199994149364,0.007582416195916486
36,5,5,0.10163657298677234,0.019246725129509392
36,6,5,0.06760324066904393,0.011034239978195855
36,7,5,0.13159822343017205,0.015955788934897255
36,8,5,0.10157010126867935,0.006630131779213254
37,0,5,0.1079507346628585,0.01758371478439131
37,1,5,0.0847223702816727,0.009745139265392203
37,2,5,0.09485304365412614,0.01532978070088346
37,3,5,0.02282853155672049,0.0036140328170533105
37,4,5,0.08042220119317536,0.011273280952768867
37,5,5,0.14945354142063533,0.010137003837571752
37,6,5,0.024477232705775842,0.006612933148148263
37,7,5,0.1241342560454565,0.010437243953709863
37,8,5,0.06709824186375302,0.006877273489959275
38,0,5,0.10000000915456017,0.0035117110489843216
38,1,5,0.10587034356167416,0.008581748744309139
38,2,5,0.08612834982180011,0.01807551299297954
38,3,5,0.06199608255435254,0.011356335984433566
38,4,5,0.14460237458841538,0.006495753189863895
38,5,5,0.09881353581964987,0.008130245085078995
38,6,5,0.0679489571928897,0.009748644971588814
38,7,5,0.0958825733727954,0.0045166368018025585
38,8,5,0.09261741234298182,0.007418918312978205
39,0,5,0.09128583243373183,0.017735479328567203
39,1,5,0.07976728127099098,0.01590904457699012
39,2,5,0.06212253757203314,0.009620218784351285
39,3,5,0.06443232284037279,0.007122137231508032
39,4,5,0.10677295045994417,0.02167326532941707
39,5,5,0.134339816037081,0.01729068737992706
39,6,5,0.0362293842548707,0.006759656531043225
39,7,5,0.09585903206119092,0.010285998120110286
39,8,5,0.044483547107993446,0.024694264320025527
40,0,5,0.08495627578379963,0.0027294089183873492
40,1,5,0.05664842337098708,0.022629730681830055
40,2,5,0.03125541672564134,0.006574167437050157
40,3,5,0.024752721889706543,0.01852688413733587
40,4,5,0.033183153366082595,0.016325140780163505
40,5,5,0.08833611087938176,0.013978362852011325
40,6,5,0.06176449313592321,0.009589338470476619
40,7,5,0.07828504439355258,0.011167396607073839
40,8,5,0.03383714391944446,0.014671661676093265
