subject,block,block_width,feature_channel,gate_mean,gate_sd
1,0,32,0,0.4478284418582916,0.10668449103832245
1,0,32,1,0.6154393553733826,0.13871876895427704
1,0,32,2,0.5520622134208679,0.08406241983175278
1,0,32,3,0.3587616980075836,0.12868516147136688
1,0,32,4,0.4751516580581665,0.13185341656208038
1,0,32,5,0.5533969402313232,0.0854315310716629
1,0,32,6,0.4223886728286743,0.17957079410552979
1,0,32,7,0.39535459876060486,0.08326292037963867
1,0,32,8,0.487438440322876,0.12349864095449448
1,0,32,9,0.4696653485298157,0.0853004902601242
1,0,32,10,0.48278480768203735,0.14924533665180206
1,0,32,11,0.42989397048950195,0.047348588705062866
1,0,32,12,0.6499051451683044,0.08569730818271637
1,0,32,13,0.617827296257019,0.17995356023311615
1,0,32,14,0.3280165195465088,0.13681729137897491
1,0,32,15,0.605190098285675,0.15634416043758392
1,0,32,16,0.43404000997543335,0.12243832647800446
1,0,32,17,0.525786817073822,0.0748094692826271
1,0,32,18,0.4930655360221863,0.044564779847860336
1,0,32,19,0.5082793831825256,0.08144751191139221
1,0,32,20,0.374875009059906,0.1420106440782547
1,0,32,21,0.46159911155700684,0.08453529328107834
1,0,32,22,0.5319972038269043,0.12331482023000717
1,0,32,23,0.37116381525993347,0.09173914790153503
1,0,32,24,0.5055139660835266,0.1357685625553131
1,0,32,25,0.37731748819351196,0.12234952300786972
1,0,32,26,0.43623843789100647,0.15458844602108002
1,0,32,27,0.5431276559829712,0.15970458090305328
1,0,32,28,0.40768590569496155,0.11487217992544174
1,0,32,29,0.5384978652000427,0.08142197877168655
1,0,32,30,0.6132864952087402,0.14443717896938324
1,0,32,31,0.5050094127655029,0.12531186640262604
1,1,32,0,0.54326993227005,0.08482197672128677
1,1,32,1,0.6339345574378967,0.1045185923576355
1,1,32,2,0.36051666736602783,0.06071034446358681
1,1,32,3,0.5181803107261658,0.040833037346601486
1,1,32,4,0.6282744407653809,0.10892551392316818
1,1,32,5,0.48295339941978455,0.14596401154994965
1,1,32,6,0.43641769886016846,0.10903097689151764
1,1,32,7,0.38827210664749146,0.1293489933013916
1,1,32,8,0.474883109331131,0.11067584156990051
1,1,32,9,0.3711535334587097,0.07704810798168182
1,1,32,10,0.3687993586063385,0.07160665094852448
1,1,32,11,0.5404459238052368,0.13237234950065613
1,1,32,12,0.47526267170906067,0.10876664519309998
1,1,32,13,0.5177162289619446,0.0791972428560257
1,1,32,14,0.4456299841403961,0.1516081690788269
1,1,32,15,0.6169536709785461,0.05427662655711174
1,1,32,16,0.5027704834938049,0.07500699907541275
1,1,32,17,0.5640414357185364,0.05730776488780975
1,1,32,18,0.5076073408126831,0.12903009355068207
1,1,32,19,0.4604297876358032,0.06846030801534653
1,1,32,20,0.4019182622432709,0.08860338479280472
1,1,32,21,0.30982744693756104,0.09144504368305206
1,1,32,22,0.3845551908016205,0.09103564918041229
1,1,32,23,0.5323431491851807,0.046348463743925095
1,1,32,24,0.4753388464450836,0.10170992463827133
1,1,32,25,0.48387768864631653,0.09653815627098083
1,1,32,26,0.5756161212921143,0.053263530135154724
1,1,32,27,0.6473194360733032,0.09449490159749985
1,1,32,28,0.5761650800704956,0.06684626638889313
1,1,32,29,0.6033573150634766,0.09608596563339233
1,1,32,30,0.3680448532104492,0.08005361258983612
1,1,32,31,0.5348929166793823,0.05546112731099129
1,2,64,0,0.5243988633155823,0.2527540326118469
1,2,64,1,0.3863407373428345,0.24797239899635315
1,2,64,2,0.617005467414856,0.15673457086086273
1,2,64,3,0.40621045231819153,0.2454838901758194
1,2,64,4,0.4643861949443817,0.30690494179725647
1,2,64,5,0.4321729242801666,0.34638386964797974
1,2,64,6,0.7237333655357361,0.07666290551424026
1,2,64,7,0.5595495104789734,0.09443427622318268
1,2,64,8,0.3977945148944855,0.13956817984580994
1,2,64,9,0.6799924373626709,0.1122082844376564
1,2,64,10,0.15664692223072052,0.08108527958393097
1,2,64,11,0.3571643531322479,0.07966611534357071
1,2,64,12,0.3453094959259033,0.15002478659152985
1,2,64,13,0.5741329193115234,0.09552159160375595
1,2,64,14,0.5304113030433655,0.13590599596500397
1,2,64,15,0.42017167806625366,0.05818250775337219
1,2,64,16,0.6854346394538879,0.1280677765607834
1,2,64,17,0.35543009638786316,0.08076927810907364
1,2,64,18,0.5155388116836548,0.14119155704975128
1,2,64,19,0.3015832006931305,0.13369357585906982
1,2,64,20,0.4679059088230133,0.24831515550613403
1,2,64,21,0.5780038833618164,0.05720718577504158
1,2,64,22,0.5862823724746704,0.29763057827949524
1,2,64,23,0.19717895984649658,0.08515377342700958
1,2,64,24,0.5959583520889282,0.09190387278795242
1,2,64,25,0.3946288228034973,0.1741214543581009
1,2,64,26,0.38471123576164246,0.28573834896087646
1,2,64,27,0.49272266030311584,0.2943476438522339
1,2,64,28,0.42797401547431946,0.17072747647762299
1,2,64,29,0.40550535917282104,0.2274513989686966
1,2,64,30,0.4313506782054901,0.29999658465385437
1,2,64,31,0.27527791261672974,0.08088701218366623
1,2,64,32,0.4068436324596405,0.29149386286735535
1,2,64,33,0.3662610650062561,0.1301119327545166
1,2,64,34,0.4200785458087921,0.20387805998325348
1,2,64,35,0.6072763800621033,0.3116419017314911
1,2,64,36,0.7296692728996277,0.12120626866817474
1,2,64,37,0.41708630323410034,0.13583743572235107
1,2,64,38,0.6074376106262207,0.29723015427589417
1,2,64,39,0.47207531332969666,0.12777486443519592
1,2,64,40,0.5557546615600586,0.2535366117954254
1,2,64,41,0.23434965312480927,0.128777876496315
1,2,64,42,0.5043061375617981,0.08075423538684845
1,2,64,43,0.502465009689331,0.15518055856227875
1,2,64,44,0.737739086151123,0.1962665170431137
1,2,64,45,0.5688897967338562,0.31415486335754395
1,2,64,46,0.4896372854709625,0.26982635259628296
1,2,64,47,0.3112160861492157,0.0718478187918663
1,2,64,48,0.4113434851169586,0.2272433191537857
1,2,64,49,0.49003931879997253,0.31828996539115906
1,2,64,50,0.4727241098880768,0.19582350552082062
1,2,64,51,0.3796040415763855,0.10603684186935425
1,2,64,52,0.5754366517066956,0.12165629863739014
1,2,64,53,0.5681536793708801,0.27635473012924194
1,2,64,54,0.7867347598075867,0.1069374680519104
1,2,64,55,0.4594702124595642,0.26455825567245483
1,2,64,56,0.5608144998550415,0.24579119682312012
1,2,64,57,0.4094688892364502,0.15991021692752838
1,2,64,58,0.6144656538963318,0.21126142144203186
1,2,64,59,0.28250038623809814,0.15970534086227417
1,2,64,60,0.30403825640678406,0.12467745691537857
1,2,64,61,0.5617459416389465,0.1833684742450714
1,2,64,62,0.4204182028770447,0.17718453705310822
1,2,64,63,0.515140950679779,0.22168585658073425
1,3,64,0,0.5891652703285217,0.1606111079454422
1,3,64,1,0.7291955947875977,0.09306566417217255
1,3,64,2,0.6190364956855774,0.21332792937755585
1,3,64,3,0.25955408811569214,0.13232414424419403
1,3,64,4,0.5895654559135437,0.09644776582717896
1,3,64,5,0.457302451133728,0.20482584834098816
1,3,64,6,0.6265833973884583,0.3055093586444855
1,3,64,7,0.6667733192443848,0.09680581092834473
1,3,64,8,0.47802862524986267,0.07195288687944412
1,3,64,9,0.6662290096282959,0.10239313542842865
1,3,64,10,0.6234632730484009,0.12627720832824707
1,3,64,11,0.4237818717956543,0.16312043368816376
1,3,64,12,0.4018332362174988,0.15882796049118042
1,3,64,13,0.49995940923690796,0.16158638894557953
1,3,64,14,0.6101338863372803,0.33171913027763367
1,3,64,15,0.37845051288604736,0.20461978018283844
1,3,64,16,0.5533502101898193,0.0643468052148819
1,3,64,17,0.5909016132354736,0.13923728466033936
1,3,64,18,0.5603165626525879,0.13430051505565643
1,3,64,19,0.5255080461502075,0.16213452816009521
1,3,64,20,0.42303308844566345,0.17621998488903046
1,3,64,21,0.5807279348373413,0.26043787598609924
1,3,64,22,0.5422065854072571,0.08405324816703796
1,3,64,23,0.435481458902359,0.24217090010643005
1,3,64,24,0.47935208678245544,0.25708073377609253
1,3,64,25,0.5411431193351746,0.18027031421661377
1,3,64,26,0.6275466084480286,0.190684512257576
1,3,64,27,0.5592254400253296,0.29404523968696594
1,3,64,28,0.4806709587574005,0.1881188452243805
1,3,64,29,0.4231237471103668,0.10567595809698105
1,3,64,30,0.5437571406364441,0.18258243799209595
1,3,64,31,0.699047327041626,0.14717145264148712
1,3,64,32,0.27947744727134705,0.15842173993587494
1,3,64,33,0.3999883234500885,0.21033313870429993
1,3,64,34,0.6118396520614624,0.17958584427833557
1,3,64,35,0.6384407877922058,0.19950097799301147
1,3,64,36,0.2627289593219757,0.1070392057299614
1,3,64,37,0.34715139865875244,0.08968593925237656
1,3,64,38,0.5314464569091797,0.25708895921707153
1,3,64,39,0.3887467682361603,0.2828230857849121
1,3,64,40,0.6418035626411438,0.27565643191337585
1,3,64,41,0.3581903874874115,0.06998633593320847
1,3,64,42,0.3317374885082245,0.14014141261577606
1,3,64,43,0.7580152153968811,0.11216287314891815
1,3,64,44,0.5159609317779541,0.272877961397171
1,3,64,45,0.4414181411266327,0.18711088597774506
1,3,64,46,0.41233086585998535,0.08711130917072296
1,3,64,47,0.4087666869163513,0.15225674211978912
1,3,64,48,0.37107184529304504,0.15024030208587646
1,3,64,49,0.6920579075813293,0.1299043744802475
1,3,64,50,0.3020877540111542,0.1322907954454422
1,3,64,51,0.5365731716156006,0.1503186821937561
1,3,64,52,0.5776383280754089,0.26122528314590454
1,3,64,53,0.5900642275810242,0.21446125209331512
1,3,64,54,0.2454906553030014,0.11357967555522919
1,3,64,55,0.5161285996437073,0.07294447720050812
1,3,64,56,0.5252984762191772,0.3176397383213043
1,3,64,57,0.49964895844459534,0.18658433854579926
1,3,64,58,0.5156650543212891,0.16202664375305176
1,3,64,59,0.5445257425308228,0.06622447073459625
1,3,64,60,0.3381897509098053,0.14674808084964752
1,3,64,61,0.40368732810020447,0.12048164010047913
1,3,64,62,0.5747821927070618,0.36356213688850403
1,3,64,63,0.5890823006629944,0.12385065853595734
1,4,128,0,0.48698297142982483,0.25899603962898254
1,4,128,1,0.6237748861312866,0.3206275403499603
1,4,128,2,0.4526327848434448,0.19332312047481537
1,4,128,3,0.5893822312355042,0.0707775354385376
1,4,128,4,0.7044661641120911,0.14597728848457336
1,4,128,5,0.415723979473114,0.2946784794330597
1,4,128,6,0.7878401279449463,0.1028207391500473
1,4,128,7,0.5216574668884277,0.2640787959098816
1,4,128,8,0.44618451595306396,0.13301251828670502
1,4,128,9,0.5153998732566833,0.12267028540372849
1,4,128,10,0.41535815596580505,0.3774279057979584
1,4,128,11,0.5533455014228821,0.15942305326461792
1,4,128,12,0.4829038381576538,0.24459342658519745
1,4,128,13,0.6833364963531494,0.18587155640125275
1,4,128,14,0.6263430714607239,0.17691399157047272
1,4,128,15,0.5211788415908813,0.17375442385673523
1,4,128,16,0.510530948638916,0.17610600590705872
1,4,128,17,0.42948511242866516,0.18688128888607025
1,4,128,18,0.5516179203987122,0.2682074308395386
1,4,128,19,0.6387487649917603,0.31256091594696045
1,4,128,20,0.30273595452308655,0.10590435564517975
1,4,128,21,0.5188385248184204,0.1936304122209549
1,4,128,22,0.6278465986251831,0.31985265016555786
1,4,128,23,0.60142582654953,0.059190914034843445
1,4,128,24,0.5615124702453613,0.2153111696243286
1,4,128,25,0.4353650212287903,0.1734686940908432
1,4,128,26,0.406471312046051,0.12626588344573975
1,4,128,27,0.466949462890625,0.15990610420703888
1,4,128,28,0.5417904853820801,0.20513145625591278
1,4,128,29,0.46233198046684265,0.1719035804271698
1,4,128,30,0.5390474200248718,0.1329542100429535
1,4,128,31,0.5557888746261597,0.12326416373252869
1,4,128,32,0.5567917227745056,0.09585856646299362
1,4,128,33,0.5328757762908936,0.3194160461425781
1,4,128,34,0.5887290835380554,0.15497805178165436
1,4,128,35,0.5522237420082092,0.20024444162845612
1,4,128,36,0.6176278591156006,0.21417465806007385
1,4,128,37,0.5589308738708496,0.10126375406980515
1,4,128,38,0.6567086577415466,0.16707848012447357
1,4,128,39,0.47448769211769104,0.2936261296272278
1,4,128,40,0.6472348570823669,0.1931874006986618
1,4,128,41,0.6012725830078125,0.2467362880706787
1,4,128,42,0.6509279012680054,0.2017088085412979
1,4,128,43,0.45369723439216614,0.28726834058761597
1,4,128,44,0.6088190078735352,0.25134778022766113
1,4,128,45,0.5754971504211426,0.19266900420188904
1,4,128,46,0.48866090178489685,0.2034032940864563
1,4,128,47,0.3792709708213806,0.18369410932064056
1,4,128,48,0.5791028141975403,0.2976312041282654
1,4,128,49,0.5785489678382874,0.15737013518810272
1,4,128,50,0.45332059264183044,0.11734170466661453
1,4,128,51,0.6843270063400269,0.22705666720867157
1,4,128,52,0.4767611622810364,0.28379765152931213
1,4,128,53,0.42831647396087646,0.2096957415342331
1,4,128,54,0.32414090633392334,0.09686697274446487
1,4,128,55,0.4608752131462097,0.16898921132087708
1,4,128,56,0.3355587422847748,0.18593533337116241
1,4,128,57,0.6116450428962708,0.1513628363609314
1,4,128,58,0.3617010712623596,0.16452506184577942
1,4,128,59,0.7281030416488647,0.08228319883346558
1,4,128,60,0.5965355038642883,0.2693180441856384
1,4,128,61,0.593480110168457,0.29060569405555725
1,4,128,62,0.44429972767829895,0.2057909518480301
1,4,128,63,0.4781838655471802,0.08561306446790695
1,4,128,64,0.47458863258361816,0.08214367926120758
1,4,128,65,0.6108540892601013,0.35579514503479004
1,4,128,66,0.5647786259651184,0.0774681568145752
1,4,128,67,0.6667525768280029,0.24259932339191437
1,4,128,68,0.7157372236251831,0.09337519854307175
1,4,128,69,0.7468748092651367,0.07684940099716187
1,4,128,70,0.33956581354141235,0.06161685660481453
1,4,128,71,0.42871809005737305,0.2042788565158844
1,4,128,72,0.5871381163597107,0.27004674077033997
1,4,128,73,0.6724741458892822,0.14095664024353027
1,4,128,74,0.5193413496017456,0.27854228019714355
1,4,128,75,0.6404145359992981,0.19437652826309204
1,4,128,76,0.4355558454990387,0.20127978920936584
1,4,128,77,0.6858139038085938,0.08347652107477188
1,4,128,78,0.6699243783950806,0.20763292908668518
1,4,128,79,0.5621215105056763,0.2232493758201599
1,4,128,80,0.5862801671028137,0.1799088418483734
1,4,128,81,0.29645439982414246,0.15831269323825836
1,4,128,82,0.41718488931655884,0.11227593570947647
1,4,128,83,0.6531155109405518,0.17133399844169617
1,4,128,84,0.5954920649528503,0.27809175848960876
1,4,128,85,0.5481518507003784,0.23231947422027588
1,4,128,86,0.45010659098625183,0.11866716295480728
1,4,128,87,0.6564021706581116,0.0960727110505104
1,4,128,88,0.4868512451648712,0.19653154909610748
1,4,128,89,0.32854166626930237,0.11280271410942078
1,4,128,90,0.7245325446128845,0.07914360612630844
1,4,128,91,0.5820435881614685,0.15919795632362366
1,4,128,92,0.5222208499908447,0.09866855293512344
1,4,128,93,0.6457098722457886,0.2809733748435974
1,4,128,94,0.5833529233932495,0.22404928505420685
1,4,128,95,0.5097560286521912,0.11341073364019394
1,4,128,96,0.6471616625785828,0.2132711559534073
1,4,128,97,0.5619859099388123,0.2850509285926819
1,4,128,98,0.6681395769119263,0.13963310420513153
1,4,128,99,0.5642721652984619,0.21945172548294067
1,4,128,100,0.695138692855835,0.08657781779766083
1,4,128,101,0.382669597864151,0.20349888503551483
1,4,128,102,0.6075533032417297,0.32868289947509766
1,4,128,103,0.6266831159591675,0.34828925132751465
1,4,128,104,0.6633731126785278,0.0684923455119133
1,4,128,105,0.6360793113708496,0.2794114947319031
1,4,128,106,0.4967166483402252,0.18507975339889526
1,4,128,107,0.3363417088985443,0.1486036330461502
1,4,128,108,0.6140369176864624,0.27757957577705383
1,4,128,109,0.572903573513031,0.08147314935922623
1,4,128,110,0.4660542905330658,0.23072218894958496
1,4,128,111,0.4996058940887451,0.19877944886684418
1,4,128,112,0.7008072733879089,0.10358697921037674
1,4,128,113,0.37358593940734863,0.2514069974422455
1,4,128,114,0.7354217171669006,0.12638035416603088
1,4,128,115,0.48977887630462646,0.1837453842163086
1,4,128,116,0.6148360371589661,0.2743450403213501
1,4,128,117,0.71927809715271,0.11268733441829681
1,4,128,118,0.6138595938682556,0.18733550608158112
1,4,128,119,0.7325170636177063,0.12007895857095718
1,4,128,120,0.44480472803115845,0.2068447321653366
1,4,128,121,0.49819982051849365,0.2376207411289215
1,4,128,122,0.5701647996902466,0.21941213309764862
1,4,128,123,0.6244175434112549,0.14610686898231506
1,4,128,124,0.4908725917339325,0.15448421239852905
1,4,128,125,0.4709091782569885,0.2872515320777893
1,4,128,126,0.495965838432312,0.19803935289382935
1,4,128,127,0.7445847392082214,0.09561125934123993
1,5,128,0,0.7923315167427063,0.1323045939207077
1,5,128,1,0.8738953471183777,0.11658169329166412
1,5,128,2,0.6639403700828552,0.2618744373321533
1,5,128,3,0.7713252305984497,0.13754844665527344
1,5,128,4,0.6650020480155945,0.17631252110004425
1,5,128,5,0.4017946124076843,0.34428849816322327
1,5,128,6,0.8320762515068054,0.10814935714006424
1,5,128,7,0.6268394589424133,0.15679971873760223
1,5,128,8,0.6572491526603699,0.09680213779211044
1,5,128,9,0.746288537979126,0.19957244396209717
1,5,128,10,0.5768477916717529,0.18524935841560364
1,5,128,11,0.6330351233482361,0.22072888910770416
1,5,128,12,0.44701579213142395,0.3101748526096344
1,5,128,13,0.648469090461731,0.15708783268928528
1,5,128,14,0.7024889588356018,0.08206385374069214
1,5,128,15,0.5867915749549866,0.19277888536453247
1,5,128,16,0.7724313139915466,0.10262003540992737
1,5,128,17,0.3132132887840271,0.2669936716556549
1,5,128,18,0.6831263303756714,0.16806946694850922
1,5,128,19,0.6077262759208679,0.13377347588539124
1,5,128,20,0.5698204040527344,0.21682193875312805
1,5,128,21,0.8386611938476562,0.11024478822946548
1,5,128,22,0.7484390139579773,0.28110888600349426
1,5,128,23,0.7562429904937744,0.07424124330282211
1,5,128,24,0.7383810877799988,0.18054424226284027
1,5,128,25,0.6204627156257629,0.30140450596809387
1,5,128,26,0.5659361481666565,0.22886741161346436
1,5,128,27,0.7037830948829651,0.20623712241649628
1,5,128,28,0.6870125532150269,0.19769330322742462
1,5,128,29,0.6887415647506714,0.13652649521827698
1,5,128,30,0.5726650357246399,0.2614971399307251
1,5,128,31,0.730889081954956,0.13874340057373047
1,5,128,32,0.7022011876106262,0.15146514773368835
1,5,128,33,0.507121205329895,0.28442874550819397
1,5,128,34,0.7829708456993103,0.11362443119287491
1,5,128,35,0.6366286873817444,0.2080792486667633
1,5,128,36,0.784004807472229,0.09235837310552597
1,5,128,37,0.8279978036880493,0.10095401108264923
1,5,128,38,0.85982745885849,0.1012091338634491
1,5,128,39,0.440557599067688,0.21075451374053955
1,5,128,40,0.7295657992362976,0.17938007414340973
1,5,128,41,0.6491734385490417,0.11113538593053818
1,5,128,42,0.6735028028488159,0.1349187195301056
1,5,128,43,0.46458911895751953,0.1995406299829483
1,5,128,44,0.877726674079895,0.08492345362901688
1,5,128,45,0.7891317009925842,0.09748571366071701
1,5,128,46,0.7557166218757629,0.2178865522146225
1,5,128,47,0.7556764483451843,0.0825476348400116
1,5,128,48,0.7551198601722717,0.16572332382202148
1,5,128,49,0.6897469758987427,0.12296295911073685
1,5,128,50,0.5222975015640259,0.14740592241287231
1,5,128,51,0.712100088596344,0.20435543358325958
1,5,128,52,0.6885597109794617,0.2619956433773041
1,5,128,53,0.43212535977363586,0.23541991412639618
1,5,128,54,0.7446908950805664,0.1678454726934433
1,5,128,55,0.8227143883705139,0.09501120448112488
1,5,128,56,0.5080752372741699,0.28181755542755127
1,5,128,57,0.8173535466194153,0.11581401526927948
1,5,128,58,0.7167859077453613,0.09057585895061493
1,5,128,59,0.6237241625785828,0.14976245164871216
1,5,128,60,0.7168574929237366,0.10968206077814102
1,5,128,61,0.7534199953079224,0.07791265845298767
1,5,128,62,0.5801637768745422,0.10923819988965988
1,5,128,63,0.6040390133857727,0.13076883554458618
1,5,128,64,0.7241772413253784,0.19636240601539612
1,5,128,65,0.7913740277290344,0.09351321309804916
1,5,128,66,0.8665948510169983,0.07317942380905151
1,5,128,67,0.8003159761428833,0.11590074002742767
1,5,128,68,0.4154401123523712,0.1574292629957199
1,5,128,69,0.8337457180023193,0.09815939515829086
1,5,128,70,0.7097352147102356,0.24109195172786713
1,5,128,71,0.6469506025314331,0.1752002090215683
1,5,128,72,0.7947601079940796,0.20855367183685303
1,5,128,73,0.39177289605140686,0.319314569234848
1,5,128,74,0.6558350920677185,0.14846643805503845
1,5,128,75,0.7851710915565491,0.16641831398010254
1,5,128,76,0.8374471664428711,0.07669980078935623
1,5,128,77,0.6536007523536682,0.20092087984085083
1,5,128,78,0.7372277975082397,0.1402965933084488
1,5,128,79,0.6381527185440063,0.19746428728103638
1,5,128,80,0.6065688729286194,0.27873921394348145
1,5,128,81,0.495031476020813,0.18118217587471008
1,5,128,82,0.7912341356277466,0.12903495132923126
1,5,128,83,0.5652778148651123,0.18048836290836334
1,5,128,84,0.7926445603370667,0.11529192328453064
1,5,128,85,0.49270886182785034,0.3783581256866455
1,5,128,86,0.4487437307834625,0.33911001682281494
1,5,128,87,0.691695511341095,0.12436312437057495
1,5,128,88,0.8643708825111389,0.07515959441661835
1,5,128,89,0.7668566107749939,0.13245193660259247
1,5,128,90,0.8216214179992676,0.09510655701160431
1,5,128,91,0.6946936845779419,0.2684231698513031
1,5,128,92,0.7806755900382996,0.14128679037094116
1,5,128,93,0.8522729873657227,0.08806617558002472
1,5,128,94,0.8145147562026978,0.11116468161344528
1,5,128,95,0.7481652498245239,0.19711700081825256
1,5,128,96,0.8015283346176147,0.10580676048994064
1,5,128,97,0.8153013586997986,0.105803944170475
1,5,128,98,0.6313749551773071,0.25957027077674866
1,5,128,99,0.7731191515922546,0.14277075231075287
1,5,128,100,0.5959241390228271,0.2713470160961151
1,5,128,101,0.5842332243919373,0.166900634765625
1,5,128,102,0.5963125824928284,0.22162283957004547
1,5,128,103,0.7365244030952454,0.2684089243412018
1,5,128,104,0.777105450630188,0.12446539103984833
1,5,128,105,0.746120810508728,0.17047995328903198
1,5,128,106,0.8091618418693542,0.1678774356842041
1,5,128,107,0.589531421661377,0.19688615202903748
1,5,128,108,0.8070093393325806,0.21775180101394653
1,5,128,109,0.6272153258323669,0.16065049171447754
1,5,128,110,0.8125274181365967,0.11452586948871613
1,5,128,111,0.7713330984115601,0.10823892802000046
1,5,128,112,0.6354786157608032,0.12114255875349045
1,5,128,113,0.4816018044948578,0.32546377182006836
1,5,128,114,0.7907631397247314,0.20143339037895203
1,5,128,115,0.7734053134918213,0.08455643057823181
1,5,128,116,0.7476908564567566,0.2134220153093338
1,5,128,117,0.7880376577377319,0.10167186707258224
1,5,128,118,0.80162113904953,0.0928838923573494
1,5,128,119,0.7208907604217529,0.11127528548240662
1,5,128,120,0.8437934517860413,0.09261330962181091
1,5,128,121,0.7194082140922546,0.14704930782318115
1,5,128,122,0.7873963117599487,0.13758032023906708
1,5,128,123,0.6932382583618164,0.08752024173736572
1,5,128,124,0.4475221633911133,0.3028773069381714
1,5,128,125,0.820708692073822,0.09091465175151825
1,5,128,126,0.8390225172042847,0.11750141531229019
1,5,128,127,0.7647568583488464,0.10010868310928345
2,0,32,0,0.5128359198570251,0.0888049528002739
2,0,32,1,0.3976869583129883,0.10019861161708832
2,0,32,2,0.32476070523262024,0.07149551808834076
2,0,32,3,0.4665061831474304,0.08616846054792404
2,0,32,4,0.3730716407299042,0.04784531518816948
2,0,32,5,0.37361940741539,0.03835678845643997
2,0,32,6,0.5905681848526001,0.07504569739103317
2,0,32,7,0.3674333691596985,0.07036297768354416
2,0,32,8,0.4115709662437439,0.03637050464749336
2,0,32,9,0.5500017404556274,0.04584277793765068
2,0,32,10,0.4466092884540558,0.05498328432440758
2,0,32,11,0.4137359857559204,0.03887429088354111
2,0,32,12,0.4550356864929199,0.09660790115594864
2,0,32,13,0.47433122992515564,0.0923629105091095
2,0,32,14,0.46844783425331116,0.05963411182165146
2,0,32,15,0.4409392476081848,0.1249287948012352
2,0,32,16,0.4690883159637451,0.06491273641586304
2,0,32,17,0.358955442905426,0.08667647838592529
2,0,32,18,0.589134156703949,0.09068120270967484
2,0,32,19,0.45819562673568726,0.04749692231416702
2,0,32,20,0.4435831606388092,0.10878564417362213
2,0,32,21,0.6570143699645996,0.0702175721526146
2,0,32,22,0.4439312517642975,0.11076684296131134
2,0,32,23,0.3852808475494385,0.09858650714159012
2,0,32,24,0.4794987142086029,0.08622702211141586
2,0,32,25,0.47202765941619873,0.12317778915166855
2,0,32,26,0.40739044547080994,0.07065048813819885
2,0,32,27,0.5494304299354553,0.16995687782764435
2,0,32,28,0.6291511058807373,0.03790755942463875
2,0,32,29,0.4881681799888611,0.037776216864585876
2,0,32,30,0.38615694642066956,0.04762687534093857
2,0,32,31,0.3775475323200226,0.17353376746177673
2,1,32,0,0.6208443641662598,0.04689463600516319
2,1,32,1,0.41311079263687134,0.08994389325380325
2,1,32,2,0.5617462992668152,0.07912727445363998
2,1,32,3,0.5476970672607422,0.05581127479672432
2,1,32,4,0.5677915811538696,0.020830968394875526
2,1,32,5,0.5062817335128784,0.05785418674349785
2,1,32,6,0.5468421578407288,0.10481888055801392
2,1,32,7,0.39543816447257996,0.0910286009311676
2,1,32,8,0.4080714285373688,0.09191787242889404
2,1,32,9,0.4973376393318176,0.06681995093822479
2,1,32,10,0.3137803375720978,0.0947045236825943
2,1,32,11,0.4175892472267151,0.09648673981428146
2,1,32,12,0.4945773184299469,0.13255858421325684
2,1,32,13,0.6154155731201172,0.07202126085758209
2,1,32,14,0.635539710521698,0.09353850781917572
2,1,32,15,0.567488431930542,0.0186446700245142
2,1,32,16,0.5101645588874817,0.03453594818711281
2,1,32,17,0.37566930055618286,0.08344967663288116
2,1,32,18,0.550254225730896,0.09396996349096298
2,1,32,19,0.5117043256759644,0.012443444691598415
2,1,32,20,0.4813193082809448,0.07727997750043869
2,1,32,21,0.5586441159248352,0.12334317713975906
2,1,32,22,0.5188947319984436,0.10573060810565948
2,1,32,23,0.39872539043426514,0.13731421530246735
2,1,32,24,0.4261554479598999,0.049724310636520386
2,1,32,25,0.4015233516693115,0.11225482076406479
2,1,32,26,0.4692310690879822,0.06453990936279297
2,1,32,27,0.44904157519340515,0.13254094123840332
2,1,32,28,0.42627081274986267,0.06323488056659698
2,1,32,29,0.5591288208961487,0.07837792485952377
2,1,32,30,0.5818980932235718,0.1043243482708931
2,1,32,31,0.5232574939727783,0.06842725723981857
2,2,64,0,0.4175581932067871,0.1378776580095291
2,2,64,1,0.6483009457588196,0.08200212568044662
2,2,64,2,0.5835034251213074,0.1995415836572647
2,2,64,3,0.41598939895629883,0.14083030819892883
2,2,64,4,0.4320726990699768,0.13652731478214264
2,2,64,5,0.554262101650238,0.17908239364624023
2,2,64,6,0.5318686366081238,0.1307443082332611
2,2,64,7,0.42361363768577576,0.15680763125419617
2,2,64,8,0.4453895092010498,0.11566881835460663
2,2,64,9,0.4540441036224365,0.1711692363023758
2,2,64,10,0.63531494140625,0.09646479040384293
2,2,64,11,0.4959825277328491,0.14132750034332275
2,2,64,12,0.5303067564964294,0.15013962984085083
2,2,64,13,0.4487849473953247,0.12233010679483414
2,2,64,14,0.6325556635856628,0.14898082613945007
2,2,64,15,0.434691458940506,0.18446722626686096
2,2,64,16,0.3694789409637451,0.17605498433113098
2,2,64,17,0.36481714248657227,0.13027365505695343
2,2,64,18,0.5208113789558411,0.11495192348957062
2,2,64,19,0.49254971742630005,0.10760259628295898
2,2,64,20,0.3402412533760071,0.10875116288661957
2,2,64,21,0.4633416533470154,0.11618100851774216
2,2,64,22,0.30971410870552063,0.14459393918514252
2,2,64,23,0.4464835822582245,0.18610775470733643
2,2,64,24,0.587918758392334,0.07138436287641525
2,2,64,25,0.5775249004364014,0.08940332382917404
2,2,64,26,0.48094454407691956,0.05987153574824333
2,2,64,27,0.3838491439819336,0.11965196579694748
2,2,64,28,0.49721333384513855,0.18513281643390656
2,2,64,29,0.379576712846756,0.18176329135894775
2,2,64,30,0.612391471862793,0.10196058452129364
2,2,64,31,0.46837860345840454,0.06328410655260086
2,2,64,32,0.40681636333465576,0.07766668498516083
2,2,64,33,0.5525197386741638,0.10267308354377747
2,2,64,34,0.43120747804641724,0.08058050274848938
2,2,64,35,0.41635382175445557,0.09890396893024445
2,2,64,36,0.41144877672195435,0.08325555175542831
2,2,64,37,0.44112297892570496,0.1761709749698639
2,2,64,38,0.6249019503593445,0.09944479167461395
2,2,64,39,0.4496363401412964,0.19654345512390137
2,2,64,40,0.34549281001091003,0.09169290959835052
2,2,64,41,0.47815027832984924,0.0547303780913353
2,2,64,42,0.5551350116729736,0.14218026399612427
2,2,64,43,0.5757884979248047,0.13341036438941956
2,2,64,44,0.44575339555740356,0.1921355426311493
2,2,64,45,0.4252360761165619,0.13728132843971252
2,2,64,46,0.615196168422699,0.13231313228607178
2,2,64,47,0.4242405295372009,0.07174267619848251
2,2,64,48,0.3776760399341583,0.14299412071704865
2,2,64,49,0.6208339929580688,0.10225322842597961
2,2,64,50,0.4705064594745636,0.10200653970241547
2,2,64,51,0.4856763780117035,0.03662732616066933
2,2,64,52,0.5878115296363831,0.11259576678276062
2,2,64,53,0.5492334365844727,0.0211248267441988
2,2,64,54,0.4595998525619507,0.1254785805940628
2,2,64,55,0.4970250129699707,0.16450121998786926
2,2,64,56,0.5684381127357483,0.1952560395002365
2,2,64,57,0.6411197185516357,0.1065068393945694
2,2,64,58,0.4851996898651123,0.09103916585445404
2,2,64,59,0.36815524101257324,0.15178759396076202
2,2,64,60,0.4907858669757843,0.22254106402397156
2,2,64,61,0.4116789996623993,0.12753909826278687
2,2,64,62,0.3869566321372986,0.16608461737632751
2,2,64,63,0.4326818287372589,0.13372518122196198
2,3,64,0,0.47014233469963074,0.1853465437889099
2,3,64,1,0.623565137386322,0.12288978695869446
2,3,64,2,0.6081907749176025,0.11848996579647064
2,3,64,3,0.5096774101257324,0.2533058226108551
2,3,64,4,0.2986285388469696,0.08362245559692383
2,3,64,5,0.46398866176605225,0.09825500100851059
2,3,64,6,0.546185314655304,0.08990339934825897
2,3,64,7,0.3818401098251343,0.18397420644760132
2,3,64,8,0.5026925802230835,0.1466083973646164
2,3,64,9,0.4090723991394043,0.09164268523454666
2,3,64,10,0.5494167804718018,0.18629346787929535
2,3,64,11,0.4742480218410492,0.18188010156154633
2,3,64,12,0.48865649104118347,0.08693599700927734
2,3,64,13,0.4916743040084839,0.08038141578435898
2,3,64,14,0.3263779878616333,0.13455656170845032
2,3,64,15,0.434165358543396,0.11894701421260834
2,3,64,16,0.580913782119751,0.12152624130249023
2,3,64,17,0.5429386496543884,0.15811273455619812
2,3,64,18,0.567932665348053,0.20104989409446716
2,3,64,19,0.5228559970855713,0.1683456301689148
2,3,64,20,0.3920745253562927,0.05781636759638786
2,3,64,21,0.5068147778511047,0.16828376054763794
2,3,64,22,0.3636983633041382,0.1004408672451973
2,3,64,23,0.4741850793361664,0.14378546178340912
2,3,64,24,0.384003221988678,0.08658421784639359
2,3,64,25,0.4650387167930603,0.11808647215366364
2,3,64,26,0.4153841733932495,0.0746992975473404
2,3,64,27,0.5491424798965454,0.17493341863155365
2,3,64,28,0.43345528841018677,0.12950357794761658
2,3,64,29,0.3903263807296753,0.11492934823036194
2,3,64,30,0.5696097612380981,0.10682661831378937
2,3,64,31,0.5366371273994446,0.10267774760723114
2,3,64,32,0.3836006820201874,0.10165608674287796
2,3,64,33,0.5358704924583435,0.16094212234020233
2,3,64,34,0.5455982089042664,0.17030192911624908
2,3,64,35,0.4200805425643921,0.08664416521787643
2,3,64,36,0.36318325996398926,0.056143272668123245
2,3,64,37,0.5261382460594177,0.17325620353221893
2,3,64,38,0.47118231654167175,0.2452230453491211
2,3,64,39,0.5933892130851746,0.184966579079628
2,3,64,40,0.6307370066642761,0.15709152817726135
2,3,64,41,0.4654214680194855,0.10823806375265121
2,3,64,42,0.6015529036521912,0.2151232212781906
2,3,64,43,0.47956085205078125,0.0942205861210823
2,3,64,44,0.5824053287506104,0.0950925424695015
2,3,64,45,0.49134811758995056,0.27048006653785706
2,3,64,46,0.5086140632629395,0.125716894865036
2,3,64,47,0.552262544631958,0.17098556458950043
2,3,64,48,0.5487189888954163,0.08396906405687332
2,3,64,49,0.47013312578201294,0.11070428043603897
2,3,64,50,0.5057277679443359,0.13300156593322754
2,3,64,51,0.6234501600265503,0.11348531395196915
2,3,64,52,0.5020184516906738,0.08665486425161362
2,3,64,53,0.46438226103782654,0.17346391081809998
2,3,64,54,0.41046226024627686,0.17486070096492767
2,3,64,55,0.6155601143836975,0.09186477214097977
2,3,64,56,0.46470215916633606,0.07712537050247192
2,3,64,57,0.5860803723335266,0.13701632618904114
2,3,64,58,0.39032408595085144,0.17266122996807098
2,3,64,59,0.6323795318603516,0.12390544265508652
2,3,64,60,0.5097385048866272,0.11508249491453171
2,3,64,61,0.451958566904068,0.226510152220726
2,3,64,62,0.3531765043735504,0.0850483626127243
2,3,64,63,0.5181659460067749,0.16267012059688568
2,4,128,0,0.5011655688285828,0.11572149395942688
2,4,128,1,0.7593461871147156,0.12236706912517548
2,4,128,2,0.6724848747253418,0.18211345374584198
2,4,128,3,0.5158219933509827,0.18132254481315613
2,4,128,4,0.70213782787323,0.20586445927619934
2,4,128,5,0.3770376741886139,0.27703163027763367
2,4,128,6,0.6265398263931274,0.2537729740142822
2,4,128,7,0.6195395588874817,0.3610624670982361
2,4,128,8,0.4136187732219696,0.240159273147583
2,4,128,9,0.6878165006637573,0.09852112829685211
2,4,128,10,0.7025309205055237,0.22134053707122803
2,4,128,11,0.6282954216003418,0.30799365043640137
2,4,128,12,0.6718825697898865,0.31539395451545715
2,4,128,13,0.40483465790748596,0.32446834444999695
2,4,128,14,0.38889867067337036,0.2056610882282257
2,4,128,15,0.6231228113174438,0.319335401058197
2,4,128,16,0.25208374857902527,0.12128300219774246
2,4,128,17,0.7153423428535461,0.14197970926761627
2,4,128,18,0.7625913619995117,0.1017608791589737
2,4,128,19,0.6437309980392456,0.10544102638959885
2,4,128,20,0.6921694278717041,0.11490318924188614
2,4,128,21,0.8012360334396362,0.14009444415569305
2,4,128,22,0.5888291597366333,0.09792930632829666
2,4,128,23,0.7025764584541321,0.09286259114742279
2,4,128,24,0.6847115159034729,0.15880735218524933
2,4,128,25,0.5481447577476501,0.16948837041854858
2,4,128,26,0.6850930452346802,0.09808716177940369
2,4,128,27,0.7401679158210754,0.12347683310508728
2,4,128,28,0.6407340168952942,0.22871039807796478
2,4,128,29,0.3956477642059326,0.3124525547027588
2,4,128,30,0.3853020668029785,0.3277071416378021
2,4,128,31,0.44028183817863464,0.22196877002716064
2,4,128,32,0.582979142665863,0.05549925938248634
2,4,128,33,0.48434022068977356,0.0770120844244957
2,4,128,34,0.445909708738327,0.35758349299430847
2,4,128,35,0.26170751452445984,0.16949836909770966
2,4,128,36,0.7236511707305908,0.13075482845306396
2,4,128,37,0.6077161431312561,0.39862099289894104
2,4,128,38,0.6143947839736938,0.09403073787689209
2,4,128,39,0.4614059627056122,0.2627947926521301
2,4,128,40,0.43288224935531616,0.22857306897640228
2,4,128,41,0.6283822655677795,0.05750781670212746
2,4,128,42,0.5935479402542114,0.13276809453964233
2,4,128,43,0.6880892515182495,0.24822954833507538
2,4,128,44,0.7902184128761292,0.13981838524341583
2,4,128,45,0.40304842591285706,0.10998538881540298
2,4,128,46,0.46455976366996765,0.29355278611183167
2,4,128,47,0.4339147210121155,0.22635070979595184
2,4,128,48,0.7350336909294128,0.15795427560806274
2,4,128,49,0.6989139318466187,0.1810566931962967
2,4,128,50,0.3745844066143036,0.12015190720558167
2,4,128,51,0.44540640711784363,0.17456965148448944
2,4,128,52,0.3818777799606323,0.07855138927698135
2,4,128,53,0.6168537139892578,0.07577373832464218
2,4,128,54,0.4479351341724396,0.35442447662353516
2,4,128,55,0.6441254019737244,0.14125899970531464
2,4,128,56,0.664501965045929,0.1901797205209732
2,4,128,57,0.5791956782341003,0.2712301015853882
2,4,128,58,0.6740049719810486,0.07602142542600632
2,4,128,59,0.6753777265548706,0.1946289986371994
2,4,128,60,0.737089991569519,0.24509036540985107
2,4,128,61,0.4550393223762512,0.15186403691768646
2,4,128,62,0.6312386989593506,0.24869675934314728
2,4,128,63,0.6058318018913269,0.34704890847206116
2,4,128,64,0.45696115493774414,0.14139105379581451
2,4,128,65,0.42895275354385376,0.06219436600804329
2,4,128,66,0.5937785506248474,0.2993308901786804
2,4,128,67,0.4296157956123352,0.29996877908706665
2,4,128,68,0.7006572484970093,0.26760178804397583
2,4,128,69,0.30769017338752747,0.13217836618423462
2,4,128,70,0.4267728924751282,0.06298711895942688
2,4,128,71,0.3639197051525116,0.08097124099731445
2,4,128,72,0.5588642954826355,0.13593420386314392
2,4,128,73,0.6559091210365295,0.18781150877475739
2,4,128,74,0.7160139083862305,0.08422143757343292
2,4,128,75,0.5956544280052185,0.2031308263540268
2,4,128,76,0.3581451177597046,0.060802098363637924
2,4,128,77,0.6055337190628052,0.24861811101436615
2,4,128,78,0.5763065218925476,0.1235048770904541
2,4,128,79,0.6486201286315918,0.34204232692718506
2,4,128,80,0.7548235654830933,0.17556141316890717
2,4,128,81,0.606633722782135,0.29808729887008667
2,4,128,82,0.6663474440574646,0.11602328717708588
2,4,128,83,0.5802327990531921,0.17607983946800232
2,4,128,84,0.7131068706512451,0.12648364901542664
2,4,128,85,0.6554513573646545,0.0827687531709671
2,4,128,86,0.5239025354385376,0.20087772607803345
2,4,128,87,0.6024274826049805,0.11070260405540466
2,4,128,88,0.5647479891777039,0.26971110701560974
2,4,128,89,0.4447373151779175,0.3128095865249634
2,4,128,90,0.4235609769821167,0.2707942724227905
2,4,128,91,0.6104496121406555,0.19160766899585724
2,4,128,92,0.6945863962173462,0.14074334502220154
2,4,128,93,0.4249008893966675,0.06388591974973679
2,4,128,94,0.40315431356430054,0.32696694135665894
2,4,128,95,0.45164087414741516,0.1409103125333786
2,4,128,96,0.3398555815219879,0.20212745666503906
2,4,128,97,0.4947665333747864,0.12434875220060349
2,4,128,98,0.674993097782135,0.0976371243596077
2,4,128,99,0.5158689022064209,0.29886239767074585
2,4,128,100,0.7376323342323303,0.18101592361927032
2,4,128,101,0.5327449440956116,0.21446195244789124
2,4,128,102,0.7520832419395447,0.15431757271289825
2,4,128,103,0.6957976222038269,0.229050874710083
2,4,128,104,0.7192223072052002,0.13330216705799103
2,4,128,105,0.7089972496032715,0.13639675080776215
2,4,128,106,0.7335341572761536,0.10642624646425247
2,4,128,107,0.625884473323822,0.08986802399158478
2,4,128,108,0.37482741475105286,0.30099236965179443
2,4,128,109,0.349375456571579,0.2714990973472595
2,4,128,110,0.4049406051635742,0.19877853989601135
2,4,128,111,0.6835452318191528,0.23829235136508942
2,4,128,112,0.5465498566627502,0.08229047060012817
2,4,128,113,0.36252686381340027,0.13749101758003235
2,4,128,114,0.49273571372032166,0.06434386223554611
2,4,128,115,0.49261772632598877,0.2664020359516144
2,4,128,116,0.7034647464752197,0.13675005733966827
2,4,128,117,0.7981554269790649,0.1020723283290863
2,4,128,118,0.4585898220539093,0.14490407705307007
2,4,128,119,0.6209496855735779,0.2688276469707489
2,4,128,120,0.4513525068759918,0.3240416347980499
2,4,128,121,0.5581403374671936,0.20913881063461304
2,4,128,122,0.2271965593099594,0.15779991447925568
2,4,128,123,0.6702689528465271,0.17944024503231049
2,4,128,124,0.5061461925506592,0.19210734963417053
2,4,128,125,0.576687753200531,0.05069933459162712
2,4,128,126,0.6272841691970825,0.21372821927070618
2,4,128,127,0.43979963660240173,0.12064961344003677
2,5,128,0,0.5749363303184509,0.22138521075248718
2,5,128,1,0.6123713850975037,0.17044520378112793
2,5,128,2,0.4702390134334564,0.2388431876897812
2,5,128,3,0.7050979137420654,0.14008161425590515
2,5,128,4,0.5924391746520996,0.15602965652942657
2,5,128,5,0.6454378366470337,0.2286926507949829
2,5,128,6,0.6946541666984558,0.16160984337329865
2,5,128,7,0.6863605380058289,0.27527371048927307
2,5,128,8,0.8092097043991089,0.11934620141983032
2,5,128,9,0.4137130677700043,0.20971029996871948
2,5,128,10,0.6965045928955078,0.19072659313678741
2,5,128,11,0.8406018614768982,0.09394706040620804
2,5,128,12,0.8107346892356873,0.13644006848335266
2,5,128,13,0.33217567205429077,0.1915590465068817
2,5,128,14,0.8205797076225281,0.10025009512901306
2,5,128,15,0.7080174684524536,0.17386123538017273
2,5,128,16,0.48479655385017395,0.12197168171405792
2,5,128,17,0.682964563369751,0.1461629420518875
2,5,128,18,0.662031352519989,0.091828353703022
2,5,128,19,0.6405853629112244,0.17684204876422882
2,5,128,20,0.3925519287586212,0.23670367896556854
2,5,128,21,0.823077380657196,0.09732269495725632
2,5,128,22,0.6483436822891235,0.08217305690050125
2,5,128,23,0.778508722782135,0.20840103924274445
2,5,128,24,0.6941682696342468,0.13221117854118347
2,5,128,25,0.6187533736228943,0.16528624296188354
2,5,128,26,0.7712101936340332,0.08961111307144165
2,5,128,27,0.7077990174293518,0.16073250770568848
2,5,128,28,0.46402454376220703,0.1600329428911209
2,5,128,29,0.6818472146987915,0.11103900521993637
2,5,128,30,0.5240337252616882,0.3006472587585449
2,5,128,31,0.7034583687782288,0.11585704982280731
2,5,128,32,0.8113300800323486,0.10287443548440933
2,5,128,33,0.6236046552658081,0.120683453977108
2,5,128,34,0.7626214027404785,0.12948864698410034
2,5,128,35,0.7132079601287842,0.12403685599565506
2,5,128,36,0.7974628210067749,0.09474638104438782
2,5,128,37,0.8206118941307068,0.08089354634284973
2,5,128,38,0.7041850090026855,0.07856545597314835
2,5,128,39,0.30560290813446045,0.16397416591644287
2,5,128,40,0.7726696133613586,0.06911367177963257
2,5,128,41,0.37850838899612427,0.09414626657962799
2,5,128,42,0.6075944900512695,0.1540497988462448
2,5,128,43,0.7055953145027161,0.27059227228164673
2,5,128,44,0.48886793851852417,0.2548007071018219
2,5,128,45,0.612052321434021,0.2986409366130829
2,5,128,46,0.3931428790092468,0.26996850967407227
2,5,128,47,0.44246765971183777,0.18328356742858887
2,5,128,48,0.6666051149368286,0.25656309723854065
2,5,128,49,0.43355000019073486,0.18488657474517822
2,5,128,50,0.4931657612323761,0.26032787561416626
2,5,128,51,0.7261022329330444,0.08901000022888184
2,5,128,52,0.4622255563735962,0.27280357480049133
2,5,128,53,0.6507965326309204,0.24125926196575165
2,5,128,54,0.7744422554969788,0.16308271884918213
2,5,128,55,0.8465067744255066,0.0794975608587265
2,5,128,56,0.5639504194259644,0.10885968059301376
2,5,128,57,0.7251067161560059,0.11844022572040558
2,5,128,58,0.48390594124794006,0.28363773226737976
2,5,128,59,0.63515704870224,0.28553012013435364
2,5,128,60,0.7286341190338135,0.17321646213531494
2,5,128,61,0.7965188026428223,0.08683955669403076
2,5,128,62,0.6726757884025574,0.2629324197769165
2,5,128,63,0.8229677677154541,0.12824465334415436
2,5,128,64,0.4702959656715393,0.1928211897611618
2,5,128,65,0.573432207107544,0.11413528025150299
2,5,128,66,0.8018011450767517,0.10594870895147324
2,5,128,67,0.2899310290813446,0.23027129471302032
2,5,128,68,0.8377289772033691,0.08359972387552261
2,5,128,69,0.7106466889381409,0.18478910624980927
2,5,128,70,0.7881110906600952,0.07404815405607224
2,5,128,71,0.428933709859848,0.24185417592525482
2,5,128,72,0.7201199531555176,0.1450025886297226
2,5,128,73,0.5089659094810486,0.1908666491508484
2,5,128,74,0.6078869104385376,0.23712347447872162
2,5,128,75,0.7540254592895508,0.11974451690912247
2,5,128,76,0.7840663194656372,0.11622320115566254
2,5,128,77,0.8129812479019165,0.1416630893945694
2,5,128,78,0.650481104850769,0.14293907582759857
2,5,128,79,0.7087485790252686,0.20700277388095856
2,5,128,80,0.8224468231201172,0.0761888399720192
2,5,128,81,0.8859272003173828,0.07106821984052658
2,5,128,82,0.7354224920272827,0.16867324709892273
2,5,128,83,0.7513935565948486,0.21447928249835968
2,5,128,84,0.6926394701004028,0.11466767638921738
2,5,128,85,0.7254236340522766,0.2544603645801544
2,5,128,86,0.8080352544784546,0.11625423282384872
2,5,128,87,0.46000438928604126,0.20660558342933655
2,5,128,88,0.6310697197914124,0.28673771023750305
2,5,128,89,0.7799152731895447,0.10255397111177444
2,5,128,90,0.5311300158500671,0.12095610052347183
2,5,128,91,0.6339816451072693,0.1250350922346115
2,5,128,92,0.5887105464935303,0.22936832904815674
2,5,128,93,0.784821629524231,0.088070809841156
2,5,128,94,0.6249185800552368,0.23468345403671265
2,5,128,95,0.7389147877693176,0.12072335183620453
2,5,128,96,0.7020028233528137,0.2276923656463623
2,5,128,97,0.5996469855308533,0.17394517362117767
2,5,128,98,0.7406066060066223,0.10274537652730942
2,5,128,99,0.7837978005409241,0.0754968672990799
2,5,128,100,0.8053069710731506,0.0991479754447937
2,5,128,101,0.7312096953392029,0.17363665997982025
2,5,128,102,0.5842689871788025,0.1656387597322464
2,5,128,103,0.8208492398262024,0.10734138637781143
2,5,128,104,0.782315194606781,0.13825781643390656
2,5,128,105,0.7411312460899353,0.17462345957756042
2,5,128,106,0.7108955383300781,0.2472352534532547
2,5,128,107,0.563391923904419,0.1776883751153946
2,5,128,108,0.4206259548664093,0.17395757138729095
2,5,128,109,0.7534438967704773,0.14247988164424896
2,5,128,110,0.48808416724205017,0.19317679107189178
2,5,128,111,0.7727652788162231,0.07170725613832474
2,5,128,112,0.7808569669723511,0.0883612260222435
2,5,128,113,0.4563775062561035,0.16896282136440277
2,5,128,114,0.6736136078834534,0.1611863523721695
2,5,128,115,0.5740302801132202,0.07904160767793655
2,5,128,116,0.6875784993171692,0.24500063061714172
2,5,128,117,0.7953196167945862,0.10923348367214203
2,5,128,118,0.7116392254829407,0.27905595302581787
2,5,128,119,0.7753142714500427,0.11369621753692627
2,5,128,120,0.5666835904121399,0.19874463975429535
2,5,128,121,0.6491873264312744,0.23970039188861847
2,5,128,122,0.6129144430160522,0.15879473090171814
2,5,128,123,0.35077372193336487,0.225255087018013
2,5,128,124,0.6308563351631165,0.22743967175483704
2,5,128,125,0.6528763175010681,0.11047325283288956
2,5,128,126,0.7033228874206543,0.23916542530059814
2,5,128,127,0.5468197464942932,0.1681302934885025
3,0,32,0,0.5696926116943359,0.07640619575977325
3,0,32,1,0.4068436920642853,0.102259062230587
3,0,32,2,0.33311983942985535,0.10041141510009766
3,0,32,3,0.5166673064231873,0.19646240770816803
3,0,32,4,0.3081895411014557,0.07447954267263412
3,0,32,5,0.40411508083343506,0.10142672061920166
3,0,32,6,0.6243119835853577,0.08797071874141693
3,0,32,7,0.33481478691101074,0.14788959920406342
3,0,32,8,0.45546263456344604,0.07429271936416626
3,0,32,9,0.5271982550621033,0.0668521597981453
3,0,32,10,0.4633871912956238,0.038175974041223526
3,0,32,11,0.39024269580841064,0.03004402481019497
3,0,32,12,0.4756621718406677,0.1054319217801094
3,0,32,13,0.3983486592769623,0.0886317566037178
3,0,32,14,0.4928723871707916,0.03965838998556137
3,0,32,15,0.39068081974983215,0.1448151171207428
3,0,32,16,0.4374738037586212,0.20232276618480682
3,0,32,17,0.4250468313694,0.07712212949991226
3,0,32,18,0.5575935244560242,0.18235652148723602
3,0,32,19,0.40566936135292053,0.06840768456459045
3,0,32,20,0.4435011148452759,0.09580080956220627
3,0,32,21,0.6974166631698608,0.06045912578701973
3,0,32,22,0.4778994023799896,0.19790031015872955
3,0,32,23,0.31787776947021484,0.07993540167808533
3,0,32,24,0.440975159406662,0.07295660674571991
3,0,32,25,0.4887732267379761,0.17963670194149017
3,0,32,26,0.3705964982509613,0.06823860108852386
3,0,32,27,0.5817884206771851,0.14619754254817963
3,0,32,28,0.5608507394790649,0.1023353710770607
3,0,32,29,0.5385850071907043,0.07742162048816681
3,0,32,30,0.36997026205062866,0.10221222043037415
3,0,32,31,0.33753734827041626,0.13092856109142303
3,1,32,0,0.579185426235199,0.008948119357228279
3,1,32,1,0.35535794496536255,0.06440328806638718
3,1,32,2,0.5837476253509521,0.061520714312791824
3,1,32,3,0.5245498418807983,0.07034040987491608
3,1,32,4,0.5748975872993469,0.03062371164560318
3,1,32,5,0.5292490720748901,0.01556747779250145
3,1,32,6,0.5355883836746216,0.03735087439417839
3,1,32,7,0.38249409198760986,0.03473653271794319
3,1,32,8,0.37312132120132446,0.056876879185438156
3,1,32,9,0.5018702745437622,0.0555373914539814
3,1,32,10,0.39029645919799805,0.06275701522827148
3,1,32,11,0.4418448507785797,0.1091255322098732
3,1,32,12,0.5121214985847473,0.0647357851266861
3,1,32,13,0.6047930717468262,0.02734680287539959
3,1,32,14,0.6370469331741333,0.04525012895464897
3,1,32,15,0.5821255445480347,0.008281614631414413
3,1,32,16,0.48312023282051086,0.026566030457615852
3,1,32,17,0.4468567669391632,0.01597125642001629
3,1,32,18,0.5787717700004578,0.05867072939872742
3,1,32,19,0.43967074155807495,0.05881254002451897
3,1,32,20,0.5143090486526489,0.08469614386558533
3,1,32,21,0.5494211316108704,0.05078699067234993
3,1,32,22,0.5368908047676086,0.06364209204912186
3,1,32,23,0.40261635184288025,0.04279166832566261
3,1,32,24,0.40905365347862244,0.04467481002211571
3,1,32,25,0.4106142818927765,0.054326143115758896
3,1,32,26,0.4732670783996582,0.06355047225952148
3,1,32,27,0.4415225088596344,0.09884905815124512
3,1,32,28,0.44323402643203735,0.03011227771639824
3,1,32,29,0.5829737782478333,0.02395426668226719
3,1,32,30,0.55572509765625,0.04271296411752701
3,1,32,31,0.5630245208740234,0.061724234372377396
3,2,64,0,0.4250597357749939,0.14187628030776978
3,2,64,1,0.5885773301124573,0.18772582709789276
3,2,64,2,0.5679352283477783,0.26178261637687683
3,2,64,3,0.496305376291275,0.2758018672466278
3,2,64,4,0.41856569051742554,0.08734285086393356
3,2,64,5,0.2935655415058136,0.09470699727535248
3,2,64,6,0.49728891253471375,0.18723703920841217
3,2,64,7,0.3652927875518799,0.164646714925766
3,2,64,8,0.5020044445991516,0.15062128007411957
3,2,64,9,0.43825405836105347,0.27788418531417847
3,2,64,10,0.6557844877243042,0.1360398828983307
3,2,64,11,0.4957965314388275,0.10451110452413559
3,2,64,12,0.4107063412666321,0.1484326869249344
3,2,64,13,0.5054098963737488,0.11323228478431702
3,2,64,14,0.6005524396896362,0.11346554011106491
3,2,64,15,0.43210548162460327,0.2699846625328064
3,2,64,16,0.48487550020217896,0.29758313298225403
3,2,64,17,0.46925029158592224,0.23740491271018982
3,2,64,18,0.48384007811546326,0.17827391624450684
3,2,64,19,0.5555688142776489,0.060971178114414215
3,2,64,20,0.35405853390693665,0.1726778745651245
3,2,64,21,0.4733077585697174,0.1200014054775238
3,2,64,22,0.2544972896575928,0.08663006126880646
3,2,64,23,0.3442370891571045,0.17944224178791046
3,2,64,24,0.6407457590103149,0.15699778497219086
3,2,64,25,0.47735652327537537,0.0766056701540947
3,2,64,26,0.3157983124256134,0.11971286684274673
3,2,64,27,0.42010512948036194,0.2596621513366699
3,2,64,28,0.6755470633506775,0.1069810688495636
3,2,64,29,0.41932594776153564,0.1980738639831543
3,2,64,30,0.6513144373893738,0.1300860047340393
3,2,64,31,0.44076865911483765,0.14648579061031342
3,2,64,32,0.4802815318107605,0.15575549006462097
3,2,64,33,0.6155125498771667,0.14551308751106262
3,2,64,34,0.4365248680114746,0.2143547087907791
3,2,64,35,0.5925863981246948,0.15205658972263336
3,2,64,36,0.348037987947464,0.10968993604183197
3,2,64,37,0.47739648818969727,0.19831670820713043
3,2,64,38,0.6716979742050171,0.12531208992004395
3,2,64,39,0.46832552552223206,0.17616446316242218
3,2,64,40,0.3858616352081299,0.09573821723461151
3,2,64,41,0.42707425355911255,0.11324547231197357
3,2,64,42,0.7082903981208801,0.136012002825737
3,2,64,43,0.5386497974395752,0.09913309663534164
3,2,64,44,0.5095528960227966,0.3799857497215271
3,2,64,45,0.44903963804244995,0.2898526191711426
3,2,64,46,0.6890965104103088,0.16089507937431335
3,2,64,47,0.3338887691497803,0.08266045153141022
3,2,64,48,0.3347362279891968,0.17231248319149017
3,2,64,49,0.6225940585136414,0.07711439579725266
3,2,64,50,0.44322752952575684,0.16558806598186493
3,2,64,51,0.48224708437919617,0.14774057269096375
3,2,64,52,0.554575502872467,0.2409997433423996
3,2,64,53,0.6229422688484192,0.11432540416717529
3,2,64,54,0.46401336789131165,0.12533314526081085
3,2,64,55,0.5178466439247131,0.26381900906562805
3,2,64,56,0.38872942328453064,0.14205867052078247
3,2,64,57,0.5358374714851379,0.23859649896621704
3,2,64,58,0.5597840547561646,0.12686829268932343
3,2,64,59,0.381535142660141,0.10406318306922913
3,2,64,60,0.5559265613555908,0.215828999876976
3,2,64,61,0.5270674228668213,0.18479588627815247
3,2,64,62,0.37664055824279785,0.16146035492420197
3,2,64,63,0.505867600440979,0.203415185213089
3,3,64,0,0.42057734727859497,0.18491971492767334
3,3,64,1,0.682112455368042,0.07065190374851227
3,3,64,2,0.4944504201412201,0.10090703517198563
3,3,64,3,0.5753726363182068,0.23529912531375885
3,3,64,4,0.3409540057182312,0.09046297520399094
3,3,64,5,0.48453328013420105,0.07468144595623016
3,3,64,6,0.5869390368461609,0.1265009045600891
3,3,64,7,0.44146522879600525,0.12383151054382324
3,3,64,8,0.5769221186637878,0.1095467209815979
3,3,64,9,0.3803710341453552,0.1518165022134781
3,3,64,10,0.588817834854126,0.09300152212381363
3,3,64,11,0.5422640442848206,0.12818023562431335
3,3,64,12,0.4913264811038971,0.09498796612024307
3,3,64,13,0.5389741063117981,0.08266544342041016
3,3,64,14,0.30248433351516724,0.13688072562217712
3,3,64,15,0.3578588366508484,0.1125468760728836
3,3,64,16,0.5157641768455505,0.12495248764753342
3,3,64,17,0.6125772595405579,0.21189884841442108
3,3,64,18,0.507785439491272,0.16902053356170654
3,3,64,19,0.4961543679237366,0.12129008024930954
3,3,64,20,0.527201771736145,0.21561060845851898
3,3,64,21,0.4424448609352112,0.14380444586277008
3,3,64,22,0.41124188899993896,0.07031553983688354
3,3,64,23,0.43421539664268494,0.0735369399189949
3,3,64,24,0.4178810715675354,0.08532534539699554
3,3,64,25,0.46648553013801575,0.10298910737037659
3,3,64,26,0.45117613673210144,0.140920490026474
3,3,64,27,0.5268524885177612,0.1517791450023651
3,3,64,28,0.44000306725502014,0.12805388867855072
3,3,64,29,0.4111771583557129,0.11194974929094315
3,3,64,30,0.5095517635345459,0.09481550008058548
3,3,64,31,0.47702673077583313,0.07463455945253372
3,3,64,32,0.3565389811992645,0.16220280528068542
3,3,64,33,0.47875741124153137,0.11710153520107269
3,3,64,34,0.5168520212173462,0.1119643822312355
3,3,64,35,0.4147741198539734,0.1197507381439209
3,3,64,36,0.3486637473106384,0.1063375473022461
3,3,64,37,0.5148224830627441,0.17357811331748962
3,3,64,38,0.5338373184204102,0.19426153600215912
3,3,64,39,0.6527889370918274,0.19085824489593506
3,3,64,40,0.5679855346679688,0.16655196249485016
3,3,64,41,0.48565489053726196,0.18275129795074463
3,3,64,42,0.5995650887489319,0.06885229796171188
3,3,64,43,0.4749796986579895,0.08801029622554779
3,3,64,44,0.5675461888313293,0.17627973854541779
3,3,64,45,0.5834370255470276,0.25315171480178833
3,3,64,46,0.5083394050598145,0.06636457145214081
3,3,64,47,0.4723571836948395,0.15289351344108582
3,3,64,48,0.5423185229301453,0.10450871288776398
3,3,64,49,0.5285260677337646,0.1330249160528183
3,3,64,50,0.5197093486785889,0.13866585493087769
3,3,64,51,0.6247905492782593,0.12704911828041077
3,3,64,52,0.4849853515625,0.10766881704330444
3,3,64,53,0.48431387543678284,0.06948288530111313
3,3,64,54,0.3587242066860199,0.1417204886674881
3,3,64,55,0.5051026344299316,0.10371135920286179
3,3,64,56,0.43281304836273193,0.11608468741178513
3,3,64,57,0.5585054159164429,0.17213594913482666
3,3,64,58,0.44764524698257446,0.11752742528915405
3,3,64,59,0.5850108861923218,0.05139016732573509
3,3,64,60,0.47000810503959656,0.17075008153915405
3,3,64,61,0.4227445721626282,0.11085458844900131
3,3,64,62,0.3392719030380249,0.1100783422589302
3,3,64,63,0.5153389573097229,0.06446792185306549
3,4,128,0,0.4173484444618225,0.20726145803928375
3,4,128,1,0.7977368235588074,0.09772638231515884
3,4,128,2,0.6508476138114929,0.08717311173677444
3,4,128,3,0.5532692074775696,0.1668035089969635
3,4,128,4,0.7123730182647705,0.24266594648361206
3,4,128,5,0.5311533808708191,0.0690554678440094
3,4,128,6,0.608730673789978,0.2457198053598404
3,4,128,7,0.5393970608711243,0.16744594275951385
3,4,128,8,0.3653000593185425,0.21237923204898834
3,4,128,9,0.3683341145515442,0.12249372899532318
3,4,128,10,0.7062250971794128,0.2934437394142151
3,4,128,11,0.733966052532196,0.08433426171541214
3,4,128,12,0.7517406344413757,0.22296272218227386
3,4,128,13,0.45194900035858154,0.32296136021614075
3,4,128,14,0.44863805174827576,0.2319810390472412
3,4,128,15,0.6681963205337524,0.2660939395427704
3,4,128,16,0.36006999015808105,0.20889252424240112
3,4,128,17,0.7928664684295654,0.09754782915115356
3,4,128,18,0.6639823317527771,0.1770331710577011
3,4,128,19,0.7029432058334351,0.08433897793292999
3,4,128,20,0.6610385775566101,0.0761951357126236
3,4,128,21,0.7868026494979858,0.10031425207853317
3,4,128,22,0.6567555665969849,0.19216366112232208
3,4,128,23,0.7509362101554871,0.1581692397594452
3,4,128,24,0.7193253636360168,0.129612997174263
3,4,128,25,0.43188542127609253,0.3109111189842224
3,4,128,26,0.7856625318527222,0.11020579934120178
3,4,128,27,0.7823155522346497,0.11567539721727371
3,4,128,28,0.27425485849380493,0.14037129282951355
3,4,128,29,0.38087257742881775,0.19698426127433777
3,4,128,30,0.3224649429321289,0.21776780486106873
3,4,128,31,0.44409990310668945,0.3055182695388794
3,4,128,32,0.34069034457206726,0.12771934270858765
3,4,128,33,0.5790477991104126,0.09092483669519424
3,4,128,34,0.368198037147522,0.369352251291275
3,4,128,35,0.407552033662796,0.29098907113075256
3,4,128,36,0.4729844331741333,0.173114612698555
3,4,128,37,0.6692996025085449,0.3672201931476593
3,4,128,38,0.40223661065101624,0.21883225440979004
3,4,128,39,0.5996494293212891,0.11023129522800446
3,4,128,40,0.42035970091819763,0.1063215434551239
3,4,128,41,0.5556753873825073,0.16924643516540527
3,4,128,42,0.44258975982666016,0.1698123663663864
3,4,128,43,0.6542493104934692,0.10354651510715485
3,4,128,44,0.4271948039531708,0.17910870909690857
3,4,128,45,0.4844783544540405,0.09226161241531372
3,4,128,46,0.3716655373573303,0.3364343047142029
3,4,128,47,0.5205069780349731,0.2152441143989563
3,4,128,48,0.7355766892433167,0.09045954793691635
3,4,128,49,0.7574592232704163,0.1036214828491211
3,4,128,50,0.3456467390060425,0.2757934629917145
3,4,128,51,0.42029696702957153,0.22464638948440552
3,4,128,52,0.3499244749546051,0.15613023936748505
3,4,128,53,0.5591171383857727,0.197516068816185
3,4,128,54,0.5488269329071045,0.10862404853105545
3,4,128,55,0.7784919142723083,0.1015627458691597
3,4,128,56,0.7664032578468323,0.15693852305412292
3,4,128,57,0.35458528995513916,0.3413125276565552
3,4,128,58,0.6483129858970642,0.09236055612564087
3,4,128,59,0.6583306193351746,0.1956080049276352
3,4,128,60,0.7594461441040039,0.16641977429389954
3,4,128,61,0.731131911277771,0.11428811401128769
3,4,128,62,0.762024998664856,0.15118470788002014
3,4,128,63,0.6126465201377869,0.28778037428855896
3,4,128,64,0.6200281977653503,0.25266313552856445
3,4,128,65,0.5671535134315491,0.08917462825775146
3,4,128,66,0.704312801361084,0.09796793758869171
3,4,128,67,0.4146400988101959,0.32226094603538513
3,4,128,68,0.6712315678596497,0.3163970112800598
3,4,128,69,0.27734413743019104,0.11550113558769226
3,4,128,70,0.6786768436431885,0.31877440214157104
3,4,128,71,0.3588061034679413,0.2553393244743347
3,4,128,72,0.7096702456474304,0.2753167748451233
3,4,128,73,0.8029425740242004,0.10657773911952972
3,4,128,74,0.6260292530059814,0.10036101192235947
3,4,128,75,0.6229013800621033,0.3148729205131531
3,4,128,76,0.37895119190216064,0.17214934527873993
3,4,128,77,0.7186434864997864,0.12473392486572266
3,4,128,78,0.38216879963874817,0.3455895185470581
3,4,128,79,0.6927874684333801,0.3418959379196167
3,4,128,80,0.6592785120010376,0.3314339220523834
3,4,128,81,0.764859676361084,0.13048632442951202
3,4,128,82,0.6748543381690979,0.08731402456760406
3,4,128,83,0.5258817076683044,0.11546723544597626
3,4,128,84,0.7493053674697876,0.1396726816892624
3,4,128,85,0.5173841714859009,0.1755455732345581
3,4,128,86,0.6082248687744141,0.14118698239326477
3,4,128,87,0.3956111967563629,0.06488912552595139
3,4,128,88,0.6060885787010193,0.131336972117424
3,4,128,89,0.5435770750045776,0.13806487619876862
3,4,128,90,0.4020397663116455,0.3525952398777008
3,4,128,91,0.7014318108558655,0.09758211672306061
3,4,128,92,0.6998555064201355,0.07787198573350906
3,4,128,93,0.33007827401161194,0.09028840810060501
3,4,128,94,0.6253566741943359,0.27656400203704834
3,4,128,95,0.7777497172355652,0.10061642527580261
3,4,128,96,0.5497451424598694,0.09378832578659058
3,4,128,97,0.45573148131370544,0.11721431463956833
3,4,128,98,0.6328323483467102,0.2912676930427551
3,4,128,99,0.4919091463088989,0.15603415668010712
3,4,128,100,0.7986977696418762,0.10150659829378128
3,4,128,101,0.6124149560928345,0.13526511192321777
3,4,128,102,0.7401458024978638,0.1941511034965515
3,4,128,103,0.7346534729003906,0.21177813410758972
3,4,128,104,0.737536609172821,0.12024175375699997
3,4,128,105,0.6883070468902588,0.21446338295936584
3,4,128,106,0.6169132590293884,0.2930868864059448
3,4,128,107,0.3903324007987976,0.10945935547351837
3,4,128,108,0.34282949566841125,0.3137069344520569
3,4,128,109,0.3991106450557709,0.21316823363304138
3,4,128,110,0.4319486916065216,0.18311288952827454
3,4,128,111,0.7339510917663574,0.24543029069900513
3,4,128,112,0.6701454520225525,0.08808931708335876
3,4,128,113,0.41527628898620605,0.11956921219825745
3,4,128,114,0.4763149619102478,0.03754710778594017
3,4,128,115,0.32118386030197144,0.17612360417842865
3,4,128,116,0.5216195583343506,0.058945972472429276
3,4,128,117,0.7760578989982605,0.1365964114665985
3,4,128,118,0.6104019284248352,0.23462983965873718
3,4,128,119,0.6872947216033936,0.32373082637786865
3,4,128,120,0.3956231474876404,0.30430492758750916
3,4,128,121,0.5935394167900085,0.1939324289560318
3,4,128,122,0.4134291708469391,0.22229436039924622
3,4,128,123,0.4176061451435089,0.08219913393259048
3,4,128,124,0.5056644082069397,0.22924011945724487
3,4,128,125,0.6801005601882935,0.11505650728940964
3,4,128,126,0.6010019183158875,0.2234673649072647
3,4,128,127,0.6033254265785217,0.109607994556427
3,5,128,0,0.5291467308998108,0.21769246459007263
3,5,128,1,0.7728680372238159,0.091425821185112
3,5,128,2,0.5573307275772095,0.15539588034152985
3,5,128,3,0.5410088300704956,0.07644147425889969
3,5,128,4,0.5824040770530701,0.16698765754699707
3,5,128,5,0.6637976765632629,0.32399123907089233
3,5,128,6,0.7278266549110413,0.20305927097797394
3,5,128,7,0.5922424793243408,0.18672826886177063
3,5,128,8,0.7712123394012451,0.19623123109340668
3,5,128,9,0.37942689657211304,0.17037081718444824
3,5,128,10,0.7244985699653625,0.27773499488830566
3,5,128,11,0.9010049700737,0.07198430597782135
3,5,128,12,0.8009746074676514,0.18722857534885406
3,5,128,13,0.5025122761726379,0.16448111832141876
3,5,128,14,0.6354508399963379,0.17713859677314758
3,5,128,15,0.8471980690956116,0.09593545645475388
3,5,128,16,0.390624463558197,0.24949981272220612
3,5,128,17,0.8254837393760681,0.10754285752773285
3,5,128,18,0.740809977054596,0.06523306667804718
3,5,128,19,0.7384886145591736,0.13903355598449707
3,5,128,20,0.668504536151886,0.25683802366256714
3,5,128,21,0.8226884007453918,0.0915600061416626
3,5,128,22,0.5775505900382996,0.09811759740114212
3,5,128,23,0.7758055329322815,0.2543926537036896
3,5,128,24,0.7181767225265503,0.12149267643690109
3,5,128,25,0.5498858094215393,0.22531765699386597
3,5,128,26,0.6945016980171204,0.11207488179206848
3,5,128,27,0.8359934091567993,0.11992138624191284
3,5,128,28,0.34270399808883667,0.2830636203289032
3,5,128,29,0.5668348073959351,0.15862932801246643
3,5,128,30,0.5087617039680481,0.3040209114551544
3,5,128,31,0.6585653424263,0.1321423351764679
3,5,128,32,0.8362776041030884,0.07519516348838806
3,5,128,33,0.4966983497142792,0.20169253647327423
3,5,128,34,0.8156241774559021,0.11017432063817978
3,5,128,35,0.718304455280304,0.23801620304584503
3,5,128,36,0.43641412258148193,0.24292324483394623
3,5,128,37,0.8530148863792419,0.09772837162017822
3,5,128,38,0.6251997351646423,0.12306679785251617
3,5,128,39,0.56041020154953,0.20657923817634583
3,5,128,40,0.6426433324813843,0.1273958384990692
3,5,128,41,0.33034074306488037,0.18286632001399994
3,5,128,42,0.6159700155258179,0.13766460120677948
3,5,128,43,0.751257061958313,0.250894695520401
3,5,128,44,0.537757933139801,0.13313673436641693
3,5,128,45,0.7188932299613953,0.2799883782863617
3,5,128,46,0.29445457458496094,0.26812902092933655
3,5,128,47,0.35339972376823425,0.1968153417110443
3,5,128,48,0.7646201848983765,0.21440055966377258
3,5,128,49,0.7883926033973694,0.08537912368774414
3,5,128,50,0.4424424171447754,0.2865409851074219
3,5,128,51,0.8115799427032471,0.0939745083451271
3,5,128,52,0.4516758918762207,0.30611661076545715
3,5,128,53,0.6820887327194214,0.26049670577049255
3,5,128,54,0.8188005685806274,0.15726026892662048
3,5,128,55,0.716217041015625,0.08170683681964874
3,5,128,56,0.45678484439849854,0.1448734700679779
3,5,128,57,0.42391103506088257,0.1533128023147583
3,5,128,58,0.3795439302921295,0.31288257241249084
3,5,128,59,0.7641786336898804,0.19465957581996918
3,5,128,60,0.8354320526123047,0.12037192285060883
3,5,128,61,0.7190150022506714,0.08595723658800125
3,5,128,62,0.7339699268341064,0.26768818497657776
3,5,128,63,0.8219089508056641,0.1469704955816269
3,5,128,64,0.6857386231422424,0.23894640803337097
3,5,128,65,0.5569184422492981,0.1549265831708908
3,5,128,66,0.8192639350891113,0.07838200777769089
3,5,128,67,0.39565324783325195,0.16493234038352966
3,5,128,68,0.8855078816413879,0.05773887783288956
3,5,128,69,0.7092083692550659,0.2812685966491699
3,5,128,70,0.8467710614204407,0.09675687551498413
3,5,128,71,0.5228191614151001,0.13272212445735931
3,5,128,72,0.7207311987876892,0.2508227527141571
3,5,128,73,0.3877035975456238,0.2971962094306946
3,5,128,74,0.5931952595710754,0.23069363832473755
3,5,128,75,0.828731119632721,0.12434165179729462
3,5,128,76,0.8408457636833191,0.10077997297048569
3,5,128,77,0.8438382744789124,0.15328538417816162
3,5,128,78,0.5643880367279053,0.09638965129852295
3,5,128,79,0.8023125529289246,0.14217039942741394
3,5,128,80,0.556499719619751,0.2309379279613495
3,5,128,81,0.8819690942764282,0.06333474814891815
3,5,128,82,0.7998562455177307,0.1675330251455307
3,5,128,83,0.8075029850006104,0.11177870631217957
3,5,128,84,0.5632078051567078,0.1968887746334076
3,5,128,85,0.7500212788581848,0.23232324421405792
3,5,128,86,0.8415172100067139,0.11505191773176193
3,5,128,87,0.4498434364795685,0.14867480099201202
3,5,128,88,0.8180919885635376,0.12521086633205414
3,5,128,89,0.7475212216377258,0.17654742300510406
3,5,128,90,0.6961596608161926,0.10758311301469803
3,5,128,91,0.6909106969833374,0.08817408978939056
3,5,128,92,0.7752483487129211,0.0881752222776413
3,5,128,93,0.7613292932510376,0.07711806893348694
3,5,128,94,0.7254542112350464,0.16303914785385132
3,5,128,95,0.8365475535392761,0.10209661722183228
3,5,128,96,0.6915957927703857,0.30674368143081665
3,5,128,97,0.3783669173717499,0.23852789402008057
3,5,128,98,0.748186469078064,0.09580833464860916
3,5,128,99,0.7210664749145508,0.06184292584657669
3,5,128,100,0.8563652634620667,0.07605186104774475
3,5,128,101,0.8037862181663513,0.1652689427137375
3,5,128,102,0.6488800048828125,0.17480845749378204
3,5,128,103,0.8455634713172913,0.11725261062383652
3,5,128,104,0.8423371911048889,0.11703325062990189
3,5,128,105,0.8036142587661743,0.15351076424121857
3,5,128,106,0.7391636967658997,0.2605081796646118
3,5,128,107,0.6622592806816101,0.1451682597398758
3,5,128,108,0.6022511124610901,0.05068815499544144
3,5,128,109,0.48008862137794495,0.10869956761598587
3,5,128,110,0.48077186942100525,0.13422301411628723
3,5,128,111,0.7966625094413757,0.10022465884685516
3,5,128,112,0.7578887343406677,0.13896141946315765
3,5,128,113,0.5338699221611023,0.14683084189891815
3,5,128,114,0.6412584185600281,0.0778598040342331
3,5,128,115,0.3930424451828003,0.3503133952617645
3,5,128,116,0.36271172761917114,0.19067732989788055
3,5,128,117,0.826879620552063,0.07441716641187668
3,5,128,118,0.7904741168022156,0.14829546213150024
3,5,128,119,0.7819342613220215,0.2191188484430313
3,5,128,120,0.44770586490631104,0.2648153305053711
3,5,128,121,0.6242744326591492,0.2513211667537689
3,5,128,122,0.8043475151062012,0.17277242243289948
3,5,128,123,0.3040052354335785,0.14256824553012848
3,5,128,124,0.7948139309883118,0.11628442257642746
3,5,128,125,0.46546071767807007,0.28613045811653137
3,5,128,126,0.7442312836647034,0.22332513332366943
3,5,128,127,0.5270097851753235,0.21667030453681946
4,0,32,0,0.3770262598991394,0.09314418584108353
4,0,32,1,0.4574207067489624,0.05568563938140869
4,0,32,2,0.3944332003593445,0.06949489563703537
4,0,32,3,0.39315536618232727,0.025381026789546013
4,0,32,4,0.6080709099769592,0.07450013607740402
4,0,32,5,0.5618525147438049,0.094762422144413
4,0,32,6,0.47194451093673706,0.10730452835559845
4,0,32,7,0.45596182346343994,0.07438359409570694
4,0,32,8,0.34283921122550964,0.058009080588817596
4,0,32,9,0.5598189830780029,0.10703316330909729
4,0,32,10,0.28586331009864807,0.056262414902448654
4,0,32,11,0.4412652850151062,0.05620449036359787
4,0,32,12,0.6282132863998413,0.046817995607852936
4,0,32,13,0.5562642216682434,0.08421989530324936
4,0,32,14,0.2832452654838562,0.10325367003679276
4,0,32,15,0.3970635235309601,0.09556819498538971
4,0,32,16,0.3576340675354004,0.09160815924406052
4,0,32,17,0.2828865051269531,0.05579531192779541
4,0,32,18,0.4329540431499481,0.0898575410246849
4,0,32,19,0.6359330415725708,0.04472704976797104
4,0,32,20,0.38641440868377686,0.1469394713640213
4,0,32,21,0.5220993161201477,0.03339603543281555
4,0,32,22,0.5275381803512573,0.07056175172328949
4,0,32,23,0.4557470977306366,0.08864375203847885
4,0,32,24,0.4906451404094696,0.09556011110544205
4,0,32,25,0.4969944655895233,0.0612470917403698
4,0,32,26,0.3853801190853119,0.03650381788611412
4,0,32,27,0.6636044383049011,0.04744705557823181
4,0,32,28,0.4631463885307312,0.08205030113458633
4,0,32,29,0.4817706346511841,0.08044760674238205
4,0,32,30,0.541959285736084,0.046026866883039474
4,0,32,31,0.46814820170402527,0.033439621329307556
4,1,32,0,0.338951975107193,0.10315710306167603
4,1,32,1,0.33923056721687317,0.12208319455385208
4,1,32,2,0.6175779104232788,0.15326587855815887
4,1,32,3,0.5190377831459045,0.10021384805440903
4,1,32,4,0.5338958501815796,0.1701902449131012
4,1,32,5,0.6210137009620667,0.16756051778793335
4,1,32,6,0.5508598685264587,0.07864058017730713
4,1,32,7,0.5266178846359253,0.11501569300889969
4,1,32,8,0.49426862597465515,0.08124350756406784
4,1,32,9,0.45911186933517456,0.16450135409832
4,1,32,10,0.5080819725990295,0.188459113240242
4,1,32,11,0.4512907564640045,0.11694854497909546
4,1,32,12,0.3766355514526367,0.1385917365550995
4,1,32,13,0.33303070068359375,0.09257015585899353
4,1,32,14,0.4587935507297516,0.15960851311683655
4,1,32,15,0.5209497213363647,0.07544082403182983
4,1,32,16,0.36364683508872986,0.0808030441403389
4,1,32,17,0.342181921005249,0.08882272243499756
4,1,32,18,0.5493453741073608,0.17231762409210205
4,1,32,19,0.47298339009284973,0.12310568988323212
4,1,32,20,0.4666139781475067,0.19491492211818695
4,1,32,21,0.6265482902526855,0.0762198194861412
4,1,32,22,0.6503646373748779,0.14454105496406555
4,1,32,23,0.4492509961128235,0.1588435173034668
4,1,32,24,0.44326120615005493,0.19056668877601624
4,1,32,25,0.528286874294281,0.1712779551744461
4,1,32,26,0.45429468154907227,0.09637542814016342
4,1,32,27,0.4869867265224457,0.13494054973125458
4,1,32,28,0.5143806338310242,0.20522987842559814
4,1,32,29,0.3368053734302521,0.1305508315563202
4,1,32,30,0.3693027198314667,0.10862385481595993
4,1,32,31,0.4420691430568695,0.17701102793216705
4,2,64,0,0.43674436211586,0.15943636000156403
4,2,64,1,0.5862451791763306,0.19146956503391266
4,2,64,2,0.545475959777832,0.19995582103729248
4,2,64,3,0.6467905640602112,0.15255874395370483
4,2,64,4,0.6040914058685303,0.16475310921669006
4,2,64,5,0.3714512586593628,0.16580437123775482
4,2,64,6,0.5102033615112305,0.15693657100200653
4,2,64,7,0.5094507336616516,0.23966169357299805
4,2,64,8,0.445107102394104,0.16861705482006073
4,2,64,9,0.4103175103664398,0.16440990567207336
4,2,64,10,0.5313484072685242,0.2911757230758667
4,2,64,11,0.5835314989089966,0.24985294044017792
4,2,64,12,0.41657140851020813,0.14013786613941193
4,2,64,13,0.7237558960914612,0.09922968596220016
4,2,64,14,0.3511273264884949,0.21959738433361053
4,2,64,15,0.42693647742271423,0.2985437214374542
4,2,64,16,0.4644496440887451,0.2286216914653778
4,2,64,17,0.365664005279541,0.1592060923576355
4,2,64,18,0.5188594460487366,0.2870866656303406
4,2,64,19,0.5569674968719482,0.11205058544874191
4,2,64,20,0.47125858068466187,0.21983543038368225
4,2,64,21,0.508848249912262,0.24196505546569824
4,2,64,22,0.4134727716445923,0.13288329541683197
4,2,64,23,0.5027164220809937,0.336432546377182
4,2,64,24,0.4558977782726288,0.21982409060001373
4,2,64,25,0.515671968460083,0.1916414350271225
4,2,64,26,0.4541761875152588,0.15785567462444305
4,2,64,27,0.5270280838012695,0.0950850248336792
4,2,64,28,0.4374646246433258,0.21018263697624207
4,2,64,29,0.6995025277137756,0.19181926548480988
4,2,64,30,0.4745616316795349,0.2361452281475067
4,2,64,31,0.5669631958007812,0.14934787154197693
4,2,64,32,0.4696708619594574,0.13650904595851898
4,2,64,33,0.4583416283130646,0.23450230062007904
4,2,64,34,0.6974793672561646,0.30554381012916565
4,2,64,35,0.48944371938705444,0.168478325009346
4,2,64,36,0.5436471104621887,0.19300422072410583
4,2,64,37,0.565769612789154,0.2295139580965042
4,2,64,38,0.4964123070240021,0.16500148177146912
4,2,64,39,0.6395498514175415,0.2673059105873108
4,2,64,40,0.4510252773761749,0.2532540559768677
4,2,64,41,0.4620637893676758,0.1546413153409958
4,2,64,42,0.36872950196266174,0.15045830607414246
4,2,64,43,0.5940588116645813,0.12681086361408234
4,2,64,44,0.43727847933769226,0.248972550034523
4,2,64,45,0.44797566533088684,0.22557991743087769
4,2,64,46,0.5799171328544617,0.240452378988266
4,2,64,47,0.4764134883880615,0.20382378995418549
4,2,64,48,0.43291276693344116,0.25533509254455566
4,2,64,49,0.27515220642089844,0.22274531424045563
4,2,64,50,0.5551397204399109,0.2715788781642914
4,2,64,51,0.4184989035129547,0.17604048550128937
4,2,64,52,0.4891360104084015,0.20317262411117554
4,2,64,53,0.4147251546382904,0.17345984280109406
4,2,64,54,0.4873901903629303,0.29255756735801697
4,2,64,55,0.6789972186088562,0.04854735732078552
4,2,64,56,0.5495172739028931,0.12271890044212341
4,2,64,57,0.6111762523651123,0.09683007001876831
4,2,64,58,0.5620154738426208,0.1629575788974762
4,2,64,59,0.6044389009475708,0.14157426357269287
4,2,64,60,0.5909056067466736,0.240892693400383
4,2,64,61,0.5436543822288513,0.16207094490528107
4,2,64,62,0.5378701686859131,0.17685852944850922
4,2,64,63,0.6320648789405823,0.22694720327854156
4,3,64,0,0.5309141278266907,0.12272009998559952
4,3,64,1,0.4911818504333496,0.07687171548604965
4,3,64,2,0.45361900329589844,0.1101636216044426
4,3,64,3,0.5546074509620667,0.1352330893278122
4,3,64,4,0.4592655301094055,0.2174520641565323
4,3,64,5,0.48775744438171387,0.0965336337685585
4,3,64,6,0.572327196598053,0.0923895463347435
4,3,64,7,0.5269080400466919,0.18463245034217834
4,3,64,8,0.4017561972141266,0.1231645867228508
4,3,64,9,0.4206908941268921,0.1244916096329689
4,3,64,10,0.3966551423072815,0.07944256067276001
4,3,64,11,0.4783777594566345,0.13258865475654602
4,3,64,12,0.5334751009941101,0.14307740330696106
4,3,64,13,0.5031085014343262,0.12506434321403503
4,3,64,14,0.4029501974582672,0.1729389876127243
4,3,64,15,0.3994164764881134,0.19946548342704773
4,3,64,16,0.5051461458206177,0.07302647829055786
4,3,64,17,0.5671237707138062,0.06133508309721947
4,3,64,18,0.4732605218887329,0.10882047563791275
4,3,64,19,0.5966314673423767,0.1327027529478073
4,3,64,20,0.4821852445602417,0.1802958995103836
4,3,64,21,0.4439578652381897,0.0927250012755394
4,3,64,22,0.4650326669216156,0.12694451212882996
4,3,64,23,0.46271345019340515,0.14744417369365692
4,3,64,24,0.472446471452713,0.14365486800670624
4,3,64,25,0.5609256625175476,0.14560677111148834
4,3,64,26,0.3873026669025421,0.1479419320821762
4,3,64,27,0.5510018467903137,0.10673170536756516
4,3,64,28,0.4420859217643738,0.14100921154022217
4,3,64,29,0.5134687423706055,0.1528347283601761
4,3,64,30,0.5416291356086731,0.14709913730621338
4,3,64,31,0.5395796895027161,0.15473240613937378
4,3,64,32,0.3959848880767822,0.05334850400686264
4,3,64,33,0.4116100072860718,0.1382322609424591
4,3,64,34,0.36646386981010437,0.1693916618824005
4,3,64,35,0.5104610323905945,0.13489842414855957
4,3,64,36,0.4540543556213379,0.16173766553401947
4,3,64,37,0.49984368681907654,0.17047446966171265
4,3,64,38,0.37236225605010986,0.11885689944028854
4,3,64,39,0.4338498115539551,0.15897467732429504
4,3,64,40,0.620978057384491,0.10964477062225342
4,3,64,41,0.5031183362007141,0.13464337587356567
4,3,64,42,0.42317265272140503,0.05989360064268112
4,3,64,43,0.5284045338630676,0.1974608600139618
4,3,64,44,0.49548736214637756,0.08912984281778336
4,3,64,45,0.598863422870636,0.17273414134979248
4,3,64,46,0.4551326036453247,0.2241109311580658
4,3,64,47,0.47783607244491577,0.06512929499149323
4,3,64,48,0.6665462851524353,0.1194303035736084
4,3,64,49,0.5141861438751221,0.16467814147472382
4,3,64,50,0.6131160855293274,0.11003899574279785
4,3,64,51,0.5905901789665222,0.11951033771038055
4,3,64,52,0.5284467935562134,0.14170707762241364
4,3,64,53,0.44476231932640076,0.15284597873687744
4,3,64,54,0.4698142111301422,0.16004042327404022
4,3,64,55,0.4857042729854584,0.13618788123130798
4,3,64,56,0.5850878357887268,0.13836054503917694
4,3,64,57,0.43311500549316406,0.16821013391017914
4,3,64,58,0.5365089178085327,0.14023123681545258
4,3,64,59,0.5140746235847473,0.10759647935628891
4,3,64,60,0.39543965458869934,0.14231514930725098
4,3,64,61,0.5079420208930969,0.12354438006877899
4,3,64,62,0.4452275037765503,0.10256335884332657
4,3,64,63,0.5960677862167358,0.10550236701965332
4,4,128,0,0.4985920190811157,0.2416524440050125
4,4,128,1,0.6465249061584473,0.17758886516094208
4,4,128,2,0.5515953302383423,0.15666161477565765
4,4,128,3,0.6681903600692749,0.12526623904705048
4,4,128,4,0.6361722946166992,0.09790484607219696
4,4,128,5,0.5020893812179565,0.16259807348251343
4,4,128,6,0.7034574747085571,0.12647125124931335
4,4,128,7,0.4641572833061218,0.2428222894668579
4,4,128,8,0.5787015557289124,0.13145263493061066
4,4,128,9,0.5493103861808777,0.25016871094703674
4,4,128,10,0.4706062078475952,0.1417774111032486
4,4,128,11,0.5235320329666138,0.21957075595855713
4,4,128,12,0.4692968428134918,0.17623679339885712
4,4,128,13,0.5907756090164185,0.13375984132289886
4,4,128,14,0.6131919622421265,0.09715348482131958
4,4,128,15,0.37692734599113464,0.2467328906059265
4,4,128,16,0.6076709628105164,0.29053014516830444
4,4,128,17,0.5838366746902466,0.1812598556280136
4,4,128,18,0.7130458354949951,0.1728331297636032
4,4,128,19,0.6537608504295349,0.12357276678085327
4,4,128,20,0.5879297256469727,0.14355254173278809
4,4,128,21,0.6221625208854675,0.29333800077438354
4,4,128,22,0.3956681787967682,0.21274958550930023
4,4,128,23,0.47678694128990173,0.2588036358356476
4,4,128,24,0.754112184047699,0.10064146667718887
4,4,128,25,0.651110827922821,0.27996399998664856
4,4,128,26,0.5013476610183716,0.28315049409866333
4,4,128,27,0.6985149383544922,0.14037056267261505
4,4,128,28,0.6145824193954468,0.2738347351551056
4,4,128,29,0.6270115375518799,0.3083135485649109
4,4,128,30,0.5913980603218079,0.3182371258735657
4,4,128,31,0.45426467061042786,0.23574477434158325
4,4,128,32,0.7249051928520203,0.10646939277648926
4,4,128,33,0.4711630344390869,0.15185755491256714
4,4,128,34,0.5982832908630371,0.2898986041545868
4,4,128,35,0.3701270818710327,0.22057805955410004
4,4,128,36,0.4302974045276642,0.30487823486328125
4,4,128,37,0.5957096219062805,0.22639909386634827
4,4,128,38,0.5563647150993347,0.29094642400741577
4,4,128,39,0.6063783764839172,0.137930765748024
4,4,128,40,0.5124534964561462,0.11457528918981552
4,4,128,41,0.6429141163825989,0.2045590579509735
4,4,128,42,0.49644893407821655,0.2500026226043701
4,4,128,43,0.5646102428436279,0.2852856516838074
4,4,128,44,0.5086780190467834,0.1680007427930832
4,4,128,45,0.4476422369480133,0.19984915852546692
4,4,128,46,0.5950108766555786,0.17477326095104218
4,4,128,47,0.3785415589809418,0.22266599535942078
4,4,128,48,0.5491160750389099,0.14867086708545685
4,4,128,49,0.5320091843605042,0.13004273176193237
4,4,128,50,0.5364786386489868,0.173111230134964
4,4,128,51,0.5654075741767883,0.16110661625862122
4,4,128,52,0.6350915431976318,0.1917131543159485
4,4,128,53,0.604851245880127,0.0647120252251625
4,4,128,54,0.4761267900466919,0.2797437310218811
4,4,128,55,0.4055137634277344,0.19670666754245758
4,4,128,56,0.6655026078224182,0.09518338739871979
4,4,128,57,0.7021596431732178,0.09911541640758514
4,4,128,58,0.6374695301055908,0.10685210675001144
4,4,128,59,0.6735683679580688,0.07247613370418549
4,4,128,60,0.6415130496025085,0.19944657385349274
4,4,128,61,0.41800642013549805,0.1770230531692505
4,4,128,62,0.6182220578193665,0.14772941172122955
4,4,128,63,0.6905447244644165,0.11775578558444977
4,4,128,64,0.607886791229248,0.14504067599773407
4,4,128,65,0.489741712808609,0.184792160987854
4,4,128,66,0.3937895894050598,0.3534252643585205
4,4,128,67,0.44692766666412354,0.08886191248893738
4,4,128,68,0.3594607412815094,0.1333262026309967
4,4,128,69,0.6001512408256531,0.3416471779346466
4,4,128,70,0.7080488801002502,0.11424198746681213
4,4,128,71,0.5673924088478088,0.2892615497112274
4,4,128,72,0.686115562915802,0.13741256296634674
4,4,128,73,0.6754412651062012,0.10276675969362259
4,4,128,74,0.8296772241592407,0.11231840401887894
4,4,128,75,0.6631107330322266,0.14411619305610657
4,4,128,76,0.5818289518356323,0.33959463238716125
4,4,128,77,0.6881656646728516,0.1328655630350113
4,4,128,78,0.5034376978874207,0.18856970965862274
4,4,128,79,0.5731209516525269,0.14243550598621368
4,4,128,80,0.6178335547447205,0.2807326316833496
4,4,128,81,0.4934650659561157,0.11728226393461227
4,4,128,82,0.2681177854537964,0.09317095577716827
4,4,128,83,0.6298945546150208,0.11168788373470306
4,4,128,84,0.41123268008232117,0.34618595242500305
4,4,128,85,0.600853443145752,0.31548285484313965
4,4,128,86,0.5150926113128662,0.24335868656635284
4,4,128,87,0.5878612399101257,0.19046184420585632
4,4,128,88,0.48667439818382263,0.3290660083293915
4,4,128,89,0.7217211723327637,0.11658599972724915
4,4,128,90,0.49056369066238403,0.23133814334869385
4,4,128,91,0.6922971606254578,0.0690503641963005
4,4,128,92,0.7542845606803894,0.11903617531061172
4,4,128,93,0.6451745629310608,0.18026044964790344
4,4,128,94,0.5092184543609619,0.2786030173301697
4,4,128,95,0.4184565544128418,0.18652282655239105
4,4,128,96,0.369602233171463,0.07009632885456085
4,4,128,97,0.6347908973693848,0.08821573108434677
4,4,128,98,0.41458895802497864,0.1350044310092926
4,4,128,99,0.5165900588035583,0.17605091631412506
4,4,128,100,0.4836793541908264,0.20562155544757843
4,4,128,101,0.4747762382030487,0.25444838404655457
4,4,128,102,0.64521324634552,0.2280111014842987
4,4,128,103,0.4419046938419342,0.1602431684732437
4,4,128,104,0.5748549699783325,0.2642863690853119
4,4,128,105,0.47844892740249634,0.12543252110481262
4,4,128,106,0.6217988133430481,0.13582579791545868
4,4,128,107,0.6338143944740295,0.19951337575912476
4,4,128,108,0.5833879709243774,0.21048977971076965
4,4,128,109,0.6399471163749695,0.2060033679008484
4,4,128,110,0.5027548670768738,0.0471738763153553
4,4,128,111,0.5426831245422363,0.2294817715883255
4,4,128,112,0.5887482762336731,0.24948963522911072
4,4,128,113,0.5529502034187317,0.24606157839298248
4,4,128,114,0.41320574283599854,0.18895021080970764
4,4,128,115,0.5764928460121155,0.23716570436954498
4,4,128,116,0.6667819619178772,0.13256169855594635
4,4,128,117,0.49416840076446533,0.12558314204216003
4,4,128,118,0.5217303037643433,0.13418762385845184
4,4,128,119,0.395161509513855,0.1818390041589737
4,4,128,120,0.565331757068634,0.3150235116481781
4,4,128,121,0.6127447485923767,0.22781874239444733
4,4,128,122,0.4942866265773773,0.11944857984781265
4,4,128,123,0.7190411686897278,0.14732439815998077
4,4,128,124,0.6007537841796875,0.3068102300167084
4,4,128,125,0.5741632580757141,0.11950720846652985
4,4,128,126,0.7482579946517944,0.08805971592664719
4,4,128,127,0.47009050846099854,0.2469562590122223
4,5,128,0,0.733464777469635,0.10123243927955627
4,5,128,1,0.5473032593727112,0.1553383469581604
4,5,128,2,0.5371906161308289,0.18902377784252167
4,5,128,3,0.750016987323761,0.11804315447807312
4,5,128,4,0.66783207654953,0.07791905850172043
4,5,128,5,0.6883820295333862,0.14227701723575592
4,5,128,6,0.42943257093429565,0.22496287524700165
4,5,128,7,0.5326237082481384,0.3004741668701172
4,5,128,8,0.5441694259643555,0.25806906819343567
4,5,128,9,0.7086612582206726,0.29939699172973633
4,5,128,10,0.2943298816680908,0.14016135036945343
4,5,128,11,0.7139024138450623,0.28545045852661133
4,5,128,12,0.7068713903427124,0.21356424689292908
4,5,128,13,0.6350670456886292,0.3079376518726349
4,5,128,14,0.7967297434806824,0.11531714349985123
4,5,128,15,0.5835126638412476,0.27835360169410706
4,5,128,16,0.7226871848106384,0.29163551330566406
4,5,128,17,0.7874317169189453,0.2314542531967163
4,5,128,18,0.8515318632125854,0.13626424968242645
4,5,128,19,0.43498706817626953,0.25849202275276184
4,5,128,20,0.7518091797828674,0.17231011390686035
4,5,128,21,0.833771824836731,0.10424625128507614
4,5,128,22,0.7004924416542053,0.1449681669473648
4,5,128,23,0.7769383788108826,0.19093365967273712
4,5,128,24,0.496940016746521,0.16269388794898987
4,5,128,25,0.7634559869766235,0.16616852581501007
4,5,128,26,0.38412123918533325,0.24664370715618134
4,5,128,27,0.8441784381866455,0.08930078148841858
4,5,128,28,0.8226474523544312,0.11068448424339294
4,5,128,29,0.9027544856071472,0.06772375851869583
4,5,128,30,0.7798883318901062,0.19757422804832458
4,5,128,31,0.39694786071777344,0.166372612118721
4,5,128,32,0.6865180730819702,0.11669657379388809
4,5,128,33,0.862419068813324,0.1115717738866806
4,5,128,34,0.44345322251319885,0.3423871695995331
4,5,128,35,0.4640809893608093,0.3323909342288971
4,5,128,36,0.582536518573761,0.23046737909317017
4,5,128,37,0.6396419405937195,0.21555615961551666
4,5,128,38,0.8071011900901794,0.10779768973588943
4,5,128,39,0.6540263891220093,0.19988667964935303
4,5,128,40,0.6397528648376465,0.1375877410173416
4,5,128,41,0.6617287993431091,0.29715055227279663
4,5,128,42,0.4694312810897827,0.34851840138435364
4,5,128,43,0.7716788053512573,0.20522476732730865
4,5,128,44,0.5111633539199829,0.13502278923988342
4,5,128,45,0.32260408997535706,0.2604585289955139
4,5,128,46,0.695982038974762,0.142849400639534
4,5,128,47,0.6202569603919983,0.10120655596256256
4,5,128,48,0.8225864768028259,0.15270963311195374
4,5,128,49,0.6461114287376404,0.31858158111572266
4,5,128,50,0.5292745232582092,0.21394775807857513
4,5,128,51,0.8151430487632751,0.10418152809143066
4,5,128,52,0.5035237669944763,0.14403818547725677
4,5,128,53,0.44945624470710754,0.30919402837753296
4,5,128,54,0.7256717085838318,0.23470598459243774
4,5,128,55,0.4418410658836365,0.21882596611976624
4,5,128,56,0.636376142501831,0.11153978109359741
4,5,128,57,0.7539259195327759,0.15401117503643036
4,5,128,58,0.5772589445114136,0.1498868316411972
4,5,128,59,0.7550869584083557,0.18391314148902893
4,5,128,60,0.869974672794342,0.07019781321287155
4,5,128,61,0.7765141725540161,0.17182937264442444
4,5,128,62,0.5314422845840454,0.2067478895187378
4,5,128,63,0.41622641682624817,0.15279844403266907
4,5,128,64,0.5566946268081665,0.16097016632556915
4,5,128,65,0.6862146854400635,0.2438804656267166
4,5,128,66,0.8733512759208679,0.07794392853975296
4,5,128,67,0.6797688007354736,0.1125621348619461
4,5,128,68,0.8323847055435181,0.12247152626514435
4,5,128,69,0.8901646137237549,0.0818450078368187
4,5,128,70,0.7231839299201965,0.22202980518341064
4,5,128,71,0.683164656162262,0.061907973140478134
4,5,128,72,0.8662214875221252,0.0847005844116211
4,5,128,73,0.4190262258052826,0.3066382110118866
4,5,128,74,0.7684488892555237,0.11859755218029022
4,5,128,75,0.4470505118370056,0.31536948680877686
4,5,128,76,0.7755167484283447,0.1945013403892517
4,5,128,77,0.8174238204956055,0.09183254837989807
4,5,128,78,0.5798341631889343,0.19597674906253815
4,5,128,79,0.7960851788520813,0.06913832575082779
4,5,128,80,0.6954447627067566,0.1403430551290512
4,5,128,81,0.7655612826347351,0.18043075501918793
4,5,128,82,0.5088716149330139,0.13750912249088287
4,5,128,83,0.8773128390312195,0.07812590152025223
4,5,128,84,0.57896488904953,0.20429328083992004
4,5,128,85,0.8139573931694031,0.17734825611114502
4,5,128,86,0.5393645763397217,0.26248282194137573
4,5,128,87,0.822136402130127,0.07302974164485931
4,5,128,88,0.7520979642868042,0.11582065373659134
4,5,128,89,0.7176052331924438,0.236347958445549
4,5,128,90,0.6827503442764282,0.24404865503311157
4,5,128,91,0.7648095488548279,0.17193388938903809
4,5,128,92,0.8474588990211487,0.14806684851646423
4,5,128,93,0.6896946430206299,0.09920017421245575
4,5,128,94,0.8224344849586487,0.12870721518993378
4,5,128,95,0.7819954752922058,0.10542583465576172
4,5,128,96,0.5884087085723877,0.1891176849603653
4,5,128,97,0.7612976431846619,0.12576162815093994
4,5,128,98,0.7444137334823608,0.11137107014656067
4,5,128,99,0.8297357559204102,0.12205947935581207
4,5,128,100,0.5962830781936646,0.24109847843647003
4,5,128,101,0.7373702526092529,0.19442643225193024
4,5,128,102,0.6364457607269287,0.19672270119190216
4,5,128,103,0.5721904039382935,0.12710177898406982
4,5,128,104,0.2874240577220917,0.17561611533164978
4,5,128,105,0.5987364649772644,0.21799446642398834
4,5,128,106,0.8084256649017334,0.14249402284622192
4,5,128,107,0.6418828964233398,0.19451920688152313
4,5,128,108,0.7389392256736755,0.2067258208990097
4,5,128,109,0.8177546262741089,0.1111481785774231
4,5,128,110,0.6622177958488464,0.16286732256412506
4,5,128,111,0.7309010028839111,0.2124166190624237
4,5,128,112,0.7259329557418823,0.18337710201740265
4,5,128,113,0.4668731093406677,0.3102176785469055
4,5,128,114,0.5774869918823242,0.34414222836494446
4,5,128,115,0.778445839881897,0.19484663009643555
4,5,128,116,0.5602736473083496,0.2881177067756653
4,5,128,117,0.7929566502571106,0.224893257021904
4,5,128,118,0.7344111204147339,0.23692399263381958
4,5,128,119,0.5979971289634705,0.13445661962032318
4,5,128,120,0.6128464937210083,0.3406258821487427
4,5,128,121,0.6426138877868652,0.24105441570281982
4,5,128,122,0.6360518336296082,0.19487667083740234
4,5,128,123,0.6778695583343506,0.08054772764444351
4,5,128,124,0.5071706175804138,0.2377907931804657
4,5,128,125,0.7066977024078369,0.24381951987743378
4,5,128,126,0.8554419875144958,0.08076608926057816
4,5,128,127,0.5333953499794006,0.26625141501426697
5,0,32,0,0.5600630640983582,0.08873940259218216
5,0,32,1,0.4744674861431122,0.1151028424501419
5,0,32,2,0.4621615707874298,0.06069829314947128
5,0,32,3,0.4859561324119568,0.11256434768438339
5,0,32,4,0.34212008118629456,0.06328543275594711
5,0,32,5,0.36578842997550964,0.07931043207645416
5,0,32,6,0.37125927209854126,0.08145638555288315
5,0,32,7,0.4614124298095703,0.15414033830165863
5,0,32,8,0.5697224736213684,0.09995326399803162
5,0,32,9,0.5340859889984131,0.08283260464668274
5,0,32,10,0.5527156591415405,0.14791442453861237
5,0,32,11,0.26421603560447693,0.13251081109046936
5,0,32,12,0.42845088243484497,0.13380369544029236
5,0,32,13,0.3703901171684265,0.10349012166261673
5,0,32,14,0.2915708124637604,0.1249668225646019
5,0,32,15,0.5315945148468018,0.07455939054489136
5,0,32,16,0.4783804416656494,0.14322896301746368
5,0,32,17,0.2927337884902954,0.12108482420444489
5,0,32,18,0.5205337405204773,0.037088893353939056
5,0,32,19,0.5903167128562927,0.11850345134735107
5,0,32,20,0.5940827131271362,0.11716489493846893
5,0,32,21,0.5634644627571106,0.11134438961744308
5,0,32,22,0.617883563041687,0.10234276950359344
5,0,32,23,0.4692079424858093,0.0652744397521019
5,0,32,24,0.5208070874214172,0.09148580580949783
5,0,32,25,0.2675130069255829,0.10933416336774826
5,0,32,26,0.6128891110420227,0.11948854476213455
5,0,32,27,0.7206443548202515,0.10964426398277283
5,0,32,28,0.4460645020008087,0.061649423092603683
5,0,32,29,0.436001181602478,0.16482801735401154
5,0,32,30,0.6629539728164673,0.08333756029605865
5,0,32,31,0.35410311818122864,0.13152353465557098
5,1,32,0,0.4732215702533722,0.08067245036363602
5,1,32,1,0.4027136564254761,0.09017536044120789
5,1,32,2,0.45576387643814087,0.07221681624650955
5,1,32,3,0.44837215542793274,0.10638530552387238
5,1,32,4,0.48434093594551086,0.17640475928783417
5,1,32,5,0.4425724744796753,0.08689041435718536
5,1,32,6,0.5213441252708435,0.10393987596035004
5,1,32,7,0.5990007519721985,0.10756709426641464
5,1,32,8,0.5185161232948303,0.16115762293338776
5,1,32,9,0.4763847291469574,0.1568049043416977
5,1,32,10,0.47359341382980347,0.09475246071815491
5,1,32,11,0.44088172912597656,0.06986033916473389
5,1,32,12,0.672655463218689,0.11802957206964493
5,1,32,13,0.4303390681743622,0.14588935673236847
5,1,32,14,0.43591782450675964,0.05636976286768913
5,1,32,15,0.42630690336227417,0.06562141329050064
5,1,32,16,0.5077844858169556,0.15130560100078583
5,1,32,17,0.39264994859695435,0.0856708213686943
5,1,32,18,0.39383453130722046,0.03510536998510361
5,1,32,19,0.5128124952316284,0.14915022253990173
5,1,32,20,0.5182710886001587,0.1217631995677948
5,1,32,21,0.41094422340393066,0.17325067520141602
5,1,32,22,0.5299644470214844,0.08809004724025726
5,1,32,23,0.5961999893188477,0.07571899145841599
5,1,32,24,0.5256446003913879,0.1578735113143921
5,1,32,25,0.4086720049381256,0.08047447353601456
5,1,32,26,0.39359235763549805,0.11654078215360641
5,1,32,27,0.536626398563385,0.042268723249435425
5,1,32,28,0.3663129210472107,0.09586538374423981
5,1,32,29,0.5707075595855713,0.10498245805501938
5,1,32,30,0.5819555521011353,0.12274990975856781
5,1,32,31,0.6843311786651611,0.12286267429590225
5,2,64,0,0.5825666189193726,0.16643126308918
5,2,64,1,0.7212151288986206,0.13560020923614502
5,2,64,2,0.5988650321960449,0.13926616311073303
5,2,64,3,0.574974775314331,0.13353076577186584
5,2,64,4,0.42249569296836853,0.2419905662536621
5,2,64,5,0.5170585513114929,0.26596978306770325
5,2,64,6,0.3656090199947357,0.11973820626735687
5,2,64,7,0.38768845796585083,0.14296424388885498
5,2,64,8,0.5162196755409241,0.19915209710597992
5,2,64,9,0.6688011884689331,0.13709551095962524
5,2,64,10,0.4950144290924072,0.23674263060092926
5,2,64,11,0.5363126397132874,0.13841933012008667
5,2,64,12,0.5101547241210938,0.19243094325065613
5,2,64,13,0.5616250038146973,0.3090170621871948
5,2,64,14,0.3151158094406128,0.1228291392326355
5,2,64,15,0.4236968755722046,0.2691299319267273
5,2,64,16,0.48366016149520874,0.19734634459018707
5,2,64,17,0.5247033834457397,0.25544050335884094
5,2,64,18,0.5741986632347107,0.11139130592346191
5,2,64,19,0.4296134114265442,0.14519040286540985
5,2,64,20,0.4046161472797394,0.15755042433738708
5,2,64,21,0.398364782333374,0.23835760354995728
5,2,64,22,0.4624794125556946,0.1305529624223709
5,2,64,23,0.3960653245449066,0.2007821649312973
5,2,64,24,0.5219534039497375,0.09582417458295822
5,2,64,25,0.5131353139877319,0.16468843817710876
5,2,64,26,0.3922364115715027,0.1977982223033905
5,2,64,27,0.567145586013794,0.2319326251745224
5,2,64,28,0.5467720031738281,0.10042373090982437
5,2,64,29,0.48212677240371704,0.171195387840271
5,2,64,30,0.4757850766181946,0.14722280204296112
5,2,64,31,0.44499310851097107,0.2143688201904297
5,2,64,32,0.43328702449798584,0.21917785704135895
5,2,64,33,0.5823873281478882,0.14317747950553894
5,2,64,34,0.4303203821182251,0.17400577664375305
5,2,64,35,0.5170412063598633,0.16205789148807526
5,2,64,36,0.3313852548599243,0.2419067621231079
5,2,64,37,0.522996187210083,0.09275031089782715
5,2,64,38,0.5154581665992737,0.22439292073249817
5,2,64,39,0.540121853351593,0.052875541150569916
5,2,64,40,0.3854767978191376,0.11643875390291214
5,2,64,41,0.40326911211013794,0.11324833333492279
5,2,64,42,0.4519154727458954,0.21485990285873413
5,2,64,43,0.5938526391983032,0.1123390942811966
5,2,64,44,0.618645966053009,0.09212994575500488
5,2,64,45,0.44570431113243103,0.10223707556724548
5,2,64,46,0.4162295162677765,0.18818168342113495
5,2,64,47,0.411610871553421,0.1114860400557518
5,2,64,48,0.6024879217147827,0.14491257071495056
5,2,64,49,0.5167880654335022,0.18589037656784058
5,2,64,50,0.5417998433113098,0.11695893108844757
5,2,64,51,0.5237034559249878,0.1320205181837082
5,2,64,52,0.4254041314125061,0.15977166593074799
5,2,64,53,0.4785152077674866,0.2155710756778717
5,2,64,54,0.6456161141395569,0.1721944957971573
5,2,64,55,0.4930836260318756,0.11926589161157608
5,2,64,56,0.49537935853004456,0.16539035737514496
5,2,64,57,0.4932323694229126,0.17559510469436646
5,2,64,58,0.4181315004825592,0.11658013612031937
5,2,64,59,0.4672901928424835,0.20916640758514404
5,2,64,60,0.5274181962013245,0.2148999571800232
5,2,64,61,0.29788562655448914,0.1540074199438095
5,2,64,62,0.5153804421424866,0.21436351537704468
5,2,64,63,0.5012324452400208,0.15276485681533813
5,3,64,0,0.5040767788887024,0.274583637714386
5,3,64,1,0.6288549900054932,0.10869700461626053
5,3,64,2,0.3473244905471802,0.1512957662343979
5,3,64,3,0.36601579189300537,0.15079063177108765
5,3,64,4,0.5700126886367798,0.19717255234718323
5,3,64,5,0.7480670213699341,0.09385529905557632
5,3,64,6,0.2487557828426361,0.14345838129520416
5,3,64,7,0.44313815236091614,0.22677874565124512
5,3,64,8,0.5533298254013062,0.2626236379146576
5,3,64,9,0.7126697897911072,0.1807578057050705
5,3,64,10,0.39024198055267334,0.06294967979192734
5,3,64,11,0.5573841333389282,0.17205040156841278
5,3,64,12,0.40851959586143494,0.24042141437530518
5,3,64,13,0.2699507772922516,0.13618698716163635
5,3,64,14,0.27686694264411926,0.13057735562324524
5,3,64,15,0.36238786578178406,0.0669092983007431
5,3,64,16,0.5719069838523865,0.08182988315820694
5,3,64,17,0.5671781897544861,0.17768070101737976
5,3,64,18,0.6165974736213684,0.19963908195495605
5,3,64,19,0.5399510264396667,0.1577252745628357
5,3,64,20,0.2837669551372528,0.2493092566728592
5,3,64,21,0.5380650758743286,0.1279667615890503
5,3,64,22,0.2736698389053345,0.059249311685562134
5,3,64,23,0.45886895060539246,0.064747653901577
5,3,64,24,0.3923066258430481,0.1879306584596634
5,3,64,25,0.3475216031074524,0.12926997244358063
5,3,64,26,0.5983370542526245,0.15310314297676086
5,3,64,27,0.5389593243598938,0.16357426345348358
5,3,64,28,0.5758751630783081,0.1788635104894638
5,3,64,29,0.3657914400100708,0.17780064046382904
5,3,64,30,0.5865723490715027,0.09018953889608383
5,3,64,31,0.41011184453964233,0.19433467090129852
5,3,64,32,0.40622130036354065,0.11410459876060486
5,3,64,33,0.479005366563797,0.06024637073278427
5,3,64,34,0.5235916376113892,0.07787656784057617
5,3,64,35,0.3726122975349426,0.10868718475103378
5,3,64,36,0.4674815237522125,0.2925812304019928
5,3,64,37,0.4970083236694336,0.16153690218925476
5,3,64,38,0.49140244722366333,0.25319772958755493
5,3,64,39,0.6503697633743286,0.13281050324440002
5,3,64,40,0.444805771112442,0.18092748522758484
5,3,64,41,0.3424234092235565,0.12533368170261383
5,3,64,42,0.46461039781570435,0.14582009613513947
5,3,64,43,0.4497183561325073,0.2687166631221771
5,3,64,44,0.5411828756332397,0.1551496535539627
5,3,64,45,0.5049557685852051,0.19564679265022278
5,3,64,46,0.5717405676841736,0.2575267553329468
5,3,64,47,0.5936660170555115,0.2056545466184616
5,3,64,48,0.5726582407951355,0.31326523423194885
5,3,64,49,0.48994186520576477,0.1634358912706375
5,3,64,50,0.5259643197059631,0.16095221042633057
5,3,64,51,0.5905999541282654,0.19212929904460907
5,3,64,52,0.5574226975440979,0.20466163754463196
5,3,64,53,0.4794127941131592,0.1323089301586151
5,3,64,54,0.4790624976158142,0.1903311312198639
5,3,64,55,0.5713470578193665,0.1176876351237297
5,3,64,56,0.3581964671611786,0.1906697005033493
5,3,64,57,0.5324651598930359,0.2953049838542938
5,3,64,58,0.6353635191917419,0.19541402161121368
5,3,64,59,0.5776633024215698,0.2956935465335846
5,3,64,60,0.5002440810203552,0.24992972612380981
5,3,64,61,0.5498957633972168,0.22096790373325348
5,3,64,62,0.44778165221214294,0.2310357540845871
5,3,64,63,0.5346996784210205,0.1289900243282318
5,4,128,0,0.6815266013145447,0.11682697385549545
5,4,128,1,0.47316262125968933,0.29863378405570984
5,4,128,2,0.7016946077346802,0.10327833145856857
5,4,128,3,0.46065136790275574,0.19700703024864197
5,4,128,4,0.48146262764930725,0.22500984370708466
5,4,128,5,0.5661548972129822,0.14527305960655212
5,4,128,6,0.6838908195495605,0.11859941482543945
5,4,128,7,0.4385109543800354,0.27930381894111633
5,4,128,8,0.24441036581993103,0.17310264706611633
5,4,128,9,0.6921552419662476,0.10303296893835068
5,4,128,10,0.5693819522857666,0.08765580505132675
5,4,128,11,0.7877905964851379,0.10033337771892548
5,4,128,12,0.7234922647476196,0.09498365223407745
5,4,128,13,0.596214234828949,0.2561671733856201
5,4,128,14,0.3198249638080597,0.19325102865695953
5,4,128,15,0.45441994071006775,0.2835557162761688
5,4,128,16,0.567715048789978,0.2511073350906372
5,4,128,17,0.414371520280838,0.2961560785770416
5,4,128,18,0.48714232444763184,0.0806223601102829
5,4,128,19,0.6891072392463684,0.1091119647026062
5,4,128,20,0.5926055312156677,0.07643619924783707
5,4,128,21,0.6045107245445251,0.1939723938703537
5,4,128,22,0.35342690348625183,0.11479397863149643
5,4,128,23,0.4121013283729553,0.33940568566322327
5,4,128,24,0.6132076978683472,0.1834464967250824
5,4,128,25,0.7512359023094177,0.10652725398540497
5,4,128,26,0.6939648985862732,0.12887372076511383
5,4,128,27,0.5773769617080688,0.190652996301651
5,4,128,28,0.39582812786102295,0.09097348153591156
5,4,128,29,0.6709411144256592,0.21786965429782867
5,4,128,30,0.4592691659927368,0.1793569177389145
5,4,128,31,0.6681416630744934,0.328983336687088
5,4,128,32,0.6269629597663879,0.27168700098991394
5,4,128,33,0.582460880279541,0.0720064714550972
5,4,128,34,0.6119656562805176,0.2632686495780945
5,4,128,35,0.41122668981552124,0.0691954717040062
5,4,128,36,0.7969083786010742,0.0798719972372055
5,4,128,37,0.2446480393409729,0.09774904698133469
5,4,128,38,0.705928385257721,0.0843278095126152
5,4,128,39,0.6964043378829956,0.0696452334523201
5,4,128,40,0.6137468814849854,0.18269027769565582
5,4,128,41,0.4414796233177185,0.2752615809440613
5,4,128,42,0.5786155462265015,0.26750972867012024
5,4,128,43,0.3702940046787262,0.26050451397895813
5,4,128,44,0.4896831512451172,0.23525463044643402
5,4,128,45,0.4285026490688324,0.12560655176639557
5,4,128,46,0.5533598065376282,0.1309717893600464
5,4,128,47,0.5992371439933777,0.07301121205091476
5,4,128,48,0.7989286184310913,0.10613401979207993
5,4,128,49,0.7598766684532166,0.13307224214076996
5,4,128,50,0.4030996263027191,0.11618413031101227
5,4,128,51,0.4325870871543884,0.23307181894779205
5,4,128,52,0.4464569389820099,0.1796913892030716
5,4,128,53,0.5668950080871582,0.19008776545524597
5,4,128,54,0.5295730233192444,0.14774352312088013
5,4,128,55,0.35179880261421204,0.31072482466697693
5,4,128,56,0.7187070846557617,0.13010665774345398
5,4,128,57,0.5834134221076965,0.07128860801458359
5,4,128,58,0.5777098536491394,0.2949688732624054
5,4,128,59,0.677408754825592,0.2816336154937744
5,4,128,60,0.785277783870697,0.0836636945605278
5,4,128,61,0.320540189743042,0.3079427480697632
5,4,128,62,0.6120429039001465,0.1688094437122345
5,4,128,63,0.62704998254776,0.2425362467765808
5,4,128,64,0.5067846775054932,0.2115810215473175
5,4,128,65,0.6586872935295105,0.10565179586410522
5,4,128,66,0.3362089991569519,0.14357209205627441
5,4,128,67,0.524222195148468,0.19917677342891693
5,4,128,68,0.5856624841690063,0.20246104896068573
5,4,128,69,0.6069285869598389,0.2395651638507843
5,4,128,70,0.4733366072177887,0.25456294417381287
5,4,128,71,0.3103794455528259,0.17300958931446075
5,4,128,72,0.6178302764892578,0.19172930717468262
5,4,128,73,0.7069165110588074,0.2374672293663025
5,4,128,74,0.5336676836013794,0.1847161501646042
5,4,128,75,0.4265527129173279,0.2813764810562134
5,4,128,76,0.625665009021759,0.1763981580734253
5,4,128,77,0.6789229512214661,0.1757063865661621
5,4,128,78,0.5786679983139038,0.08529162406921387
5,4,128,79,0.6898491382598877,0.2704278826713562
5,4,128,80,0.8471295833587646,0.10040229558944702
5,4,128,81,0.6815455555915833,0.12916286289691925
5,4,128,82,0.4265463352203369,0.043767254799604416
5,4,128,83,0.6124482154846191,0.21848085522651672
5,4,128,84,0.4390282928943634,0.17023257911205292
5,4,128,85,0.7412641048431396,0.17242446541786194
5,4,128,86,0.6487830281257629,0.2676674723625183
5,4,128,87,0.5935199856758118,0.19016052782535553
5,4,128,88,0.3418589234352112,0.33924683928489685
5,4,128,89,0.7692938446998596,0.1547641158103943
5,4,128,90,0.626499593257904,0.14532595872879028
5,4,128,91,0.29272574186325073,0.20630183815956116
5,4,128,92,0.5892130732536316,0.20836928486824036
5,4,128,93,0.6367571353912354,0.13247272372245789
5,4,128,94,0.670025646686554,0.05996887758374214
5,4,128,95,0.4827578365802765,0.1928982436656952
5,4,128,96,0.4061884582042694,0.14462082087993622
5,4,128,97,0.7116603255271912,0.1859021782875061
5,4,128,98,0.538291871547699,0.07243257015943527
5,4,128,99,0.692568838596344,0.17999325692653656
5,4,128,100,0.5403976440429688,0.06647050380706787
5,4,128,101,0.5012097358703613,0.10881496220827103
5,4,128,102,0.7247387766838074,0.19105742871761322
5,4,128,103,0.5962750911712646,0.2540375590324402
5,4,128,104,0.40903183817863464,0.2699488699436188
5,4,128,105,0.7250127196311951,0.27680379152297974
5,4,128,106,0.46587610244750977,0.128411203622818
5,4,128,107,0.5917195081710815,0.13506722450256348
5,4,128,108,0.6655246615409851,0.2743206322193146
5,4,128,109,0.5272360444068909,0.2567310631275177
5,4,128,110,0.48563194274902344,0.1604761928319931
5,4,128,111,0.7778205871582031,0.0835619643330574
5,4,128,112,0.41067469120025635,0.17811545729637146
5,4,128,113,0.5636377930641174,0.2690139710903168
5,4,128,114,0.5704033374786377,0.17276975512504578
5,4,128,115,0.6554479002952576,0.296635240316391
5,4,128,116,0.7163164615631104,0.13700731098651886
5,4,128,117,0.38842451572418213,0.28095823526382446
5,4,128,118,0.6065360307693481,0.3465062379837036
5,4,128,119,0.6474586725234985,0.3432871699333191
5,4,128,120,0.4723651707172394,0.09289984405040741
5,4,128,121,0.4543794095516205,0.12842592597007751
5,4,128,122,0.4656471312046051,0.20924247801303864
5,4,128,123,0.6311118602752686,0.2680577337741852
5,4,128,124,0.6558364629745483,0.32642662525177
5,4,128,125,0.5905446410179138,0.1356005221605301
5,4,128,126,0.6477951407432556,0.22001664340496063
5,4,128,127,0.3213251531124115,0.13139879703521729
5,5,128,0,0.7720893025398254,0.12312816083431244
5,5,128,1,0.7441991567611694,0.19838403165340424
5,5,128,2,0.756625771522522,0.1965789496898651
5,5,128,3,0.5530195832252502,0.16213172674179077
5,5,128,4,0.8372917175292969,0.15846078097820282
5,5,128,5,0.786652147769928,0.18017804622650146
5,5,128,6,0.8267826437950134,0.1256190836429596
5,5,128,7,0.6550506353378296,0.16772392392158508
5,5,128,8,0.7429898381233215,0.12228604406118393
5,5,128,9,0.8291571736335754,0.1079024001955986
5,5,128,10,0.6149805188179016,0.07034000754356384
5,5,128,11,0.8680078387260437,0.11016159504652023
5,5,128,12,0.8303666710853577,0.11893142759799957
5,5,128,13,0.789286732673645,0.09957953542470932
5,5,128,14,0.4553351104259491,0.2829119861125946
5,5,128,15,0.85565185546875,0.1066366583108902
5,5,128,16,0.7809117436408997,0.09287118166685104
5,5,128,17,0.8526483774185181,0.0931534469127655
5,5,128,18,0.7957253456115723,0.14684714376926422
5,5,128,19,0.4536028504371643,0.28983569145202637
5,5,128,20,0.6704391837120056,0.16112059354782104
5,5,128,21,0.8385272026062012,0.09492761641740799
5,5,128,22,0.40033382177352905,0.29833492636680603
5,5,128,23,0.40324491262435913,0.338382750749588
5,5,128,24,0.6117675304412842,0.10935775190591812
5,5,128,25,0.8214942216873169,0.09997837245464325
5,5,128,26,0.839443027973175,0.0922599583864212
5,5,128,27,0.6846029162406921,0.1347971260547638
5,5,128,28,0.7905759811401367,0.11851193755865097
5,5,128,29,0.7888076901435852,0.13384640216827393
5,5,128,30,0.677006185054779,0.13821464776992798
5,5,128,31,0.7749007940292358,0.15289506316184998
5,5,128,32,0.7944312691688538,0.11176807433366776
5,5,128,33,0.48837533593177795,0.19381459057331085
5,5,128,34,0.7440902590751648,0.26550498604774475
5,5,128,35,0.3988024592399597,0.17652659118175507
5,5,128,36,0.7901159524917603,0.1178983524441719
5,5,128,37,0.8307300209999084,0.13248296082019806
5,5,128,38,0.5113136768341064,0.22418540716171265
5,5,128,39,0.7546914219856262,0.1662939190864563
5,5,128,40,0.7618452906608582,0.10856474190950394
5,5,128,41,0.4739832580089569,0.09150554239749908
5,5,128,42,0.7616751194000244,0.1661890745162964
5,5,128,43,0.47838276624679565,0.1954723745584488
5,5,128,44,0.6690361499786377,0.11413576453924179
5,5,128,45,0.7988163232803345,0.08724372088909149
5,5,128,46,0.5630651116371155,0.2019405961036682
5,5,128,47,0.7676306366920471,0.23796869814395905
5,5,128,48,0.8596234321594238,0.10245649516582489
5,5,128,49,0.741235077381134,0.17582251131534576
5,5,128,50,0.8040859699249268,0.13093823194503784
5,5,128,51,0.3681679368019104,0.24040168523788452
5,5,128,52,0.6540361046791077,0.18030886352062225
5,5,128,53,0.8292568325996399,0.10352613776922226
5,5,128,54,0.825464129447937,0.10896767675876617
5,5,128,55,0.7088633179664612,0.23580819368362427
5,5,128,56,0.6264644265174866,0.2665901184082031
5,5,128,57,0.8256822228431702,0.14029565453529358
5,5,128,58,0.6242179274559021,0.2613043785095215
5,5,128,59,0.7916178703308105,0.0885985717177391
5,5,128,60,0.8696391582489014,0.09867031872272491
5,5,128,61,0.41821518540382385,0.24191708862781525
5,5,128,62,0.6936238408088684,0.11011484265327454
5,5,128,63,0.7667031288146973,0.1973111480474472
5,5,128,64,0.8782579898834229,0.08124562352895737
5,5,128,65,0.5922530293464661,0.1498442441225052
5,5,128,66,0.7125816345214844,0.30042868852615356
5,5,128,67,0.7635250687599182,0.10898807644844055
5,5,128,68,0.8473302125930786,0.10387839376926422
5,5,128,69,0.8032007813453674,0.10707841068506241
5,5,128,70,0.6354069113731384,0.3069494962692261
5,5,128,71,0.7777895927429199,0.2101810723543167
5,5,128,72,0.4018920063972473,0.3257235288619995
5,5,128,73,0.8174092173576355,0.11535002291202545
5,5,128,74,0.6897638440132141,0.2776859402656555
5,5,128,75,0.9017645120620728,0.08617817610502243
5,5,128,76,0.6588664650917053,0.13823828101158142
5,5,128,77,0.7326048016548157,0.286508172750473
5,5,128,78,0.6981238126754761,0.23453427851200104
5,5,128,79,0.806867241859436,0.1679994910955429
5,5,128,80,0.870979368686676,0.0955888032913208
5,5,128,81,0.7028563618659973,0.08854924142360687
5,5,128,82,0.7344622611999512,0.2389788031578064
5,5,128,83,0.8137087225914001,0.13781721889972687
5,5,128,84,0.6952351927757263,0.29661825299263
5,5,128,85,0.8818550705909729,0.08139751106500626
5,5,128,86,0.4036059081554413,0.32433629035949707
5,5,128,87,0.7177870869636536,0.11203210800886154
5,5,128,88,0.8348028063774109,0.11114895343780518
5,5,128,89,0.8237935900688171,0.11288682371377945
5,5,128,90,0.7799732685089111,0.18789753317832947
5,5,128,91,0.8114168643951416,0.12187690287828445
5,5,128,92,0.7387365102767944,0.1641240268945694
5,5,128,93,0.8606669306755066,0.09625482559204102
5,5,128,94,0.7660248279571533,0.13014651834964752
5,5,128,95,0.8204125165939331,0.10127425193786621
5,5,128,96,0.826538622379303,0.10438820719718933
5,5,128,97,0.8222414255142212,0.12738852202892303
5,5,128,98,0.654684841632843,0.1525975465774536
5,5,128,99,0.7228391170501709,0.23605795204639435
5,5,128,100,0.8053956031799316,0.1360326111316681
5,5,128,101,0.4225192368030548,0.17298057675361633
5,5,128,102,0.31774207949638367,0.2913203835487366
5,5,128,103,0.55889892578125,0.10330905020236969
5,5,128,104,0.7635237574577332,0.18565469980239868
5,5,128,105,0.7654426097869873,0.13330499827861786
5,5,128,106,0.7082293033599854,0.18797151744365692
5,5,128,107,0.5093792676925659,0.05645621940493584
5,5,128,108,0.686021625995636,0.29266849160194397
5,5,128,109,0.3559223413467407,0.28288373351097107
5,5,128,110,0.7008390426635742,0.11289967596530914
5,5,128,111,0.720467209815979,0.12943197786808014
5,5,128,112,0.6620898246765137,0.08299455791711807
5,5,128,113,0.8151890635490417,0.11252924799919128
5,5,128,114,0.5256639122962952,0.2006804347038269
5,5,128,115,0.7456547021865845,0.2703995406627655
5,5,128,116,0.7742413878440857,0.11548766493797302
5,5,128,117,0.5855761766433716,0.15655013918876648
5,5,128,118,0.8166128993034363,0.1312745213508606
5,5,128,119,0.7783915400505066,0.16673053801059723
5,5,128,120,0.7036494612693787,0.27883872389793396
5,5,128,121,0.6423501968383789,0.1200060173869133
5,5,128,122,0.7879980206489563,0.10238344967365265
5,5,128,123,0.7517023682594299,0.07364478707313538
5,5,128,124,0.8264508247375488,0.13119488954544067
5,5,128,125,0.7861979603767395,0.11413559317588806
5,5,128,126,0.4718012809753418,0.2551720142364502
5,5,128,127,0.4658938944339752,0.23108698427677155
6,0,32,0,0.37337079644203186,0.04322389140725136
6,0,32,1,0.5258960723876953,0.024788783863186836
6,0,32,2,0.36039814352989197,0.0760820284485817
6,0,32,3,0.37324288487434387,0.03566153720021248
6,0,32,4,0.6158437132835388,0.04492294415831566
6,0,32,5,0.5539184808731079,0.02663465589284897
6,0,32,6,0.49975165724754333,0.06307171285152435
6,0,32,7,0.4809999167919159,0.02694517746567726
6,0,32,8,0.36840757727622986,0.04667515680193901
6,0,32,9,0.537451982498169,0.0367606058716774
6,0,32,10,0.3244269788265228,0.05982840433716774
6,0,32,11,0.43325069546699524,0.04582194611430168
6,0,32,12,0.627386748790741,0.027527131140232086
6,0,32,13,0.4898865520954132,0.07735766470432281
6,0,32,14,0.3750609755516052,0.10457062721252441
6,0,32,15,0.532066285610199,0.05571828782558441
6,0,32,16,0.34850406646728516,0.04567969962954521
6,0,32,17,0.3657951354980469,0.038291655480861664
6,0,32,18,0.45212844014167786,0.047785501927137375
6,0,32,19,0.6264441013336182,0.045504797250032425
6,0,32,20,0.483725905418396,0.06562741845846176
6,0,32,21,0.46090173721313477,0.048146069049835205
6,0,32,22,0.4768533408641815,0.055335111916065216
6,0,32,23,0.4250335991382599,0.03753507882356644
6,0,32,24,0.5042644143104553,0.06614860147237778
6,0,32,25,0.45537111163139343,0.025432074442505836
6,0,32,26,0.3831976652145386,0.04443899542093277
6,0,32,27,0.584794819355011,0.031336721032857895
6,0,32,28,0.44486719369888306,0.04993866756558418
6,0,32,29,0.41102808713912964,0.05889056622982025
6,0,32,30,0.5102865099906921,0.03495955839753151
6,0,32,31,0.4679805040359497,0.05018090084195137
6,1,32,0,0.36467331647872925,0.12676319479942322
6,1,32,1,0.3330231308937073,0.1038646548986435
6,1,32,2,0.6065793633460999,0.0373823307454586
6,1,32,3,0.5284469127655029,0.07490721344947815
6,1,32,4,0.5608875155448914,0.057742174714803696
6,1,32,5,0.6143689155578613,0.09760401397943497
6,1,32,6,0.556037425994873,0.08275745809078217
6,1,32,7,0.5214523077011108,0.15738902986049652
6,1,32,8,0.5226927995681763,0.04005305841565132
6,1,32,9,0.4864671528339386,0.09211640805006027
6,1,32,10,0.49857351183891296,0.12368324398994446
6,1,32,11,0.49447259306907654,0.11071851849555969
6,1,32,12,0.4329034090042114,0.1163075864315033
6,1,32,13,0.3533519506454468,0.0930609181523323
6,1,32,14,0.43018415570259094,0.08808770030736923
6,1,32,15,0.5554307103157043,0.12454035878181458
6,1,32,16,0.3593595623970032,0.06974469125270844
6,1,32,17,0.4021221995353699,0.03890325129032135
6,1,32,18,0.5783703923225403,0.08975189924240112
6,1,32,19,0.4991646111011505,0.15419048070907593
6,1,32,20,0.5034257173538208,0.15730956196784973
6,1,32,21,0.6293012499809265,0.06312647461891174
6,1,32,22,0.6075843572616577,0.14727051556110382
6,1,32,23,0.4113449454307556,0.06847213953733444
6,1,32,24,0.49493879079818726,0.17089715600013733
6,1,32,25,0.5222550630569458,0.09202180057764053
6,1,32,26,0.488873690366745,0.07859387993812561
6,1,32,27,0.454028844833374,0.07246208935976028
6,1,32,28,0.5419546961784363,0.15224653482437134
6,1,32,29,0.35460877418518066,0.10736735910177231
6,1,32,30,0.4204786419868469,0.0641961321234703
6,1,32,31,0.41490811109542847,0.06822875142097473
6,2,64,0,0.5027780532836914,0.16978059709072113
6,2,64,1,0.5950199365615845,0.10663863271474838
6,2,64,2,0.5079717636108398,0.06434296816587448
6,2,64,3,0.6431530117988586,0.08347168564796448
6,2,64,4,0.5157110691070557,0.09675619006156921
6,2,64,5,0.4730120003223419,0.0988430380821228
6,2,64,6,0.6045727133750916,0.1894836574792862
6,2,64,7,0.47760093212127686,0.22297902405261993
6,2,64,8,0.3744272291660309,0.19936156272888184
6,2,64,9,0.307641863822937,0.10320037603378296
6,2,64,10,0.5995863676071167,0.08396615833044052
6,2,64,11,0.6593619585037231,0.09906334429979324
6,2,64,12,0.4091286063194275,0.09778907150030136
6,2,64,13,0.6369692087173462,0.05789016932249069
6,2,64,14,0.39527612924575806,0.10911283642053604
6,2,64,15,0.4142584800720215,0.2930588722229004
6,2,64,16,0.4013647437095642,0.12060781568288803
6,2,64,17,0.4079461097717285,0.09552609920501709
6,2,64,18,0.4267367422580719,0.14526841044425964
6,2,64,19,0.49297505617141724,0.061256032437086105
6,2,64,20,0.46847590804100037,0.21147847175598145
6,2,64,21,0.4821004867553711,0.07498229295015335
6,2,64,22,0.37608909606933594,0.1881708949804306
6,2,64,23,0.46519917249679565,0.22270889580249786
6,2,64,24,0.36947864294052124,0.14967229962348938
6,2,64,25,0.5016905069351196,0.10608925670385361
6,2,64,26,0.3417370319366455,0.12904338538646698
6,2,64,27,0.3654872179031372,0.14153949916362762
6,2,64,28,0.5785853266716003,0.2530459463596344
6,2,64,29,0.6888121366500854,0.10947585850954056
6,2,64,30,0.5676822662353516,0.13183411955833435
6,2,64,31,0.6083165407180786,0.10458647459745407
6,2,64,32,0.43358489871025085,0.11501362174749374
6,2,64,33,0.2375703752040863,0.11506045609712601
6,2,64,34,0.7060805559158325,0.2694580852985382
6,2,64,35,0.40794235467910767,0.08713970333337784
6,2,64,36,0.5328112840652466,0.12188802659511566
6,2,64,37,0.48319801688194275,0.26069948077201843
6,2,64,38,0.5080033540725708,0.0786866694688797
6,2,64,39,0.6038045883178711,0.10693072527647018
6,2,64,40,0.4035611152648926,0.09912404417991638
6,2,64,41,0.323394238948822,0.10896001011133194
6,2,64,42,0.2953172028064728,0.09853577613830566
6,2,64,43,0.5915732979774475,0.16778035461902618
6,2,64,44,0.47254517674446106,0.14753274619579315
6,2,64,45,0.3757391571998596,0.24204200506210327
6,2,64,46,0.5397619009017944,0.21054723858833313
6,2,64,47,0.45660337805747986,0.09710405021905899
6,2,64,48,0.35028621554374695,0.20587466657161713
6,2,64,49,0.33665069937705994,0.22805574536323547
6,2,64,50,0.5449756383895874,0.1848173439502716
6,2,64,51,0.4095427095890045,0.10188409686088562
6,2,64,52,0.5097974538803101,0.12576299905776978
6,2,64,53,0.45814621448516846,0.13715116679668427
6,2,64,54,0.4034038186073303,0.12682798504829407
6,2,64,55,0.5824993848800659,0.09333746880292892
6,2,64,56,0.5478195548057556,0.14470849931240082
6,2,64,57,0.6093975901603699,0.08557804673910141
6,2,64,58,0.5339595079421997,0.07494185119867325
6,2,64,59,0.614717960357666,0.1480024755001068
6,2,64,60,0.5376079082489014,0.15215247869491577
6,2,64,61,0.6076943874359131,0.2886849045753479
6,2,64,62,0.5455217361450195,0.0711996927857399
6,2,64,63,0.6030146479606628,0.0742737203836441
6,3,64,0,0.5665838122367859,0.07040662318468094
6,3,64,1,0.42009684443473816,0.05677618086338043
6,3,64,2,0.5184330940246582,0.07137405127286911
6,3,64,3,0.5389847159385681,0.06687571853399277
6,3,64,4,0.4687539339065552,0.07465019822120667
6,3,64,5,0.5341394543647766,0.026121726259589195
6,3,64,6,0.5535030364990234,0.032658472657203674
6,3,64,7,0.5573158264160156,0.08365179598331451
6,3,64,8,0.3579733073711395,0.09227941930294037
6,3,64,9,0.45293691754341125,0.1158638671040535
6,3,64,10,0.4002370834350586,0.04434353858232498
6,3,64,11,0.5086528658866882,0.053652387112379074
6,3,64,12,0.45735546946525574,0.07185880094766617
6,3,64,13,0.4632871448993683,0.08111537247896194
6,3,64,14,0.44771695137023926,0.08666098862886429
6,3,64,15,0.3520628809928894,0.16250793635845184
6,3,64,16,0.5133733749389648,0.029241619631648064
6,3,64,17,0.6141368746757507,0.09057251363992691
6,3,64,18,0.4499344825744629,0.07527080178260803
6,3,64,19,0.6000332832336426,0.11095257848501205
6,3,64,20,0.4739421308040619,0.13135667145252228
6,3,64,21,0.506483256816864,0.0804470032453537
6,3,64,22,0.46694889664649963,0.0334746316075325
6,3,64,23,0.45842140913009644,0.1414545774459839
6,3,64,24,0.3895608186721802,0.05647845193743706
6,3,64,25,0.5376057028770447,0.08469697088003159
6,3,64,26,0.3909907341003418,0.0868101418018341
6,3,64,27,0.5432772636413574,0.05782854184508324
6,3,64,28,0.4592592418193817,0.10435265302658081
6,3,64,29,0.5140979886054993,0.05039038881659508
6,3,64,30,0.5472948551177979,0.09923314303159714
6,3,64,31,0.5873604416847229,0.10382653772830963
6,3,64,32,0.42279136180877686,0.05860297381877899
6,3,64,33,0.43395331501960754,0.05873791128396988
6,3,64,34,0.3160616457462311,0.10679671913385391
6,3,64,35,0.49526920914649963,0.03298923745751381
6,3,64,36,0.46757614612579346,0.08717195689678192
6,3,64,37,0.5241764783859253,0.05981045961380005
6,3,64,38,0.3588195741176605,0.08608502894639969
6,3,64,39,0.4335227310657501,0.07795239984989166
6,3,64,40,0.5956211686134338,0.07152535021305084
6,3,64,41,0.5455468893051147,0.11652481555938721
6,3,64,42,0.42402777075767517,0.0341094434261322
6,3,64,43,0.5248103737831116,0.12277036160230637
6,3,64,44,0.4294464886188507,0.10398539900779724
6,3,64,45,0.6346293687820435,0.1432817429304123
6,3,64,46,0.4190789461135864,0.16865885257720947
6,3,64,47,0.5773650407791138,0.024904390797019005
6,3,64,48,0.6010881662368774,0.03513225540518761
6,3,64,49,0.5589208006858826,0.04163346812129021
6,3,64,50,0.5421259999275208,0.06257687509059906
6,3,64,51,0.5681829452514648,0.06704197824001312
6,3,64,52,0.4928547441959381,0.0611925944685936
6,3,64,53,0.41738879680633545,0.056559573858976364
6,3,64,54,0.4867910146713257,0.1091606467962265
6,3,64,55,0.4593125879764557,0.04579418897628784
6,3,64,56,0.5962966680526733,0.06888767331838608
6,3,64,57,0.41602304577827454,0.09144274890422821
6,3,64,58,0.4782208800315857,0.0716245025396347
6,3,64,59,0.48735231161117554,0.0868120938539505
6,3,64,60,0.41895392537117004,0.10359752923250198
6,3,64,61,0.5942146182060242,0.07789106667041779
6,3,64,62,0.45913252234458923,0.10994888842105865
6,3,64,63,0.541688084602356,0.09130733460187912
