subject,channel,alpha,f1,drop_pp
1,0,1.0,0.7111452311543212,0.0
1,0,0.75,0.6951071916589158,1.6038039495405387
1,0,0.5,0.6933177756859933,1.7827455468327869
1,0,0.25,0.6906108487744557,2.053438237986549
1,0,0.0,0.7104412512525986,0.07039799017225512
1,1,1.0,0.7111452311543212,0.0
1,1,0.75,0.7117634121102834,-0.0618180955962222
1,1,0.5,0.7236903320177545,-1.25451008634333
1,1,0.25,0.72227304932351,-1.1127818169188841
1,1,0.0,0.7207615322535048,-0.9616301099183655
1,2,1.0,0.7111452311543212,0.0
1,2,0.75,0.713241957367339,-0.20967262130178188
1,2,0.5,0.729660063071159,-1.8514831916837893
1,2,0.25,0.7372524350562899,-2.6107203901968745
1,2,0.0,0.7299563545013125,-1.881112334699131
1,3,1.0,0.7111452311543212,0.0
1,3,0.75,0.6983495606275618,1.279567052675934
1,3,0.5,0.6887042364371955,2.2440994717125684
1,3,0.25,0.6966691206012132,1.4476110553107935
1,3,0.0,0.6689908865419926,4.215434461232858
1,4,1.0,0.7111452311543212,0.0
1,4,0.75,0.727164154940029,-1.6018923785707795
1,4,0.5,0.7520721065110703,-4.09268753567491
1,4,0.25,0.7696154065246004,-5.847017537027921
1,4,0.0,0.7447694443759076,-3.3624213221586485
1,5,1.0,0.7111452311543212,0.0
1,5,0.75,0.6822910809543928,2.885415019992832
1,5,0.5,0.6742902739516708,3.6854957202650307
1,5,0.25,0.6694412823442866,4.170394881003459
1,5,0.0,0.6736475389017762,3.7497692252544956
1,6,1.0,0.7111452311543212,0.0
1,6,0.75,0.7046124490064483,0.6532782147872895
1,6,0.5,0.7152380952380952,-0.40928640837740726
1,6,0.25,0.726707251082251,-1.5562019927929827
1,6,0.0,0.7338135138046276,-2.2668282650306404
1,7,1.0,0.7111452311543212,0.0
1,7,0.75,0.6861526494577872,2.4992581696533955
1,7,0.5,0.6894184337651894,2.1726797389131747
1,7,0.25,0.6775622731126718,3.3582958041649347
1,7,0.0,0.6465270989118505,6.46181322424707
1,8,1.0,0.7111452311543212,0.0
1,8,0.75,0.7134807261682724,-0.23354950139512498
1,8,0.5,0.7202724410169128,-0.9127209862591634
1,8,0.25,0.6991849840461533,1.1960247108167898
1,8,0.0,0.693216371055132,1.7928860099189148
2,0,1.0,0.8538074531687152,0.0
2,0,0.75,0.8496295691453453,0.41778840233699377
2,0,0.5,0.8478040950026059,0.6003358166109307
2,0,0.25,0.8600461299929385,-0.6238676824223299
2,0,0.0,0.8475081699346405,0.6299283234074693
2,1,1.0,0.8538074531687152,0.0
2,1,0.75,0.8079572966038818,4.585015656483337
2,1,0.5,0.8047577605740377,4.904969259467751
2,1,0.25,0.7993150149139008,5.449243825481442
2,1,0.0,0.7883735446970357,6.543390847167951
2,2,1.0,0.8538074531687152,0.0
2,2,0.75,0.8487350393339251,0.5072413834790068
2,2,0.5,0.8502311249476577,0.35763282210574676
2,2,0.25,0.8663888888888889,-1.2581435720173673
2,2,0.0,0.851388888888889,0.24185642798262297
2,3,1.0,0.8538074531687152,0.0
2,3,0.75,0.8552850179774103,-0.14775648086950977
2,3,0.5,0.8529419435408294,0.08655096278857854
2,3,0.25,0.8428410952778623,1.0966357890852874
2,3,0.0,0.8408085907824766,1.2998862386238597
2,4,1.0,0.8538074531687152,0.0
2,4,0.75,0.8525506544119166,0.12567987567986272
2,4,0.5,0.8395441135873888,1.4263339581326417
2,4,0.25,0.8423760798408687,1.1431373327846495
2,4,0.0,0.8376874327457028,1.6120020423012416
2,5,1.0,0.8538074531687152,0.0
2,5,0.75,0.8583896704171277,-0.4582217248412457
2,5,0.5,0.8411737839363285,1.2633669232386735
2,5,0.25,0.8239302771954928,2.987717597322237
2,5,0.0,0.8100392819892581,4.376817117945708
2,6,1.0,0.8538074531687152,0.0
2,6,0.75,0.8478246566131976,0.5982796555517589
2,6,0.5,0.8442694069271162,0.9538046241599041
2,6,0.25,0.8418953252189613,1.1912127949753937
2,6,0.0,0.8207310805942315,3.3076372574483703
2,7,1.0,0.8538074531687152,0.0
2,7,0.75,0.8328314283817705,2.0976024786944714
2,7,0.5,0.8299080699662095,2.389938320250573
2,7,0.25,0.8076919527500923,4.611550041862289
2,7,0.0,0.7662658433539161,8.754160981479908
2,8,1.0,0.8538074531687152,0.0
2,8,0.75,0.8557017654182983,-0.1894312249583141
2,8,0.5,0.8426102492278963,1.1197203940818912
2,8,0.25,0.8345573206986251,1.9250132470090109
2,8,0.0,0.8425760102057271,1.1231442962988059
3,0,1.0,0.8955524605078886,0.0
3,0,0.75,0.9202140942513692,-2.4661633743480627
3,0,0.5,0.9411730197774782,-4.562055926958964
3,0,0.25,0.9553001181654068,-5.974765765751822
3,0,0.0,0.9431159823448685,-4.756352183697987
3,1,1.0,0.8955524605078886,0.0
3,1,0.75,0.8889175134010721,0.6634947106816558
3,1,0.5,0.8799006015997849,1.5651858908103722
3,1,0.25,0.8789963904582548,1.6556070049633775
3,1,0.0,0.8789963904582548,1.6556070049633775
3,2,1.0,0.8955524605078886,0.0
3,2,0.75,0.8932269785084963,0.23254819993923093
3,2,0.5,0.877793149679326,1.7759310828562636
3,2,0.25,0.8713175713175714,2.4234889190317244
3,2,0.0,0.8528509125283319,4.270154797955672
3,3,1.0,0.8955524605078886,0.0
3,3,0.75,0.8708846671788381,2.466779332905056
3,3,0.5,0.8652974253703373,3.0255035137551345
3,3,0.25,0.8416485730404283,5.390388746746034
3,3,0.0,0.826489776701641,6.906268380624758
3,4,1.0,0.8955524605078886,0.0
3,4,0.75,0.8921894709464878,0.33629895614007976
3,4,0.5,0.9041325468997331,-0.8580086391844488
3,4,0.25,0.9142272980459871,-1.867483753809851
3,4,0.0,0.9108723579574954,-1.5319897449606823
3,5,1.0,0.8955524605078886,0.0
3,5,0.75,0.8987761555050415,-0.3223694997152915
3,5,0.5,0.907490210121789,-1.1937749613900372
3,5,0.25,0.9161101411809844,-2.0557680673095824
3,5,0.0,0.912755169205683,-1.7202708697794389
3,6,1.0,0.8955524605078886,0.0
3,6,0.75,0.8955524605078886,0.0
3,6,0.5,0.8910266802488134,0.45257802590752405
3,6,0.25,0.8942503186468703,0.1302141861018291
3,6,0.0,0.8877969305087949,0.775552999909368
3,7,1.0,0.8955524605078886,0.0
3,7,0.75,0.8899550209630807,0.5597439544807958
3,7,0.5,0.8821103901735606,1.3442070334327982
3,7,0.25,0.8686177178197055,2.6934742688183078
3,7,0.0,0.8738483706586146,2.1704089849273966
3,8,1.0,0.8955524605078886,0.0
3,8,0.75,0.903193796693109,-0.7641336185220338
3,8,0.5,0.9082569994307301,-1.2704538922841513
3,8,0.25,0.895923586553015,-0.03711260451263465
3,8,0.0,0.882366754041066,1.31857064668226
4,0,1.0,0.9265043233358188,0.0
4,0,0.75,0.9238977995890438,0.2606523746774947
4,0,0.5,0.9217983450914475,0.4705978244371245
4,0,0.25,0.9318139249670323,-0.5309601631213523
4,0,0.0,0.9370054780546035,-1.0501154718784766
4,1,1.0,0.9265043233358188,0.0
4,1,0.75,0.9199882365814958,0.6516086754323025
4,1,0.5,0.9229302116848591,0.3574111650959666
4,1,0.25,0.9229302116848591,0.3574111650959666
4,1,0.0,0.8999389173507453,2.656540598507351
4,2,1.0,0.9265043233358188,0.0
4,2,0.75,0.924140991392583,0.23633319432357913
4,2,0.5,0.933546871900527,-0.7042548564708206
4,2,0.25,0.9308407305593273,-0.4336407223508476
4,2,0.0,0.9308407305593273,-0.4336407223508476
4,3,1.0,0.9265043233358188,0.0
4,3,0.75,0.9244011883113469,0.21031350244719027
4,3,0.5,0.9109303180731751,1.557400526264363
4,3,0.25,0.8965697970807445,2.993452625507431
4,3,0.0,0.8705426940945233,5.596162924129544
4,4,1.0,0.9265043233358188,0.0
4,4,0.75,0.9338643936393498,-0.736007030353103
4,4,0.5,0.9331054067535537,-0.660108341773491
4,4,0.25,0.9311236536165148,-0.46193302806960546
4,4,0.0,0.9296823171751785,-0.3177993839359683
4,5,1.0,0.9265043233358188,0.0
4,5,0.75,0.9113093369544355,1.519498638138328
4,5,0.5,0.9060885709824524,2.0415752353366345
4,5,0.25,0.899640763277127,2.6863560058691727
4,5,0.0,0.9020213502972123,2.448297303860647
4,6,1.0,0.9265043233358188,0.0
4,6,0.75,0.9213221288910359,0.518219444478285
4,6,0.5,0.9255296856092009,0.09746377266178774
4,6,0.25,0.9255296856092009,0.09746377266178774
4,6,0.0,0.940113543805255,-1.3609220469436245
4,7,1.0,0.9265043233358188,0.0
4,7,0.75,0.9137708370053566,1.273348633046223
4,7,0.5,0.9172771851050538,0.9227138230764931
4,7,0.25,0.9385690223635518,-1.2064699027732995
4,7,0.0,0.9427112332112332,-1.62069098754144
4,8,1.0,0.9265043233358188,0.0
4,8,0.75,0.924140991392583,0.23633319432357913
4,8,0.5,0.9295045637272816,-0.30002403914628495
4,8,0.25,0.9286498018303948,-0.21454784945760252
4,8,0.0,0.9192263846819883,0.7277938653830529
5,0,1.0,0.6968981779791196,0.0
5,0,0.75,0.712076655523508,-1.5178477544388391
5,0,0.5,0.703112336586913,-0.6214158607793396
5,0,0.25,0.6925562774878813,0.4341900491238282
5,0,0.0,0.6841495493770415,1.2748628602078038
5,1,1.0,0.6968981779791196,0.0
5,1,0.75,0.7037400084970176,-0.6841830517897995
5,1,0.5,0.7107359286357513,-1.383775065663173
5,1,0.25,0.7086082493692092,-1.1710071390089616
5,1,0.0,0.713784199003652,-1.6886021024532405
5,2,1.0,0.6968981779791196,0.0
5,2,0.75,0.6941777177602833,0.2720460218836318
5,2,0.5,0.709763296065548,-1.2865118086428429
5,2,0.25,0.7160728727906205,-1.9174694811500914
5,2,0.0,0.7051410846973483,-0.8242906718228693
5,3,1.0,0.6968981779791196,0.0
5,3,0.75,0.7173003191887575,-2.0402141209637903
5,3,0.5,0.7195613966242791,-2.266321864515952
5,3,0.25,0.7349353416073939,-3.803716362827436
5,3,0.0,0.7535494520900404,-5.665127411092086
5,4,1.0,0.6968981779791196,0.0
5,4,0.75,0.6913324420677363,0.5565735911383318
5,4,0.5,0.6851318568709872,1.176632110813236
5,4,0.25,0.6860579597011737,1.08402182779459
5,4,0.0,0.6904314121643782,0.6466765814741371
5,5,1.0,0.6968981779791196,0.0
5,5,0.75,0.6884765299621965,0.8421648016923022
5,5,0.5,0.6823354602386861,1.4562717740433495
5,5,0.25,0.6833245340608446,1.357364391827498
5,5,0.0,0.6719921778073114,2.490600017180822
5,6,1.0,0.6968981779791196,0.0
5,6,0.75,0.7018362182703971,-0.49380402912775345
5,6,0.5,0.6952902925190761,0.16078854600434234
5,6,0.25,0.6886514901151598,0.8246687863959767
5,6,0.0,0.6823880131043318,1.4510164874787734
5,7,1.0,0.6968981779791196,0.0
5,7,0.75,0.7099133558748942,-1.3015177895774666
5,7,0.5,0.7184784170078288,-2.1580239028709203
5,7,0.25,0.7084156958619311,-1.1517517882811523
5,7,0.0,0.6937643422584497,0.3133835720669831
5,8,1.0,0.6968981779791196,0.0
5,8,0.75,0.6962632316865904,0.06349462925291371
5,8,0.5,0.6885562714991469,0.8341906479972683
5,8,0.25,0.6892754858302499,0.7622692148869681
5,8,0.0,0.6608044266553272,3.6093751323792334
6,0,1.0,0.827835395000619,0.0
6,0,0.75,0.8364450409882557,-0.8609645987636694
6,0,0.5,0.8407321270360526,-1.2896732035433622
6,0,0.25,0.8328568756471899,-0.502148064657093
6,0,0.0,0.7838485251420575,4.398686985856148
6,1,1.0,0.827835395000619,0.0
6,1,0.75,0.8454858439466706,-1.7650448946051611
6,1,0.5,0.8474273417902949,-1.9591946789675907
6,1,0.25,0.8562575584634408,-2.842216346282178
6,1,0.0,0.8470930604575923,-1.9257665456973272
6,2,1.0,0.827835395000619,0.0
6,2,0.75,0.8427133160115456,-1.4877921010926665
6,2,0.5,0.8402568570375306,-1.2421462036911635
6,2,0.25,0.8429882215585943,-1.515282655797534
6,2,0.0,0.8482164766891308,-2.0381081688511826
6,3,1.0,0.827835395000619,0.0
6,3,0.75,0.8497980364045339,-2.1962641403914906
6,3,0.5,0.853610272803927,-2.5774877803308005
6,3,0.25,0.83686074719998,-0.902535219936107
6,3,0.0,0.8284307832104287,-0.059538820980975515
6,4,1.0,0.827835395000619,0.0
6,4,0.75,0.8162556610232146,1.1579733977404416
6,4,0.5,0.817871259175607,0.9964135825011988
6,4,0.25,0.7843734166381222,4.346197836249677
6,4,0.0,0.759572641315806,6.826275368481294
6,5,1.0,0.827835395000619,0.0
6,5,0.75,0.8183154749870836,0.951992001353541
6,5,0.5,0.8096966645665772,1.8138730434041794
6,5,0.25,0.8125914067811646,1.5243988219454385
6,5,0.0,0.8044421434952841,2.339325150533489
6,6,1.0,0.827835395000619,0.0
6,6,0.75,0.8294393238022768,-0.1603928801657828
6,6,0.5,0.8277662416110123,0.0069153389606668725
6,6,0.25,0.8396480629591156,-1.181266795849667
6,6,0.0,0.8493379820966028,-2.150258709598385
6,7,1.0,0.827835395000619,0.0
6,7,0.75,0.8235653355172114,0.4270059483407529
6,7,0.5,0.7972921483559781,3.054324664464092
6,7,0.25,0.7786526007690622,4.91827942315568
6,7,0.0,0.7619523698592653,6.5883025141353695
6,8,1.0,0.827835395000619,0.0
6,8,0.75,0.8188159539694091,0.9019441031209885
6,8,0.5,0.8041198666198666,2.3715528380752415
6,8,0.25,0.7900694430750826,3.7765951925536334
6,8,0.0,0.7732131134765601,5.46222815240589
7,0,1.0,0.8324757414274291,0.0
7,0,0.75,0.8375051586573735,-0.5029417229944433
7,0,0.5,0.8496149430496389,-1.7139201622209832
7,0,0.25,0.8203103966064156,1.2165344821013502
7,0,0.0,0.7761807627510954,5.62949786763337
7,1,1.0,0.8324757414274291,0.0
7,1,0.75,0.8125824789663749,1.9893262461054162
7,1,0.5,0.8028300772338676,2.9645664193561516
7,1,0.25,0.7946269592476489,3.784878217978016
7,1,0.0,0.7764977341702959,5.59780072571332
7,2,1.0,0.8324757414274291,0.0
7,2,0.75,0.8112811121999828,2.1194629227446304
7,2,0.5,0.8057899153643835,2.6685826063045592
7,2,0.25,0.7846190417907193,4.78566996367098
7,2,0.0,0.7455205560650457,8.695518536238334
7,3,1.0,0.8324757414274291,0.0
7,3,0.75,0.8295658709106984,0.29098705167306393
7,3,0.5,0.8338762157382846,-0.14004743108555484
7,3,0.25,0.8242114724860272,0.8264268941401864
7,3,0.0,0.8206156937582426,1.1860047669186469
7,4,1.0,0.8324757414274291,0.0
7,4,0.75,0.815027742112986,1.7447999314443075
7,4,0.5,0.8003042630718076,3.217147835562151
7,4,0.25,0.7803887612706718,5.208698015675727
7,4,0.0,0.7557797140303842,7.669602739704484
7,5,1.0,0.8324757414274291,0.0
7,5,0.75,0.8465629852179917,-1.4087243790562587
7,5,0.5,0.8660596558016187,-3.3583914374189616
7,5,0.25,0.8458095469293677,-1.3333805501938634
7,5,0.0,0.8395847885681849,-0.7109047140755775
7,6,1.0,0.8324757414274291,0.0
7,6,0.75,0.8314289342352439,0.10468071921851951
7,6,0.5,0.8236540941328176,0.8821647294611434
7,6,0.25,0.8183368397531668,1.4138901674262239
7,6,0.0,0.8037473582199056,2.8728383207523467
7,7,1.0,0.8324757414274291,0.0
7,7,0.75,0.8138648808818301,1.8610860545599017
7,7,0.5,0.7981935032356043,3.4282238191824743
7,7,0.25,0.7715667311411992,6.090901028622985
7,7,0.0,0.7679870656913645,6.448867573606454
7,8,1.0,0.8324757414274291,0.0
7,8,0.75,0.8088113382260013,2.366440320142782
7,8,0.5,0.7775853775853776,5.489036384205148
7,8,0.25,0.7523399143033024,8.01358271241267
7,8,0.0,0.7664792212232181,6.599652020421098
8,0,1.0,0.8645990973271528,0.0
8,0,0.75,0.8823127684734828,-1.7713671146330046
8,0,0.5,0.8928811016934793,-2.828200436632655
8,0,0.25,0.9064600629583507,-4.18609656311979
8,0,0.0,0.8930196656935379,-2.842056836638507
8,1,1.0,0.8645990973271528,0.0
8,1,0.75,0.8646484541221384,-0.004935679498563328
8,1,0.5,0.8621866760164633,0.24124213106895276
8,1,0.25,0.8681324003904649,-0.3533303063312121
8,1,0.0,0.8706149380617465,-0.6015840734593714
8,2,1.0,0.8645990973271528,0.0
8,2,0.75,0.8735068080843118,-0.8907710757159015
8,2,0.5,0.8822470687772412,-1.764797145008845
8,2,0.25,0.8683345291592715,-0.3735431832118663
8,2,0.0,0.8772258392948049,-1.2626741967652122
8,3,1.0,0.8645990973271528,0.0
8,3,0.75,0.8683521689090541,-0.37530715819013016
8,3,0.5,0.860429896144182,0.41692011829708164
8,3,0.25,0.8614918262863469,0.3107271040805881
8,3,0.0,0.8626315075579782,0.19675897691745492
8,4,1.0,0.8645990973271528,0.0
8,4,0.75,0.8545524185619715,1.0046678765181283
8,4,0.5,0.8544314183811605,1.0167678945992242
8,4,0.25,0.8542157402243464,1.0383357102806356
8,4,0.0,0.8665888935404188,-0.1989796213266004
8,5,1.0,0.8645990973271528,0.0
8,5,0.75,0.8353952037017849,2.9203893625367905
8,5,0.5,0.8147831345024907,4.981596282466205
8,5,0.25,0.8182204651632041,4.637863216394866
8,5,0.0,0.8354282253486074,2.91708719785454
8,6,1.0,0.8645990973271528,0.0
8,6,0.75,0.8693221554040769,-0.47230580769240804
8,6,0.5,0.8767375940994484,-1.2138496772295615
8,6,0.25,0.8765499107462771,-1.1950813419124295
8,6,0.0,0.8765499107462771,-1.1950813419124295
8,7,1.0,0.8645990973271528,0.0
8,7,0.75,0.869075040950041,-0.44759436228881677
8,7,0.5,0.8778967295662501,-1.3297632239097301
8,7,0.25,0.8700557670325284,-0.5456669705375616
8,7,0.0,0.8452949055083646,1.9304191818788174
8,8,1.0,0.8645990973271528,0.0
8,8,0.75,0.8771965637267362,-1.2597466399583368
8,8,0.5,0.8768662587412588,-1.2267161414105998
8,8,0.25,0.8766247842762627,-1.2025686949109882
8,8,0.0,0.848218811262872,1.638028606428077
9,0,1.0,0.8785408226626522,0.0
9,0,0.75,0.8669731287409694,1.1567693921682776
9,0,0.5,0.8618440209224372,1.669680174021504
9,0,0.25,0.8612196906906914,1.7321131971960835
9,0,0.0,0.8458863068521016,3.2654515810550566
9,1,1.0,0.8785408226626522,0.0
9,1,0.75,0.8713411860470685,0.719963661558376
9,1,0.5,0.8670480153739166,1.1492807288735585
9,1,0.25,0.8677043394041057,1.083648325854647
9,1,0.0,0.8595283996227392,1.9012423039913018
9,2,1.0,0.8785408226626522,0.0
9,2,0.75,0.8887637934514371,-1.0222970788784869
9,2,0.5,0.8928844725238027,-1.4343649861150443
9,2,0.25,0.893816826788802,-1.5276004126149823
9,2,0.0,0.8714698985900146,0.7070924072637652
9,3,1.0,0.8785408226626522,0.0
9,3,0.75,0.8858775343544413,-0.7336711691789066
9,3,0.5,0.8895673894620465,-1.1026566799394288
9,3,0.25,0.87712487591473,0.14159467479222254
9,3,0.0,0.8578189585268899,2.072186413576227
9,4,1.0,0.8785408226626522,0.0
9,4,0.75,0.8756505166866095,0.2890305976042673
9,4,0.5,0.8713927482491839,0.7148074413468319
9,4,0.25,0.8713927482491839,0.7148074413468319
9,4,0.0,0.8644919156756152,1.404890698703698
9,5,1.0,0.8785408226626522,0.0
9,5,0.75,0.8829446116719555,-0.44037890093032717
9,5,0.5,0.8786351218598375,-0.0094299197185288
9,5,0.25,0.8741064503809526,0.4434372281699628
9,5,0.0,0.8688658521367953,0.9674970525856863
9,6,1.0,0.8785408226626522,0.0
9,6,0.75,0.8623811939123014,1.6159628750350818
9,6,0.5,0.858082517323372,2.045830533928017
9,6,0.25,0.8500436614760136,2.8497161186638587
9,6,0.0,0.8415068945536451,3.7033928109007075
9,7,1.0,0.8785408226626522,0.0
9,7,0.75,0.8577074080543351,2.0833414608317113
9,7,0.5,0.8471166556510245,3.1424167011627757
9,7,0.25,0.8323677447622418,4.617307790041036
9,7,0.0,0.8138188608776844,6.47219617849678
9,8,1.0,0.8785408226626522,0.0
9,8,0.75,0.8845895721236746,-0.6048749461022407
9,8,0.5,0.8852476130521456,-0.67067903894934
9,8,0.25,0.8712177788962611,0.7323043766391146
9,8,0.0,0.8547965592274273,2.3744263435224955
10,0,1.0,0.7587385926432699,0.0
10,0,0.75,0.7735943714363791,-1.4855778793109176
10,0,0.5,0.7923345041811094,-3.3595911537839473
10,0,0.25,0.797287569649684,-3.854897700641402
10,0,0.0,0.8009476031215162,-4.220901047824633
10,1,1.0,0.7587385926432699,0.0
10,1,0.75,0.7557796770999505,0.2958915543319396
10,1,0.5,0.7457703860765086,1.2968206566761342
10,1,0.25,0.7435396949279801,1.5198897715289816
10,1,0.0,0.7427707144276912,1.5967878215578768
10,2,1.0,0.7587385926432699,0.0
10,2,0.75,0.7427088995404458,1.6029693102824094
10,2,0.5,0.7364542689020868,2.2284323741183165
10,2,0.25,0.7428629207458561,1.587567189741379
10,2,0.0,0.7535831554362605,0.5155437207009395
10,3,1.0,0.7587385926432699,0.0
10,3,0.75,0.766422409925549,-0.7683817282279071
10,3,0.5,0.7603472309981715,-0.16086383549015482
10,3,0.25,0.7389620791108206,1.9776513532449358
10,3,0.0,0.7363230073452091,2.241558529806087
10,4,1.0,0.7587385926432699,0.0
10,4,0.75,0.7766224298777038,-1.7883837234433875
10,4,0.5,0.7611085728145619,-0.23699801712919744
10,4,0.25,0.7513897201196973,0.7348872523572636
10,4,0.0,0.7443542120961476,1.4384380547122322
10,5,1.0,0.7587385926432699,0.0
10,5,0.75,0.7619308740445331,-0.3192281401263153
10,5,0.5,0.747436988215728,1.1301604427541911
10,5,0.25,0.7200465004376482,3.8692092205621753
10,5,0.0,0.7292238585243173,2.951473411895267
10,6,1.0,0.7587385926432699,0.0
10,6,0.75,0.7711624413576588,-1.242384871438884
10,6,0.5,0.7757983920172384,-1.705979937396851
10,6,0.25,0.7639436234263821,-0.5205030783112186
10,6,0.0,0.7651146619096592,-0.6376069266389228
10,7,1.0,0.7587385926432699,0.0
10,7,0.75,0.7949595498508542,-3.6220957207584226
10,7,0.5,0.7813344991175661,-2.2595906474296212
10,7,0.25,0.7534100596760444,0.5328532967225574
10,7,0.0,0.7529576703489748,0.5780922294295165
10,8,1.0,0.7587385926432699,0.0
10,8,0.75,0.7738701392099451,-1.5131546566675147
10,8,0.5,0.7812345934987445,-2.249600085547454
10,8,0.25,0.7818391725897433,-2.310057994647341
10,8,0.0,0.7663484811400288,-0.7609888496758921
11,0,1.0,0.9407898289042823,0.0
11,0,0.75,0.9474890543561816,-0.6699225451899271
11,0,0.5,0.9444131728778467,-0.36233439735643413
11,0,0.25,0.9417622802994255,-0.09724513951432368
11,0,0.0,0.9360132517429949,0.4776577161287432
11,1,1.0,0.9407898289042823,0.0
11,1,0.75,0.9344218195330598,0.6368009371222505
11,1,0.5,0.9172669067627051,2.352292214157725
11,1,0.25,0.9059472273757988,3.4842601528483508
11,1,0.0,0.9060898379970544,3.4699990907227862
11,2,1.0,0.9407898289042823,0.0
11,2,0.75,0.9528893963111453,-1.209956740686302
11,2,0.5,0.945247321467301,-0.4457492563018639
11,2,0.25,0.9254564040572608,1.5333424847021493
11,2,0.0,0.9224441187765429,1.8345710127739445
11,3,1.0,0.9407898289042823,0.0
11,3,0.75,0.9338934263576077,0.6896402546674563
11,3,0.5,0.9254492288860309,1.5340600018251438
11,3,0.25,0.9223476890756303,1.844213982865206
11,3,0.0,0.9034264062044711,3.736342269981119
11,4,1.0,0.9407898289042823,0.0
11,4,0.75,0.9286724382301123,1.2117390674170059
11,4,0.5,0.9164179733507615,2.437185555352084
11,4,0.25,0.9119241167382242,2.8865712166058155
11,4,0.0,0.9284122797669793,1.2377549137303046
11,5,1.0,0.9407898289042823,0.0
11,5,0.75,0.9311859553948162,0.9603873509466121
11,5,0.5,0.9342822661040325,0.6507562800249778
11,5,0.25,0.9374197792324476,0.33700496718347406
11,5,0.0,0.9472368688204857,-0.6447039916203434
11,6,1.0,0.9407898289042823,0.0
11,6,0.75,0.9506063294883169,-0.9816500584034604
11,6,0.5,0.9506063294883169,-0.9816500584034604
11,6,0.25,0.945131740967257,-0.434191206297474
11,6,0.0,0.945131740967257,-0.434191206297474
11,7,1.0,0.9407898289042823,0.0
11,7,0.75,0.9493652866663226,-0.8575457762040273
11,7,0.5,0.9486471489671382,-0.7857320062855888
11,7,0.25,0.9417068581818693,-0.0917029277586967
11,7,0.0,0.9435612213529956,-0.27713924487132724
11,8,1.0,0.9407898289042823,0.0
11,8,0.75,0.9506063294883169,-0.9816500584034604
11,8,0.5,0.9426925224721598,-0.19026935678775336
11,8,0.25,0.9365949614965501,0.4194867407732228
11,8,0.0,0.9332304430310109,0.7559385873271429
12,0,1.0,0.9320924764890282,0.0
12,0,0.75,0.9262800417972832,0.5812434691744972
12,0,0.5,0.9357589508019307,-0.3666474312902568
12,0,0.25,0.9398372798802599,-0.7744803391231736
12,0,0.0,0.9134081738925972,1.8684302596430946
12,1,1.0,0.9320924764890282,0.0
12,1,0.75,0.9320924764890282,0.0
12,1,0.5,0.937893750585334,-0.580127409630582
12,1,0.25,0.937893750585334,-0.580127409630582
12,1,0.0,0.9305447793318684,0.15476971571597442
12,2,1.0,0.9320924764890282,0.0
12,2,0.75,0.9320924764890282,0.0
12,2,0.5,0.9265779828198402,0.5514493669187992
12,2,0.25,0.9192976026392361,1.2794873849792054
12,2,0.0,0.9062682310121403,2.5824245476887886
12,3,1.0,0.9320924764890282,0.0
12,3,0.75,0.9246715927750411,0.7420883713987081
12,3,0.5,0.9172428350980715,1.484964139095668
12,3,0.25,0.9026545621164296,2.9437914372598573
12,3,0.0,0.8930215252488158,3.9070951240212315
12,4,1.0,0.9320924764890282,0.0
12,4,0.75,0.9151255183546242,1.6966958134403964
12,4,0.5,0.9190295216189076,1.3062954870120547
12,4,0.25,0.9261522619909276,0.594021449810056
12,4,0.0,0.9229253064497652,0.9167170039262929
12,5,1.0,0.9320924764890282,0.0
12,5,0.75,0.9246715927750411,0.7420883713987081
12,5,0.5,0.9200436475013616,1.204882898766657
12,5,0.25,0.9228887496732084,0.9203726815819713
12,5,0.0,0.9127974114547005,1.9295065034327652
12,6,1.0,0.9320924764890282,0.0
12,6,0.75,0.937708986415883,-0.5616509926854807
12,6,0.5,0.9352158001324632,-0.31233236434350387
12,6,0.25,0.9207231915902208,1.1369284898807397
12,6,0.0,0.9168155340471562,1.5276942441871944
12,7,1.0,0.9320924764890282,0.0
12,7,0.75,0.9247308258434963,0.7361650645531848
12,7,0.5,0.9246442435943769,0.7448232894651241
12,7,0.25,0.939597772898819,-0.7505296409790807
12,7,0.0,0.939485511777314,-0.7393035288285832
12,8,1.0,0.9320924764890282,0.0
12,8,0.75,0.937893750585334,-0.580127409630582
12,8,0.5,0.9416563260105918,-0.9563849521563639
12,8,0.25,0.9358423725222197,-0.37498960331915354
12,8,0.0,0.9301774408560085,0.1915035633019646
13,0,1.0,0.9610893729925989,0.0
13,0,0.75,0.9634479691999744,-0.23585962073755518
13,0,0.5,0.9786539304729095,-1.7564557480310605
13,0,0.25,0.9802647260937748,-1.9175353101175907
13,0,0.0,0.9762637020282346,-1.5174329035635759
13,1,1.0,0.9610893729925989,0.0
13,1,0.75,0.9553750590911045,0.571431390149435
13,1,0.5,0.9472769342537377,1.3812438738861177
13,1,0.25,0.9435147996506754,1.7574573341923472
13,1,0.0,0.939425844371398,2.166352862120091
13,2,1.0,0.9610893729925989,0.0
13,2,0.75,0.9634479691999744,-0.23585962073755518
13,2,0.5,0.9594138753106483,0.1675497681950633
13,2,0.25,0.9473929329576705,1.3696440034928425
13,2,0.0,0.9478983535541344,1.3191019438464457
13,3,1.0,0.9610893729925989,0.0
13,3,0.75,0.9553750590911045,0.571431390149435
13,3,0.5,0.9682508941265616,-0.7161521133962734
13,3,0.25,0.972762967081503,-1.1673594088904116
13,3,0.0,0.9643446441265616,-0.3255271133962734
13,4,1.0,0.9610893729925989,0.0
13,4,0.75,0.9554290216868105,0.5660351305788347
13,4,0.5,0.9512085641769183,0.9880808815680542
13,4,0.25,0.9462978322490518,1.479154074354705
13,4,0.0,0.9422590160295079,1.8830356963090988
13,5,1.0,0.9610893729925989,0.0
13,5,0.75,0.9490995153318088,1.1989857660790082
13,5,0.5,0.9467342287342287,1.4355144258370145
13,5,0.25,0.9418083117038865,1.928106128871243
13,5,0.0,0.9369209400885736,2.416843290402526
13,6,1.0,0.9610893729925989,0.0
13,6,0.75,0.9590709196256355,0.20184533669633797
13,6,0.5,0.9550386615611193,0.6050711431479616
13,6,0.25,0.9543861621916461,0.6703210800952819
13,6,0.0,0.9584473188861622,0.26420541064366976
13,7,1.0,0.9610893729925989,0.0
13,7,0.75,0.9590709196256355,0.20184533669633797
13,7,0.5,0.9457948339594917,1.529453903310718
13,7,0.25,0.9478451178451178,1.3244255147481065
13,7,0.0,0.946528654486808,1.4560718505790882
13,8,1.0,0.9610893729925989,0.0
13,8,0.75,0.9634479691999744,-0.23585962073755518
13,8,0.5,0.9567141592430697,0.43752137495292054
13,8,0.25,0.9567141592430697,0.43752137495292054
13,8,0.0,0.9610893729925989,0.0
14,0,1.0,0.8482948469650169,0.0
14,0,0.75,0.8482948469650169,0.0
14,0,0.5,0.8531948344448343,-0.4899987479817458
14,0,0.25,0.8601145144824572,-1.1819667517440346
14,0,0.0,0.8533797506065198,-0.5084903641502936
14,1,1.0,0.8482948469650169,0.0
14,1,0.75,0.8432234353548717,0.5071411610145238
14,1,0.5,0.849356236416372,-0.10613894513551436
14,1,0.25,0.8474934918463377,0.08013551186791812
14,1,0.0,0.8554143230770784,-0.711947611206154
14,2,1.0,0.8482948469650169,0.0
14,2,0.75,0.8557417050972018,-0.744685813218493
14,2,0.5,0.8597186096660886,-1.1423762701071705
14,2,0.25,0.8705916753089494,-2.229682834393254
14,2,0.0,0.861486771149309,-1.3191924184292159
14,3,1.0,0.8482948469650169,0.0
14,3,0.75,0.8412036821198676,0.7091164845149267
14,3,0.5,0.8225457338360563,2.5749113128960555
14,3,0.25,0.8140798978042516,3.4214949160765284
14,3,0.0,0.775756318022505,7.253852894251189
14,4,1.0,0.8482948469650169,0.0
14,4,0.75,0.8606534358868824,-1.2358588921865477
14,4,0.5,0.8615609858785528,-1.3266138913535896
14,4,0.25,0.8579904812507017,-0.9695634285684762
14,4,0.0,0.8468339298420625,0.1460917122954375
14,5,1.0,0.8482948469650169,0.0
14,5,0.75,0.8505901352687724,-0.22952883037554717
14,5,0.5,0.8613709564706242,-1.3076109505607336
14,5,0.25,0.8649561692249056,-1.66613222598887
14,5,0.0,0.8619344540503135,-1.3639607085296657
14,6,1.0,0.8482948469650169,0.0
14,6,0.75,0.8482948469650169,0.0
14,6,0.5,0.8481585658087636,0.013628115625330395
14,6,0.25,0.8436325184614047,0.46623285036121453
14,6,0.0,0.8439540154783524,0.43408314866645314
14,7,1.0,0.8482948469650169,0.0
14,7,0.75,0.8387700461787626,0.9524800786254284
14,7,0.5,0.8164435057049262,3.1851341260090704
14,7,0.25,0.8160388195335408,3.225602743147604
14,7,0.0,0.8399191311496076,0.8375715815409301
14,8,1.0,0.8482948469650169,0.0
14,8,0.75,0.8594104994523418,-1.1115652487324934
14,8,0.5,0.8471187469727901,0.11760999922267867
14,8,0.25,0.8313904712831937,1.6904375681823236
14,8,0.0,0.8074913751001191,4.0803471864897745
15,0,1.0,0.9506970808997037,0.0
15,0,0.75,0.9482096981550328,0.2487382744670974
15,0,0.5,0.94566476837008,0.5032312529623773
15,0,0.25,0.94566476837008,0.5032312529623773
15,0,0.0,0.9507097603482351,-0.0012679448531338622
15,1,1.0,0.9506970808997037,0.0
15,1,0.75,0.9536732067502044,-0.2976125850500666
15,1,0.5,0.9547084767451219,-0.40113958454182086
15,1,0.25,0.9514349261260268,-0.07378452263230306
15,1,0.0,0.9503937811031042,0.03032997965994877
15,2,1.0,0.9506970808997037,0.0
15,2,0.75,0.9460914228732382,0.4605658026465509
15,2,0.5,0.9435671048722519,0.7129976027451801
15,2,0.25,0.9435671048722519,0.7129976027451801
15,2,0.0,0.9336113777703576,1.7085703129346097
15,3,1.0,0.9506970808997037,0.0
15,3,0.75,0.9433856789293128,0.7311401970390929
15,3,0.5,0.9397136176271514,1.0983463272552285
15,3,0.25,0.935772164343593,1.4924916556110723
15,3,0.0,0.9307012809797464,1.9995799919957369
15,4,1.0,0.9506970808997037,0.0
15,4,0.75,0.9445061649657043,0.6190915933999452
15,4,0.5,0.9355796618730413,1.5117419026662415
15,4,0.25,0.932506473939919,1.8190606959784694
15,4,0.0,0.9302033177870198,2.0493763112683916
15,5,1.0,0.9506970808997037,0.0
15,5,0.75,0.9498169036127637,0.08801772869400093
15,5,0.5,0.9287265258215962,2.1970555078107523
15,5,0.25,0.9109516410002679,3.9745439899435797
15,5,0.0,0.9537756120639305,-0.3078531164226739
15,6,1.0,0.9506970808997037,0.0
15,6,0.75,0.9539805547420773,-0.32834738423735965
15,6,0.5,0.9609623438981176,-1.0265262998413904
15,6,0.25,0.9609623438981176,-1.0265262998413904
15,6,0.0,0.9512338054880072,-0.05367245883034499
15,7,1.0,0.9506970808997037,0.0
15,7,0.75,0.9506970808997037,0.0
15,7,0.5,0.9359477267857028,1.4749354114000912
15,7,0.25,0.9069985785376674,4.369850236203632
15,7,0.0,0.9192382329338317,3.145884796587206
15,8,1.0,0.9506970808997037,0.0
15,8,0.75,0.9599606731530427,-0.9263592253338948
15,8,0.5,0.9736687888611515,-2.2971707961447763
15,8,0.25,0.9733044733044733,-2.260739240476961
15,8,0.0,0.9727140850389722,-2.2017004139268437
16,0,1.0,0.8650595274045867,0.0
16,0,0.75,0.873724273978668,-0.8664746574081339
16,0,0.5,0.8785805195003822,-1.3520992095795492
16,0,0.25,0.8839210014253791,-1.8861474020792413
16,0,0.0,0.8898872742188301,-2.482774681424338
16,1,1.0,0.8650595274045867,0.0
16,1,0.75,0.8607274934943925,0.43320339101942107
16,1,0.5,0.8655266216411728,-0.04670942365860853
16,1,0.25,0.8632484322366757,0.18110951679110032
16,1,0.0,0.86830275867958,-0.32432312749932635
16,2,1.0,0.8650595274045867,0.0
16,2,0.75,0.8741364978779166,-0.9076970473329893
16,2,0.5,0.8790434229148383,-1.3983895510251587
16,2,0.25,0.8741616483208601,-0.9102120916273382
16,2,0.0,0.8791006657825085,-1.4041138377921758
16,3,1.0,0.8650595274045867,0.0
16,3,0.75,0.870032403053131,-0.4972875648544317
16,3,0.5,0.8690283473574331,-0.39688199528463697
16,3,0.25,0.8720894831508934,-0.7029955746306715
16,3,0.0,0.872618314402952,-0.7558786998365319
16,4,1.0,0.8650595274045867,0.0
16,4,0.75,0.861416994848247,0.3642532556339728
16,4,0.5,0.8721972613701837,-0.7137733965597026
16,4,0.25,0.8692517706356908,-0.419224323110412
16,4,0.0,0.8728833327265652,-0.7823805321978461
16,5,1.0,0.8650595274045867,0.0
16,5,0.75,0.8650595274045867,0.0
16,5,0.5,0.8466290768899061,1.8430450514680619
16,5,0.25,0.84161103189007,2.3448495514516665
16,5,0.0,0.8445559858284131,2.0503541576173623
16,6,1.0,0.8650595274045867,0.0
16,6,0.75,0.8697886717909602,-0.4729144386373507
16,6,0.5,0.8791006657825085,-1.4041138377921758
16,6,0.25,0.8771598591680363,-1.21003317634496
16,6,0.0,0.8925971380089917,-2.753761060440496
16,7,1.0,0.8650595274045867,0.0
16,7,0.75,0.8686271088376694,-0.3567581433082667
16,7,0.5,0.8543643190260682,1.069520837851845
16,7,0.25,0.8343449561761663,3.071457122842036
16,7,0.0,0.8502444309149442,1.481509648964252
16,8,1.0,0.8650595274045867,0.0
16,8,0.75,0.8686954065802723,-0.3635879175685641
16,8,0.5,0.8708740998865764,-0.5814572481989688
16,8,0.25,0.8679251343009964,-0.2865606896409689
16,8,0.0,0.847763102154442,1.7296425250144742
17,0,1.0,0.8466486434027549,0.0
17,0,0.75,0.8465095057982156,0.01391376045393189
17,0,0.5,0.8488941279097302,-0.22454845069752594
17,0,0.25,0.8583584494601444,-1.1709806057389471
17,0,0.0,0.8844846265267806,-3.7835983124025696
17,1,1.0,0.8466486434027549,0.0
17,1,0.75,0.8480579733699651,-0.14093299672102155
17,1,0.5,0.8500646859885361,-0.34160425857812093
17,1,0.25,0.8447479564522845,0.19006869504704094
17,1,0.0,0.8395553683508543,0.7093275051900605
17,2,1.0,0.8466486434027549,0.0
17,2,0.75,0.8517784320001018,-0.5129788597346918
17,2,0.5,0.8476468095108223,-0.09981661080673554
17,2,0.25,0.8437639921387678,0.28846512639870703
17,2,0.0,0.8259894409190184,2.065920248373654
17,3,1.0,0.8466486434027549,0.0
17,3,0.75,0.8423089977561262,0.4339645646628698
17,3,0.5,0.8423089977561262,0.4339645646628698
17,3,0.25,0.8280771103154648,1.8571533087290093
17,3,0.0,0.8107751449349937,3.5873498467761222
17,4,1.0,0.8466486434027549,0.0
17,4,0.75,0.8417777625056614,0.48708808970935324
17,4,0.5,0.8340090363588638,1.263960704389111
17,4,0.25,0.8186821350738337,2.7966508328921225
17,4,0.0,0.8202518819305863,2.639676147216863
17,5,1.0,0.8466486434027549,0.0
17,5,0.75,0.8382316632148813,0.8416980187873624
17,5,0.5,0.8269056889819603,1.9742954420794656
17,5,0.25,0.8131947706933537,3.3453872709401256
17,5,0.0,0.8029944273524612,4.365421605029374
17,6,1.0,0.8466486434027549,0.0
17,6,0.75,0.8529358293854641,-0.6287185982709165
17,6,0.5,0.8494315869754465,-0.27829435726915985
17,6,0.25,0.8650139352141089,-1.8365291811353934
17,6,0.0,0.8735277280105527,-2.6879084607797754
17,7,1.0,0.8466486434027549,0.0
17,7,0.75,0.8517775486813192,-0.5128905278564244
17,7,0.5,0.8724032823716368,-2.575463896888186
17,7,0.25,0.8776672486830264,-3.101860528027145
17,7,0.0,0.8667381409592484,-2.0089497556493474
17,8,1.0,0.8466486434027549,0.0
17,8,0.75,0.8659810851450572,-1.9332441742302309
17,8,0.5,0.8718226901877518,-2.5174046784996906
17,8,0.25,0.8567114038276455,-1.0062760424890627
17,8,0.0,0.8357301842320922,1.0918459170662698
18,0,1.0,0.9027301911571575,0.0
18,0,0.75,0.8984271208714851,0.4303070285672339
18,0,0.5,0.8984271208714851,0.4303070285672339
18,0,0.25,0.8997326377812309,0.2997553375926554
18,0,0.0,0.8973164006029368,0.5413790554220643
18,1,1.0,0.9027301911571575,0.0
18,1,0.75,0.9079544837727545,-0.5224292615596982
18,1,0.5,0.9180774557013817,-1.5347264544224193
18,1,0.25,0.906756260556657,-0.40260693994995655
18,1,0.0,0.9072485861479934,-0.451839499083595
18,2,1.0,0.9027301911571575,0.0
18,2,0.75,0.8979185004918967,0.48116906652607705
18,2,0.5,0.8978108562014435,0.491933495571395
18,2,0.25,0.9083829478971984,-0.5652756740040954
18,2,0.0,0.8994584577091994,0.32717334479580584
18,3,1.0,0.9027301911571575,0.0
18,3,0.75,0.8869959970029453,1.5734194154212178
18,3,0.5,0.8882683416217638,1.4461849535393645
18,3,0.25,0.843984386022382,5.874580513477545
18,3,0.0,0.8414656893988527,6.1264501758304775
18,4,1.0,0.9027301911571575,0.0
18,4,0.75,0.9064542732782921,-0.372408212113462
18,4,0.5,0.9019507585564128,0.0779432600744645
18,4,0.25,0.9095340353741956,-0.6803844217038169
18,4,0.0,0.8754883375399128,2.7241853617244627
18,5,1.0,0.9027301911571575,0.0
18,5,0.75,0.8978806057774174,0.4849585379740118
18,5,0.5,0.9143810601163542,-1.1650868959196758
18,5,0.25,0.9129304117367587,-1.0200220579601238
18,5,0.0,0.9037113437328954,-0.09811525757379425
18,6,1.0,0.9027301911571575,0.0
18,6,0.75,0.8979291255309972,0.4801065626160228
18,6,0.5,0.9079772791264942,-0.5247087969336706
18,6,0.25,0.9031921718009737,-0.04619806438161955
18,6,0.0,0.90797988356212,-0.5249692404962536
18,7,1.0,0.9027301911571575,0.0
18,7,0.75,0.8682191830397821,3.4511008117375397
18,7,0.5,0.8656714863914763,3.7058704765681183
18,7,0.25,0.8752584601188205,2.7471731038337
18,7,0.0,0.8533386777131045,4.9391513444053015
18,8,1.0,0.9027301911571575,0.0
18,8,0.75,0.8979463711579989,0.4783819999158556
18,8,0.5,0.8985058606238614,0.42243305332960723
18,8,0.25,0.9131713813682187,-1.0441190211061269
18,8,0.0,0.9064334339063231,-0.37032427491656694
19,0,1.0,0.9279597367402246,0.0
19,0,0.75,0.9080930359925129,1.9866700747711685
19,0,0.5,0.9018943987025948,2.606533803762978
19,0,0.25,0.9063527192860301,2.1607017454194466
19,0,0.0,0.9018943987025948,2.606533803762978
19,1,1.0,0.9279597367402246,0.0
19,1,0.75,0.9184144445962804,0.9545292143944173
19,1,0.5,0.9136991281666782,1.4260608573546385
19,1,0.25,0.9090360641921331,1.8923672548091464
19,1,0.0,0.9024554715192576,2.5504265220966937
19,2,1.0,0.9279597367402246,0.0
19,2,0.75,0.9240271377368152,0.3932599003409365
19,2,0.5,0.92021938086952,0.7740355870704541
19,2,0.25,0.9206159964168495,0.7343740323375036
19,2,0.0,0.9137018058859648,1.4257930854259748
19,3,1.0,0.9279597367402246,0.0
19,3,0.75,0.9204637057920212,0.7496030948203392
19,3,0.5,0.9124252243870625,1.5534512353162055
19,3,0.25,0.9016819000681234,2.627783667210115
19,3,0.0,0.8924996946062749,3.546004213394971
19,4,1.0,0.9279597367402246,0.0
19,4,0.75,0.9335403122942856,-0.5580575554060996
19,4,0.5,0.9271370521794203,0.08226845608042543
19,4,0.25,0.9346424650292777,-0.6682728289053141
19,4,0.0,0.911758278315813,1.6201458424411563
19,5,1.0,0.9279597367402246,0.0
19,5,0.75,0.9335403122942856,-0.5580575554060996
19,5,0.5,0.9427610680598728,-1.4801331319648225
19,5,0.25,0.9336864440469091,-0.5726707306684564
19,5,0.0,0.9378040467404181,-0.9844310000193479
19,6,1.0,0.9279597367402246,0.0
19,6,0.75,0.9291007626495214,-0.11410259092967667
19,6,0.5,0.9342795300718539,-0.6319793331629353
19,6,0.25,0.9394331344723251,-1.1473397732100543
19,6,0.0,0.9436392145791123,-1.5679477838887679
19,7,1.0,0.9279597367402246,0.0
19,7,0.75,0.9140674260234554,1.3892310716769218
19,7,0.5,0.9019788569133436,2.598087982688102
19,7,0.25,0.9153120330881039,1.2647703652120645
19,7,0.0,0.8980989761527328,2.9860760587491764
19,8,1.0,0.9279597367402246,0.0
19,8,0.75,0.9255171360736778,0.24426006665467792
19,8,0.5,0.9171987885135435,1.0760948226681055
19,8,0.25,0.9038347737212745,2.4124963018950063
19,8,0.0,0.8984489784400935,2.9510758300131057
20,0,1.0,0.8395870258773485,0.0
20,0,0.75,0.8528907813700667,-1.3303755492718228
20,0,0.5,0.8399594039776167,-0.03723781002682447
20,0,0.25,0.8526600947743674,-1.307306889701898
20,0,0.0,0.8393849206349207,0.020210524242780803
20,1,1.0,0.8395870258773485,0.0
20,1,0.75,0.83680881760988,0.27782082674684405
20,1,0.5,0.8251309901433164,1.445603573403209
20,1,0.25,0.8328839449448844,0.6703080932464078
20,1,0.0,0.8534355710321395,-1.3848545154791059
20,2,1.0,0.8395870258773485,0.0
20,2,0.75,0.8499304163929643,-1.0343390515615836
20,2,0.5,0.8443496638604037,-0.4762637983055207
20,2,0.25,0.8195196032106709,2.0067422666677603
20,2,0.0,0.7977865219433947,4.180050393395374
20,3,1.0,0.8395870258773485,0.0
20,3,0.75,0.8493827914663469,-0.9795765588998417
20,3,0.5,0.8543691117664495,-1.4782085889101015
20,3,0.25,0.8439599476516455,-0.4372921774297045
20,3,0.0,0.8472472828996311,-0.7660257022282679
20,4,1.0,0.8395870258773485,0.0
20,4,0.75,0.854527959091754,-1.4940933214405594
20,4,0.5,0.858473973489897,-1.88869476125485
20,4,0.25,0.8720147212339662,-3.2427695356617714
20,4,0.0,0.8899736673291654,-5.038664145181693
20,5,1.0,0.8395870258773485,0.0
20,5,0.75,0.8415685192000981,-0.19814933227496612
20,5,0.5,0.8239034447525909,1.568358112475754
20,5,0.25,0.8238814443301827,1.5705581547165726
20,5,0.0,0.8302050348807906,0.9381990996557898
20,6,1.0,0.8395870258773485,0.0
20,6,0.75,0.8513518869773771,-1.1764861100028612
20,6,0.5,0.8506704814549899,-1.1083455577641455
20,6,0.25,0.8662670077065254,-2.667998182917697
20,6,0.0,0.8440088695794141,-0.4421843702065664
20,7,1.0,0.8395870258773485,0.0
20,7,0.75,0.8372060734963961,0.23809523809523725
20,7,0.5,0.8339288178926337,0.5658207984714725
20,7,0.25,0.8290103948916864,1.0576630985662083
20,7,0.0,0.8357570627989588,0.38299630783896754
20,8,1.0,0.8395870258773485,0.0
20,8,0.75,0.836081566759453,0.35054591178954597
20,8,0.5,0.8396049784178254,-0.0017952540476984247
20,8,0.25,0.8471199644131975,-0.7532938535849021
20,8,0.0,0.803926282051282,3.5660743826066432
21,0,1.0,0.8995950707612622,0.0
21,0,0.75,0.8904425201758698,0.9152550585392438
21,0,0.5,0.8783450012968383,2.125006946442387
21,0,0.25,0.8555890353473037,4.400603541395853
21,0,0.0,0.8531309319173113,4.646413884395095
21,1,1.0,0.8995950707612622,0.0
21,1,0.75,0.8953658870685749,0.42291836926873216
21,1,0.5,0.9025303384918892,-0.29352677306270225
21,1,0.25,0.8989558551463952,0.0639215614867017
21,1,0.0,0.8872754091679087,1.2319661593353515
21,2,1.0,0.8995950707612622,0.0
21,2,0.75,0.8995950707612622,0.0
21,2,0.5,0.9065943986500093,-0.6999327888747131
21,2,0.25,0.8979890880294401,0.16059827318221087
21,2,0.0,0.8895055358445302,1.0089534916732035
21,3,1.0,0.8995950707612622,0.0
21,3,0.75,0.8999057315738895,-0.031066081262731693
21,3,0.5,0.8940575161180863,0.5537554643175957
21,3,0.25,0.8811085089773615,1.8486561783900735
21,3,0.0,0.8769418423106947,2.2653228450567497
21,4,1.0,0.8995950707612622,0.0
21,4,0.75,0.8979058801365977,0.16891906246645494
21,4,0.5,0.8933099044099927,0.6285166351269522
21,4,0.25,0.8851561280249804,1.4438942736281768
21,4,0.0,0.8737177757793765,2.5877294981885735
21,5,1.0,0.8995950707612622,0.0
21,5,0.75,0.8999215360733408,-0.03264653120785832
21,5,0.5,0.900018622520071,-0.04235517588088156
21,5,0.25,0.9113449589088221,-1.174988814755984
21,5,0.0,0.9026720076871232,-0.30769369258609736
21,6,1.0,0.8995950707612622,0.0
21,6,0.75,0.9112729655763536,-1.1677894815091405
21,6,0.5,0.904449439693301,-0.4854368932038833
21,6,0.25,0.904449439693301,-0.4854368932038833
21,6,0.0,0.9088678807384915,-0.9272809977229235
21,7,1.0,0.8995950707612622,0.0
21,7,0.75,0.8995950707612622,0.0
21,7,0.5,0.87980536698257,1.978970377869227
21,7,0.25,0.8716887825462495,2.790628821501273
21,7,0.0,0.8793727106227107,2.02223601385515
21,8,1.0,0.8995950707612622,0.0
21,8,0.75,0.8858252013011251,1.376986946013714
21,8,0.5,0.8855049065165446,1.4090164244717651
21,8,0.25,0.8765818799306704,2.3013190830591834
21,8,0.0,0.8510565755144359,4.85384952468263
22,0,1.0,0.8131535665659111,0.0
22,0,0.75,0.8263541957960122,-1.3200629230101124
22,0,0.5,0.8148722217438311,-0.17186551779200254
22,0,0.25,0.8175187045413105,-0.43651379753993913
22,0,0.0,0.8061627396993251,0.6990826866586031
22,1,1.0,0.8131535665659111,0.0
22,1,0.75,0.8215260929546644,-0.8372526388753299
22,1,0.5,0.8280003235837614,-1.484675701785032
22,1,0.25,0.8318914522330673,-1.8737885667156173
22,1,0.0,0.8470136874099069,-3.386012084399581
22,2,1.0,0.8131535665659111,0.0
22,2,0.75,0.8167394036474271,-0.35858370815160523
22,2,0.5,0.8128193728399792,0.03341937259319083
22,2,0.25,0.8171374454590653,-0.39838788931542135
22,2,0.0,0.8147561258233873,-0.16025592574762104
22,3,1.0,0.8131535665659111,0.0
22,3,0.75,0.8027676597466898,1.0385906819221247
22,3,0.5,0.7852558414670217,2.7897725098889437
22,3,0.25,0.7820707120771305,3.1082854488780565
22,3,0.0,0.7685951147166828,4.455845184922824
22,4,1.0,0.8131535665659111,0.0
22,4,0.75,0.8028969785842042,1.0256587981706922
22,4,0.5,0.7896177131139537,2.353585345195741
22,4,0.25,0.7804282294031182,3.272533716279291
22,4,0.0,0.7772040744643485,3.594949210156262
22,5,1.0,0.8131535665659111,0.0
22,5,0.75,0.7880916684514886,2.50618981144225
22,5,0.5,0.776871260311158,3.628230625475304
22,5,0.25,0.7708619919941412,4.22915745717699
22,5,0.0,0.7643451262878094,4.880844027810172
22,6,1.0,0.8131535665659111,0.0
22,6,0.75,0.8142286108249676,-0.1075044259056468
22,6,0.5,0.821842250413679,-0.8688683847767886
22,6,0.25,0.8119327546322913,0.12208119336197809
22,6,0.0,0.7995164089828833,1.3637157583027748
22,7,1.0,0.8131535665659111,0.0
22,7,0.75,0.7929780138191065,2.0175552746804604
22,7,0.5,0.7926702212416498,2.0483345324261326
22,7,0.25,0.7775961160561423,3.5557450509768773
22,7,0.0,0.7686505767368301,4.450298982908096
22,8,1.0,0.8131535665659111,0.0
22,8,0.75,0.8209626939013325,-0.7809127335421384
22,8,0.5,0.8065009853042308,0.6652581261680335
22,8,0.25,0.8090583112780672,0.4095255287843935
22,8,0.0,0.7949481706944392,1.8205395871471852
23,0,1.0,0.8015454340616628,0.0
23,0,0.75,0.8250457727061956,-2.3500338644532826
23,0,0.5,0.7993863696799532,0.21590643817095412
23,0,0.25,0.7973734523307848,0.41719817308779605
23,0,0.0,0.7885220925824775,1.3023341479185269
23,1,1.0,0.8015454340616628,0.0
23,1,0.75,0.8099037547051704,-0.8358320643507611
23,1,0.5,0.8250021825983891,-2.34567485367263
23,1,0.25,0.8280387050847965,-2.64932710231337
23,1,0.0,0.8308364250474299,-2.929099098576715
23,2,1.0,0.8015454340616628,0.0
23,2,0.75,0.8116465160624362,-1.010108200077342
23,2,0.5,0.8107888683684328,-0.9243434306769993
23,2,0.25,0.8033825603435111,-0.18371262818482892
23,2,0.0,0.7979674278027282,0.3578006258934563
23,3,1.0,0.8015454340616628,0.0
23,3,0.75,0.8246806393748594,-2.313520531319657
23,3,0.5,0.8173280367942126,-1.5782602732549833
23,3,0.25,0.7979527270033271,0.3592707058335698
23,3,0.0,0.7631397162584721,3.8405717803190687
23,4,1.0,0.8015454340616628,0.0
23,4,0.75,0.8056790167816219,-0.4133582719959117
23,4,0.5,0.8049813748133803,-0.3435940751717492
23,4,0.25,0.7778780015550526,2.3667432506610186
23,4,0.0,0.7614902345474319,4.005519951423087
23,5,1.0,0.8015454340616628,0.0
23,5,0.75,0.8167683998183083,-1.5222965756645501
23,5,0.5,0.8140715867965769,-1.2526152734914087
23,5,0.25,0.8097696491099542,-0.8224215048291406
23,5,0.0,0.8173005507645588,-1.5755116702895977
23,6,1.0,0.8015454340616628,0.0
23,6,0.75,0.805768052504052,-0.42226184423892477
23,6,0.5,0.8001741959415611,0.13712381201016477
23,6,0.25,0.8006433314988752,0.09021025627875545
23,6,0.0,0.8024782626817706,-0.09328286201077951
23,7,1.0,0.8015454340616628,0.0
23,7,0.75,0.8018350070099883,-0.028957294832554492
23,7,0.5,0.7875852154750901,1.3960218586572704
23,7,0.25,0.7874436433242532,1.410179073740958
23,7,0.0,0.7694869161936786,3.2058517867984193
23,8,1.0,0.8015454340616628,0.0
23,8,0.75,0.806983376855468,-0.5437942793805162
23,8,0.5,0.800951572592258,0.059386146940476614
23,8,0.25,0.8110112889376857,-0.9465854876022917
23,8,0.0,0.7918185840808071,0.9726849980855712
24,0,1.0,0.7527829559155865,0.0
24,0,0.75,0.7600201666032267,-0.7237210687640161
24,0,0.5,0.7620565943818853,-0.9273638466298806
24,0,0.25,0.7641177841591877,-1.1334828243601214
24,0,0.0,0.7611024541561593,-0.8319498240572765
24,1,1.0,0.7527829559155865,0.0
24,1,0.75,0.7421049575157406,1.0677998399845956
24,1,0.5,0.7571394538375671,-0.4356497921980562
24,1,0.25,0.764444081611472,-1.166112569588551
24,1,0.0,0.7482338904700738,0.4549065445512701
24,2,1.0,0.7527829559155865,0.0
24,2,0.75,0.7411918461661653,1.1591109749421236
24,2,0.5,0.7387501084868366,1.4032847428749884
24,2,0.25,0.7507765638539874,0.20063920615991382
24,2,0.0,0.7430654702254493,0.9717485690137195
24,3,1.0,0.7527829559155865,0.0
24,3,0.75,0.7802488811616601,-2.746592524607361
24,3,0.5,0.8281959305672806,-7.541297465169405
24,3,0.25,0.8198360434670233,-6.70530875514368
24,3,0.0,0.8126930894712093,-5.991013355562281
24,4,1.0,0.7527829559155865,0.0
24,4,0.75,0.7341677842104689,1.8615171705117617
24,4,0.5,0.7397883505816782,1.2994605333908282
24,4,0.25,0.7273784756261391,2.5404480289447418
24,4,0.0,0.7230897009966777,2.969325491890884
24,5,1.0,0.7527829559155865,0.0
24,5,0.75,0.7330469490614842,1.9736006854102373
24,5,0.5,0.7307261003644518,2.205685555113468
24,5,0.25,0.709039610942808,4.374334497277854
24,5,0.0,0.7124763813253834,4.030657459020315
24,6,1.0,0.7527829559155865,0.0
24,6,0.75,0.7496874511642444,0.30955047513421263
24,6,0.5,0.7536896078882439,-0.09066519726573796
24,6,0.25,0.7613994350542764,-0.8616479138689903
24,6,0.0,0.7813200485434306,-2.8537092627844096
24,7,1.0,0.7527829559155865,0.0
24,7,0.75,0.774309340499983,-2.1526384584396485
24,7,0.5,0.781809269517235,-2.9026313601648424
24,7,0.25,0.7632573273095631,-1.0474371393976556
24,7,0.0,0.7282183200449455,2.456463587064106
24,8,1.0,0.7527829559155865,0.0
24,8,0.75,0.7399125083076139,1.2870447607972624
24,8,0.5,0.751659296462982,0.11236594526045085
24,8,0.25,0.738704227589264,1.407872832632251
24,8,0.0,0.7298761247380747,2.29068311775118
25,0,1.0,0.8926509171474011,0.0
25,0,0.75,0.89442920341892,-0.17782862715188807
25,0,0.5,0.8840371802371203,0.8613736910280778
25,0,0.25,0.8974607482304967,-0.4809831083095628
25,0,0.0,0.903414071539365,-1.0763154391963958
25,1,1.0,0.8926509171474011,0.0
25,1,0.75,0.9014289916707849,-0.8778074523383861
25,1,0.5,0.9021599896169267,-0.9509072469525592
25,1,0.25,0.8952671767109599,-0.26162595635588204
25,1,0.0,0.9117069530185782,-1.9056035871177102
25,2,1.0,0.8926509171474011,0.0
25,2,0.75,0.8926509171474011,0.0
25,2,0.5,0.8948426393245232,-0.21917221771221573
25,2,0.25,0.8982587941002176,-0.5607876952816504
25,2,0.0,0.8982587941002176,-0.5607876952816504
25,3,1.0,0.8926509171474011,0.0
25,3,0.75,0.8993715631095756,-0.6720645962174476
25,3,0.5,0.9080928355874478,-1.544191844004672
25,3,0.25,0.9240279704063992,-3.137705325899809
25,3,0.0,0.9199394855583187,-2.7288568410917646
25,4,1.0,0.8926509171474011,0.0
25,4,0.75,0.8854887796859354,0.7162137461465656
25,4,0.5,0.885018371210528,0.7632545936873125
25,4,0.25,0.8806793537193667,1.1971563428034404
25,4,0.0,0.8725773967509861,2.0073520396414968
25,5,1.0,0.8926509171474011,0.0
25,5,0.75,0.8924218304710034,0.022908667639764957
25,5,0.5,0.8835650540027733,0.9085863144627782
25,5,0.25,0.8804505484333781,1.2200368714022969
25,5,0.0,0.8879458460578005,0.470507108960061
25,6,1.0,0.8926509171474011,0.0
25,6,0.75,0.9007483088561042,-0.8097391708703161
25,6,0.5,0.9360986461772987,-4.3447729029897575
25,6,0.25,0.9384783479827419,-4.58274308353408
25,6,0.0,0.9384783479827419,-4.58274308353408
25,7,1.0,0.8926509171474011,0.0
25,7,0.75,0.8904887796859353,0.2162137461465763
25,7,0.5,0.8896310853481575,0.30198317992435886
25,7,0.25,0.8946310853481575,-0.1980168200756416
25,7,0.0,0.897550839964633,-0.489992281723195
25,8,1.0,0.8926509171474011,0.0
25,8,0.75,0.9065003614113534,-1.3849444263952293
25,8,0.5,0.9201031247978086,-2.7452207650407567
25,8,0.25,0.9285721434433378,-3.592122629593675
25,8,0.0,0.9417819708583113,-4.91310537109102
26,0,1.0,0.7406416779430551,0.0
26,0,0.75,0.7561048102125153,-1.5463132269460167
26,0,0.5,0.7657545159606832,-2.511283801762809
26,0,0.25,0.7592118688795827,-1.8570190936527564
26,0,0.0,0.7524929222545331,-1.1851244311477993
26,1,1.0,0.7406416779430551,0.0
26,1,0.75,0.7619388867649349,-2.12972088218798
26,1,0.5,0.769127432517263,-2.8485754574207878
26,1,0.25,0.7683000357900658,-2.765835784701065
26,1,0.0,0.7731098807649858,-3.2468202821930636
26,2,1.0,0.7406416779430551,0.0
26,2,0.75,0.7354221834915122,0.5219494451542905
26,2,0.5,0.7350263424319683,0.5615335511086839
26,2,0.25,0.7126404111888911,2.8001266754164034
26,2,0.0,0.7138826478078885,2.6759030135166673
26,3,1.0,0.7406416779430551,0.0
26,3,0.75,0.7330463401164222,0.7595337826632909
26,3,0.5,0.7422146160729967,-0.15729381299415257
26,3,0.25,0.7419455520722846,-0.13038741292294986
26,3,0.0,0.7387981179019294,0.18435600411257358
26,4,1.0,0.7406416779430551,0.0
26,4,0.75,0.752753540956858,-1.2111863013802848
26,4,0.5,0.7400727361928531,0.05689417502020566
26,4,0.25,0.726419429800222,1.4222248142833127
26,4,0.0,0.7193465277971136,2.129515014594152
26,5,1.0,0.7406416779430551,0.0
26,5,0.75,0.7411704758086073,-0.052879786555215524
26,5,0.5,0.736702733533742,0.3938944409313083
26,5,0.25,0.7434669500262587,-0.28252720832036005
26,5,0.0,0.7407958593334736,-0.01541813904184508
26,6,1.0,0.7406416779430551,0.0
26,6,0.75,0.7557458864855028,-1.510420854244765
26,6,0.5,0.7576142468045426,-1.6972568861487458
26,6,0.25,0.7521543848537248,-1.1512706910669634
26,6,0.0,0.7513683624068944,-1.0726684463839287
26,7,1.0,0.7406416779430551,0.0
26,7,0.75,0.75233323581328,-1.1691557870224911
26,7,0.5,0.7484027169458727,-0.7761039002817549
26,7,0.25,0.7430897544147483,-0.24480764716932057
26,7,0.0,0.7374797374474394,0.31619404956156894
26,8,1.0,0.7406416779430551,0.0
26,8,0.75,0.7568087859274346,-1.616710798437948
26,8,0.5,0.7586337338673786,-1.7992055924323513
26,8,0.25,0.7454702642321107,-0.4828586289055581
26,8,0.0,0.7346116602995765,0.6030017643478658
27,0,1.0,0.8920314840355327,0.0
27,0,0.75,0.9023426008442077,-1.0311116808675025
27,0,0.5,0.8974577060673903,-0.5426222031857608
27,0,0.25,0.9081683651343422,-1.6136881098809508
27,0,0.0,0.8981872552592156,-0.6155771223682938
27,1,1.0,0.8920314840355327,0.0
27,1,0.75,0.8907967196523189,0.12347643832137933
27,1,0.5,0.8875682521812553,0.44632318542773275
27,1,0.25,0.8857496529787594,0.6281831056773268
27,1,0.0,0.8908516937950861,0.11797902404465654
27,2,1.0,0.8920314840355327,0.0
27,2,0.75,0.8897037964121819,0.23276876233507826
27,2,0.5,0.8895077179808093,0.25237660547233753
27,2,0.25,0.8690535929345644,2.297789110096826
27,2,0.0,0.8685973207249803,2.343416331055237
27,3,1.0,0.8920314840355327,0.0
27,3,0.75,0.8807151193870292,1.1316364648503496
27,3,0.5,0.8806865751160355,1.1344908919497132
27,3,0.25,0.8857656244375343,0.6265859597998413
27,3,0.0,0.8773830949702716,1.4648389065261114
27,4,1.0,0.8920314840355327,0.0
27,4,0.75,0.8970914923036255,-0.506000826809283
27,4,0.5,0.8835760099990276,0.845547403650504
27,4,0.25,0.8808512810043891,1.1180203031143532
27,4,0.0,0.8823661120817848,0.9665371953747837
27,5,1.0,0.8920314840355327,0.0
27,5,0.75,0.8970914923036255,-0.506000826809283
27,5,0.5,0.8966791743233009,-0.4647690287768236
27,5,0.25,0.8890661299631163,0.2965354072416382
27,5,0.0,0.8832037768994291,0.8827707136103591
27,6,1.0,0.8920314840355327,0.0
27,6,0.75,0.8926127759750588,-0.05812919395261629
27,6,0.5,0.887639617344782,0.43918666907506454
27,6,0.25,0.8878050836673665,0.4226400368166128
27,6,0.0,0.908197787264525,-1.6166303228992374
27,7,1.0,0.8920314840355327,0.0
27,7,0.75,0.9011957504460865,-0.916426641055379
27,7,0.5,0.9059684198670026,-1.3936935831469932
27,7,0.25,0.9034849630270269,-1.1453478991494181
27,7,0.0,0.9086341148301057,-1.6602630794573026
27,8,1.0,0.8920314840355327,0.0
27,8,0.75,0.8859886959643748,0.6042788071157879
27,8,0.5,0.8859886959643748,0.6042788071157879
27,8,0.25,0.8910483316693224,0.09831523662102715
27,8,0.0,0.8908923360100711,0.1139148025461556
28,0,1.0,0.8840924295586697,0.0
28,0,0.75,0.8967767305393137,-1.2684300980643992
28,0,0.5,0.9052959022643599,-2.120347270569012
28,0,0.25,0.904809136006043,-2.0716706447373223
28,0,0.0,0.9131527854035624,-2.906035584489264
28,1,1.0,0.8840924295586697,0.0
28,1,0.75,0.8930182042879123,-0.8925774729242608
28,1,0.5,0.907563129236108,-2.347069967743831
28,1,0.25,0.9128439087043457,-2.8751479145675995
28,1,0.0,0.9255078950023988,-4.141546544372909
28,2,1.0,0.8840924295586697,0.0
28,2,0.75,0.8753262573589292,0.8766172199740518
28,2,0.5,0.8756492937240707,0.8443135834598992
28,2,0.25,0.8777737654033106,0.6318664155359088
28,2,0.0,0.8850615160857616,-0.09690865270918225
28,3,1.0,0.8840924295586697,0.0
28,3,0.75,0.9041676568416807,-2.007522728301092
28,3,0.5,0.918223472592352,-3.4131043033682307
28,3,0.25,0.9003377000387406,-1.624527048007085
28,3,0.0,0.88061962325077,0.34728063078997007
28,4,1.0,0.8840924295586697,0.0
28,4,0.75,0.9136353412285934,-2.954291166992362
28,4,0.5,0.8933617643711146,-0.9269334812444852
28,4,0.25,0.8808325398094072,0.3259889749262501
28,4,0.0,0.887164456403357,-0.30720268446872145
28,5,1.0,0.8840924295586697,0.0
28,5,0.75,0.7997275044914924,8.43649250671773
28,5,0.5,0.7943598519412014,8.973257761746833
28,5,0.25,0.8189451833840659,6.514724617460388
28,5,0.0,0.8577713694173321,2.6321060141337616
28,6,1.0,0.8840924295586697,0.0
28,6,0.75,0.8753434882883792,0.8748941270290578
28,6,0.5,0.8720165715072337,1.2075858051436072
28,6,0.25,0.8627806256820912,2.1311803876578495
28,6,0.0,0.8720386444758498,1.2053785082819957
28,7,1.0,0.8840924295586697,0.0
28,7,0.75,0.8911248574080757,-0.7032427849405942
28,7,0.5,0.8720830245957858,1.200940496288394
28,7,0.25,0.8529761175660857,3.1116311992584023
28,7,0.0,0.8472800672516043,3.6812362307065416
28,8,1.0,0.8840924295586697,0.0
28,8,0.75,0.9089857986205235,-2.48933690618538
28,8,0.5,0.9319044957712967,-4.781206621262701
28,8,0.25,0.9243948470837494,-4.030241752507968
28,8,0.0,0.9047982865699228,-2.070585701125305
29,0,1.0,0.8955707621310548,0.0
29,0,0.75,0.8958317096614968,-0.0260947530442035
29,0,0.5,0.8931222958629742,0.24484662680805958
29,0,0.25,0.8846829783019134,1.088778382914135
29,0,0.0,0.8855874346086823,0.998332752237252
29,1,1.0,0.8955707621310548,0.0
29,1,0.75,0.9104459226410445,-1.4875160509989716
29,1,0.5,0.914648044843291,-1.9077282712236188
29,1,0.25,0.918442342058236,-2.287157992718125
29,1,0.0,0.9221385538260378,-2.6567791694983023
29,2,1.0,0.8955707621310548,0.0
29,2,0.75,0.8921396197273687,0.3431142403686138
29,2,0.5,0.8741893528008535,2.1381409330201273
29,2,0.25,0.8693292370711725,2.624152505988231
29,2,0.0,0.8571035992108013,3.846716292025354
29,3,1.0,0.8955707621310548,0.0
29,3,0.75,0.8796357574154023,1.5935004715652457
29,3,0.5,0.8770517676767676,1.8518994454287174
29,3,0.25,0.8807657085143769,1.4805053616677943
29,3,0.0,0.8680268763207037,2.7543885810351054
29,4,1.0,0.8955707621310548,0.0
29,4,0.75,0.8904677639363537,0.5102998194701058
29,4,0.5,0.8714596221481183,2.411113998293646
29,4,0.25,0.8566081747392948,3.896258739175995
29,4,0.0,0.8416844255031204,5.38863366279344
29,5,1.0,0.8955707621310548,0.0
29,5,0.75,0.892509808525835,0.30609536052198516
29,5,0.5,0.8877859894645805,0.778477266647426
29,5,0.25,0.8756100470256161,1.996071510543873
29,5,0.0,0.867831247147727,2.773951498332783
29,6,1.0,0.8955707621310548,0.0
29,6,0.75,0.9008613800019871,-0.5290617870932324
29,6,0.5,0.8998504291525755,-0.42796670215207167
29,6,0.25,0.8898240225003412,0.5746739630713593
29,6,0.0,0.9026021442591154,-0.7031382128060648
29,7,1.0,0.8955707621310548,0.0
29,7,0.75,0.8932867088109023,0.22840533201524682
29,7,0.5,0.8897548643113159,0.5815897819738902
29,7,0.25,0.8806245649972076,1.494619713384715
29,7,0.0,0.8804975598486817,1.5073202282373077
29,8,1.0,0.8955707621310548,0.0
29,8,0.75,0.8921097371895245,0.3461024941530333
29,8,0.5,0.883033330529489,1.253743160156584
29,8,0.25,0.8749031070870246,2.066765504403023
29,8,0.0,0.8511588615189158,4.441190061213895
30,0,1.0,0.9290733348468223,0.0
30,0,0.75,0.9252976980328816,0.3775636813940664
30,0,0.5,0.9296606171606171,-0.05872823137947902
30,0,0.25,0.9226985846704157,0.6374750176406652
30,0,0.0,0.9217955728482045,0.7277761998617849
30,1,1.0,0.9290733348468223,0.0
30,1,0.75,0.93806812472022,-0.8994789873397746
30,1,0.5,0.9306550767143885,-0.1581741867566211
30,1,0.25,0.8922997236267113,3.6773611220111024
30,1,0.0,0.906943327391821,2.2130007455001266
30,2,1.0,0.9290733348468223,0.0
30,2,0.75,0.933500559668784,-0.4427224821961673
30,2,0.5,0.9384968526794047,-0.942351783258244
30,2,0.25,0.9430644177308407,-1.3991082884018402
30,2,0.0,0.9257997198573876,0.3273614989434681
30,3,1.0,0.9290733348468223,0.0
30,3,0.75,0.9174256035735329,1.1647731273289441
30,3,0.5,0.9056301984975579,2.3443136349264426
30,3,0.25,0.9020868433423547,2.6986491504467636
30,3,0.0,0.8737439152311338,5.532941961568849
30,4,1.0,0.9290733348468223,0.0
30,4,0.75,0.9145670348212916,1.450630002553066
30,4,0.5,0.9072609890411064,2.1812345805715894
30,4,0.25,0.9015167203558827,2.75566144909396
30,4,0.0,0.9024869583326779,2.6586376514144416
30,5,1.0,0.9290733348468223,0.0
30,5,0.75,0.9165660647707926,1.2507270076029697
30,5,0.5,0.9075492997658469,2.1524035080975445
30,5,0.25,0.8970984463519122,3.1974888494910148
30,5,0.0,0.914338521276146,1.4734813570676297
30,6,1.0,0.9290733348468223,0.0
30,6,0.75,0.9318050105809225,-0.27316757341001585
30,6,0.5,0.9387122090215395,-0.9638874174717205
30,6,0.25,0.9230063473112835,0.6066987535538804
30,6,0.0,0.9320886765568687,-0.301534171004636
30,7,1.0,0.9290733348468223,0.0
30,7,0.75,0.9339312850577836,-0.4857950210961248
30,7,0.5,0.9236690743159399,0.5404260530882388
30,7,0.25,0.9095398267985155,1.953350804830678
30,7,0.0,0.8872165806955099,4.18567541513124
30,8,1.0,0.9290733348468223,0.0
30,8,0.75,0.921698260563175,0.7375074283647254
30,8,0.5,0.9249869138760887,0.40864209707336396
30,8,0.25,0.9348081000396588,-0.5734765192836444
30,8,0.0,0.9273239175554763,0.17494172913460337
31,0,1.0,0.8441457286185297,0.0
31,0,0.75,0.8487691821334162,-0.46234535148865774
31,0,0.5,0.8487691821334162,-0.46234535148865774
31,0,0.25,0.8386023840722796,0.5543344546250051
31,0,0.0,0.8460553819020851,-0.19096532835554125
31,1,1.0,0.8441457286185297,0.0
31,1,0.75,0.8424078685402192,0.17378600783104492
31,1,0.5,0.8389471709700955,0.5198557648434132
31,1,0.25,0.8453012673839313,-0.11555387654016425
31,1,0.0,0.8409845038141828,0.3161224804346885
31,2,1.0,0.8441457286185297,0.0
31,2,0.75,0.8331167664670658,1.1028962151463872
31,2,0.5,0.8331167664670658,1.1028962151463872
31,2,0.25,0.8447568805543593,-0.06111519358296125
31,2,0.0,0.8365356798457088,0.7610048772820899
31,3,1.0,0.8441457286185297,0.0
31,3,0.75,0.8464484788528471,-0.23027502343174744
31,3,0.5,0.8538126559959591,-0.9666927377429468
31,3,0.25,0.8491532503575322,-0.5007521739002541
31,3,0.0,0.8427718445759949,0.1373884042534801
31,4,1.0,0.8441457286185297,0.0
31,4,0.75,0.8377326707961791,0.6413057822350576
31,4,0.5,0.8356321852377524,0.8513543380777255
31,4,0.25,0.8408606642129582,0.3285064405571414
31,4,0.0,0.8431402979095923,0.10054307089373271
31,5,1.0,0.8441457286185297,0.0
31,5,0.75,0.8361571926292783,0.7988535989251311
31,5,0.5,0.837520220681022,0.6625507937507602
31,5,0.25,0.8289260526767417,1.521967594178797
31,5,0.0,0.8327040215507644,1.144170706776526
31,6,1.0,0.8441457286185297,0.0
31,6,0.75,0.8389859499225367,0.5159778695992934
31,6,0.5,0.8396607168487682,0.448501176976146
31,6,0.25,0.8433125769592931,0.08331516592365862
31,6,0.0,0.8372304233621234,0.6915305256406268
31,7,1.0,0.8441457286185297,0.0
31,7,0.75,0.8401454367057557,0.40002919127739567
31,7,0.5,0.8310306911279073,1.3115037490622372
31,7,0.25,0.807870907702807,3.627482091572265
31,7,0.0,0.8200366032950909,2.4109125323438785
31,8,1.0,0.8441457286185297,0.0
31,8,0.75,0.8446942974068771,-0.05485687883474144
31,8,0.5,0.8519814585553784,-0.7835729936848779
31,8,0.25,0.842739600271499,0.14061283470306885
31,8,0.0,0.8088859153533551,3.5259813265174578
32,0,1.0,0.9075523483196252,0.0
32,0,0.75,0.9062616586374138,0.12906896822113545
32,0,0.5,0.8951962759488514,1.235607237077374
32,0,0.25,0.8935630668168529,1.3989281502772233
32,0,0.0,0.8829983265929291,2.4554021726696074
32,1,1.0,0.9075523483196252,0.0
32,1,0.75,0.9075523483196252,0.0
32,1,0.5,0.911939452950634,-0.4387104631008887
32,1,0.25,0.9161501954176752,-0.8597847098050004
32,1,0.0,0.9012152456984677,0.6337102621157498
32,2,1.0,0.9075523483196252,0.0
32,2,0.75,0.9076659486771298,-0.011360035750462849
32,2,0.5,0.8999560493563533,0.7596298963271853
32,2,0.25,0.8952979019170465,1.2254446402578667
32,2,0.0,0.8811224489795919,2.642989934003326
32,3,1.0,0.9075523483196252,0.0
32,3,0.75,0.90959432545136,-0.2041977131734818
32,3,0.5,0.903535008780352,0.40173395392731903
32,3,0.25,0.9018325025562373,0.571984576338791
32,3,0.0,0.8699885894574295,3.756375886219565
32,4,1.0,0.9075523483196252,0.0
32,4,0.75,0.8770211561290249,3.05311921906003
32,4,0.5,0.8786492095855467,2.890313873407846
32,4,0.25,0.8786492095855467,2.890313873407846
32,4,0.0,0.8866473907408372,2.0904957578787964
32,5,1.0,0.9075523483196252,0.0
32,5,0.75,0.8753527721774761,3.219957614214908
32,5,0.5,0.8733076085957453,3.424473972387987
32,5,0.25,0.8874908644682402,2.0061483851384954
32,5,0.0,0.9194447707366562,-1.1892422417031034
32,6,1.0,0.9075523483196252,0.0
32,6,0.75,0.9078953104457819,-0.03429621261566984
32,6,0.5,0.913724345204578,-0.6171996884952846
32,6,0.25,0.915954370932247,-0.8402022612621796
32,6,0.0,0.9093550251050249,-0.18026767853996928
32,7,1.0,0.9075523483196252,0.0
32,7,0.75,0.9082758201473834,-0.07234718277582264
32,7,0.5,0.8856865276641296,2.1865820655495583
32,7,0.25,0.8726638105057153,3.488853781390988
32,7,0.0,0.8214201212488592,8.613222707076595
32,8,1.0,0.9075523483196252,0.0
32,8,0.75,0.9094198302504728,-0.18674819308476254
32,8,0.5,0.9124101013403072,-0.4857753020682032
32,8,0.25,0.9105736376805499,-0.3021289360924717
32,8,0.0,0.9176245616344912,-1.0072213314866074
33,0,1.0,0.9296735922987616,0.0
33,0,0.75,0.9160231927818338,1.3650399516927814
33,0,0.5,0.8930830912547847,3.6590501043976875
33,0,0.25,0.9034988871060391,2.617470519272247
33,0,0.0,0.8969787816645661,3.2694810634195437
33,1,1.0,0.9296735922987616,0.0
33,1,0.75,0.9464068705241463,-1.673327822538473
33,1,0.5,0.947680407887528,-1.800681558876649
33,1,0.25,0.9440928852023905,-1.4419292903628977
33,1,0.0,0.9267738119743988,0.28997803243627773
33,2,1.0,0.9296735922987616,0.0
33,2,0.75,0.928119274919636,0.15543173791255915
33,2,0.5,0.9185230555290298,1.1150536769731767
33,2,0.25,0.9223819016009907,0.7291690697770914
33,2,0.0,0.9182241554812058,1.1449436817555725
33,3,1.0,0.9296735922987616,0.0
33,3,0.75,0.927980263984386,0.16933283143755196
33,3,0.5,0.9322072103689427,-0.2533618070181154
33,3,0.25,0.9255321746644749,0.41414176342866593
33,3,0.0,0.9159325394695409,1.3741052829220668
33,4,1.0,0.9296735922987616,0.0
33,4,0.75,0.9281417222722467,0.1531870026514892
33,4,0.5,0.9306440953586571,-0.09705030598955444
33,4,0.25,0.9306440953586571,-0.09705030598955444
33,4,0.0,0.9287866426199474,0.08869496788141973
33,5,1.0,0.9296735922987616,0.0
33,5,0.75,0.9334766891663664,-0.3803096867604827
33,5,0.5,0.9225420508879781,0.7131541410783426
33,5,0.25,0.9334766891663664,-0.3803096867604827
33,5,0.0,0.9320980945772126,-0.2424502278451035
33,6,1.0,0.9296735922987616,0.0
33,6,0.75,0.9187713366596638,1.0902255639097747
33,6,0.5,0.9134862296568269,1.6187362641934655
33,6,0.25,0.9107713362392621,1.8902256059499467
33,6,0.0,0.9013549829245945,2.831860937416708
33,7,1.0,0.9296735922987616,0.0
33,7,0.75,0.9256468141233767,0.4026778175384882
33,7,0.5,0.9146906672297297,1.4982925069031872
33,7,0.25,0.9010015795765027,2.8672012722258833
33,7,0.0,0.9092256904441884,2.0447901854573125
33,8,1.0,0.9296735922987616,0.0
33,8,0.75,0.9387890873453808,-0.9115495046619237
33,8,0.5,0.9347064919925996,-0.5032899693838022
33,8,0.25,0.9388125784807124,-0.9138986181950859
33,8,0.0,0.9236139613348515,0.6059630963910045
34,0,1.0,0.9201249477061342,0.0
34,0,0.75,0.9167446996613077,0.3380248044826506
34,0,0.5,0.9037085160932274,1.6416431612906734
34,0,0.25,0.8750797903099534,4.504515739618076
34,0,0.0,0.866415721025267,5.3709226680867195
34,1,1.0,0.9201249477061342,0.0
34,1,0.75,0.9229350422080754,-0.28100945019412515
34,1,0.5,0.9135430387998151,0.6581908906319045
34,1,0.25,0.8993084890521613,2.081645865397286
34,1,0.0,0.8965767578482411,2.3548189857893087
34,2,1.0,0.9201249477061342,0.0
34,2,0.75,0.9201249477061342,0.0
34,2,0.5,0.9201249477061342,0.0
34,2,0.25,0.9319846130199791,-1.185966531384497
34,2,0.0,0.9337089754324033,-1.35840277262691
34,3,1.0,0.9201249477061342,0.0
34,3,0.75,0.9267422454308843,-0.6617297724750171
34,3,0.5,0.9136510323687035,0.6473915337430691
34,3,0.25,0.9105019493177388,0.9622998388395421
34,3,0.0,0.889509284575074,3.0615663131060122
34,4,1.0,0.9201249477061342,0.0
34,4,0.75,0.9178534499997562,0.22714977063780228
34,4,0.5,0.9146519092517125,0.5473038454421708
34,4,0.25,0.9094350094350094,1.0689938271124744
34,4,0.0,0.9012120961236005,1.891285158253364
34,5,1.0,0.9201249477061342,0.0
34,5,0.75,0.920829097252295,-0.0704149546160826
34,5,0.5,0.9103929701496328,0.9731977556501348
34,5,0.25,0.9014593634576433,1.8665584248490852
34,5,0.0,0.9074693304051102,1.2655617301023936
34,6,1.0,0.9201249477061342,0.0
34,6,0.75,0.9291975693722418,-0.9072621666107672
34,6,0.5,0.9343638663932557,-1.4238918687121571
34,6,0.25,0.9293546703357944,-0.9229722629660264
34,6,0.0,0.9180631352719483,0.20618124341859057
34,7,1.0,0.9201249477061342,0.0
34,7,0.75,0.9167446996613077,0.3380248044826506
34,7,0.5,0.9023482743769624,1.7776673329171766
34,7,0.25,0.87939397154184,4.073097616429422
34,7,0.0,0.887433196708029,3.2691750998105173
34,8,1.0,0.9201249477061342,0.0
34,8,0.75,0.9229350422080754,-0.28100945019412515
34,8,0.5,0.9254162486322564,-0.5291300926122178
34,8,0.25,0.9211118805428415,-0.0986932836707366
34,8,0.0,0.8976669615214506,2.245798618468353
35,0,1.0,0.744004046378075,0.0
35,0,0.75,0.7358085021355919,0.8195544242483144
35,0,0.5,0.7265667362468649,1.7437310131210193
35,0,0.25,0.7122485738990274,3.175547247904764
35,0,0.0,0.7063981830772875,3.7605863300787523
35,1,1.0,0.744004046378075,0.0
35,1,0.75,0.7310145510205046,1.2989495357570435
35,1,0.5,0.7316126557738165,1.2391390604258534
35,1,0.25,0.7330799837709003,1.0924062607174712
35,1,0.0,0.7201172461627852,2.3886800215289883
35,2,1.0,0.744004046378075,0.0
35,2,0.75,0.7361362049615681,0.7867841416506982
35,2,0.5,0.7395751534702506,0.44288929078244443
35,2,0.25,0.7362081308894033,0.7795915488671756
35,2,0.0,0.7304584716555458,1.3545574722529263
35,3,1.0,0.744004046378075,0.0
35,3,0.75,0.7409584887215898,0.3045557656485287
35,3,0.5,0.748801670329548,-0.47976239514729846
35,3,0.25,0.7448385709783442,-0.08345246002691153
35,3,0.0,0.7357419769754753,0.826206940259977
35,4,1.0,0.744004046378075,0.0
35,4,0.75,0.7406009083839319,0.3403137994143157
35,4,0.5,0.7372476981594354,0.6756348218639685
35,4,0.25,0.7290294867763786,1.4974559601696469
35,4,0.0,0.7335957165089295,1.0408329869145527
35,5,1.0,0.744004046378075,0.0
35,5,0.75,0.7437331774535714,0.02708689245036755
35,5,0.5,0.7386619623679392,0.5342084010135806
35,5,0.25,0.7289826997065747,1.5021346671500346
35,5,0.0,0.7246594072105891,1.9344639167485966
35,6,1.0,0.744004046378075,0.0
35,6,0.75,0.7380330765246821,0.597096985339296
35,6,0.5,0.7330393568695026,1.0964689508572434
35,6,0.25,0.7350266512934412,0.8977395084633799
35,6,0.0,0.7349742852448242,0.9029761133250824
35,7,1.0,0.744004046378075,0.0
35,7,0.75,0.7405880006755357,0.3416045702539394
35,7,0.5,0.7436292478753485,0.03747985027265921
35,7,0.25,0.7267269033408639,1.7277143037211173
35,7,0.0,0.7230903733412185,2.091367303685654
35,8,1.0,0.744004046378075,0.0
35,8,0.75,0.7265992832191626,1.7404763158912484
35,8,0.5,0.7252599312996069,1.8744115078468182
35,8,0.25,0.7183974455459258,2.5606600832149273
35,8,0.0,0.7139204548790106,3.0083591499064477
36,0,1.0,0.8432390821786055,0.0
36,0,0.75,0.8435481700589078,-0.03090878803022612
36,0,0.5,0.8288871810568399,1.4351901121765653
36,0,0.25,0.8165179215161191,2.672116066248642
36,0,0.0,0.7994358781724658,4.3803204006139795
36,1,1.0,0.8432390821786055,0.0
36,1,0.75,0.8438500786008654,-0.0610996422259813
36,1,0.5,0.8252554974054895,1.7983584773116013
36,1,0.25,0.8238170119132291,1.9422070265376457
36,1,0.0,0.8196797852118218,2.3559296966783716
36,2,1.0,0.8432390821786055,0.0
36,2,0.75,0.8433097468080937,-0.007066462948812635
36,2,0.5,0.8334146285685866,0.9824453610018935
36,2,0.25,0.8343266050564098,0.8912477122195783
36,2,0.0,0.8165183446136007,2.6720737565004815
36,3,1.0,0.8432390821786055,0.0
36,3,0.75,0.8461124747618746,-0.2873392583269019
36,3,0.5,0.8377296587926509,0.5509423385954615
36,3,0.25,0.8267415940735268,1.6497488105078784
36,3,0.0,0.7991495557711259,4.408952640747965
36,4,1.0,0.8432390821786055,0.0
36,4,0.75,0.8437304889060886,-0.04914067274830458
36,4,0.5,0.8349936052441111,0.82454769344944
36,4,0.25,0.837674748149629,0.5564334028976603
36,4,0.0,0.8359851928051837,0.7253889373421862
36,5,1.0,0.8432390821786055,0.0
36,5,0.75,0.8645786823114064,-2.1339600132800896
36,5,0.5,0.8656656623846195,-2.2426580206013957
36,5,0.25,0.8584104016961293,-1.5171319517523707
36,5,0.0,0.8337844572584587,0.9454624920146815
36,6,1.0,0.8432390821786055,0.0
36,6,0.75,0.853340321529176,-1.0101239350570501
36,6,0.5,0.8602985396529186,-1.7059457474313033
36,6,0.25,0.8370062346274394,0.6232847551166154
36,6,0.0,0.8275940118200484,1.5645070358557112
36,7,1.0,0.8432390821786055,0.0
36,7,0.75,0.8342421407067955,0.8996941471810072
36,7,0.5,0.8033340975470012,3.99049846316043
36,7,0.25,0.8019577626092393,4.12813195693662
36,7,0.0,0.7908293576886027,5.240972449000281
36,8,1.0,0.8432390821786055,0.0
36,8,0.75,0.8347289804587852,0.8510101719820362
36,8,0.5,0.8183482232647535,2.489085891385201
36,8,0.25,0.7908582055508586,5.238087662774693
36,8,0.0,0.7707102882255383,7.252879395306722
37,0,1.0,0.9212692704612633,0.0
37,0,0.75,0.9212692704612633,0.0
37,0,0.5,0.9149381055614,0.6331164899863295
37,0,0.25,0.8898295280828313,3.1439742378431945
37,0,0.0,0.8746423685167699,4.662690194449337
37,1,1.0,0.9212692704612633,0.0
37,1,0.75,0.9177561363094983,0.35131341517650183
37,1,0.5,0.9197874046468378,0.14818658144254426
37,1,0.25,0.9098190690150328,1.1450201446230435
37,1,0.0,0.8985107378556026,2.275853260566063
37,2,1.0,0.9212692704612633,0.0
37,2,0.75,0.9084302398080776,1.2839030653185701
37,2,0.5,0.9027416771646778,1.8527593296585487
37,2,0.25,0.8955311721428663,2.573809831839702
37,2,0.0,0.89420011473764,2.706915572362323
37,3,1.0,0.9212692704612633,0.0
37,3,0.75,0.9177561363094983,0.35131341517650183
37,3,0.5,0.923909113564286,-0.26398431030226766
37,3,0.25,0.9140408793526248,0.7228391108638488
37,3,0.0,0.9164373088685015,0.483196159276178
37,4,1.0,0.9212692704612633,0.0
37,4,0.75,0.9214556307684157,-0.018636030715246665
37,4,0.5,0.9214762602498991,-0.02069897886358696
37,4,0.25,0.9193006813974556,0.1968589063807702
37,4,0.0,0.9188225251186695,0.24467453425938146
37,5,1.0,0.9212692704612633,0.0
37,5,0.75,0.9090177981598273,1.2251472301435973
37,5,0.5,0.901233852904176,2.0035417557087265
37,5,0.25,0.9076003125315052,1.3668957929758085
37,5,0.0,0.9168932390802291,0.4376031381034151
37,6,1.0,0.9212692704612633,0.0
37,6,0.75,0.9177561363094983,0.35131341517650183
37,6,0.5,0.9000110521662246,2.125821829503871
37,6,0.25,0.8935885891204208,2.768068134084245
37,6,0.0,0.8998806835657067,2.138858689555656
37,7,1.0,0.9212692704612633,0.0
37,7,0.75,0.8883706764129456,3.289859404831763
37,7,0.5,0.868939472475645,5.232979798561832
37,7,0.25,0.8485361030685448,7.273316739271851
37,7,0.0,0.8528090415322416,6.8460228929021705
37,8,1.0,0.9212692704612633,0.0
37,8,0.75,0.9175313137082253,0.37379567530380076
37,8,0.5,0.9061371045618756,1.5132165899387706
37,8,0.25,0.9059642462470978,1.5305024214165464
37,8,0.0,0.9053595801994456,1.5909690261817655
38,0,1.0,0.927716528891289,0.0
38,0,0.75,0.9054256335415022,2.229089534978679
38,0,0.5,0.8737799187825898,5.393661010869922
38,0,0.25,0.8671520211422967,6.056450774899225
38,0,0.0,0.8751518855745833,5.256464331670562
38,1,1.0,0.927716528891289,0.0
38,1,0.75,0.9191509974155407,0.8565531475748234
38,1,0.5,0.9191509974155407,0.8565531475748234
38,1,0.25,0.9005795688441123,2.7136960047176695
38,1,0.0,0.8867813579771091,4.093517091417986
38,2,1.0,0.927716528891289,0.0
38,2,0.75,0.9319346336320506,-0.42181047407616745
38,2,0.5,0.9265774907749078,0.11390381163811636
38,2,0.25,0.9206792223766394,0.7037306514649622
38,2,0.0,0.9081522330191021,1.9564295872186888
38,3,1.0,0.927716528891289,0.0
38,3,0.75,0.9240654097662533,0.36511191250356845
38,3,0.5,0.9228496457681848,0.48668831231041265
38,3,0.25,0.9064543194756739,2.1262209415615074
38,3,0.0,0.9024053792251885,2.5311149666100485
38,4,1.0,0.927716528891289,0.0
38,4,0.75,0.9020052367679054,2.5711292123383522
38,4,0.5,0.8910612825839417,3.665524630734729
38,4,0.25,0.8862638531152187,4.145267577607026
38,4,0.0,0.8843425076452599,4.337402124602907
38,5,1.0,0.927716528891289,0.0
38,5,0.75,0.9283125858746736,-0.059605698338460744
38,5,0.5,0.9283125858746736,-0.059605698338460744
38,5,0.25,0.9283125858746736,-0.059605698338460744
38,5,0.0,0.9241093123039155,0.36072165873735074
38,6,1.0,0.927716528891289,0.0
38,6,0.75,0.9260189009040041,0.16976279872848998
38,6,0.5,0.923439059583417,0.4277469307871984
38,6,0.25,0.9250690003464699,0.2647528544819089
38,6,0.0,0.9325119604364888,-0.4795431545199791
38,7,1.0,0.927716528891289,0.0
38,7,0.75,0.9200432228621351,0.7673306029153837
38,7,0.5,0.9260189009040041,0.16976279872848998
38,7,0.25,0.9114998673146175,1.6216661576671454
38,7,0.0,0.9175025672622715,1.0213961629017443
38,8,1.0,0.927716528891289,0.0
38,8,0.75,0.9260189009040041,0.16976279872848998
38,8,0.5,0.9159242269792729,1.1792301912016079
38,8,0.25,0.9039204272765917,2.379610161469725
38,8,0.0,0.8926328107000376,3.5083718191251334
39,0,1.0,0.8608115266952459,0.0
39,0,0.75,0.8501042372265148,1.0707289468731007
39,0,0.5,0.8379619066315038,2.2849620063742027
39,0,0.25,0.8294737457687755,3.1337780926470327
39,0,0.0,0.8264029568206068,3.440856987463903
39,1,1.0,0.8608115266952459,0.0
39,1,0.75,0.8523443156728943,0.8467211022351595
39,1,0.5,0.8519445710235184,0.8866955671727461
39,1,0.25,0.8474319417798771,1.3379584915368725
39,1,0.0,0.8542920659276156,0.6519460767630214
39,2,1.0,0.8608115266952459,0.0
39,2,0.75,0.868059148659687,-0.7247621964441175
39,2,0.5,0.8610135106027808,-0.020198390753489726
39,2,0.25,0.8712756285770304,-1.0464101881784593
39,2,0.0,0.871510832906457,-1.069930621121118
39,3,1.0,0.8608115266952459,0.0
39,3,0.75,0.8726396304771591,-1.1828103781913235
39,3,0.5,0.8728505165152333,-1.2038989819987411
39,3,0.25,0.8548291219306786,0.598240476456724
39,3,0.0,0.803266175564113,5.75453511311329
39,4,1.0,0.8608115266952459,0.0
39,4,0.75,0.8581086866569575,0.27028400382883566
39,4,0.5,0.8558273516026774,0.49841750925684325
39,4,0.25,0.8488835061712059,1.1928020524039962
39,4,0.0,0.8422158546022385,1.8595672093007387
39,5,1.0,0.8608115266952459,0.0
39,5,0.75,0.8648924330818583,-0.4080906386612404
39,5,0.5,0.8753625379383426,-1.4551011243096768
39,5,0.25,0.8776952011151282,-1.6883674419882366
39,5,0.0,0.8781814230966772,-1.7369896401431384
39,6,1.0,0.8608115266952459,0.0
39,6,0.75,0.8613562503972589,-0.05447237020130835
39,6,0.5,0.8592433504085855,0.15681762866603943
39,6,0.25,0.8592433504085855,0.15681762866603943
39,6,0.0,0.870507736725004,-0.9696210029758179
39,7,1.0,0.8608115266952459,0.0
39,7,0.75,0.8572754604741206,0.35360662211252336
39,7,0.5,0.8550224349756786,0.5789091719567208
39,7,0.25,0.8495772226829923,1.123430401225356
39,7,0.0,0.8320788778834342,2.87326488118117
39,8,1.0,0.8608115266952459,0.0
39,8,0.75,0.8589093202682181,0.1902206427027764
39,8,0.5,0.8624718264808725,-0.1660299785626651
39,8,0.25,0.8691748461720243,-0.8363319476778486
39,8,0.0,0.8603509437883683,0.04605829068775602
40,0,1.0,0.8590816188642276,0.0
40,0,0.75,0.831594708346397,2.7486910517830587
40,0,0.5,0.8165722819842497,4.250933687997794
40,0,0.25,0.8093802139558472,4.9701404908380376
40,0,0.0,0.7868014498121119,7.228016905211576
40,1,1.0,0.8590816188642276,0.0
40,1,0.75,0.8460046660834062,1.3076952780821438
40,1,0.5,0.8365196367870562,2.2561982077171416
40,1,0.25,0.8291809586936612,2.9900660170566473
40,1,0.0,0.8414890065631575,1.759261230107012
40,2,1.0,0.8590816188642276,0.0
40,2,0.75,0.8786280639426736,-1.954644507844594
40,2,0.5,0.895090685176892,-3.600906631266443
40,2,0.25,0.8960141706746183,-3.693255181039068
40,2,0.0,0.8851949425786154,-2.6113323714387793
40,3,1.0,0.8590816188642276,0.0
40,3,0.75,0.8508428809618738,0.8238737902353854
40,3,0.5,0.8713705624051936,-1.228894354096599
40,3,0.25,0.8674805369513974,-0.8398918087169749
40,3,0.0,0.8386875455299053,2.0394073334322305
40,4,1.0,0.8590816188642276,0.0
40,4,0.75,0.8537382308064456,0.5343388057782006
40,4,0.5,0.8518736229057158,0.7207995958511848
40,4,0.25,0.8548149315404279,0.4266687323799756
40,4,0.0,0.8418910931286221,1.7190525735605533
40,5,1.0,0.8590816188642276,0.0
40,5,0.75,0.8486062747752656,1.0475344088962002
40,5,0.5,0.8570000386742469,0.2081580189980725
40,5,0.25,0.873494983277592,-1.4413364413364382
40,5,0.0,0.8718127121104426,-1.273109324621502
40,6,1.0,0.8590816188642276,0.0
40,6,0.75,0.8445321909235364,1.454942794069125
40,6,0.5,0.826678779619956,3.2402839244271675
40,6,0.25,0.8170063872190343,4.207523164519333
40,6,0.0,0.8219478901145266,3.7133728749701
40,7,1.0,0.8590816188642276,0.0
40,7,0.75,0.852705679596401,0.6375939267826647
40,7,0.5,0.8431706773618538,1.591094150237382
40,7,0.25,0.8364760133302334,2.2605605533994266
40,7,0.0,0.815977550440466,4.310406842376158
40,8,1.0,0.8590816188642276,0.0
40,8,0.75,0.847515060882507,1.156655798172057
40,8,0.5,0.8579202978698589,0.11613209943687197
40,8,0.25,0.8526710693843711,0.6410549479856531
40,8,0.0,0.8317617165443252,2.7319902319902445
