subject,channel,f1_full,f1_occluded,drop_pp
1,0,0.7111452311543212,0.7104412512525986,0.07039799017225512
1,1,0.7111452311543212,0.7207615322535048,-0.9616301099183655
1,2,0.7111452311543212,0.7299563545013125,-1.881112334699131
1,3,0.7111452311543212,0.6689908865419926,4.215434461232858
1,4,0.7111452311543212,0.7447694443759076,-3.3624213221586485
1,5,0.7111452311543212,0.6736475389017762,3.7497692252544956
1,6,0.7111452311543212,0.7338135138046276,-2.2668282650306404
1,7,0.7111452311543212,0.6465270989118505,6.46181322424707
1,8,0.7111452311543212,0.693216371055132,1.7928860099189148
2,0,0.8538074531687152,0.8475081699346405,0.6299283234074693
2,1,0.8538074531687152,0.7883735446970357,6.543390847167951
2,2,0.8538074531687152,0.851388888888889,0.24185642798262297
2,3,0.8538074531687152,0.8408085907824766,1.2998862386238597
2,4,0.8538074531687152,0.8376874327457028,1.6120020423012416
2,5,0.8538074531687152,0.8100392819892581,4.376817117945708
2,6,0.8538074531687152,0.8207310805942315,3.3076372574483703
2,7,0.8538074531687152,0.7662658433539161,8.754160981479908
2,8,0.8538074531687152,0.8425760102057271,1.1231442962988059
3,0,0.8955524605078886,0.9431159823448685,-4.756352183697987
3,1,0.8955524605078886,0.8789963904582548,1.6556070049633775
3,2,0.8955524605078886,0.8528509125283319,4.270154797955672
3,3,0.8955524605078886,0.826489776701641,6.906268380624758
3,4,0.8955524605078886,0.9108723579574954,-1.5319897449606823
3,5,0.8955524605078886,0.912755169205683,-1.7202708697794389
3,6,0.8955524605078886,0.8877969305087949,0.775552999909368
3,7,0.8955524605078886,0.8738483706586146,2.1704089849273966
3,8,0.8955524605078886,0.882366754041066,1.31857064668226
4,0,0.9265043233358188,0.9370054780546035,-1.0501154718784766
4,1,0.9265043233358188,0.8999389173507453,2.656540598507351
4,2,0.9265043233358188,0.9308407305593273,-0.4336407223508476
4,3,0.9265043233358188,0.8705426940945233,5.596162924129544
4,4,0.9265043233358188,0.9296823171751785,-0.3177993839359683
4,5,0.9265043233358188,0.9020213502972123,2.448297303860647
4,6,0.9265043233358188,0.940113543805255,-1.3609220469436245
4,7,0.9265043233358188,0.9427112332112332,-1.62069098754144
4,8,0.9265043233358188,0.9192263846819883,0.7277938653830529
5,0,0.6968981779791196,0.6841495493770415,1.2748628602078038
5,1,0.6968981779791196,0.713784199003652,-1.6886021024532405
5,2,0.6968981779791196,0.7051410846973483,-0.8242906718228693
5,3,0.6968981779791196,0.7535494520900404,-5.665127411092086
5,4,0.6968981779791196,0.6904314121643782,0.6466765814741371
5,5,0.6968981779791196,0.6719921778073114,2.490600017180822
5,6,0.6968981779791196,0.6823880131043318,1.4510164874787734
5,7,0.6968981779791196,0.6937643422584497,0.3133835720669831
5,8,0.6968981779791196,0.6608044266553272,3.6093751323792334
6,0,0.827835395000619,0.7838485251420575,4.398686985856148
6,1,0.827835395000619,0.8470930604575923,-1.9257665456973272
6,2,0.827835395000619,0.8482164766891308,-2.0381081688511826
6,3,0.827835395000619,0.8284307832104287,-0.059538820980975515
6,4,0.827835395000619,0.759572641315806,6.826275368481294
6,5,0.827835395000619,0.8044421434952841,2.339325150533489
6,6,0.827835395000619,0.8493379820966028,-2.150258709598385
6,7,0.827835395000619,0.7619523698592653,6.5883025141353695
6,8,0.827835395000619,0.7732131134765601,5.46222815240589
7,0,0.8324757414274291,0.7761807627510954,5.62949786763337
7,1,0.8324757414274291,0.7764977341702959,5.59780072571332
7,2,0.8324757414274291,0.7455205560650457,8.695518536238334
7,3,0.8324757414274291,0.8206156937582426,1.1860047669186469
7,4,0.8324757414274291,0.7557797140303842,7.669602739704484
7,5,0.8324757414274291,0.8395847885681849,-0.7109047140755775
7,6,0.8324757414274291,0.8037473582199056,2.8728383207523467
7,7,0.8324757414274291,0.7679870656913645,6.448867573606454
7,8,0.8324757414274291,0.7664792212232181,6.599652020421098
8,0,0.8645990973271528,0.8930196656935379,-2.842056836638507
8,1,0.8645990973271528,0.8706149380617465,-0.6015840734593714
8,2,0.8645990973271528,0.8772258392948049,-1.2626741967652122
8,3,0.8645990973271528,0.8626315075579782,0.19675897691745492
8,4,0.8645990973271528,0.8665888935404188,-0.1989796213266004
8,5,0.8645990973271528,0.8354282253486074,2.91708719785454
8,6,0.8645990973271528,0.8765499107462771,-1.1950813419124295
8,7,0.8645990973271528,0.8452949055083646,1.9304191818788174
8,8,0.8645990973271528,0.848218811262872,1.638028606428077
9,0,0.8785408226626522,0.8458863068521016,3.2654515810550566
9,1,0.8785408226626522,0.8595283996227392,1.9012423039913018
9,2,0.8785408226626522,0.8714698985900146,0.7070924072637652
9,3,0.8785408226626522,0.8578189585268899,2.072186413576227
9,4,0.8785408226626522,0.8644919156756152,1.404890698703698
9,5,0.8785408226626522,0.8688658521367953,0.9674970525856863
9,6,0.8785408226626522,0.8415068945536451,3.7033928109007075
9,7,0.8785408226626522,0.8138188608776844,6.47219617849678
9,8,0.8785408226626522,0.8547965592274273,2.3744263435224955
10,0,0.7587385926432699,0.8009476031215162,-4.220901047824633
10,1,0.7587385926432699,0.7427707144276912,1.5967878215578768
10,2,0.7587385926432699,0.7535831554362605,0.5155437207009395
10,3,0.7587385926432699,0.7363230073452091,2.241558529806087
10,4,0.7587385926432699,0.7443542120961476,1.4384380547122322
10,5,0.7587385926432699,0.7292238585243173,2.951473411895267
10,6,0.7587385926432699,0.7651146619096592,-0.6376069266389228
10,7,0.7587385926432699,0.7529576703489748,0.5780922294295165
10,8,0.7587385926432699,0.7663484811400288,-0.7609888496758921
11,0,0.9407898289042823,0.9360132517429949,0.4776577161287432
11,1,0.9407898289042823,0.9060898379970544,3.4699990907227862
11,2,0.9407898289042823,0.9224441187765429,1.8345710127739445
11,3,0.9407898289042823,0.9034264062044711,3.736342269981119
11,4,0.9407898289042823,0.9284122797669793,1.2377549137303046
11,5,0.9407898289042823,0.9472368688204857,-0.6447039916203434
11,6,0.9407898289042823,0.945131740967257,-0.434191206297474
11,7,0.9407898289042823,0.9435612213529956,-0.27713924487132724
11,8,0.9407898289042823,0.9332304430310109,0.7559385873271429
12,0,0.9320924764890282,0.9134081738925972,1.8684302596430946
12,1,0.9320924764890282,0.9305447793318684,0.15476971571597442
12,2,0.9320924764890282,0.9062682310121403,2.5824245476887886
12,3,0.9320924764890282,0.8930215252488158,3.9070951240212315
12,4,0.9320924764890282,0.9229253064497652,0.9167170039262929
12,5,0.9320924764890282,0.9127974114547005,1.9295065034327652
12,6,0.9320924764890282,0.9168155340471562,1.5276942441871944
12,7,0.9320924764890282,0.939485511777314,-0.7393035288285832
12,8,0.9320924764890282,0.9301774408560085,0.1915035633019646
13,0,0.9610893729925989,0.9762637020282346,-1.5174329035635759
13,1,0.9610893729925989,0.939425844371398,2.166352862120091
13,2,0.9610893729925989,0.9478983535541344,1.3191019438464457
13,3,0.9610893729925989,0.9643446441265616,-0.3255271133962734
13,4,0.9610893729925989,0.9422590160295079,1.8830356963090988
13,5,0.9610893729925989,0.9369209400885736,2.416843290402526
13,6,0.9610893729925989,0.9584473188861622,0.26420541064366976
13,7,0.9610893729925989,0.946528654486808,1.4560718505790882
13,8,0.9610893729925989,0.9610893729925989,0.0
14,0,0.8482948469650169,0.8533797506065198,-0.5084903641502936
14,1,0.8482948469650169,0.8554143230770784,-0.711947611206154
14,2,0.8482948469650169,0.861486771149309,-1.3191924184292159
14,3,0.8482948469650169,0.775756318022505,7.253852894251189
14,4,0.8482948469650169,0.8468339298420625,0.1460917122954375
14,5,0.8482948469650169,0.8619344540503135,-1.3639607085296657
14,6,0.8482948469650169,0.8439540154783524,0.43408314866645314
14,7,0.8482948469650169,0.8399191311496076,0.8375715815409301
14,8,0.8482948469650169,0.8074913751001191,4.0803471864897745
15,0,0.9506970808997037,0.9507097603482351,-0.0012679448531338622
15,1,0.9506970808997037,0.9503937811031042,0.03032997965994877
15,2,0.9506970808997037,0.9336113777703576,1.7085703129346097
15,3,0.9506970808997037,0.9307012809797464,1.9995799919957369
15,4,0.9506970808997037,0.9302033177870198,2.0493763112683916
15,5,0.9506970808997037,0.9537756120639305,-0.3078531164226739
15,6,0.9506970808997037,0.9512338054880072,-0.05367245883034499
15,7,0.9506970808997037,0.9192382329338317,3.145884796587206
15,8,0.9506970808997037,0.9727140850389722,-2.2017004139268437
16,0,0.8650595274045867,0.8898872742188301,-2.482774681424338
16,1,0.8650595274045867,0.86830275867958,-0.32432312749932635
16,2,0.8650595274045867,0.8791006657825085,-1.4041138377921758
16,3,0.8650595274045867,0.872618314402952,-0.7558786998365319
16,4,0.8650595274045867,0.8728833327265652,-0.7823805321978461
16,5,0.8650595274045867,0.8445559858284131,2.0503541576173623
16,6,0.8650595274045867,0.8925971380089917,-2.753761060440496
16,7,0.8650595274045867,0.8502444309149442,1.481509648964252
16,8,0.8650595274045867,0.847763102154442,1.7296425250144742
17,0,0.8466486434027549,0.8844846265267806,-3.7835983124025696
17,1,0.8466486434027549,0.8395553683508543,0.7093275051900605
17,2,0.8466486434027549,0.8259894409190184,2.065920248373654
17,3,0.8466486434027549,0.8107751449349937,3.5873498467761222
17,4,0.8466486434027549,0.8202518819305863,2.639676147216863
17,5,0.8466486434027549,0.8029944273524612,4.365421605029374
17,6,0.8466486434027549,0.8735277280105527,-2.6879084607797754
17,7,0.8466486434027549,0.8667381409592484,-2.0089497556493474
17,8,0.8466486434027549,0.8357301842320922,1.0918459170662698
18,0,0.9027301911571575,0.8973164006029368,0.5413790554220643
18,1,0.9027301911571575,0.9072485861479934,-0.451839499083595
18,2,0.9027301911571575,0.8994584577091994,0.32717334479580584
18,3,0.9027301911571575,0.8414656893988527,6.1264501758304775
18,4,0.9027301911571575,0.8754883375399128,2.7241853617244627
18,5,0.9027301911571575,0.9037113437328954,-0.09811525757379425
18,6,0.9027301911571575,0.90797988356212,-0.5249692404962536
18,7,0.9027301911571575,0.8533386777131045,4.9391513444053015
18,8,0.9027301911571575,0.9064334339063231,-0.37032427491656694
19,0,0.9279597367402246,0.9018943987025948,2.606533803762978
19,1,0.9279597367402246,0.9024554715192576,2.5504265220966937
19,2,0.9279597367402246,0.9137018058859648,1.4257930854259748
19,3,0.9279597367402246,0.8924996946062749,3.546004213394971
19,4,0.9279597367402246,0.911758278315813,1.6201458424411563
19,5,0.9279597367402246,0.9378040467404181,-0.9844310000193479
19,6,0.9279597367402246,0.9436392145791123,-1.5679477838887679
19,7,0.9279597367402246,0.8980989761527328,2.9860760587491764
19,8,0.9279597367402246,0.8984489784400935,2.9510758300131057
20,0,0.8395870258773485,0.8393849206349207,0.020210524242780803
20,1,0.8395870258773485,0.8534355710321395,-1.3848545154791059
20,2,0.8395870258773485,0.7977865219433947,4.180050393395374
20,3,0.8395870258773485,0.8472472828996311,-0.7660257022282679
20,4,0.8395870258773485,0.8899736673291654,-5.038664145181693
20,5,0.8395870258773485,0.8302050348807906,0.9381990996557898
20,6,0.8395870258773485,0.8440088695794141,-0.4421843702065664
20,7,0.8395870258773485,0.8357570627989588,0.38299630783896754
20,8,0.8395870258773485,0.803926282051282,3.5660743826066432
21,0,0.8995950707612622,0.8531309319173113,4.646413884395095
21,1,0.8995950707612622,0.8872754091679087,1.2319661593353515
21,2,0.8995950707612622,0.8895055358445302,1.0089534916732035
21,3,0.8995950707612622,0.8769418423106947,2.2653228450567497
21,4,0.8995950707612622,0.8737177757793765,2.5877294981885735
21,5,0.8995950707612622,0.9026720076871232,-0.30769369258609736
21,6,0.8995950707612622,0.9088678807384915,-0.9272809977229235
21,7,0.8995950707612622,0.8793727106227107,2.02223601385515
21,8,0.8995950707612622,0.8510565755144359,4.85384952468263
22,0,0.8131535665659111,0.8061627396993251,0.6990826866586031
22,1,0.8131535665659111,0.8470136874099069,-3.386012084399581
22,2,0.8131535665659111,0.8147561258233873,-0.16025592574762104
22,3,0.8131535665659111,0.7685951147166828,4.455845184922824
22,4,0.8131535665659111,0.7772040744643485,3.594949210156262
22,5,0.8131535665659111,0.7643451262878094,4.880844027810172
22,6,0.8131535665659111,0.7995164089828833,1.3637157583027748
22,7,0.8131535665659111,0.7686505767368301,4.450298982908096
22,8,0.8131535665659111,0.7949481706944392,1.8205395871471852
23,0,0.8015454340616628,0.7885220925824775,1.3023341479185269
23,1,0.8015454340616628,0.8308364250474299,-2.929099098576715
23,2,0.8015454340616628,0.7979674278027282,0.3578006258934563
23,3,0.8015454340616628,0.7631397162584721,3.8405717803190687
23,4,0.8015454340616628,0.7614902345474319,4.005519951423087
23,5,0.8015454340616628,0.8173005507645588,-1.5755116702895977
23,6,0.8015454340616628,0.8024782626817706,-0.09328286201077951
23,7,0.8015454340616628,0.7694869161936786,3.2058517867984193
23,8,0.8015454340616628,0.7918185840808071,0.9726849980855712
24,0,0.7527829559155865,0.7611024541561593,-0.8319498240572765
24,1,0.7527829559155865,0.7482338904700738,0.4549065445512701
24,2,0.7527829559155865,0.7430654702254493,0.9717485690137195
24,3,0.7527829559155865,0.8126930894712093,-5.991013355562281
24,4,0.7527829559155865,0.7230897009966777,2.969325491890884
24,5,0.7527829559155865,0.7124763813253834,4.030657459020315
24,6,0.7527829559155865,0.7813200485434306,-2.8537092627844096
24,7,0.7527829559155865,0.7282183200449455,2.456463587064106
24,8,0.7527829559155865,0.7298761247380747,2.29068311775118
25,0,0.8926509171474011,0.903414071539365,-1.0763154391963958
25,1,0.8926509171474011,0.9117069530185782,-1.9056035871177102
25,2,0.8926509171474011,0.8982587941002176,-0.5607876952816504
25,3,0.8926509171474011,0.9199394855583187,-2.7288568410917646
25,4,0.8926509171474011,0.8725773967509861,2.0073520396414968
25,5,0.8926509171474011,0.8879458460578005,0.470507108960061
25,6,0.8926509171474011,0.9384783479827419,-4.58274308353408
25,7,0.8926509171474011,0.897550839964633,-0.489992281723195
25,8,0.8926509171474011,0.9417819708583113,-4.91310537109102
26,0,0.7406416779430551,0.7524929222545331,-1.1851244311477993
26,1,0.7406416779430551,0.7731098807649858,-3.2468202821930636
26,2,0.7406416779430551,0.7138826478078885,2.6759030135166673
26,3,0.7406416779430551,0.7387981179019294,0.18435600411257358
26,4,0.7406416779430551,0.7193465277971136,2.129515014594152
26,5,0.7406416779430551,0.7407958593334736,-0.01541813904184508
26,6,0.7406416779430551,0.7513683624068944,-1.0726684463839287
26,7,0.7406416779430551,0.7374797374474394,0.31619404956156894
26,8,0.7406416779430551,0.7346116602995765,0.6030017643478658
27,0,0.8920314840355327,0.8981872552592156,-0.6155771223682938
27,1,0.8920314840355327,0.8908516937950861,0.11797902404465654
27,2,0.8920314840355327,0.8685973207249803,2.343416331055237
27,3,0.8920314840355327,0.8773830949702716,1.4648389065261114
27,4,0.8920314840355327,0.8823661120817848,0.9665371953747837
27,5,0.8920314840355327,0.8832037768994291,0.8827707136103591
27,6,0.8920314840355327,0.908197787264525,-1.6166303228992374
27,7,0.8920314840355327,0.9086341148301057,-1.6602630794573026
27,8,0.8920314840355327,0.8908923360100711,0.1139148025461556
28,0,0.8840924295586697,0.9131527854035624,-2.906035584489264
28,1,0.8840924295586697,0.9255078950023988,-4.141546544372909
28,2,0.8840924295586697,0.8850615160857616,-0.09690865270918225
28,3,0.8840924295586697,0.88061962325077,0.34728063078997007
28,4,0.8840924295586697,0.887164456403357,-0.30720268446872145
28,5,0.8840924295586697,0.8577713694173321,2.6321060141337616
28,6,0.8840924295586697,0.8720386444758498,1.2053785082819957
28,7,0.8840924295586697,0.8472800672516043,3.6812362307065416
28,8,0.8840924295586697,0.9047982865699228,-2.070585701125305
29,0,0.8955707621310548,0.8855874346086823,0.998332752237252
29,1,0.8955707621310548,0.9221385538260378,-2.6567791694983023
29,2,0.8955707621310548,0.8571035992108013,3.846716292025354
29,3,0.8955707621310548,0.8680268763207037,2.7543885810351054
29,4,0.8955707621310548,0.8416844255031204,5.38863366279344
29,5,0.8955707621310548,0.867831247147727,2.773951498332783
29,6,0.8955707621310548,0.9026021442591154,-0.7031382128060648
29,7,0.8955707621310548,0.8804975598486817,1.5073202282373077
29,8,0.8955707621310548,0.8511588615189158,4.441190061213895
30,0,0.9290733348468223,0.9217955728482045,0.7277761998617849
30,1,0.9290733348468223,0.906943327391821,2.2130007455001266
30,2,0.9290733348468223,0.9257997198573876,0.3273614989434681
30,3,0.9290733348468223,0.8737439152311338,5.532941961568849
30,4,0.9290733348468223,0.9024869583326779,2.6586376514144416
30,5,0.9290733348468223,0.914338521276146,1.4734813570676297
30,6,0.9290733348468223,0.9320886765568687,-0.301534171004636
30,7,0.9290733348468223,0.8872165806955099,4.18567541513124
30,8,0.9290733348468223,0.9273239175554763,0.17494172913460337
31,0,0.8441457286185297,0.8460553819020851,-0.19096532835554125
31,1,0.8441457286185297,0.8409845038141828,0.3161224804346885
31,2,0.8441457286185297,0.8365356798457088,0.7610048772820899
31,3,0.8441457286185297,0.8427718445759949,0.1373884042534801
31,4,0.8441457286185297,0.8431402979095923,0.10054307089373271
31,5,0.8441457286185297,0.8327040215507644,1.144170706776526
31,6,0.8441457286185297,0.8372304233621234,0.6915305256406268
31,7,0.8441457286185297,0.8200366032950909,2.4109125323438785
31,8,0.8441457286185297,0.8088859153533551,3.5259813265174578
32,0,0.9075523483196252,0.8829983265929291,2.4554021726696074
32,1,0.9075523483196252,0.9012152456984677,0.6337102621157498
32,2,0.9075523483196252,0.8811224489795919,2.642989934003326
32,3,0.9075523483196252,0.8699885894574295,3.756375886219565
32,4,0.9075523483196252,0.8866473907408372,2.0904957578787964
32,5,0.9075523483196252,0.9194447707366562,-1.1892422417031034
32,6,0.9075523483196252,0.9093550251050249,-0.18026767853996928
32,7,0.9075523483196252,0.8214201212488592,8.613222707076595
32,8,0.9075523483196252,0.9176245616344912,-1.0072213314866074
33,0,0.9296735922987616,0.8969787816645661,3.2694810634195437
33,1,0.9296735922987616,0.9267738119743988,0.28997803243627773
33,2,0.9296735922987616,0.9182241554812058,1.1449436817555725
33,3,0.9296735922987616,0.9159325394695409,1.3741052829220668
33,4,0.9296735922987616,0.9287866426199474,0.08869496788141973
33,5,0.9296735922987616,0.9320980945772126,-0.2424502278451035
33,6,0.9296735922987616,0.9013549829245945,2.831860937416708
33,7,0.9296735922987616,0.9092256904441884,2.0447901854573125
33,8,0.9296735922987616,0.9236139613348515,0.6059630963910045
34,0,0.9201249477061342,0.866415721025267,5.3709226680867195
34,1,0.9201249477061342,0.8965767578482411,2.3548189857893087
34,2,0.9201249477061342,0.9337089754324033,-1.35840277262691
34,3,0.9201249477061342,0.889509284575074,3.0615663131060122
34,4,0.9201249477061342,0.9012120961236005,1.891285158253364
34,5,0.9201249477061342,0.9074693304051102,1.2655617301023936
34,6,0.9201249477061342,0.9180631352719483,0.20618124341859057
34,7,0.9201249477061342,0.887433196708029,3.2691750998105173
34,8,0.9201249477061342,0.8976669615214506,2.245798618468353
35,0,0.744004046378075,0.7063981830772875,3.7605863300787523
35,1,0.744004046378075,0.7201172461627852,2.3886800215289883
35,2,0.744004046378075,0.7304584716555458,1.3545574722529263
35,3,0.744004046378075,0.7357419769754753,0.826206940259977
35,4,0.744004046378075,0.7335957165089295,1.0408329869145527
35,5,0.744004046378075,0.7246594072105891,1.9344639167485966
35,6,0.744004046378075,0.7349742852448242,0.9029761133250824
35,7,0.744004046378075,0.7230903733412185,2.091367303685654
35,8,0.744004046378075,0.7139204548790106,3.0083591499064477
36,0,0.8432390821786055,0.7994358781724658,4.3803204006139795
36,1,0.8432390821786055,0.8196797852118218,2.3559296966783716
36,2,0.8432390821786055,0.8165183446136007,2.6720737565004815
36,3,0.8432390821786055,0.7991495557711259,4.408952640747965
36,4,0.8432390821786055,0.8359851928051837,0.7253889373421862
36,5,0.8432390821786055,0.8337844572584587,0.9454624920146815
36,6,0.8432390821786055,0.8275940118200484,1.5645070358557112
36,7,0.8432390821786055,0.7908293576886027,5.240972449000281
36,8,0.8432390821786055,0.7707102882255383,7.252879395306722
37,0,0.9212692704612633,0.8746423685167699,4.662690194449337
37,1,0.9212692704612633,0.8985107378556026,2.275853260566063
37,2,0.9212692704612633,0.89420011473764,2.706915572362323
37,3,0.9212692704612633,0.9164373088685015,0.483196159276178
37,4,0.9212692704612633,0.9188225251186695,0.24467453425938146
37,5,0.9212692704612633,0.9168932390802291,0.4376031381034151
37,6,0.9212692704612633,0.8998806835657067,2.138858689555656
37,7,0.9212692704612633,0.8528090415322416,6.8460228929021705
37,8,0.9212692704612633,0.9053595801994456,1.5909690261817655
38,0,0.927716528891289,0.8751518855745833,5.256464331670562
38,1,0.927716528891289,0.8867813579771091,4.093517091417986
38,2,0.927716528891289,0.9081522330191021,1.9564295872186888
38,3,0.927716528891289,0.9024053792251885,2.5311149666100485
38,4,0.927716528891289,0.8843425076452599,4.337402124602907
38,5,0.927716528891289,0.9241093123039155,0.36072165873735074
38,6,0.927716528891289,0.9325119604364888,-0.4795431545199791
38,7,0.927716528891289,0.9175025672622715,1.0213961629017443
38,8,0.927716528891289,0.8926328107000376,3.5083718191251334
39,0,0.8608115266952459,0.8264029568206068,3.440856987463903
39,1,0.8608115266952459,0.8542920659276156,0.6519460767630214
39,2,0.8608115266952459,0.871510832906457,-1.069930621121118
39,3,0.8608115266952459,0.803266175564113,5.75453511311329
39,4,0.8608115266952459,0.8422158546022385,1.8595672093007387
39,5,0.8608115266952459,0.8781814230966772,-1.7369896401431384
39,6,0.8608115266952459,0.870507736725004,-0.9696210029758179
39,7,0.8608115266952459,0.8320788778834342,2.87326488118117
39,8,0.8608115266952459,0.8603509437883683,0.04605829068775602
40,0,0.8590816188642276,0.7868014498121119,7.228016905211576
40,1,0.8590816188642276,0.8414890065631575,1.759261230107012
40,2,0.8590816188642276,0.8851949425786154,-2.6113323714387793
40,3,0.8590816188642276,0.8386875455299053,2.0394073334322305
40,4,0.8590816188642276,0.8418910931286221,1.7190525735605533
40,5,0.8590816188642276,0.8718127121104426,-1.273109324621502
40,6,0.8590816188642276,0.8219478901145266,3.7133728749701
40,7,0.8590816188642276,0.815977550440466,4.310406842376158
40,8,0.8590816188642276,0.8317617165443252,2.7319902319902445
