subject,channel,r,f1_drop_mean,f1_drop_sd
1,0,5,0.10888456238082793,0.012448667141749614
1,1,5,0.08698787131261439,0.01615362824223934
1,2,5,0.11578618449928557,0.019471417863581753
1,3,5,0.08698484886287342,0.0181288939949322
1,4,5,0.03602984652605188,0.007262321440819518
1,5,5,0.04645377954463894,0.0155139264594969
1,6,5,0.024320188024509637,0.015121813142849092
1,7,5,0.12302945667109182,0.016124515633588205
1,8,5,0.08810455267361991,0.019199266335064493
2,0,5,0.07405931450611788,0.02196242890945999
2,1,5,0.053077135469047264,0.02365294179280795
2,2,5,0.03225975629505036,0.01453692796975782
2,3,5,0.06381515644364415,0.024622945210557304
2,4,5,0.1491662473534474,0.014765245322824137
2,5,5,0.18002708447021906,0.012638829369921232
2,6,5,0.0675043068002658,0.01154805084894589
2,7,5,0.13830109828636022,0.023372899098050542
2,8,5,0.06178531229622206,0.006911251260678684
3,0,5,0.044093962714051194,0.01934719951274722
3,1,5,0.06150089949413593,0.029977960664019747
3,2,5,0.05965681787735779,0.01169030428651167
3,3,5,0.06574677663477464,0.026431896905484885
3,4,5,0.13059462931908508,0.011836998795627345
3,5,5,0.074816261243291,0.022136888869408438
3,6,5,0.05825247465301788,0.01213487729626773
3,7,5,0.10502395930597153,0.008432595110875036
3,8,5,0.09606014512024205,0.01982561674711785
4,0,5,0.06942618602894235,0.023938860769002184
4,1,5,0.12751134243862147,0.012260463331990705
4,2,5,0.05924405933211674,0.01967607136055303
4,3,5,0.1068954643404993,0.006473550341853146
4,4,5,0.17260709342670222,0.01643007391125296
4,5,5,0.10135762303574189,0.008860015877781345
4,6,5,0.04503053637071186,0.01384334387815546
4,7,5,0.1061978763094575,0.012271835518850286
4,8,5,0.1504411339124997,0.016386069322249244
5,0,5,0.048894976623426366,0.014236114035799854
5,1,5,0.04582337773085805,0.011981175278172431
5,2,5,0.05928204852054562,0.013933415700915176
5,3,5,0.04471020252600717,0.010868073853321357
5,4,5,0.07186847910435246,0.015354454894312763
5,5,5,0.07741254714602855,0.01238294731388545
5,6,5,0.035638761899761895,0.006073079753365881
5,7,5,0.05031239019270706,0.016948745305545555
5,8,5,0.10140757273921171,0.008462239311802837
6,0,5,0.16091295043595258,0.02019362693284219
6,1,5,0.11744454901346639,0.012867004079989537
6,2,5,0.0664434186751797,0.01926941336965962
6,3,5,0.035151737095757786,0.011592194755366087
6,4,5,0.1622840684808869,0.015740924887604688
6,5,5,0.09812640434556322,0.010003258272925699
6,6,5,0.022289146258448866,0.015358712783845123
6,7,5,0.11080942737184118,0.013093638480741
6,8,5,0.12498736822728937,0.01129972054696596
7,0,5,0.08077096688999426,0.02647429555114093
7,1,5,0.13688323940896027,0.02278928747233051
7,2,5,0.14563783264322622,0.014092567300757877
7,3,5,0.08027701986933274,0.01151633928963453
7,4,5,0.12347179899218041,0.01610580977932069
7,5,5,0.15489315046625632,0.018163419101746143
7,6,5,0.04730981455963583,0.021986940606536682
7,7,5,0.11092440701303183,0.021589437554492236
7,8,5,0.1303389046034662,0.015554917483938172
8,0,5,0.044588388365402645,0.010101119532060164
8,1,5,0.06252622612919394,0.017552875037495554
8,2,5,0.048178935198654974,0.01104849192700237
8,3,5,0.04531469442175782,0.024203986665321166
8,4,5,0.07866804455742644,0.026862456130561606
8,5,5,0.12698549890193164,0.019734780749337884
8,6,5,0.05615822783811619,0.01718938848670794
8,7,5,0.11843679602713615,0.011763686220393896
8,8,5,0.08360258285861462,0.024207733567891188
9,0,5,0.09330360462877989,0.016713662487587336
9,1,5,0.10396974768068476,0.021424816088063625
9,2,5,0.07614442996836006,0.01705275621633226
9,3,5,0.053885365032174226,0.023392226321744078
9,4,5,0.12630066156320224,0.017955390454956918
9,5,5,0.1009840774848646,0.0062208863013434494
9,6,5,0.06341318956663874,0.02201657682103223
9,7,5,0.16448165184240202,0.007900857515911254
9,8,5,0.13386782590256657,0.007193330108758065
10,0,5,0.13018946531946568,0.01512230594508496
10,1,5,0.025556529091342782,0.020883171239427314
10,2,5,0.025919431811189032,0.038708205656346986
10,3,5,0.0977522176199159,0.010545772676129741
10,4,5,0.10451537244636636,0.028717301317603815
10,5,5,0.153196689373631,0.02469567993521787
10,6,5,0.006138656828375599,0.018199244368094503
10,7,5,0.0821098520707176,0.02150131046847829
10,8,5,0.025446903678058196,0.03094986647567286
11,0,5,0.07738263382329458,0.016829462016784008
11,1,5,0.08830704184611275,0.010652433542900915
11,2,5,0.07239158532025532,0.010448666170526989
11,3,5,0.08569987275679199,0.011972112415737687
11,4,5,0.12352501428626997,0.008307666978708684
11,5,5,0.006412711949400229,0.012716984093644362
11,6,5,0.060537827653234254,0.012827695648972516
11,7,5,0.11439883930299574,0.011752925739904373
11,8,5,0.1308632080218405,0.014373605206671997
12,0,5,0.0659304378626034,0.007608744874720427
12,1,5,0.0649356717894195,0.018503838965099093
12,2,5,0.09701453420715582,0.019355237069000455
12,3,5,0.06223407970662227,0.007875476821073084
12,4,5,0.13304697705998092,0.014762227260071255
12,5,5,0.11097426415247277,0.012994519360187454
12,6,5,0.04587917396802219,0.009568949853999127
12,7,5,0.11063397201525878,0.01887301824789395
12,8,5,0.07994384180412133,0.013296893903297904
13,0,5,0.12182567493315717,0.02382809543133945
13,1,5,0.06974104861536926,0.009109422461767346
13,2,5,0.06084631616850755,0.008775525831670062
13,3,5,0.03686310258066949,0.007839285398760682
13,4,5,0.1698013026049381,0.0057081111120575265
13,5,5,0.16456193851724965,0.005934589365226298
13,6,5,0.05494194245377073,0.011732421503569526
13,7,5,0.08415936567296615,0.00518111600747008
13,8,5,0.08571375232145666,0.018730153725612167
14,0,5,0.06342174408853651,0.011877303141898504
14,1,5,0.06380176352811809,0.014297415705409893
14,2,5,0.06858466958362719,0.010241671992282068
14,3,5,0.0877482782908812,0.013047440875442412
14,4,5,0.15486539649794623,0.013141344545532159
14,5,5,0.05276860552585032,0.011499950746326816
14,6,5,0.017280381453501192,0.008835153087617462
14,7,5,0.07275491110764362,0.01603455268809407
14,8,5,0.12830718254130408,0.01666692920139304
15,0,5,0.10956698045849407,0.018431363251899216
15,1,5,0.054674601300878936,0.010535459544091836
15,2,5,0.05904960980755625,0.013481753691092805
15,3,5,0.053774722850089815,0.013114298614758565
15,4,5,0.13892122562374426,0.019105540755487874
15,5,5,0.12910831234867662,0.024666138861830455
15,6,5,0.06519721795227773,0.013082130243213445
15,7,5,0.08554514862367993,0.013717284357167184
15,8,5,0.04020830562415025,0.01076740520560722
16,0,5,0.06511204958838272,0.0132295674690344
16,1,5,0.0689063337392271,0.013422557907628571
16,2,5,0.09019549812512088,0.012948625698923917
16,3,5,0.041397214049408125,0.011279055117271172
16,4,5,0.08107651533650972,0.01634243674105165
16,5,5,0.08076288514227584,0.009369536090108948
16,6,5,0.005704439539187156,0.012198225463151151
16,7,5,0.09398271645147727,0.013672058940547292
16,8,5,0.09146037611395612,0.014747204155402323
17,0,5,0.14935593810455308,0.012968473490496402
17,1,5,0.06776199046464493,0.016801867290556622
17,2,5,0.07390072343524687,0.02139004845317183
17,3,5,0.13112277722317883,0.009751664251246486
17,4,5,0.15463804062163805,0.006688774392494659
17,5,5,0.14906959325947017,0.01858049319999074
17,6,5,0.042937468156727124,0.012431591872363302
17,7,5,0.08001458354945501,0.005739426260968101
17,8,5,0.1394818903857506,0.016226188552513173
18,0,5,0.08665389330143428,0.0046851189059369525
18,1,5,0.04962432169397564,0.013162475946381055
18,2,5,0.07707712565093454,0.006768358242463737
18,3,5,0.14171679477185145,0.016823271285135343
18,4,5,0.0690421245014056,0.015321963381355367
18,5,5,0.12918484096737592,0.01581297728534473
18,6,5,0.011752181786212401,0.007753159944971104
18,7,5,0.1219428906654175,0.019067946604011256
18,8,5,0.05177886078265024,0.022996057092442648
19,0,5,0.08106085268343446,0.012813275780235304
19,1,5,0.08148789447265556,0.010394428830239348
19,2,5,0.07906625632694438,0.012228288621418159
19,3,5,0.07405174931101102,0.01036989362198236
19,4,5,0.04756266710938828,0.017682371790768724
19,5,5,0.11230107140780288,0.012184772995946938
19,6,5,0.039097188242124645,0.006620092281513591
19,7,5,0.14517448829711577,0.01340576597884692
19,8,5,0.09233659576890041,0.00935786869321087
20,0,5,0.04126454611489019,0.026319019588150718
20,1,5,0.06825327210217132,0.01159824985988622
20,2,5,0.09566916231134648,0.014603719725907736
20,3,5,0.013663644244508232,0.015035808128925425
20,4,5,0.09857917335280153,0.022640007063942338
20,5,5,0.13442133693306643,0.026672632797674314
20,6,5,0.03132711876834817,0.010910422990506539
20,7,5,0.05699407672073083,0.022203778420338927
20,8,5,0.10004550373397872,0.025914685748761445
21,0,5,0.1270454030887221,0.023054907228493245
21,1,5,0.0436265687940276,0.011553546031984193
21,2,5,0.06073474413190192,0.00948855104957081
21,3,5,0.0493996869726238,0.018325413253169838
21,4,5,0.11238382823287958,0.02088743598683802
21,5,5,0.17012320938662812,0.019764499190317607
21,6,5,0.024828982222117667,0.010905936733263242
21,7,5,0.12255738837736048,0.010989766870726236
21,8,5,0.13093427110015526,0.016999508749708566
22,0,5,0.1027457396513352,0.020817582868001377
22,1,5,0.0621950605496794,0.02068034100738978
22,2,5,0.07082006385658264,0.009114251580146327
22,3,5,0.0822966618877881,0.013772162856627466
22,4,5,0.12134912162814873,0.02150157157215633
22,5,5,0.1359407391348752,0.007875700118208226
22,6,5,0.05022388165005427,0.01707426273224768
22,7,5,0.12594873184136565,0.010477104004459137
22,8,5,0.10367283918322734,0.006712796267903329
23,0,5,0.1050214328062091,0.011786111870781317
23,1,5,0.05613054316399606,0.011267211557082695
23,2,5,0.06498961543860157,0.010679603894141191
23,3,5,0.05937595102346136,0.019920801751065406
23,4,5,0.13706535805798636,0.01606792605697529
23,5,5,0.07780407127711557,0.024351847416909357
23,6,5,0.05225812559272018,0.02425148438854138
23,7,5,0.09768752047180884,0.010066024581107289
23,8,5,0.06770673617494134,0.005462665932669939
24,0,5,0.014030284931956483,0.00892320174078868
24,1,5,0.03959803738490721,0.015265791190094026
24,2,5,0.08916162702169914,0.012053422294790443
24,3,5,0.004281602869028234,0.010725141066120077
24,4,5,0.11148668280263825,0.019998224411809436
24,5,5,0.10021347223858482,0.018787913601541133
24,6,5,0.04213686882736807,0.003558046199100563
24,7,5,0.10719631441122941,0.009403771176050936
24,8,5,0.09037566216616513,0.005855119282233786
25,0,5,0.09474236313790318,0.010435310957833437
25,1,5,0.04369182487327587,0.025210047044789487
25,2,5,0.051655376979581114,0.012307118054826158
25,3,5,0.060896835120948414,0.02047682241285368
25,4,5,0.10816111909308787,0.013087125408629902
25,5,5,0.035021993539630224,0.009278502006758994
25,6,5,0.013341937206104104,0.011611981339813194
25,7,5,0.05875736551106196,0.015464332209217217
25,8,5,0.06250890639049038,0.009725660378308715
26,0,5,0.09208977497803768,0.022632431135142034
26,1,5,0.039679079868255585,0.007310403005324949
26,2,5,0.04730492079188775,0.007911352651268114
26,3,5,0.05990933868398447,0.00982428020026214
26,4,5,0.09314010267953543,0.009303852260610907
26,5,5,0.11004119681598243,0.00572321087511421
26,6,5,0.06841074554672844,0.011405403040934379
26,7,5,0.1095290979199803,0.020965103918184413
26,8,5,0.07703504839487621,0.011467123385977359
27,0,5,0.09978675532568337,0.01968245899251146
27,1,5,0.04177087890584012,0.028219274354104467
27,2,5,0.08819389870314095,0.015515207409491768
27,3,5,0.03838476845166243,0.00861384878486467
27,4,5,0.14103676083214517,0.020952678638795793
27,5,5,0.1344387403092355,0.003815171967293855
27,6,5,0.03454944201697128,0.014906737130355294
27,7,5,0.09508945607269806,0.016143970807654458
27,8,5,0.04151978104052674,0.0067031083361913935
28,0,5,0.1115905639626796,0.010928095624643893
28,1,5,0.06357172866577443,0.012673904653938532
28,2,5,0.03334069017311523,0.016809322435789455
28,3,5,0.07214836080901513,0.014522786867854407
28,4,5,0.14798805736171994,0.03148669412454346
28,5,5,0.23855904731654903,0.023317774350978804
28,6,5,0.033023035160527,0.007147864463176033
28,7,5,0.07542289677957148,0.015933088474900676
28,8,5,0.14840773396705292,0.020614259956677265
29,0,5,0.10732003502554344,0.018476283840218145
29,1,5,0.02519212838632474,0.020137777145528786
29,2,5,0.06833379943528561,0.008731977289516623
29,3,5,0.06877749233938615,0.004937094261412737
29,4,5,0.20453434816994634,0.021637813805106064
29,5,5,0.18845229193754637,0.013772226138405919
29,6,5,0.02984565983409506,0.017882360012368134
29,7,5,0.09794023385977904,0.010342007919435068
29,8,5,0.10469331069642811,0.006518467714168407
30,0,5,0.05941304975870998,0.010140305541230469
30,1,5,0.0560476652723114,0.005595899810805043
30,2,5,0.08086516827800538,0.012069143930263248
30,3,5,0.05887664394265777,0.012594137221693306
30,4,5,0.10697337789903846,0.013955595100776007
30,5,5,0.19288961477077682,0.017452167040979263
30,6,5,0.03252204089644182,0.012942978493788285
30,7,5,0.12740316033540483,0.01786567594341359
30,8,5,0.070745553514648,0.02650099614697376
31,0,5,0.08141031914133387,0.016126107916753653
31,1,5,0.057150649660670585,0.015631647691427563
31,2,5,0.07509442611267014,0.013524229537665666
31,3,5,0.06158828264823939,0.012330450164514095
31,4,5,0.11710614895718649,0.014139353914914525
31,5,5,0.11912403856803558,0.015867556357869708
31,6,5,0.05298862072493064,0.011121893823032927
31,7,5,0.11183075934156232,0.011641078473313516
31,8,5,0.10605447741748716,0.022363105360409207
32,0,5,0.1322993213658056,0.01784399672890506
32,1,5,0.06907135162999152,0.028383261936614758
32,2,5,0.09108599687774502,0.014700454443175425
32,3,5,0.04565472991395734,0.016922313827653575
32,4,5,0.18956596300641887,0.014734379867743959
32,5,5,0.10574777815536077,0.0156257274364995
32,6,5,0.03396075777847627,0.009559351504356828
32,7,5,0.16600342339777768,0.016336087059917567
32,8,5,0.09565943561601134,0.014496198615628621
33,0,5,0.10806014530039632,0.02120979275422425
33,1,5,0.10557370131305646,0.013237372960454461
33,2,5,0.05272694686500212,0.005235008244405987
33,3,5,0.06247180177092402,0.015304769485118339
33,4,5,0.10157596962016877,0.012466988210019495
33,5,5,0.13024807830919244,0.012124998017580846
33,6,5,0.08045393345577061,0.017909928094243528
33,7,5,0.11687089132554437,0.011911057183821832
33,8,5,0.0808137579254006,0.009711982397554452
34,0,5,0.11040694929493126,0.021007651749545303
34,1,5,0.05531476749408439,0.008860279913507794
34,2,5,0.055267337261741226,0.01909378492151269
34,3,5,0.07122218707419077,0.012099534359311239
34,4,5,0.10011248875484446,0.009869910329325719
34,5,5,0.12875527399630068,0.01606344444039158
34,6,5,0.0340304223671708,0.004583714883585511
34,7,5,0.15212934932513067,0.02131059058416897
34,8,5,0.07896578597490359,0.011441943483819486
35,0,5,0.09441402245770014,0.014185098486663649
35,1,5,0.04558071422686964,0.020204149928588957
35,2,5,0.057123397775182515,0.01395267906676805
35,3,5,0.04444189278630477,0.011948120459818197
35,4,5,0.04456360043224217,0.012812191242504793
35,5,5,0.12873685736025584,0.01230434924376882
35,6,5,0.02625976617011492,0.008656038802505686
35,7,5,0.08182346512737453,0.007967668353393966
35,8,5,0.05949530349544929,0.014026171049709449
36,0,5,0.05469871547577798,0.013968050239767837
36,1,5,0.05271326346672365,0.015099698049319137
36,2,5,0.04644315108711368,0.009307259179529067
36,3,5,0.06412813515567709,0.012978829484465354
36,4,5,0.06832134776065626,0.013358581862043596
36,5,5,0.12349179888166321,0.031552512185066
36,6,5,0.04655522892580173,0.01783868363458897
36,7,5,0.16209174267571425,0.011619088957288998
36,8,5,0.11887594211103089,0.013879201010951709
37,0,5,0.0914470574868875,0.02494766628598016
37,1,5,0.05688789915479997,0.0064846030851949555
37,2,5,0.07050903079038688,0.012592166324921418
37,3,5,0.04171729724664108,0.018111382751406817
37,4,5,0.19989941523595267,0.009663726244354805
37,5,5,0.1573259520358419,0.007020711868404597
37,6,5,0.031206073300453753,0.011897605106352361
37,7,5,0.12887038582706983,0.013632281293619302
37,8,5,0.0730829187051194,0.024833982770485215
38,0,5,0.05869257824209619,0.01089252060129569
38,1,5,0.0867964454187676,0.014892327280219284
38,2,5,0.056242939977667473,0.01486906531498526
38,3,5,0.0828219229494184,0.028485583305627227
38,4,5,0.1813529255146453,0.01743088422337134
38,5,5,0.15745400143495253,0.020160636169292197
38,6,5,0.07538517873581448,0.023719268073828854
38,7,5,0.1175376216103576,0.012499407425582853
38,8,5,0.07769833857553336,0.023280249849046673
39,0,5,0.09565454056889637,0.01002485969500524
39,1,5,0.05600909512849093,0.022752505773594663
39,2,5,0.04449826936692489,0.01395906723438169
39,3,5,0.08407432573625981,0.014730230892576482
39,4,5,0.09991177284889807,0.027755908626108994
39,5,5,0.19526337725631626,0.007059962460132717
39,6,5,0.03968149658625138,0.01102612495995282
39,7,5,0.12021924981728027,0.009198961314864017
39,8,5,0.06721194263504886,0.015220360900874074
40,0,5,0.1850668506901661,0.016018888803411537
40,1,5,0.09924730663610655,0.010954757019232235
40,2,5,0.03480091621168428,0.02190234983159689
40,3,5,0.036596161866103774,0.012146415264466257
40,4,5,0.14571491128219433,0.00961887075159187
40,5,5,0.12327969900083866,0.023144484746579628
40,6,5,0.07081142626572638,0.009659064172182198
40,7,5,0.12501873221884208,0.023674601667649137
40,8,5,0.07083256655015044,0.01819783805821813
