subject,channel,alpha,f1,drop_pp
1,0,1.0,0.678405274295729,0.0
1,0,0.75,0.6685874662630891,0.9817808032639985
1,0,0.5,0.6741916376807923,0.4213636614936789
1,0,0.25,0.6753017469138411,0.3103527381887905
1,0,0.0,0.6530754181066429,2.532985618908612
1,1,1.0,0.678405274295729,0.0
1,1,0.75,0.6750547057505902,0.3350568545138821
1,1,0.5,0.6756018570909419,0.2803417204787162
1,1,0.25,0.6839884652384652,-0.5583190942736183
1,1,0.0,0.6846887573869144,-0.6283483091185316
1,2,1.0,0.678405274295729,0.0
1,2,0.75,0.6867111387820121,-0.830586448628301
1,2,0.5,0.6898488732618502,-1.1443598966121127
1,2,0.25,0.6643523994825044,1.4052874813224703
1,2,0.0,0.6735272784009548,0.4877995894774223
1,3,1.0,0.678405274295729,0.0
1,3,0.75,0.6808021774839591,-0.23969031882300484
1,3,0.5,0.6721327079782962,0.6272566317432893
1,3,0.25,0.6561106561031236,2.2294618192605475
1,3,0.0,0.6457425184595376,3.2662755836191493
1,4,1.0,0.678405274295729,0.0
1,4,0.75,0.6931932711576637,-1.478799686193466
1,4,0.5,0.7031252001901048,-2.471992589437577
1,4,0.25,0.7148667077084003,-3.6461433412671274
1,4,0.0,0.7097927282921856,-3.1387453996456594
1,5,1.0,0.678405274295729,0.0
1,5,0.75,0.6475895060395398,3.0815768256189258
1,5,0.5,0.6204775623360325,5.792771195969659
1,5,0.25,0.6105797547249503,6.782551957077876
1,5,0.0,0.6017376903373269,7.666758395840212
1,6,1.0,0.678405274295729,0.0
1,6,0.75,0.6870063545839944,-0.8601080288265339
1,6,0.5,0.7002376671578093,-2.1832392862080274
1,6,0.25,0.7144128771178162,-3.600760282208715
1,6,0.0,0.7199265771276245,-4.152130283189548
1,7,1.0,0.678405274295729,0.0
1,7,0.75,0.6724965762091127,0.5908698086616315
1,7,0.5,0.6436846073989593,3.472066689676978
1,7,0.25,0.6142555385758783,6.4149735719850725
1,7,0.0,0.5794750013037887,9.893027299194035
1,8,1.0,0.678405274295729,0.0
1,8,0.75,0.6761832656581505,0.22220086375785986
1,8,0.5,0.679829525883982,-0.14242515882529894
1,8,0.25,0.6605612413575797,1.7844032938149401
1,8,0.0,0.6486308575868954,2.977441670883363
2,0,1.0,0.8645669018202569,0.0
2,0,0.75,0.8794642825954981,-1.4897380775241276
2,0,0.5,0.8896640179687474,-2.509711614849053
2,0,0.25,0.880938422467389,-1.6371520647132098
2,0,0.0,0.8740265572469158,-0.9459655426658942
2,1,1.0,0.8645669018202569,0.0
2,1,0.75,0.8643138593465556,0.025304247370128152
2,1,0.5,0.8578529443369869,0.6713957483269972
2,1,0.25,0.8416438193223181,2.292308249793873
2,1,0.0,0.8378962829194566,2.6670618900800247
2,2,1.0,0.8645669018202569,0.0
2,2,0.75,0.8642080551049043,0.03588467153525787
2,2,0.5,0.841640177641713,2.292672417854391
2,2,0.25,0.8332335541825188,3.1333347637738096
2,2,0.0,0.8295978438541423,3.4969057966114603
2,3,1.0,0.8645669018202569,0.0
2,3,0.75,0.8509517922858492,1.3615109534407699
2,3,0.5,0.8522122521263761,1.2354649693880781
2,3,0.25,0.846038781112473,1.8528120707783868
2,3,0.0,0.84825225456511,1.6314647255146864
2,4,1.0,0.8645669018202569,0.0
2,4,0.75,0.8601924257319479,0.4374476088308987
2,4,0.5,0.8598516712392501,0.47152305810067574
2,4,0.25,0.8497091411336138,1.4857760686643018
2,4,0.0,0.8496612764146434,1.4905625405613465
2,5,1.0,0.8645669018202569,0.0
2,5,0.75,0.8591067563116689,0.5460145508587977
2,5,0.5,0.8665548873190883,-0.19879854988313905
2,5,0.25,0.8638306882405218,0.07362135797350788
2,5,0.0,0.8580505631273296,0.6516338692927226
2,6,1.0,0.8645669018202569,0.0
2,6,0.75,0.8635169665650878,0.10499352551690544
2,6,0.5,0.8571120209447416,0.7454880875515268
2,6,0.25,0.839329647097791,2.523725472246585
2,6,0.0,0.8415662705429582,2.3000631277298678
2,7,1.0,0.8645669018202569,0.0
2,7,0.75,0.8486602761611322,1.5906625659124707
2,7,0.5,0.841078937330986,2.348796448927082
2,7,0.25,0.8465642674694399,1.8002634350816948
2,7,0.0,0.8315736413260639,3.2993260494192933
2,8,1.0,0.8645669018202569,0.0
2,8,0.75,0.866434991554572,-0.18680897343151814
2,8,0.5,0.866434991554572,-0.18680897343151814
2,8,0.25,0.8651742022574154,-0.06073004371585089
2,8,0.0,0.8529506015860295,1.1616300234227328
3,0,1.0,0.9171917142554475,0.0
3,0,0.75,0.9231209915239673,-0.5929277268519773
3,0,0.5,0.9144965123020016,0.2695201953445969
3,0,0.25,0.9116249021896212,0.5566812065826321
3,0,0.0,0.8881550077480894,2.9036706507358123
3,1,1.0,0.9171917142554475,0.0
3,1,0.75,0.9216485160737675,-0.44568018183199776
3,1,0.5,0.9166090562089477,0.05826580464998177
3,1,0.25,0.9195901910408514,-0.23984767854038358
3,1,0.0,0.9081680106192799,0.9023703636167668
3,2,1.0,0.9171917142554475,0.0
3,2,0.75,0.9138766763527613,0.331503790268628
3,2,0.5,0.9142273650724697,0.29643491829778323
3,2,0.25,0.9099409093511339,0.7250804904313624
3,2,0.0,0.9053598526264208,1.1831861629026719
3,3,1.0,0.9171917142554475,0.0
3,3,0.75,0.9059785854692509,1.1213128786196624
3,3,0.5,0.8878487830875111,2.9342931167936404
3,3,0.25,0.8507299889652831,6.6461725290164475
3,3,0.0,0.8095350208673562,10.765669338809136
3,4,1.0,0.9171917142554475,0.0
3,4,0.75,0.9166377072303196,0.05540070251279783
3,4,0.5,0.9074531094820576,0.9738604773389947
3,4,0.25,0.9131224935813883,0.40692206740592374
3,4,0.0,0.9143926119166279,0.2799102338819637
3,5,1.0,0.9171917142554475,0.0
3,5,0.75,0.9296363989317549,-1.2444684676307327
3,5,0.5,0.9258795997321981,-0.868788547675059
3,5,0.25,0.9227179774459998,-0.5526263190552272
3,5,0.0,0.9258402324918529,-0.8648518236405334
3,6,1.0,0.9171917142554475,0.0
3,6,0.75,0.9231209915239673,-0.5929277268519773
3,6,0.5,0.9231209915239673,-0.5929277268519773
3,6,0.25,0.9203376683856672,-0.3145954130219675
3,6,0.0,0.9166701995625354,0.05215146929121728
3,7,1.0,0.9171917142554475,0.0
3,7,0.75,0.9201648174780972,-0.29731032226496534
3,7,0.5,0.9147938705064796,0.23978437489678983
3,7,0.25,0.9074336290023232,0.9758085253124382
3,7,0.0,0.8927631201905126,2.4428594064934916
3,8,1.0,0.9171917142554475,0.0
3,8,0.75,0.9228150545059564,-0.5623340250508813
3,8,0.5,0.9253907741510897,-0.819905989564218
3,8,0.25,0.9258318753177809,-0.864016106233334
3,8,0.0,0.9131024400441482,0.4089274211299343
4,0,1.0,0.8293275452630596,0.0
4,0,0.75,0.821240985622613,0.8086559640446578
4,0,0.5,0.8193419060740976,0.9985639188962003
4,0,0.25,0.8146563356114918,1.4671209651567874
4,0,0.0,0.817559024810044,1.1768520453015574
4,1,1.0,0.8293275452630596,0.0
4,1,0.75,0.8082208726966702,2.110667256638943
4,1,0.5,0.7863626283241237,4.296491693893589
4,1,0.25,0.7695416757222684,5.978586954079123
4,1,0.0,0.7627474640069313,6.658008125612835
4,2,1.0,0.8293275452630596,0.0
4,2,0.75,0.8273167411599675,0.20108041030921786
4,2,0.5,0.8291033203632528,0.022422489980677973
4,2,0.25,0.8360112638197567,-0.6683718556697027
4,2,0.0,0.8349989866664923,-0.5671441403432675
4,3,1.0,0.8293275452630596,0.0
4,3,0.75,0.8397551969599669,-1.0427651696907292
4,3,0.5,0.8522270830529007,-2.2899537789841107
4,3,0.25,0.8646396669675241,-3.5312121704464516
4,3,0.0,0.8644088574555999,-3.5081312192540293
4,4,1.0,0.8293275452630596,0.0
4,4,0.75,0.9074530351795119,-7.8125489916452295
4,4,0.5,0.9014801379304817,-7.215259266742202
4,4,0.25,0.894516097006623,-6.518855174356341
4,4,0.0,0.9020772778625328,-7.2749732599473145
4,5,1.0,0.8293275452630596,0.0
4,5,0.75,0.8101052488160034,1.9222296447056197
4,5,0.5,0.8110506321981931,1.8276913064866562
4,5,0.25,0.8259742463231934,0.3353298939866245
4,5,0.0,0.8231277890464862,0.6199756216573427
4,6,1.0,0.8293275452630596,0.0
4,6,0.75,0.8459032783073703,-1.6575733044310703
4,6,0.5,0.8784627198391873,-4.9135174576127705
4,6,0.25,0.8700979935650922,-4.077044830203258
4,6,0.0,0.8843592775829398,-5.503173231988012
4,7,1.0,0.8293275452630596,0.0
4,7,0.75,0.8218851236146633,0.7442421648396369
4,7,0.5,0.8104550526540235,1.8872492609036118
4,7,0.25,0.8115234276392628,1.7804117623796856
4,7,0.0,0.8119028598250765,1.7424685437983145
4,8,1.0,0.8293275452630596,0.0
4,8,0.75,0.8503128688140194,-2.0985323550959722
4,8,0.5,0.8666967994967322,-3.7369254233672544
4,8,0.25,0.851621229392647,-2.229368412958732
4,8,0.0,0.8409833157943692,-1.1655770531309617
5,0,1.0,0.658951394837171,0.0
5,0,0.75,0.655877693563305,0.30737012738659697
5,0,0.5,0.6643937382580214,-0.5442343420850371
5,0,0.25,0.6597186001881521,-0.07672053509810706
5,0,0.0,0.6515347969847439,0.7416597852427098
5,1,1.0,0.658951394837171,0.0
5,1,0.75,0.6609262931856803,-0.19748983485092797
5,1,0.5,0.6573893118314589,0.1562083005712145
5,1,0.25,0.6630346403400953,-0.4083245502924271
5,1,0.0,0.6713030308229143,-1.2351635985743292
5,2,1.0,0.658951394837171,0.0
5,2,0.75,0.6670025008241658,-0.8051105986994767
5,2,0.5,0.6617398182035173,-0.27884233663463265
5,2,0.25,0.6610935316309509,-0.21421367937798363
5,2,0.0,0.6576883129672983,0.1263081869872673
5,3,1.0,0.658951394837171,0.0
5,3,0.75,0.6871808474308717,-2.822945259370069
5,3,0.5,0.704037120998215,-4.5085726161044
5,3,0.25,0.7038083160998478,-4.485692126267682
5,3,0.0,0.6941998084558402,-3.524841361866915
5,4,1.0,0.658951394837171,0.0
5,4,0.75,0.6510059811525241,0.7945413684646963
5,4,0.5,0.6465276467034555,1.2423748133715495
5,4,0.25,0.6353967560632235,2.355463877394748
5,4,0.0,0.6253716348813999,3.3579759955771116
5,5,1.0,0.658951394837171,0.0
5,5,0.75,0.6532173448343345,0.5734050002836555
5,5,0.5,0.6487428849928127,1.0208509844358282
5,5,0.25,0.629563186031116,2.938820880605497
5,5,0.0,0.618833498715015,4.011789612215599
5,6,1.0,0.658951394837171,0.0
5,6,0.75,0.653516707542075,0.5434687295095997
5,6,0.5,0.6535679324300303,0.5383462407140716
5,6,0.25,0.6554447848367674,0.35066100004036427
5,6,0.0,0.6617310129994008,-0.27796181622298244
5,7,1.0,0.658951394837171,0.0
5,7,0.75,0.6546834525718515,0.42679422653195687
5,7,0.5,0.6569585854273432,0.19928094098278226
5,7,0.25,0.6562898043843373,0.2661590452833762
5,7,0.0,0.6607114657804738,-0.17600709433027717
5,8,1.0,0.658951394837171,0.0
5,8,0.75,0.663436150387515,-0.44847555503439995
5,8,0.5,0.6682587290440665,-0.9307334206895446
5,8,0.25,0.6503038226738471,0.8647572163323902
5,8,0.0,0.6480098102812738,1.0941584555897221
6,0,1.0,0.762952087924452,0.0
6,0,0.75,0.7539155129646857,0.9036574959766286
6,0,0.5,0.7553986610435539,0.7553426880898106
6,0,0.25,0.7604005448776905,0.25515430467615285
6,0,0.0,0.7625237652993087,0.04283226251433625
6,1,1.0,0.762952087924452,0.0
6,1,0.75,0.7472430766386594,1.5709011285792607
6,1,0.5,0.745130202965467,1.7821884958985068
6,1,0.25,0.7300910792759608,3.2861008648491175
6,1,0.0,0.7333182095259205,2.963387839853149
6,2,1.0,0.762952087924452,0.0
6,2,0.75,0.7789733190993434,-1.6021231174891404
6,2,0.5,0.7773748786043868,-1.4422790679934794
6,2,0.25,0.7752489806016346,-1.2296892677182591
6,2,0.0,0.7634928450859236,-0.05407571614716167
6,3,1.0,0.762952087924452,0.0
6,3,0.75,0.7749886116596707,-1.2036523735218685
6,3,0.5,0.7833360659623181,-2.038397803786607
6,3,0.25,0.7959879100001693,-3.3035822075717314
6,3,0.0,0.8005141599316644,-3.75620720072124
6,4,1.0,0.762952087924452,0.0
6,4,0.75,0.7550292679377294,0.7922819986722618
6,4,0.5,0.7364063174804001,2.654577044405193
6,4,0.25,0.7330680674233749,2.988402050107708
6,4,0.0,0.7244072814224064,3.8544806502045614
6,5,1.0,0.762952087924452,0.0
6,5,0.75,0.7518402548120615,1.1111833112390501
6,5,0.5,0.7408575016785163,2.2094586245935743
6,5,0.25,0.7438560970077864,1.9095990916665584
6,5,0.0,0.7524110600014429,1.054102792300915
6,6,1.0,0.762952087924452,0.0
6,6,0.75,0.7680912212418731,-0.5139133317421107
6,6,0.5,0.7588764259829344,0.407566194151765
6,6,0.25,0.7526416301553414,1.031045776911066
6,6,0.0,0.7580047308759452,0.4947357048506795
6,7,1.0,0.762952087924452,0.0
6,7,0.75,0.7505185264737969,1.2433561450655106
6,7,0.5,0.73310032162135,2.9851766303102045
6,7,0.25,0.7111496664714183,5.180242145303371
6,7,0.0,0.7021099043938197,6.084218353063231
6,8,1.0,0.762952087924452,0.0
6,8,0.75,0.7581723524776351,0.47797354468168685
6,8,0.5,0.7436526979811171,1.929938994333491
6,8,0.25,0.7205819426615319,4.237014526292016
6,8,0.0,0.7208404158457161,4.21116720787359
7,0,1.0,0.768659843876344,0.0
7,0,0.75,0.7842760736883095,-1.5616229811965532
7,0,0.5,0.784175331311476,-1.551548743513198
7,0,0.25,0.7618857435865896,0.6774100289754448
7,0,0.0,0.755925391592356,1.2734452283987951
7,1,1.0,0.768659843876344,0.0
7,1,0.75,0.7598201956839074,0.8839648192436655
7,1,0.5,0.7472384013815526,2.1421442494791387
7,1,0.25,0.7499781615085012,1.8681682367842845
7,1,0.0,0.7555563106209657,1.3103533255378275
7,2,1.0,0.768659843876344,0.0
7,2,0.75,0.7608956711157182,0.7764172760625798
7,2,0.5,0.751291463390083,1.7368380486260993
7,2,0.25,0.7400076439477402,2.8652199928603794
7,2,0.0,0.7354769750350124,3.318286884133159
7,3,1.0,0.768659843876344,0.0
7,3,0.75,0.7763303924536354,-0.7670548577291436
7,3,0.5,0.7749949892967974,-0.6335145420453436
7,3,0.25,0.7702087149706867,-0.1548871094342652
7,3,0.0,0.7617914136415022,0.6868430234841849
7,4,1.0,0.768659843876344,0.0
7,4,0.75,0.7674005265328051,0.12593173435389016
7,4,0.5,0.7605506288816822,0.8109214994661773
7,4,0.25,0.7712519620344493,-0.2592118158105339
7,4,0.0,0.7560118998340201,1.2647944042323944
7,5,1.0,0.768659843876344,0.0
7,5,0.75,0.7796182238443654,-1.0958379968021403
7,5,0.5,0.7932187320436739,-2.4558888167329873
7,5,0.25,0.80565143412737,-3.699159025102594
7,5,0.0,0.8139206810385873,-4.526083716224328
7,6,1.0,0.768659843876344,0.0
7,6,0.75,0.7533284800114493,1.5331363864894754
7,6,0.5,0.7674926485630941,0.11671953132499358
7,6,0.25,0.7768596954937954,-0.8199851617451404
7,6,0.0,0.7687233005607591,-0.006345668441509744
7,7,1.0,0.768659843876344,0.0
7,7,0.75,0.7649406387230783,0.37192051532657366
7,7,0.5,0.759208942265487,0.9450901610857043
7,7,0.25,0.7519751894505086,1.6684654425835443
7,7,0.0,0.7255066407502401,4.315320312610393
7,8,1.0,0.768659843876344,0.0
7,8,0.75,0.7708301003650679,-0.21702564887239317
7,8,0.5,0.7774494138265768,-0.8789569950232834
7,8,0.25,0.7830425136509576,-1.4382669774613555
7,8,0.0,0.7716501831923045,-0.29903393159604885
8,0,1.0,0.8433094214908514,0.0
8,0,0.75,0.857136814207008,-1.3827392716156628
8,0,0.5,0.8635402274180495,-2.023080592719806
8,0,0.25,0.857514072013803,-1.4204650522951612
8,0,0.0,0.8504797627781854,-0.7170341287333959
8,1,1.0,0.8433094214908514,0.0
8,1,0.75,0.852619244775054,-0.9309823284202601
8,1,0.5,0.8483513202010109,-0.5041898710159476
8,1,0.25,0.8461009075094037,-0.27914860185522805
8,1,0.0,0.8401202309445817,0.318919054626976
8,2,1.0,0.8433094214908514,0.0
8,2,0.75,0.8545865481647259,-1.1277126673874482
8,2,0.5,0.8515560986946604,-0.8246677203809005
8,2,0.25,0.8495318071966846,-0.6222385705833222
8,2,0.0,0.8557849781348906,-1.247555664403921
8,3,1.0,0.8433094214908514,0.0
8,3,0.75,0.8544521625028414,-1.1142741011989976
8,3,0.5,0.8556701507377987,-1.236072924694731
8,3,0.25,0.8424872389736549,0.0822182517196568
8,3,0.0,0.8361529877257527,0.7156433765098669
8,4,1.0,0.8433094214908514,0.0
8,4,0.75,0.8293280666573353,1.3981354833516146
8,4,0.5,0.807514914983641,3.579450650721039
8,4,0.25,0.8009865437651544,4.232287772569698
8,4,0.0,0.8168172221522905,2.649219933856095
8,5,1.0,0.8433094214908514,0.0
8,5,0.75,0.817672855494941,2.5636565995910465
8,5,0.5,0.8131156121217396,3.019380936911187
8,5,0.25,0.8125276064241903,3.078181506666111
8,5,0.0,0.8488448176932428,-0.5535396202391407
8,6,1.0,0.8433094214908514,0.0
8,6,0.75,0.848536037848139,-0.5226616357287606
8,6,0.5,0.8447246915887466,-0.1415270097895216
8,6,0.25,0.8408821602662389,0.24272612246125647
8,6,0.0,0.8329376905456637,1.037173094518773
8,7,1.0,0.8433094214908514,0.0
8,7,0.75,0.8486562104446029,-0.5346788953751513
8,7,0.5,0.844486864341564,-0.1177442850712529
8,7,0.25,0.8344593047953037,0.8850116695547694
8,7,0.0,0.8118915229778854,3.141789851296606
8,8,1.0,0.8433094214908514,0.0
8,8,0.75,0.8365824756634448,0.6726945827406627
8,8,0.5,0.8265329776229917,1.6776443867859703
8,8,0.25,0.814243445747421,2.9065975743430394
8,8,0.0,0.8019300833332521,4.137933815759931
9,0,1.0,0.8158743508083357,0.0
9,0,0.75,0.8145453408285932,0.13290099797425015
9,0,0.5,0.8153803898765968,0.049396093173892375
9,0,0.25,0.8114316536827675,0.4442697125568218
9,0,0.0,0.7959800539363833,1.9894296871952433
9,1,1.0,0.8158743508083357,0.0
9,1,0.75,0.815381146029379,0.04932047789567573
9,1,0.5,0.8013123906530066,1.4561960155329068
9,1,0.25,0.7870104155389285,2.8863935269407226
9,1,0.0,0.7655423809310966,5.033196987723909
9,2,1.0,0.8158743508083357,0.0
9,2,0.75,0.8199284398831561,-0.40540890748204106
9,2,0.5,0.8208244972308264,-0.49501464224906977
9,2,0.25,0.8144519473833063,0.1422403425029417
9,2,0.0,0.7926193365258705,2.3255014282465236
9,3,1.0,0.8158743508083357,0.0
9,3,0.75,0.8161559171778108,-0.028156636947507252
9,3,0.5,0.8208707589759792,-0.49964081676434624
9,3,0.25,0.8193874594520121,-0.3513108643676377
9,3,0.0,0.8172123291318338,-0.13379783234981346
9,4,1.0,0.8158743508083357,0.0
9,4,0.75,0.8192549636731045,-0.33806128647687617
9,4,0.5,0.810218027492221,0.5656323316114653
9,4,0.25,0.8126747529227867,0.31995978855490215
9,4,0.0,0.8262428190385515,-1.0368468230215755
9,5,1.0,0.8158743508083357,0.0
9,5,0.75,0.8244669863117953,-0.8592635503459567
9,5,0.5,0.8245942154098973,-0.87198646015616
9,5,0.25,0.8237835131723077,-0.7909162363971989
9,5,0.0,0.818773084028443,-0.28987332201072524
9,6,1.0,0.8158743508083357,0.0
9,6,0.75,0.8018150824358923,1.4059268372443423
9,6,0.5,0.7874261181633211,2.8448232645014615
9,6,0.25,0.7689905722692607,4.688377853907499
9,6,0.0,0.7590872616021478,5.678708920618791
9,7,1.0,0.8158743508083357,0.0
9,7,0.75,0.8214954390474167,-0.5621088239081029
9,7,0.5,0.808920237087702,0.6954113720633703
9,7,0.25,0.792457509696992,2.341684111134368
9,7,0.0,0.7658803201605058,4.999403064782992
9,8,1.0,0.8158743508083357,0.0
9,8,0.75,0.8157577739496247,0.011657685871102608
9,8,0.5,0.8044755549351389,1.139879587319681
9,8,0.25,0.7921546413714571,2.371970943687862
9,8,0.0,0.7867475674787947,2.9126783329540995
10,0,1.0,0.6987031273373698,0.0
10,0,0.75,0.6874172763052554,1.1285851032114436
10,0,0.5,0.6650673127505788,3.363581458679099
10,0,0.25,0.6546449910605877,4.405813627678212
10,0,0.0,0.6667170241177461,3.1986103219623696
10,1,1.0,0.6987031273373698,0.0
10,1,0.75,0.7033979397702984,-0.46948124329285745
10,1,0.5,0.7266076951792476,-2.790456784187778
10,1,0.25,0.7241028897264358,-2.539976238906594
10,1,0.0,0.7195956138051203,-2.0892486467750437
10,2,1.0,0.6987031273373698,0.0
10,2,0.75,0.708790081749662,-1.0086954412292126
10,2,0.5,0.6977954144620812,0.09077128752886798
10,2,0.25,0.6872961822804466,1.140694505692319
10,2,0.0,0.6851968146277557,1.350631270961411
10,3,1.0,0.6987031273373698,0.0
10,3,0.75,0.7085026697642235,-0.9799542426853658
10,3,0.5,0.7254386044775439,-2.67354771401741
10,3,0.25,0.7151870130541432,-1.6483885716773394
10,3,0.0,0.7052412280701754,-0.6538100732805585
10,4,1.0,0.6987031273373698,0.0
10,4,0.75,0.6935850991186527,0.5118028218717097
10,4,0.5,0.69126513848473,0.7437988852639799
10,4,0.25,0.6737510504810892,2.4952076856280647
10,4,0.0,0.6704285116228086,2.8274615714561246
10,5,1.0,0.6987031273373698,0.0
10,5,0.75,0.7187167333530904,-2.0013606015720553
10,5,0.5,0.7335654060432256,-3.4862278705855787
10,5,0.25,0.7189133649225393,-2.021023758516949
10,5,0.0,0.7199301910411814,-2.1227063703811555
10,6,1.0,0.6987031273373698,0.0
10,6,0.75,0.702956421803171,-0.42532944658011385
10,6,0.5,0.7139358951467292,-1.5232767809359338
10,6,0.25,0.7358061644982413,-3.710303716087149
10,6,0.0,0.7440893914091948,-4.5386264071825
10,7,1.0,0.6987031273373698,0.0
10,7,0.75,0.7047896139993315,-0.6086486661961654
10,7,0.5,0.7115853396782105,-1.2882212340840637
10,7,0.25,0.7154814883178016,-1.6778360980431728
10,7,0.0,0.7137385645612446,-1.5035437223874792
10,8,1.0,0.6987031273373698,0.0
10,8,0.75,0.7324095065766492,-3.3706379239279327
10,8,0.5,0.7499754111341719,-5.127228379680204
10,8,0.25,0.7858709912391398,-8.716786390177
10,8,0.0,0.7883588900279586,-8.965576269058872
11,0,1.0,0.9027420688337446,0.0
11,0,0.75,0.906382954924231,-0.3640886090486406
11,0,0.5,0.9049627509170015,-0.22206820832568752
11,0,0.25,0.8967460332194499,0.5996035614294737
11,0,0.0,0.912576991047064,-0.9834922213319386
11,1,1.0,0.9027420688337446,0.0
11,1,0.75,0.9098919473543642,-0.7149878520619546
11,1,0.5,0.9051255127972296,-0.2383443963484999
11,1,0.25,0.8919972955975315,1.0744773236213145
11,1,0.0,0.901721428441203,0.10206403925416829
11,2,1.0,0.9027420688337446,0.0
11,2,0.75,0.8959226044685564,0.681946436518821
11,2,0.5,0.8845317542113043,1.8210314622440382
11,2,0.25,0.8887962733310499,1.3945795502694702
11,2,0.0,0.8721539880040119,3.0588080829732744
11,3,1.0,0.9027420688337446,0.0
11,3,0.75,0.9114143463027844,-0.8672277469039757
11,3,0.5,0.8922830713760321,1.0458997457712504
11,3,0.25,0.8829706097490478,1.9771459084696796
11,3,0.0,0.870843035668152,3.1899033165592616
11,4,1.0,0.9027420688337446,0.0
11,4,0.75,0.8991232082419832,0.3618860591761419
11,4,0.5,0.8807165116697367,2.202555716400789
11,4,0.25,0.8742091037334628,2.8532965100281804
11,4,0.0,0.8786934717568142,2.404859707693041
11,5,1.0,0.9027420688337446,0.0
11,5,0.75,0.8843811877450174,1.8360881088727243
11,5,0.5,0.8919914238566665,1.0750644977078117
11,5,0.25,0.8919522743179149,1.0789794515829731
11,5,0.0,0.902156455369479,0.05856134642656663
11,6,1.0,0.9027420688337446,0.0
11,6,0.75,0.9063450847069616,-0.3603015873216986
11,6,0.5,0.9111309891272852,-0.8388920293540547
11,6,0.25,0.912484837761517,-0.9742768927772372
11,6,0.0,0.9083439718398899,-0.560190300614527
11,7,1.0,0.9027420688337446,0.0
11,7,0.75,0.912859412557335,-1.011734372359041
11,7,0.5,0.9170488792240329,-1.430681039028825
11,7,0.25,0.9224641871943838,-1.9722118360639196
11,7,0.0,0.9069301973002837,-0.4188128466539043
11,8,1.0,0.9027420688337446,0.0
11,8,0.75,0.9041200013282701,-0.13779324945254467
11,8,0.5,0.901874126787279,0.08679420464656751
11,8,0.25,0.8997054988897695,0.3036569943975165
11,8,0.0,0.904059495154542,-0.13174263207973436
12,0,1.0,0.8740588718107791,0.0
12,0,0.75,0.8831358204272554,-0.9076948616476233
12,0,0.5,0.8870467357512539,-1.2987863940474798
12,0,0.25,0.8810139915499072,-0.6955119739128102
12,0,0.0,0.8888583252482641,-1.479945343748501
12,1,1.0,0.8740588718107791,0.0
12,1,0.75,0.8737429477959646,0.031592401481450594
12,1,0.5,0.8737189695851215,0.033990222565760675
12,1,0.25,0.8719941232511152,0.2064748559663876
12,1,0.0,0.8648726254795076,0.9186246331271519
12,2,1.0,0.8740588718107791,0.0
12,2,0.75,0.876587999696821,-0.2529127886041871
12,2,0.5,0.8768568916549906,-0.27980198442114634
12,2,0.25,0.8694733662942398,0.45855055165393566
12,2,0.0,0.8717894077859203,0.2269464024858836
12,3,1.0,0.8740588718107791,0.0
12,3,0.75,0.8754299241874348,-0.13710523766556904
12,3,0.5,0.8762706881533102,-0.22118163425310922
12,3,0.25,0.8588120235231131,1.5246848287665982
12,3,0.0,0.8557335069584342,1.8325364852344928
12,4,1.0,0.8740588718107791,0.0
12,4,0.75,0.886776418026418,-1.271754621563892
12,4,0.5,0.8807028594371791,-0.664398762639995
12,4,0.25,0.8926047507640543,-1.8545878953275197
12,4,0.0,0.8915473434212581,-1.748847161047895
12,5,1.0,0.8740588718107791,0.0
12,5,0.75,0.8778983232692679,-0.38394514584887407
12,5,0.5,0.8761507431018649,-0.20918712910857895
12,5,0.25,0.8751465598710104,-0.10876880602312955
12,5,0.0,0.8876044741419347,-1.3545602331155537
12,6,1.0,0.8740588718107791,0.0
12,6,0.75,0.8699125817058511,0.4146290104928063
12,6,0.5,0.8699125817058511,0.4146290104928063
12,6,0.25,0.8615000048524792,1.2558866958299886
12,6,0.0,0.8531498412068389,2.0909030603940226
12,7,1.0,0.8740588718107791,0.0
12,7,0.75,0.8714447937744845,0.26140780362946536
12,7,0.5,0.8648244117155616,0.9234460095217556
12,7,0.25,0.86856154653,0.5497325280779175
12,7,0.0,0.8625982052217759,1.1460666589003243
12,8,1.0,0.8740588718107791,0.0
12,8,0.75,0.8726131057823598,0.1445766028419282
12,8,0.5,0.8676165591401359,0.6442312670643213
12,8,0.25,0.8615505424683175,1.25083293424616
12,8,0.0,0.8556032409480686,1.8455630862710515
13,0,1.0,0.9184911836984918,0.0
13,0,0.75,0.922179611877135,-0.36884281786432327
13,0,0.5,0.9263291901918462,-0.7838006493354421
13,0,0.25,0.9239038837323428,-0.541270003385097
13,0,0.0,0.9238178465465918,-0.5326662848100017
13,1,1.0,0.9184911836984918,0.0
13,1,0.75,0.9198357022804698,-0.1344518581978038
13,1,0.5,0.9220384978037394,-0.35473141052475565
13,1,0.25,0.9206997412432195,-0.22085575447277073
13,1,0.0,0.9230696918963378,-0.45785081978459985
13,2,1.0,0.9184911836984918,0.0
13,2,0.75,0.9149557955938074,0.3535388104684456
13,2,0.5,0.919847102891065,-0.13559191925731628
13,2,0.25,0.9089663308419351,0.9524852856556687
13,2,0.0,0.9003167969253821,1.8174386773109674
13,3,1.0,0.9184911836984918,0.0
13,3,0.75,0.9265283924714134,-0.8037208772921578
13,3,0.5,0.9217548551999626,-0.32636715014707773
13,3,0.25,0.9242653869902414,-0.5774203291749602
13,3,0.0,0.8921071333514431,2.6384050347048715
13,4,1.0,0.9184911836984918,0.0
13,4,0.75,0.913644500862546,0.48466828359458036
13,4,0.5,0.9114696361961596,0.7021547502332193
13,4,0.25,0.90407996325239,1.441122044610177
13,4,0.0,0.9117292472471139,0.6761936451377903
13,5,1.0,0.9184911836984918,0.0
13,5,0.75,0.9127506841906463,0.5740499507845498
13,5,0.5,0.9074230036883664,1.106818001012544
13,5,0.25,0.9045242969266193,1.3966886771872522
13,5,0.0,0.9035462728754933,1.4944910822998536
13,6,1.0,0.9184911836984918,0.0
13,6,0.75,0.9184035069431412,0.008767675535059638
13,6,0.5,0.9158970352073709,0.259414849112094
13,6,0.25,0.918337504813246,0.015367888524575601
13,6,0.0,0.9183034899932925,0.018769370519933215
13,7,1.0,0.9184911836984918,0.0
13,7,0.75,0.916003177377807,0.2488006320684799
13,7,0.5,0.9022589865224655,1.6232197176026308
13,7,0.25,0.8997292814227174,1.8761902275774456
13,7,0.0,0.8978420191559697,2.064916454252208
13,8,1.0,0.9184911836984918,0.0
13,8,0.75,0.9136559081060107,0.4835275592481092
13,8,0.5,0.9064410352038504,1.2050148494641366
13,8,0.25,0.9013285719600321,1.7162611738459677
13,8,0.0,0.9021783586472513,1.6312825051240543
14,0,1.0,0.8179704248069712,0.0
14,0,0.75,0.8316522765041083,-1.3681851697137093
14,0,0.5,0.8279717475927104,-1.0001322785739175
14,0,0.25,0.826913983931542,-0.8943559124570788
14,0,0.0,0.8214356084440075,-0.34651836370362954
14,1,1.0,0.8179704248069712,0.0
14,1,0.75,0.8184445452627365,-0.047412045576522566
14,1,0.5,0.8107333527470394,0.7237072059931848
14,1,0.25,0.8024451736093686,1.5525251197602619
14,1,0.0,0.8129896429780504,0.49807818289208106
14,2,1.0,0.8179704248069712,0.0
14,2,0.75,0.8159723392309975,0.1998085575973696
14,2,0.5,0.8183336140971513,-0.036318929018008816
14,2,0.25,0.8247340285955336,-0.6763603788562333
14,2,0.0,0.825934530841014,-0.7964106034042739
14,3,1.0,0.8179704248069712,0.0
14,3,0.75,0.8041798537225657,1.3790571084405512
14,3,0.5,0.7775672766111097,4.040314819586155
14,3,0.25,0.7727151015217517,4.525532328521953
14,3,0.0,0.7596758759521527,5.829454885481855
14,4,1.0,0.8179704248069712,0.0
14,4,0.75,0.8177823344897741,0.018809031719713154
14,4,0.5,0.8239064682207837,-0.5936043413812486
14,4,0.25,0.8231740268824668,-0.5203602075495528
14,4,0.0,0.8010395539860975,1.6930870820873745
14,5,1.0,0.8179704248069712,0.0
14,5,0.75,0.8233997393668788,-0.5429314559907583
14,5,0.5,0.8259488995855906,-0.7978474778619349
14,5,0.25,0.8183258459231637,-0.0355421116192467
14,5,0.0,0.8150325123444045,0.2937912462566694
14,6,1.0,0.8179704248069712,0.0
14,6,0.75,0.8247148116094722,-0.6744386802501001
14,6,0.5,0.8188519205320384,-0.08814957250671274
14,6,0.25,0.8172617963840895,0.07086284228817741
14,6,0.0,0.8122042669958633,0.5766157811107897
14,7,1.0,0.8179704248069712,0.0
14,7,0.75,0.8039926803320359,1.3977744474935383
14,7,0.5,0.7956930592855663,2.2277365521404913
14,7,0.25,0.7987053398211563,1.9265084985814918
14,7,0.0,0.775703651733362,4.2266773073609265
14,8,1.0,0.8179704248069712,0.0
14,8,0.75,0.8248956524482572,-0.6925227641286003
14,8,0.5,0.8332402011643697,-1.5269776357398457
14,8,0.25,0.8270644298422523,-0.9094005035281016
14,8,0.0,0.7879838911088911,2.998653369808013
15,0,1.0,0.9369381042737606,0.0
15,0,0.75,0.9255633620111231,1.137474226263746
15,0,0.5,0.9018609465822567,3.507715769150388
15,0,0.25,0.899062066339041,3.787603793471961
15,0,0.0,0.8991435552779088,3.7794548995851773
15,1,1.0,0.9369381042737606,0.0
15,1,0.75,0.9330203387552785,0.3917765518482108
15,1,0.5,0.9242133964768773,1.2724707796883283
15,1,0.25,0.9172380208996614,1.970008337409912
15,1,0.0,0.9062887678976517,3.0649336376108893
15,2,1.0,0.9369381042737606,0.0
15,2,0.75,0.9208290403672831,1.6109063906477483
15,2,0.5,0.9146573521278926,2.2280752145868
15,2,0.25,0.8862865768255658,5.065152744819478
15,2,0.0,0.8537113928358717,8.322671143788885
15,3,1.0,0.9369381042737606,0.0
15,3,0.75,0.9152618853600303,2.1676218913730283
15,3,0.5,0.9091560548399688,2.778204943379181
15,3,0.25,0.9076070823693325,2.9331021904428045
15,3,0.0,0.8968528167433552,4.008528753040541
15,4,1.0,0.9369381042737606,0.0
15,4,0.75,0.9278999485434138,0.903815573034672
15,4,0.5,0.9300923175923176,0.6845786681442978
15,4,0.25,0.9191976148174696,1.774048945629092
15,4,0.0,0.9257260717871008,1.1212032486659806
15,5,1.0,0.9369381042737606,0.0
15,5,0.75,0.9303335843943239,0.6604519879436666
15,5,0.5,0.9167131861105646,2.0224918163195937
15,5,0.25,0.9098240997948048,2.7114004478955733
15,5,0.0,0.9171137719712805,1.982433230248004
15,6,1.0,0.9369381042737606,0.0
15,6,0.75,0.9312277509253866,0.5710353348373998
15,6,0.5,0.9191138350076873,1.7824269266073278
15,6,0.25,0.8990971523615657,3.784095191219483
15,6,0.0,0.8929733076812306,4.396479659252995
15,7,1.0,0.9369381042737606,0.0
15,7,0.75,0.9104648661457222,2.6473238128038368
15,7,0.5,0.8990588567820731,3.7879247491687473
15,7,0.25,0.8842729763045843,5.266512796917622
15,7,0.0,0.8912476416513989,4.569046262236165
15,8,1.0,0.9369381042737606,0.0
15,8,0.75,0.9336027604387976,0.3335343834962923
15,8,0.5,0.933165535170313,0.3772569103447587
15,8,0.25,0.9294778396028186,0.7460264670941963
15,8,0.0,0.8937006007953315,4.323750347842903
16,0,1.0,0.8693053357921172,0.0
16,0,0.75,0.8721337681618134,-0.282843236969621
16,0,0.5,0.8671343792761539,0.21709565159633293
16,0,0.25,0.8613797153630192,0.7925620429098057
16,0,0.0,0.8616905969100074,0.7614738882109839
16,1,1.0,0.8693053357921172,0.0
16,1,0.75,0.8695512204061545,-0.0245884614037295
16,1,0.5,0.8678986831927663,0.14066525993509105
16,1,0.25,0.8655490358628789,0.3756299929238316
16,1,0.0,0.863427139170814,0.5878196621303178
16,2,1.0,0.8693053357921172,0.0
16,2,0.75,0.8702606873526674,-0.0955351560550155
16,2,0.5,0.8606358073305475,0.8669528461569764
16,2,0.25,0.8587048871604747,1.0600448631642556
16,2,0.0,0.8430848400998495,2.62204956922677
16,3,1.0,0.8693053357921172,0.0
16,3,0.75,0.8779420641307472,-0.863672833862994
16,3,0.5,0.8823195500222549,-1.301421423013771
16,3,0.25,0.8701198198304705,-0.08144840383532692
16,3,0.0,0.8726761482911085,-0.33708124989912935
16,4,1.0,0.8693053357921172,0.0
16,4,0.75,0.8615243498904087,0.7780985901708504
16,4,0.5,0.8486103143474035,2.069502144471369
16,4,0.25,0.8460774916451054,2.3227844147011845
16,4,0.0,0.8500579730095609,1.9247362782556343
16,5,1.0,0.8693053357921172,0.0
16,5,0.75,0.8319158411299378,3.7389494662179446
16,5,0.5,0.8394817196355049,2.982361615661233
16,5,0.25,0.8474870939266984,2.181824186541881
16,5,0.0,0.8570692320602987,1.2236103731818493
16,6,1.0,0.8693053357921172,0.0
16,6,0.75,0.8707710062483865,-0.146567045626933
16,6,0.5,0.8743549612171904,-0.5049625425073145
16,6,0.25,0.8766872248666983,-0.7381889074581038
16,6,0.0,0.8783549201038002,-0.9049584311683012
16,7,1.0,0.8693053357921172,0.0
16,7,0.75,0.867249878684704,0.20554571074131722
16,7,0.5,0.8568751582275115,1.2430177564605738
16,7,0.25,0.843207034697062,2.6098301095055176
16,7,0.0,0.8262904372526587,4.30148985394585
16,8,1.0,0.8693053357921172,0.0
16,8,0.75,0.8719230641301643,-0.2617728338047076
16,8,0.5,0.8693856010725011,-0.008026528038385106
16,8,0.25,0.8604748392524284,0.8830496539688815
16,8,0.0,0.8605182512349271,0.8787084557190128
17,0,1.0,0.8700836855607414,0.0
17,0,0.75,0.8741582493942012,-0.4074563833459721
17,0,0.5,0.8591475582882592,1.0936127272482277
17,0,0.25,0.8466064302264056,2.3477255334335867
17,0,0.0,0.8423047955565894,2.7778890004152013
17,1,1.0,0.8700836855607414,0.0
17,1,0.75,0.8684981246451053,0.15855609156361083
17,1,0.5,0.8669701369484745,0.3113548612266981
17,1,0.25,0.8676568263956614,0.24268591650800087
17,1,0.0,0.8597719191940298,1.0311766366711606
17,2,1.0,0.8700836855607414,0.0
17,2,0.75,0.8692096187147023,0.08740668460391898
17,2,0.5,0.8669298567756151,0.3153828785126378
17,2,0.25,0.8678116061844587,0.22720793762827096
17,2,0.0,0.8605825368786418,0.9501148682099614
17,3,1.0,0.8700836855607414,0.0
17,3,0.75,0.8613104641041813,0.8773221456560121
17,3,0.5,0.8522325467311145,1.7851138829626967
17,3,0.25,0.847358768133154,2.272491742758742
17,3,0.0,0.8365131645939443,3.3570520966797135
17,4,1.0,0.8700836855607414,0.0
17,4,0.75,0.8545749937985427,1.5508691762198712
17,4,0.5,0.846332653408125,2.3751032152616425
17,4,0.25,0.8561309867424418,1.3952698818299636
17,4,0.0,0.86087794956981,0.9205735990931441
17,5,1.0,0.8700836855607414,0.0
17,5,0.75,0.8556860727315985,1.439761282914298
17,5,0.5,0.8559836504993846,1.410003506135682
17,5,0.25,0.8581676200646958,1.1916065496045625
17,5,0.0,0.8641985840749898,0.5885101485751609
17,6,1.0,0.8700836855607414,0.0
17,6,0.75,0.872009933589153,-0.19262480284115702
17,6,0.5,0.8630168942554669,0.7066791305274545
17,6,0.25,0.8716308823880632,-0.15471968273217396
17,6,0.0,0.866569704804999,0.3513980755742496
17,7,1.0,0.8700836855607414,0.0
17,7,0.75,0.863066111427377,0.7017574133364457
17,7,0.5,0.8635139851272687,0.6569700433472714
17,7,0.25,0.8562128613584161,1.3870824202325327
17,7,0.0,0.8470761135661315,2.30075719946099
17,8,1.0,0.8700836855607414,0.0
17,8,0.75,0.8632622522815616,0.6821433279179834
17,8,0.5,0.8514806832058123,1.8603002354929177
17,8,0.25,0.8308823977686668,3.9201287792074657
17,8,0.0,0.8345276276848786,3.55560578758628
18,0,1.0,0.9034462488126583,0.0
18,0,0.75,0.8847217175789234,1.8724531233734965
18,0,0.5,0.8757558175783441,2.769043123431425
18,0,0.25,0.8647770922944193,3.866915651823899
18,0,0.0,0.8513700754198734,5.207617339278492
18,1,1.0,0.9034462488126583,0.0
18,1,0.75,0.8928717312010224,1.057451761163597
18,1,0.5,0.886718467893593,1.672778091906535
18,1,0.25,0.8904575027301164,1.2988746082541969
18,1,0.0,0.8908819820140796,1.2564266798578694
18,2,1.0,0.9034462488126583,0.0
18,2,0.75,0.8942191376425563,0.9227111170101998
18,2,0.5,0.8957389186272938,0.7707330185364514
18,2,0.25,0.8831455320066731,2.030071680598522
18,2,0.0,0.8908808847080061,1.2565364104652255
18,3,1.0,0.9034462488126583,0.0
18,3,0.75,0.8781654870021993,2.528076181045902
18,3,0.5,0.8545168285318487,4.8929420280809595
18,3,0.25,0.8106944444444445,9.275180436821383
18,3,0.0,0.773567495816461,12.987875299619734
18,4,1.0,0.9034462488126583,0.0
18,4,0.75,0.8857638259156881,1.7682422896970196
18,4,0.5,0.8877704465707557,1.567580224190268
18,4,0.25,0.8840388937163821,1.9407355096276224
18,4,0.0,0.8733204969673795,3.012575184527888
18,5,1.0,0.9034462488126583,0.0
18,5,0.75,0.8986223490668577,0.4823899745800664
18,5,0.5,0.8893297351691245,1.4116513643533835
18,5,0.25,0.8845356644079629,1.8910584404695396
18,5,0.0,0.8884399532265979,1.500629558606048
18,6,1.0,0.9034462488126583,0.0
18,6,0.75,0.9018579012329168,0.1588347579741578
18,6,0.5,0.8910943575258194,1.235189128683889
18,6,0.25,0.8953885272851034,0.8057721527554906
18,6,0.0,0.8922889286810218,1.1157320131636506
18,7,1.0,0.9034462488126583,0.0
18,7,0.75,0.8878702235199147,1.55760252927436
18,7,0.5,0.8657449889135939,3.7701259899064476
18,7,0.25,0.8580720465268382,4.537420228582012
18,7,0.0,0.8438305861470119,5.961566266564644
18,8,1.0,0.9034462488126583,0.0
18,8,0.75,0.8989558691169455,0.4490379695712865
18,8,0.5,0.9063102859730785,-0.2864037160420163
18,8,0.25,0.9009775505620382,0.24686982506201272
18,8,0.0,0.8927532597283082,1.0692989084350124
19,0,1.0,0.8000227277428018,0.0
19,0,0.75,0.8017275073080553,-0.17047795652535003
19,0,0.5,0.7965812771207587,0.3441450622043152
19,0,0.25,0.7907373987072164,0.9285329035585432
19,0,0.0,0.773796785467266,2.6225942275535763
19,1,1.0,0.8000227277428018,0.0
19,1,0.75,0.7994912969004152,0.05314308423866043
19,1,0.5,0.8009209205336741,-0.0898192790872332
19,1,0.25,0.7968794192889735,0.3143308453828264
19,1,0.0,0.7886583527962387,1.136437494656306
19,2,1.0,0.8000227277428018,0.0
19,2,0.75,0.7958655860801328,0.4157141662669006
19,2,0.5,0.8003946455376586,-0.03719177948567909
19,2,0.25,0.8008115778190112,-0.07888500762094353
19,2,0.0,0.7911003427974163,0.8922384945385553
19,3,1.0,0.8000227277428018,0.0
19,3,0.75,0.8014424112294348,-0.14196834866330166
19,3,0.5,0.7826349195089806,1.7387808233821245
19,3,0.25,0.7720844919432811,2.7938235799520705
19,3,0.0,0.7458249372257734,5.419779051702845
19,4,1.0,0.8000227277428018,0.0
19,4,0.75,0.8002164550009377,-0.019372725813593394
19,4,0.5,0.7912416046503267,0.878112309247514
19,4,0.25,0.7905168219616177,0.9505905781184154
19,4,0.0,0.7927629224297981,0.7259805313003742
19,5,1.0,0.8000227277428018,0.0
19,5,0.75,0.7994432849340956,0.05794428087062542
19,5,0.5,0.7989043746910729,0.11183530517289153
19,5,0.25,0.8034179069907426,-0.33951792479407494
19,5,0.0,0.8013712297377398,-0.13485019949379673
19,6,1.0,0.8000227277428018,0.0
19,6,0.75,0.8038872769080642,-0.3864549165262354
19,6,0.5,0.8171580962405625,-1.713536849776065
19,6,0.25,0.8228411514144907,-2.2818423671688848
19,6,0.0,0.8225323697537688,-2.2509642010966946
19,7,1.0,0.8000227277428018,0.0
19,7,0.75,0.8027383428505968,-0.2715615107794944
19,7,0.5,0.7963375052901621,0.36852224526396915
19,7,0.25,0.7960465591779061,0.3976168564895688
19,7,0.0,0.7852076638851675,1.4815063857634314
19,8,1.0,0.8000227277428018,0.0
19,8,0.75,0.7941835907766835,0.5839136966118263
19,8,0.5,0.7883300690537114,1.1692658689090418
19,8,0.25,0.7856271826293728,1.4395545113428998
19,8,0.0,0.7887587895868133,1.1263938155988473
20,0,1.0,0.812599813717079,0.0
20,0,0.75,0.8149508674658191,-0.23510537487401173
20,0,0.5,0.8153180211756753,-0.27182074585963
20,0,0.25,0.8065148197161068,0.6084994000972177
20,0,0.0,0.7846710127330948,2.7928800983984203
20,1,1.0,0.812599813717079,0.0
20,1,0.75,0.805637297054954,0.6962516662124996
20,1,0.5,0.8016895902093621,1.0910223507716865
20,1,0.25,0.7940745788073484,1.852523490973057
20,1,0.0,0.7752128978359878,3.738691588109122
20,2,1.0,0.812599813717079,0.0
20,2,0.75,0.8073791202588232,0.5220693458255821
20,2,0.5,0.806008546979256,0.6591266737823065
20,2,0.25,0.7919482797232325,2.065153399384656
20,2,0.0,0.7848215325181157,2.7778281198963306
20,3,1.0,0.812599813717079,0.0
20,3,0.75,0.8066288458076006,0.5970967909478375
20,3,0.5,0.805807125008497,0.6792688708581962
20,3,0.25,0.8032772104077776,0.9322603309301458
20,3,0.0,0.7909381866689487,2.166162704813035
20,4,1.0,0.812599813717079,0.0
20,4,0.75,0.8070498247831153,0.5549988933963745
20,4,0.5,0.8050984819264834,0.7501331790595644
20,4,0.25,0.8113482363523522,0.1251577364726808
20,4,0.0,0.8036268345613851,0.897297915569395
20,5,1.0,0.812599813717079,0.0
20,5,0.75,0.8036939198968265,0.8905893820252531
20,5,0.5,0.806878307972098,0.5721505744980981
20,5,0.25,0.8084648571632419,0.413495655383711
20,5,0.0,0.8007933047822742,1.1806508934804838
20,6,1.0,0.812599813717079,0.0
20,6,0.75,0.8028793463797155,0.9720467337363536
20,6,0.5,0.8008621110135596,1.173770270351937
20,6,0.25,0.7915385637806505,2.106124993642855
20,6,0.0,0.7959943220286066,1.6605491688472362
20,7,1.0,0.812599813717079,0.0
20,7,0.75,0.8047948210464969,0.78049926705821
20,7,0.5,0.7852909083727498,2.730890534432917
20,7,0.25,0.7655525252667374,4.704728845034156
20,7,0.0,0.7609048022351657,5.169501148191335
20,8,1.0,0.812599813717079,0.0
20,8,0.75,0.8182442514449428,-0.5644437727863827
20,8,0.5,0.8047320287239642,0.7867784993114801
20,8,0.25,0.7875720045301602,2.5027809186918826
20,8,0.0,0.7730899114040246,3.95099023130544
21,0,1.0,0.8394695933865112,0.0
21,0,0.75,0.8299180218071955,0.9551571579315632
21,0,0.5,0.8127771989813317,2.6692394405179454
21,0,0.25,0.8010193282410052,3.845026514550598
21,0,0.0,0.8011453940047812,3.832419938172993
21,1,1.0,0.8394695933865112,0.0
21,1,0.75,0.8459384429663729,-0.6468849579861713
21,1,0.5,0.8423113405847977,-0.28417471982865594
21,1,0.25,0.8445400176304685,-0.5070424243957317
21,1,0.0,0.8457347811511786,-0.6265187764667446
21,2,1.0,0.8394695933865112,0.0
21,2,0.75,0.8409133173382322,-0.14437239517209877
21,2,0.5,0.842985816188969,-0.351622280245778
21,2,0.25,0.8421746433614099,-0.2705049974898732
21,2,0.0,0.8522630578055956,-1.2793464419084466
21,3,1.0,0.8394695933865112,0.0
21,3,0.75,0.8408878090863128,-0.1418215699801606
21,3,0.5,0.837000805726918,0.24687876595931302
21,3,0.25,0.8243760547215049,1.509353866500629
21,3,0.0,0.8054340055396809,3.403558784683025
21,4,1.0,0.8394695933865112,0.0
21,4,0.75,0.8429676481668253,-0.3498054780314175
21,4,0.5,0.8245919496342976,1.4877643752213565
21,4,0.25,0.8214828986586413,1.7986694727869845
21,4,0.0,0.8297888422494208,0.9680751137090327
21,5,1.0,0.8394695933865112,0.0
21,5,0.75,0.8425831055109183,-0.3113512124407136
21,5,0.5,0.8389381858730599,0.053140751345126525
21,5,0.25,0.863222343603238,-2.375275021672685
21,5,0.0,0.8691007790446506,-2.963118565813938
21,6,1.0,0.8394695933865112,0.0
21,6,0.75,0.8462902651228186,-0.6820671736307404
21,6,0.5,0.8462596125544901,-0.6790019167978945
21,6,0.25,0.8462596125544901,-0.6790019167978945
21,6,0.0,0.8410219810361679,-0.15523876496567057
21,7,1.0,0.8394695933865112,0.0
21,7,0.75,0.8406905932037959,-0.12209998172847403
21,7,0.5,0.8379914432546012,0.14781501319099943
21,7,0.25,0.8220401994518598,1.7429393934651372
21,7,0.0,0.8298304959595282,0.963909742698299
21,8,1.0,0.8394695933865112,0.0
21,8,0.75,0.83476303226349,0.4706561123021147
21,8,0.5,0.8260483071269475,1.3421286259563625
21,8,0.25,0.8302462391563221,0.9223354230189051
21,8,0.0,0.8262130085539742,1.3256584832537
22,0,1.0,0.8339147805793976,0.0
22,0,0.75,0.8211160791618859,1.2798701417511715
22,0,0.5,0.8071724524612263,2.6742328118171343
22,0,0.25,0.8037120602593766,3.0202720320021026
22,0,0.0,0.8070037434417403,2.69110371376573
22,1,1.0,0.8339147805793976,0.0
22,1,0.75,0.8355432858238548,-0.16285052444572345
22,1,0.5,0.8382795604950031,-0.43647799156054656
22,1,0.25,0.8326624311372552,0.12523494421423642
22,1,0.0,0.8410247142088523,-0.7109933629454668
22,2,1.0,0.8339147805793976,0.0
22,2,0.75,0.827678345988732,0.6236434590665585
22,2,0.5,0.8261987384789997,0.7716042100397891
22,2,0.25,0.8131551442343361,2.0759636345061505
22,2,0.0,0.8124023635282491,2.151241705114848
22,3,1.0,0.8339147805793976,0.0
22,3,0.75,0.8356678482033363,-0.17530676239386755
22,3,0.5,0.8254859540944632,0.8428826484934371
22,3,0.25,0.8155938302618941,1.832095031750347
22,3,0.0,0.7852743110448308,4.86404695345668
22,4,1.0,0.8339147805793976,0.0
22,4,0.75,0.8315712259149936,0.23435546644040572
22,4,0.5,0.8297761648910837,0.41386156883138625
22,4,0.25,0.830267533726933,0.36472468524646473
22,4,0.0,0.8259169424313388,0.7997838148058767
22,5,1.0,0.8339147805793976,0.0
22,5,0.75,0.8269575790448369,0.6957201534560697
22,5,0.5,0.8193627312531937,1.4552049326203909
22,5,0.25,0.8124447552453682,2.147002533402942
22,5,0.0,0.8168785291907134,1.7036251388684254
22,6,1.0,0.8339147805793976,0.0
22,6,0.75,0.8249783184755626,0.893646210383503
22,6,0.5,0.8185054043003763,1.540937627902128
22,6,0.25,0.8195382945100046,1.4376486069393013
22,6,0.0,0.8218761958047538,1.2038584774643812
22,7,1.0,0.8339147805793976,0.0
22,7,0.75,0.8195536560664747,1.436112451292293
22,7,0.5,0.811863400612217,2.205137996718065
22,7,0.25,0.7866261813522784,4.7288599227119255
22,7,0.0,0.7604198999893281,7.349488059006948
22,8,1.0,0.8339147805793976,0.0
22,8,0.75,0.8462960259074073,-1.238124532800966
22,8,0.5,0.8372064270955377,-0.3291646516140112
22,8,0.25,0.8181566725022793,1.5758108077118305
22,8,0.0,0.8101938481539559,2.372093242544171
23,0,1.0,0.7524856287451203,0.0
23,0,0.75,0.7456920061360068,0.6793622609113426
23,0,0.5,0.729180915799955,2.330471294516523
23,0,0.25,0.7112616749190952,4.122395382602506
23,0,0.0,0.7141088449240858,3.837678382103449
23,1,1.0,0.7524856287451203,0.0
23,1,0.75,0.7621435075341325,-0.9657878789012253
23,1,0.5,0.7625861676955705,-1.0100538950450266
23,1,0.25,0.7609524364997667,-0.8466807754646477
23,1,0.0,0.7577600611137196,-0.5274432368599369
23,2,1.0,0.7524856287451203,0.0
23,2,0.75,0.7748366589309507,-2.23510301858304
23,2,0.5,0.7878875960920922,-3.5401967346971985
23,2,0.25,0.7954153334588118,-4.29297047136915
23,2,0.0,0.7921958431615507,-3.971021441643041
23,3,1.0,0.7524856287451203,0.0
23,3,0.75,0.767783858704261,-1.5298229959140763
23,3,0.5,0.7783236993962802,-2.583807065115995
23,3,0.25,0.7797117149796822,-2.722608623456191
23,3,0.0,0.7559960538357964,-0.3510425090676117
23,4,1.0,0.7524856287451203,0.0
23,4,0.75,0.745544483053574,0.6941145691546247
23,4,0.5,0.738690865968751,1.3794762776369263
23,4,0.25,0.725556903711857,2.6928725033263268
23,4,0.0,0.7361605904643331,1.632503828078713
23,5,1.0,0.7524856287451203,0.0
23,5,0.75,0.7533558587126938,-0.0870229967573577
23,5,0.5,0.7423727633018571,1.0112865443263175
23,5,0.25,0.745360849375737,0.7124779369383272
23,5,0.0,0.7433747461456254,0.9110882599494885
23,6,1.0,0.7524856287451203,0.0
23,6,0.75,0.7679307057683791,-1.5445077023258813
23,6,0.5,0.7655844516184093,-1.3098822873289007
23,6,0.25,0.7575357696078697,-0.5050140862749464
23,6,0.0,0.7552674424273633,-0.27818136822430617
23,7,1.0,0.7524856287451203,0.0
23,7,0.75,0.7580120715034823,-0.5526442758362005
23,7,0.5,0.7363242102574749,1.6161418487645407
23,7,0.25,0.7330461368246047,1.9439491920515528
23,7,0.0,0.7198183378101644,3.2667290934955906
23,8,1.0,0.7524856287451203,0.0
23,8,0.75,0.7624674631301503,-0.9981834385030086
23,8,0.5,0.766718212053356,-1.4232583308235736
23,8,0.25,0.7730897128475125,-2.060408410239223
23,8,0.0,0.7652016488799289,-1.2716020134808659
24,0,1.0,0.7718045795415922,0.0
24,0,0.75,0.7642487297949483,0.7555849746643917
24,0,0.5,0.7586356131456942,1.316896639589804
24,0,0.25,0.7596705873939352,1.213399214765698
24,0,0.0,0.7618428016876426,0.9961777853949583
24,1,1.0,0.7718045795415922,0.0
24,1,0.75,0.768814829200694,0.2989750340898212
24,1,0.5,0.759455050253417,1.2349529288175232
24,1,0.25,0.7649459729367518,0.6858606604840389
24,1,0.0,0.7646145497254355,0.7190029816156684
24,2,1.0,0.7718045795415922,0.0
24,2,0.75,0.7745622595942714,-0.2757680052679179
24,2,0.5,0.789988038277512,-1.8183458735919755
24,2,0.25,0.778018559801787,-0.6213980260194818
24,2,0.0,0.7658146603291622,0.5989919212429973
24,3,1.0,0.7718045795415922,0.0
24,3,0.75,0.7784752815849975,-0.6670702043405252
24,3,0.5,0.786010616989481,-1.4206037447888842
24,3,0.25,0.7858329721981254,-1.4028392656533217
24,3,0.0,0.7833040767633441,-1.149949722175192
24,4,1.0,0.7718045795415922,0.0
24,4,0.75,0.7681946280808205,0.36099514607716987
24,4,0.5,0.7552128697555984,1.659170978599378
24,4,0.25,0.7374685845057147,3.4335995035877476
24,4,0.0,0.7341522854565987,3.7652294084993487
24,5,1.0,0.7718045795415922,0.0
24,5,0.75,0.7468931749861267,2.4911404555465477
24,5,0.5,0.7258619041684391,4.594267537315311
24,5,0.25,0.7369889169334078,3.481566260818436
24,5,0.0,0.7514658922854862,2.033868725610599
24,6,1.0,0.7718045795415922,0.0
24,6,0.75,0.77371791242838,-0.19133328867877442
24,6,0.5,0.7712598445153125,0.054473502627971904
24,6,0.25,0.7703667416201199,0.14378379214723402
24,6,0.0,0.765338821105987,0.6465758435605151
24,7,1.0,0.7718045795415922,0.0
24,7,0.75,0.7708218978368232,0.09826817047690062
24,7,0.5,0.7704880629736857,0.1316516567906545
24,7,0.25,0.7441440790517783,2.7660500489813944
24,7,0.0,0.7410571732419565,3.0747406299635682
24,8,1.0,0.7718045795415922,0.0
24,8,0.75,0.7772573624876087,-0.5452782946016477
24,8,0.5,0.775255484520876,-0.34509049792837976
24,8,0.25,0.7698230223624032,0.19815571791890196
24,8,0.0,0.7625929906291907,0.921158891240148
25,0,1.0,0.862853707660721,0.0
25,0,0.75,0.8593117638195666,0.354194384115436
25,0,0.5,0.860496260818609,0.2357446842112032
25,0,0.25,0.8590388787152117,0.381482894550933
25,0,0.0,0.8560137008720397,0.6840006788681352
25,1,1.0,0.862853707660721,0.0
25,1,0.75,0.8607859312801174,0.20677763806036253
25,1,0.5,0.8659915123083541,-0.31378046476331356
25,1,0.25,0.8699804184938393,-0.7126710833118333
25,1,0.0,0.8730934079136458,-1.0239700252924755
25,2,1.0,0.862853707660721,0.0
25,2,0.75,0.8690761364270799,-0.6222428766358923
25,2,0.5,0.8629574876911904,-0.010378003046940254
25,2,0.25,0.8661744610208231,-0.3320753360102069
25,2,0.0,0.8610573681966696,0.1796339464051444
25,3,1.0,0.862853707660721,0.0
25,3,0.75,0.8666829411166975,-0.3829233455976522
25,3,0.5,0.8692505338207028,-0.6396826159981828
25,3,0.25,0.8642649320624238,-0.14112244017028264
25,3,0.0,0.849041160226538,1.3812547434183031
25,4,1.0,0.862853707660721,0.0
25,4,0.75,0.8618074586799486,0.10462489807724351
25,4,0.5,0.8505089438611485,1.23447637995725
25,4,0.25,0.8523119924072438,1.0541715253477246
25,4,0.0,0.8746310878183856,-1.1777380157664608
25,5,1.0,0.862853707660721,0.0
25,5,0.75,0.8557973044562611,0.7056403204459882
25,5,0.5,0.8580035963276237,0.4850111333097318
25,5,0.25,0.8727876949598239,-0.9933987299102887
25,5,0.0,0.8754876867632705,-1.2633979102549486
25,6,1.0,0.862853707660721,0.0
25,6,0.75,0.8653900289548673,-0.2536321294146271
25,6,0.5,0.8750804320073153,-1.222672434659433
25,6,0.25,0.880961874382927,-1.8108166722205943
25,6,0.0,0.8850105275967394,-2.215681993601837
25,7,1.0,0.862853707660721,0.0
25,7,0.75,0.8734875322046376,-1.0633824543916592
25,7,0.5,0.8650740075793009,-0.222029991857986
25,7,0.25,0.8525737095158703,1.02799981448507
25,7,0.0,0.829953548762459,3.2900158898262033
25,8,1.0,0.862853707660721,0.0
25,8,0.75,0.8747623617192128,-1.190865405849184
25,8,0.5,0.8860358622980875,-2.3182154637366503
25,8,0.25,0.8889974756617983,-2.6143768001077317
25,8,0.0,0.888593773892296,-2.5740066231574987
26,0,1.0,0.7992697036009833,0.0
26,0,0.75,0.80240091324157,-0.3131209640586774
26,0,0.5,0.7995535843072845,-0.028388070630125384
26,0,0.25,0.795229782545073,0.4039921055910223
26,0,0.0,0.7795206414941502,1.9749062106833026
26,1,1.0,0.7992697036009833,0.0
26,1,0.75,0.8075301862352673,-0.8260482634284028
26,1,0.5,0.8122291294539173,-1.2959425852934081
26,1,0.25,0.8171898157955615,-1.792011219457823
26,1,0.0,0.8052372685277615,-0.596756492677819
26,2,1.0,0.7992697036009833,0.0
26,2,0.75,0.8018036189414846,-0.25339153405012915
26,2,0.5,0.7964560341766395,0.2813669424343801
26,2,0.25,0.793231817435063,0.603788616592027
26,2,0.0,0.7813865444797117,1.7883159121271586
26,3,1.0,0.7992697036009833,0.0
26,3,0.75,0.8031232057681106,-0.38535021671273206
26,3,0.5,0.7929211724703231,0.634853113066014
26,3,0.25,0.7894064103547767,0.9863293246206606
26,3,0.0,0.7675856760470523,3.168402755393096
26,4,1.0,0.7992697036009833,0.0
26,4,0.75,0.798118420922088,0.11512826788953046
26,4,0.5,0.7839940374242439,1.5275666176739366
26,4,0.25,0.7818542191582945,1.7415484442688811
26,4,0.0,0.7911505505819538,0.8119153019029435
26,5,1.0,0.7992697036009833,0.0
26,5,0.75,0.7771786695886507,2.209103401233259
26,5,0.5,0.7641494985845972,3.512020501638602
26,5,0.25,0.7724792674167487,2.67904361842346
26,5,0.0,0.7764113691382939,2.2858334462689367
26,6,1.0,0.7992697036009833,0.0
26,6,0.75,0.80019870397051,-0.09290003695267002
26,6,0.5,0.7986034824808659,0.06662211201173829
26,6,0.25,0.7982847020452848,0.09850015556984726
26,6,0.0,0.7874260392259356,1.184366437504769
26,7,1.0,0.7992697036009833,0.0
26,7,0.75,0.7949080386920219,0.43616649089613935
26,7,0.5,0.7938165627806865,0.5453140820296798
26,7,0.25,0.7880547934042748,1.1214910196708505
26,7,0.0,0.7755292782573057,2.3740425343677596
26,8,1.0,0.7992697036009833,0.0
26,8,0.75,0.7999126410944806,-0.06429374934973087
26,8,0.5,0.7962825518723137,0.29871517286695903
26,8,0.25,0.7847384688068877,1.453123479409557
26,8,0.0,0.7586774473800064,4.059225622097684
27,0,1.0,0.8932476038388354,0.0
27,0,0.75,0.8916049091726597,0.16426946661757258
27,0,0.5,0.8966349697030442,-0.33873658642088467
27,0,0.25,0.9010487168686456,-0.7801113029810236
27,0,0.0,0.8888946914919871,0.43529123468483144
27,1,1.0,0.8932476038388354,0.0
27,1,0.75,0.8827572039251493,1.0490399913686055
27,1,0.5,0.8888675101417374,0.438009369709802
27,1,0.25,0.8923555694640032,0.08920343748322068
27,1,0.0,0.9058822537165885,-1.263464987775309
27,2,1.0,0.8932476038388354,0.0
27,2,0.75,0.8877140194941063,0.5533584344729059
27,2,0.5,0.8779529448178869,1.529465902094851
27,2,0.25,0.8713077214262741,2.1939882412561285
27,2,0.0,0.863824945642743,2.9422658196092355
27,3,1.0,0.8932476038388354,0.0
27,3,0.75,0.8917009083254055,0.15466955134298965
27,3,0.5,0.8923190781191778,0.09285257196576246
27,3,0.25,0.8879812302237334,0.526637361510196
27,3,0.0,0.8826693080930368,1.0578295745798605
27,4,1.0,0.8932476038388354,0.0
27,4,0.75,0.8849323160025909,0.8315287836244467
27,4,0.5,0.8820066735768463,1.1240930261989135
27,4,0.25,0.8750672652865034,1.8180338552332032
27,4,0.0,0.8769521957308435,1.6295408107991904
27,5,1.0,0.8932476038388354,0.0
27,5,0.75,0.8896511213364823,0.35964825023531155
27,5,0.5,0.8844884001383446,0.875920370049077
27,5,0.25,0.890136714451646,0.3110889387189397
27,5,0.0,0.8908470658885096,0.24005379503257984
27,6,1.0,0.8932476038388354,0.0
27,6,0.75,0.8961597484600664,-0.29121446212310165
27,6,0.5,0.9018390462076317,-0.8591442368796276
27,6,0.25,0.9017027249034546,-0.8455121064619209
27,6,0.0,0.8926698551004741,0.05777487383612501
27,7,1.0,0.8932476038388354,0.0
27,7,0.75,0.8933045515314958,-0.005694769266040289
27,7,0.5,0.8877685696129316,0.5479034225903789
27,7,0.25,0.8903585411483346,0.2889062690500821
27,7,0.0,0.862843507716405,3.0404096122430446
27,8,1.0,0.8932476038388354,0.0
27,8,0.75,0.8930426502908169,0.020495354801852717
27,8,0.5,0.8933819706822886,-0.013436684345324856
27,8,0.25,0.8907300897511898,0.2517514087645556
27,8,0.0,0.8834934405003387,0.9754163338496658
28,0,1.0,0.8015058620352737,0.0
28,0,0.75,0.8544652438273088,-5.295938179203508
28,0,0.5,0.8728675501023003,-7.136168806702658
28,0,0.25,0.8785655998065298,-7.705973777125608
28,0,0.0,0.8798445278729172,-7.833866583764348
28,1,1.0,0.8015058620352737,0.0
28,1,0.75,0.8050987851803018,-0.3592923145028015
28,1,0.5,0.7928217064170731,0.8684155618200684
28,1,0.25,0.7882577666183777,1.3248095416896088
28,1,0.0,0.7859273079660094,1.5578554069264339
28,2,1.0,0.8015058620352737,0.0
28,2,0.75,0.8037352834325782,-0.22294213973044208
28,2,0.5,0.8091576342849687,-0.7651772249694933
28,2,0.25,0.8035475913054709,-0.204172927019719
28,2,0.0,0.8064974653080509,-0.49916032727771453
28,3,1.0,0.8015058620352737,0.0
28,3,0.75,0.8081927227830878,-0.6686860747814105
28,3,0.5,0.8183997693702537,-1.6893907334979974
28,3,0.25,0.8132762691321749,-1.1770407096901137
28,3,0.0,0.7906302592907679,1.087560274450583
28,4,1.0,0.8015058620352737,0.0
28,4,0.75,0.8047242777608616,-0.32184157255878976
28,4,0.5,0.7838753286591889,1.763053337608489
28,4,0.25,0.7865185320243657,1.4987330010908018
28,4,0.0,0.7973361255736136,0.41697364616601895
28,5,1.0,0.8015058620352737,0.0
28,5,0.75,0.6896822302121841,11.182363182308963
28,5,0.5,0.6692354343960687,13.227042763920505
28,5,0.25,0.6783133409309032,12.319252110437052
28,5,0.0,0.6959996496835537,10.55062123517201
28,6,1.0,0.8015058620352737,0.0
28,6,0.75,0.7906393263445671,1.0866535690706614
28,6,0.5,0.7608772806398879,4.062858139538584
28,6,0.25,0.7474367070124948,5.406915502277898
28,6,0.0,0.7340697719720815,6.743609006319229
28,7,1.0,0.8015058620352737,0.0
28,7,0.75,0.8083053079020031,-0.6799445866729315
28,7,0.5,0.8053597538113172,-0.385389177604345
28,7,0.25,0.8018873205051731,-0.038145846989934284
28,7,0.0,0.7983074774142791,0.3198384620994643
28,8,1.0,0.8015058620352737,0.0
28,8,0.75,0.8194603240361459,-1.795446200087214
28,8,0.5,0.824261141614433,-2.2755279579159238
28,8,0.25,0.8233905956095106,-2.1884733574236814
28,8,0.0,0.820391487878511,-1.8885625843237275
29,0,1.0,0.8508457532627275,0.0
29,0,0.75,0.852886892767071,-0.2041139504343481
29,0,0.5,0.8614649083370294,-1.061915507430189
29,0,0.25,0.849330100638704,0.15156526240235335
29,0,0.0,0.8457280643761996,0.511768888652786
29,1,1.0,0.8508457532627275,0.0
29,1,0.75,0.8532714634794625,-0.24257102167349887
29,1,0.5,0.863728259968193,-1.2882506705465535
29,1,0.25,0.8625707632667113,-1.172501000398385
29,1,0.0,0.8590545728028998,-0.8208819540172274
29,2,1.0,0.8508457532627275,0.0
29,2,0.75,0.8398774538088184,1.0968299453909092
29,2,0.5,0.8417786499466544,0.9067103316073077
29,2,0.25,0.8397819420292494,1.1063811233478105
29,2,0.0,0.828510178823739,2.233557443898848
29,3,1.0,0.8508457532627275,0.0
29,3,0.75,0.8511033312064626,-0.02575779437351544
29,3,0.5,0.8460448713922222,0.48008818705053136
29,3,0.25,0.8327599409241881,1.8085812338539342
29,3,0.0,0.8322115443092404,1.8634208953487108
29,4,1.0,0.8508457532627275,0.0
29,4,0.75,0.8343847425363957,1.646101072633177
29,4,0.5,0.823672358762173,2.717339450055445
29,4,0.25,0.8197736336909258,3.107211957180167
29,4,0.0,0.824030447395119,2.6815305867608497
29,5,1.0,0.8508457532627275,0.0
29,5,0.75,0.8483848980022934,0.24608552604340472
29,5,0.5,0.846144925148375,0.4700828114352462
29,5,0.25,0.8436693528947008,0.7176400368026692
29,5,0.0,0.8390659239022169,1.1779829360510585
29,6,1.0,0.8508457532627275,0.0
29,6,0.75,0.8508800893150845,-0.00343360523570313
29,6,0.5,0.8543843436814078,-0.3538590418680321
29,6,0.25,0.8571338085291802,-0.6288055266452708
29,6,0.0,0.8520875374167276,-0.1241784154000114
29,7,1.0,0.8508457532627275,0.0
29,7,0.75,0.8560429899982164,-0.5197236735488886
29,7,0.5,0.8535961996203445,-0.2750446357617009
29,7,0.25,0.8493256220231737,0.15201312395537458
29,7,0.0,0.8439002177662975,0.6945535496429955
29,8,1.0,0.8508457532627275,0.0
29,8,0.75,0.8549047982161219,-0.4059044953394375
29,8,0.5,0.8422765313998377,0.8569221862889775
29,8,0.25,0.8189042902491944,3.1941463013533067
29,8,0.0,0.8130760927214759,3.7769660541251637
30,0,1.0,0.8406209379441295,0.0
30,0,0.75,0.837839821632916,0.2781116311213472
30,0,0.5,0.8433268148290629,-0.27058768849334003
30,0,0.25,0.8440091359426842,-0.33881979985547206
30,0,0.0,0.8482643761034261,-0.7643438159296578
30,1,1.0,0.8406209379441295,0.0
30,1,0.75,0.8262552815601338,1.4365656383995673
30,1,0.5,0.8224920314234732,1.8128906520656352
30,1,0.25,0.8121519075466443,2.846903039748516
30,1,0.0,0.8038854954574893,3.673544248664018
30,2,1.0,0.8406209379441295,0.0
30,2,0.75,0.8407329000484592,-0.011196210432973253
30,2,0.5,0.8523015100003817,-1.168057205625217
30,2,0.25,0.8533931346107997,-1.2772196666670177
30,2,0.0,0.857840651111699,-1.721971316756954
30,3,1.0,0.8406209379441295,0.0
30,3,0.75,0.8411315587797606,-0.0510620835631137
30,3,0.5,0.8404206739640394,0.02002639800900985
30,3,0.25,0.8262137311306194,1.4407206813510154
30,3,0.0,0.8157309559172904,2.488998202683912
30,4,1.0,0.8406209379441295,0.0
30,4,0.75,0.8339500883476624,0.6670849596467132
30,4,0.5,0.8200689873621049,2.0551950582024636
30,4,0.25,0.8107847828767821,2.983615506734738
30,4,0.0,0.8262161617912436,1.4404776152885934
30,5,1.0,0.8406209379441295,0.0
30,5,0.75,0.8404549765398822,0.016596140424729455
30,5,0.5,0.8258860166940578,1.4734921250071698
30,5,0.25,0.8322352175231895,0.838572042093999
30,5,0.0,0.8298513652378157,1.0769572706313846
30,6,1.0,0.8406209379441295,0.0
30,6,0.75,0.8486272233511141,-0.8006285406984559
30,6,0.5,0.8547831160171877,-1.4162178073058196
30,6,0.25,0.8505481994943549,-0.9927261550225386
30,6,0.0,0.8562789132225394,-1.5657975278409841
30,7,1.0,0.8406209379441295,0.0
30,7,0.75,0.8537971952134109,-1.31762572692814
30,7,0.5,0.8399979878173288,0.062295012680069206
30,7,0.25,0.8162195628112895,2.440137513284002
30,7,0.0,0.7954073837817188,4.521355416241068
30,8,1.0,0.8406209379441295,0.0
30,8,0.75,0.8425074667788763,-0.18865288347468256
30,8,0.5,0.8424509764178194,-0.1830038473689899
30,8,0.25,0.8436538652665313,-0.30329273224017905
30,8,0.0,0.8368732132912655,0.3747724652863993
31,0,1.0,0.7898028012788856,0.0
31,0,0.75,0.7944033781436544,-0.46005768647687795
31,0,0.5,0.795374350420222,-0.5571549141336396
31,0,0.25,0.7936799282793503,-0.38771270004647196
31,0,0.0,0.7969130344382468,-0.7110233159361212
31,1,1.0,0.7898028012788856,0.0
31,1,0.75,0.7762888143460053,1.3513986932880306
31,1,0.5,0.7770082781484058,1.2794523130479796
31,1,0.25,0.7694449854713601,2.0357815807525492
31,1,0.0,0.7695144303295077,2.0288370949377854
31,2,1.0,0.7898028012788856,0.0
31,2,0.75,0.783690546618814,0.6112254660071592
31,2,0.5,0.7854575910408412,0.434521023804435
31,2,0.25,0.7748740827173634,1.4928718561522225
31,2,0.0,0.7635245994126092,2.6278201866276385
31,3,1.0,0.7898028012788856,0.0
31,3,0.75,0.8006139163215462,-1.0811115042660635
31,3,0.5,0.8081401261536929,-1.8337324874807326
31,3,0.25,0.804928394409478,-1.5125593130592474
31,3,0.0,0.8046695909022848,-1.4866789623399268
31,4,1.0,0.7898028012788856,0.0
31,4,0.75,0.7925899403631312,-0.278713908424566
31,4,0.5,0.7979875647270416,-0.8184763448155996
31,4,0.25,0.7832141241886451,0.6588677090240469
31,4,0.0,0.7873057048755856,0.2497096403299981
31,5,1.0,0.7898028012788856,0.0
31,5,0.75,0.7897691792118204,0.0033622067065142147
31,5,0.5,0.787799533033623,0.2003268245262535
31,5,0.25,0.7958449802003261,-0.6042178921440544
31,5,0.0,0.80474375335202,-1.4940952073134395
31,6,1.0,0.7898028012788856,0.0
31,6,0.75,0.790571765158388,-0.07689638795024267
31,6,0.5,0.7950203064705521,-0.5217505191666527
31,6,0.25,0.7891964396047954,0.06063616740902278
31,6,0.0,0.7925110788591194,-0.2708277580233842
31,7,1.0,0.7898028012788856,0.0
31,7,0.75,0.790583226297512,-0.07804250186264072
31,7,0.5,0.782958526621893,0.6844274656992555
31,7,0.25,0.7515755953588312,3.8227205920054352
31,7,0.0,0.7529738407759132,3.682896050297235
31,8,1.0,0.7898028012788856,0.0
31,8,0.75,0.7785911643970748,1.1211636881810816
31,8,0.5,0.7817406488970022,0.8062152381883347
31,8,0.25,0.764456379048309,2.5346422230576593
31,8,0.0,0.7508959187982752,3.890688248061036
32,0,1.0,0.85316270121316,0.0
32,0,0.75,0.8390725448631319,1.4090156350028082
32,0,0.5,0.8311444127389027,2.201828847425724
32,0,0.25,0.8272769252419534,2.588577597120656
32,0,0.0,0.8188604951909795,3.430220602218048
32,1,1.0,0.85316270121316,0.0
32,1,0.75,0.8487335931017932,0.4429108111366764
32,1,0.5,0.8386456937681135,1.451700744504647
32,1,0.25,0.8290826031624019,2.408009805075806
32,1,0.0,0.8191620480448943,3.4000653168265615
32,2,1.0,0.85316270121316,0.0
32,2,0.75,0.8404251556406117,1.2737545572548248
32,2,0.5,0.8333376351341115,1.9825066079048437
32,2,0.25,0.8335745632913644,1.958813792179559
32,2,0.0,0.8178723808084113,3.5290320404748665
32,3,1.0,0.85316270121316,0.0
32,3,0.75,0.8396818935684252,1.3480807644734805
32,3,0.5,0.8320248503588096,2.113785085435038
32,3,0.25,0.8290582158057204,2.410448540743959
32,3,0.0,0.8240909701043517,2.907173110880823
32,4,1.0,0.85316270121316,0.0
32,4,0.75,0.8331177084076868,2.0044992805473116
32,4,0.5,0.8235821942030231,2.9580507010136814
32,4,0.25,0.8275743080649444,2.5588393148215594
32,4,0.0,0.8365931058321348,1.6569595381025204
32,5,1.0,0.85316270121316,0.0
32,5,0.75,0.8407310754730866,1.2431625740073393
32,5,0.5,0.8374942117130352,1.5668489500124783
32,5,0.25,0.8305155537334085,2.2647147479751495
32,5,0.0,0.8237583106097257,2.940439060343425
32,6,1.0,0.85316270121316,0.0
32,6,0.75,0.8468152281508445,0.6347473062315423
32,6,0.5,0.8397325453496339,1.3430155863526028
32,6,0.25,0.8453009484655054,0.7861752747654549
32,6,0.0,0.8360416129374438,1.7121088275716123
32,7,1.0,0.85316270121316,0.0
32,7,0.75,0.8446728664016572,0.8489834811502783
32,7,0.5,0.8486124074501553,0.45502937630046425
32,7,0.25,0.8329388509582545,2.0223850254905473
32,7,0.0,0.801816567321613,5.134613389154696
32,8,1.0,0.85316270121316,0.0
32,8,0.75,0.8544933443628662,-0.1330643149706212
32,8,0.5,0.859476761085672,-0.631405987251199
32,8,0.25,0.8643139893139894,-1.1151288100829437
32,8,0.0,0.8521454593456343,0.1017241867525609
33,0,1.0,0.8970861432560012,0.0
33,0,0.75,0.907001214945152,-0.9915071689150734
33,0,0.5,0.8903580334259604,0.6728109830040796
33,0,0.25,0.8809861267816922,1.6100016474309031
33,0,0.0,0.8688874278358143,2.8198715420186926
33,1,1.0,0.8970861432560012,0.0
33,1,0.75,0.9018936773831363,-0.48075341271350824
33,1,0.5,0.9004286248032612,-0.33424815472600233
33,1,0.25,0.8866537597361503,1.0432383519850874
33,1,0.0,0.8954029332922591,0.16832099637421605
33,2,1.0,0.8970861432560012,0.0
33,2,0.75,0.9005559579893382,-0.3469814733336962
33,2,0.5,0.8951230357381126,0.19631075178886404
33,2,0.25,0.8830724013283995,1.4013741927601742
33,2,0.0,0.8797654746139425,1.7320668642058723
33,3,1.0,0.8970861432560012,0.0
33,3,0.75,0.8950944324560774,0.19917107999237738
33,3,0.5,0.8856166948792221,1.1469448376779101
33,3,0.25,0.8776938775667342,1.9392265689266996
33,3,0.0,0.8690785114258522,2.8007631830148982
33,4,1.0,0.8970861432560012,0.0
33,4,0.75,0.908593293150568,-1.1507149894566804
33,4,0.5,0.9186975133150108,-2.1611370059009594
33,4,0.25,0.9154941435417343,-1.8408000285733084
33,4,0.0,0.9236664736414862,-2.658033038548502
33,5,1.0,0.8970861432560012,0.0
33,5,0.75,0.9087920068555769,-1.1705863599575705
33,5,0.5,0.901835148866699,-0.47490056106977985
33,5,0.25,0.9018904605229274,-0.4804317266926206
33,5,0.0,0.9087435834691056,-1.165744021310433
33,6,1.0,0.8970861432560012,0.0
33,6,0.75,0.8998801599565834,-0.27940167005822136
33,6,0.5,0.8923180891572123,0.47680540987888875
33,6,0.25,0.8815411839477273,1.5544959308273931
33,6,0.0,0.8716465503434625,2.543959291253872
33,7,1.0,0.8970861432560012,0.0
33,7,0.75,0.8951973535668969,0.1888789689104331
33,7,0.5,0.8820199862123067,1.5066157043694517
33,7,0.25,0.8753782627736583,2.1707880482342956
33,7,0.0,0.8668189060608797,3.0267237195121477
33,8,1.0,0.8970861432560012,0.0
33,8,0.75,0.895950920735256,0.11352225207452715
33,8,0.5,0.9030704408618166,-0.5984297605815425
33,8,0.25,0.9003326897630289,-0.32465465070277144
33,8,0.0,0.8825880794354055,1.4498063820595708
34,0,1.0,0.8858537226051489,0.0
34,0,0.75,0.8842839062908396,0.15698163143093025
34,0,0.5,0.8757050713923196,1.0148651212829374
34,0,0.25,0.8628847680519414,2.2968954553207577
34,0,0.0,0.848840006226395,3.7013716378753947
34,1,1.0,0.8858537226051489,0.0
34,1,0.75,0.8942974345723419,-0.8443711967192957
34,1,0.5,0.8846021442199562,0.1251578385192742
34,1,0.25,0.8782460988291428,0.76076237760061
34,1,0.0,0.8831437098601396,0.27100127450093714
34,2,1.0,0.8858537226051489,0.0
34,2,0.75,0.8812671321821754,0.4586590422973491
34,2,0.5,0.8928306586895325,-0.6976936084383545
34,2,0.25,0.8965422729635348,-1.0688550358385895
34,2,0.0,0.904296066233723,-1.844234362857411
34,3,1.0,0.8858537226051489,0.0
34,3,0.75,0.8835704167403108,0.22833058648381588
34,3,0.5,0.8794281748492667,0.6425547755882222
34,3,0.25,0.872704372366194,1.3149350238954916
34,3,0.0,0.8731496167908859,1.2704105814263067
34,4,1.0,0.8858537226051489,0.0
34,4,0.75,0.8821785152032678,0.36752074018810976
34,4,0.5,0.8832133592703046,0.2640363334844298
34,4,0.25,0.8678138833624102,1.8039839242738775
34,4,0.0,0.8786429756529056,0.721074695224333
34,5,1.0,0.8858537226051489,0.0
34,5,0.75,0.874896947410813,1.095677519433591
34,5,0.5,0.8685163280428649,1.7337394562284003
34,5,0.25,0.8718434694146813,1.401025319046767
34,5,0.0,0.8869821993149557,-0.11284767098067583
34,6,1.0,0.8858537226051489,0.0
34,6,0.75,0.88240056058149,0.34531620236589733
34,6,0.5,0.887317784134579,-0.14640615294300163
34,6,0.25,0.8809794438623122,0.4874278742836746
34,6,0.0,0.8833677395557674,0.24859830493815238
34,7,1.0,0.8858537226051489,0.0
34,7,0.75,0.8974889365214797,-1.1635213916330711
34,7,0.5,0.8971418208999062,-1.1288098294757298
34,7,0.25,0.8957242715436075,-0.9870548938458512
34,7,0.0,0.8898463740063454,-0.3992651401196423
34,8,1.0,0.8858537226051489,0.0
34,8,0.75,0.884881934007807,0.09717885973419271
34,8,0.5,0.8822090697515553,0.36446528535936107
34,8,0.25,0.8686551927975384,1.7198529807610496
34,8,0.0,0.8610841593240621,2.4769563281086815
35,0,1.0,0.7242849883787454,0.0
35,0,0.75,0.7138221365975734,1.0462851781172011
35,0,0.5,0.7070936524090595,1.7191335969685917
35,0,0.25,0.6819498502020587,4.233513817668677
35,0,0.0,0.6682036997096167,5.608128866912876
35,1,1.0,0.7242849883787454,0.0
35,1,0.75,0.7165705102011208,0.7714478177624606
35,1,0.5,0.7198708487848984,0.4414139593847066
35,1,0.25,0.7228086438485223,0.14763445302231615
35,1,0.0,0.7166941917558228,0.7590796622922613
35,2,1.0,0.7242849883787454,0.0
35,2,0.75,0.7309128000559192,-0.6627811677173745
35,2,0.5,0.7418539510564509,-1.7568962677705469
35,2,0.25,0.7327325226880917,-0.8447534309346305
35,2,0.0,0.7339908626785009,-0.9705874299755446
35,3,1.0,0.7242849883787454,0.0
35,3,0.75,0.7216887915040625,0.2596196874682932
35,3,0.5,0.7254019008182896,-0.11169124395441488
35,3,0.25,0.7348609222724817,-1.0575933893736233
35,3,0.0,0.7230430655551932,0.12419228235522883
35,4,1.0,0.7242849883787454,0.0
35,4,0.75,0.7193251914110761,0.495979696766935
35,4,0.5,0.7168042080287488,0.7480780349996663
35,4,0.25,0.7250658287975905,-0.07808404188450746
35,4,0.0,0.7566981401326176,-3.241315175387216
35,5,1.0,0.7242849883787454,0.0
35,5,0.75,0.7306484896382157,-0.6363501259470272
35,5,0.5,0.7124669607510088,1.181802762773665
35,5,0.25,0.6986508024801227,2.5634185898622763
35,5,0.0,0.7098638017168457,1.4421186661899732
35,6,1.0,0.7242849883787454,0.0
35,6,0.75,0.7114803811281443,1.2804607250601174
35,6,0.5,0.7121290220919528,1.2155966286792608
35,6,0.25,0.7170896985166568,0.7195289862088616
35,6,0.0,0.7138274236257396,1.0457564753005855
35,7,1.0,0.7242849883787454,0.0
35,7,0.75,0.7184004286992358,0.5884559679509627
35,7,0.5,0.7138467629315828,1.0438225447162663
35,7,0.25,0.7194858040818002,0.4799184296945258
35,7,0.0,0.7184411239177594,0.5843864460986059
35,8,1.0,0.7242849883787454,0.0
35,8,0.75,0.7240031281993058,0.028186017943965247
35,8,0.5,0.7223585272864705,0.19264610922749004
35,8,0.25,0.710798875162475,1.3486113216270468
35,8,0.0,0.7059693994289751,1.8315588949770367
36,0,1.0,0.6841402015997009,0.0
36,0,0.75,0.6792822789493156,0.48579226503853157
36,0,0.5,0.6868723977203517,-0.2732196120650787
36,0,0.25,0.6683001812258526,1.5840020373848351
36,0,0.0,0.67350031538064,1.0639886219060868
36,1,1.0,0.6841402015997009,0.0
36,1,0.75,0.6815479281543468,0.2592273445354065
36,1,0.5,0.6655031428273626,1.8637058772338344
36,1,0.25,0.663022354089269,2.1117847510431886
36,1,0.0,0.6449288361467065,3.921136545299442
36,2,1.0,0.6841402015997009,0.0
36,2,0.75,0.679138824100506,0.5001377499194937
36,2,0.5,0.666464961826444,1.7675239773256912
36,2,0.25,0.6363091610437376,4.783104055596333
36,2,0.0,0.619910829739179,6.4229371860521915
36,3,1.0,0.6841402015997009,0.0
36,3,0.75,0.6889945215905622,-0.4854319990861278
36,3,0.5,0.6824996119548493,0.16405896448515866
36,3,0.25,0.6659131566020533,1.8227044997647601
36,3,0.0,0.6516119161838012,3.2528285415899694
36,4,1.0,0.6841402015997009,0.0
36,4,0.75,0.6742092508151807,0.993095078452022
36,4,0.5,0.67539030893703,0.87498926626709
36,4,0.25,0.6831748318874281,0.096536971227279
36,4,0.0,0.6964160941884879,-1.227589258878703
36,5,1.0,0.6841402015997009,0.0
36,5,0.75,0.6835612423910544,0.0578959208646479
36,5,0.5,0.6897085083274626,-0.5568306727761652
36,5,0.25,0.6865801808936329,-0.24399792939320264
36,5,0.0,0.6835298917933651,0.0610309806335807
36,6,1.0,0.6841402015997009,0.0
36,6,0.75,0.6857873491717325,-0.16471475720315487
36,6,0.5,0.684699414329212,-0.05592127295110938
36,6,0.25,0.6681865866060152,1.595361499368575
36,6,0.0,0.6646577088478921,1.94824927518088
36,7,1.0,0.6841402015997009,0.0
36,7,0.75,0.6748507613882627,0.9289440211438182
36,7,0.5,0.6501945430123746,3.3945658587326344
36,7,0.25,0.6310332589398402,5.310694265986071
36,7,0.0,0.5927543581223462,9.138584347735467
36,8,1.0,0.6841402015997009,0.0
36,8,0.75,0.6639812445781409,2.015895702156001
36,8,0.5,0.6407188715538816,4.342133004581927
36,8,0.25,0.6400814954353975,4.405870616430341
36,8,0.0,0.6425930412001148,4.154716039958606
37,0,1.0,0.8639138485831914,0.0
37,0,0.75,0.8559917403833135,0.7922108199877931
37,0,0.5,0.8467665371280588,1.7147311455132597
37,0,0.25,0.8488495717283786,1.506427685481282
37,0,0.0,0.8417257612312127,2.2188087351978747
37,1,1.0,0.8639138485831914,0.0
37,1,0.75,0.8524652619305227,1.144858665266868
37,1,0.5,0.8490002962113539,1.4913552371837557
37,1,0.25,0.8260574668747752,3.785638170841621
37,1,0.0,0.8201775801970494,4.373626838614197
37,2,1.0,0.8639138485831914,0.0
37,2,0.75,0.852525276528711,1.1388572054480406
37,2,0.5,0.853609347920609,1.0304500662582372
37,2,0.25,0.8613063075496914,0.2607541033500027
37,2,0.0,0.8539348670884169,0.9978981494774497
37,3,1.0,0.8639138485831914,0.0
37,3,0.75,0.8502234601763459,1.3690388406845555
37,3,0.5,0.8384000683001793,2.55137802830121
37,3,0.25,0.8335695100017393,3.0344338581452135
37,3,0.0,0.8323853025554916,3.1528546027699833
37,4,1.0,0.8639138485831914,0.0
37,4,0.75,0.8672160407018213,-0.3302192118629921
37,4,0.5,0.8652460669719151,-0.13322183887236605
37,4,0.25,0.8460613617863584,1.7852486796833045
37,4,0.0,0.8747062018147354,-1.0792353231543927
37,5,1.0,0.8639138485831914,0.0
37,5,0.75,0.8670494454506791,-0.31355968674876555
37,5,0.5,0.8507280664935672,1.3185782089624176
37,5,0.25,0.8367467465957424,2.7167101987448983
37,5,0.0,0.8491862338777205,1.4727614705470904
37,6,1.0,0.8639138485831914,0.0
37,6,0.75,0.8516816875358713,1.2232161047320167
37,6,0.5,0.8341150538589891,2.9798794724202327
37,6,0.25,0.8305622485775577,3.3351600005633752
37,6,0.0,0.8220908105111081,4.182303807208331
37,7,1.0,0.8639138485831914,0.0
37,7,0.75,0.8487126794442988,1.5201169138892578
37,7,0.5,0.836436484769562,2.747736381362942
37,7,0.25,0.8247240944445419,3.9189754138649557
37,7,0.0,0.8097423197641315,5.417152881905995
37,8,1.0,0.8639138485831914,0.0
37,8,0.75,0.8664480277253366,-0.2534179142145154
37,8,0.5,0.860669037673092,0.3244810910099427
37,8,0.25,0.840107776680528,2.3806071902663373
37,8,0.0,0.825118430237346,3.8795418345845434
38,0,1.0,0.8350232496179485,0.0
38,0,0.75,0.8082947577827606,2.6728491835187884
38,0,0.5,0.7887395004666804,4.628374915126809
38,0,0.25,0.7782181054239878,5.680514419396065
38,0,0.0,0.7861629459043734,4.886030371357508
38,1,1.0,0.8350232496179485,0.0
38,1,0.75,0.8342574753725145,0.07657742454340033
38,1,0.5,0.838617397957368,-0.3594148339419512
38,1,0.25,0.8303250499804232,0.4698199637525269
38,1,0.0,0.8304049913030871,0.4618258314861401
38,2,1.0,0.8350232496179485,0.0
38,2,0.75,0.8316613626552152,0.3361886962733318
38,2,0.5,0.8415938945426731,-0.6570644924724589
38,2,0.25,0.8346404032823924,0.03828463355560752
38,2,0.0,0.8436997133764547,-0.867646375850617
38,3,1.0,0.8350232496179485,0.0
38,3,0.75,0.8528133073311019,-1.779005771315345
38,3,0.5,0.8575082763742558,-2.248502675630726
38,3,0.25,0.8657591519948002,-3.0735902376851754
38,3,0.0,0.8559869572855302,-2.096370766758171
38,4,1.0,0.8350232496179485,0.0
38,4,0.75,0.8125389364675797,2.2484313150368807
38,4,0.5,0.795980679658855,3.90425699590935
38,4,0.25,0.7916214216531304,4.340182796481806
38,4,0.0,0.7984141547999772,3.6609094817971255
38,5,1.0,0.8350232496179485,0.0
38,5,0.75,0.8283965835522722,0.6626666065676301
38,5,0.5,0.8231652063423083,1.1858043275640218
38,5,0.25,0.8166007895858969,1.8422460032051613
38,5,0.0,0.8166373319087085,1.838591770924003
38,6,1.0,0.8350232496179485,0.0
38,6,0.75,0.8240848246008282,1.093842501712028
38,6,0.5,0.8059321713410597,2.9091078276888838
38,6,0.25,0.8053050612575434,2.9718188360405073
38,6,0.0,0.7931052321584888,4.191801745945966
38,7,1.0,0.8350232496179485,0.0
38,7,0.75,0.8217246452059537,1.3298604411994819
38,7,0.5,0.8072172808028708,2.7805968815077686
38,7,0.25,0.7852187000239155,4.980454959403302
38,7,0.0,0.7759494742889745,5.907377532897396
38,8,1.0,0.8350232496179485,0.0
38,8,0.75,0.8331516541751461,0.1871595442802354
38,8,0.5,0.8312619336897773,0.3761315928171194
38,8,0.25,0.8325077728136994,0.2515476804249128
38,8,0.0,0.8139820403904912,2.1041209227457336
39,0,1.0,0.8385902489026964,0.0
39,0,0.75,0.827282794196891,1.1307454705805409
39,0,0.5,0.8110617235108577,2.75285253918387
39,0,0.25,0.811633066284696,2.6957182618000397
39,0,0.0,0.8010381787592697,3.7552070143426652
39,1,1.0,0.8385902489026964,0.0
39,1,0.75,0.8234009871940906,1.5189261708605795
39,1,0.5,0.8258949739212897,1.2695274981406657
39,1,0.25,0.8268289655386429,1.1761283364053465
39,1,0.0,0.8320509399276523,0.6539308975044067
39,2,1.0,0.8385902489026964,0.0
39,2,0.75,0.8453378514218229,-0.6747602519126539
39,2,0.5,0.845482483308803,-0.6892234406106645
39,2,0.25,0.8390340790681406,-0.04438301654442478
39,2,0.0,0.8301541055579574,0.8436143344738967
39,3,1.0,0.8385902489026964,0.0
39,3,0.75,0.8219554876090157,1.6634761293680689
39,3,0.5,0.8086401094462266,2.995013945646985
39,3,0.25,0.7728289453401533,6.576130356254306
39,3,0.0,0.7338125460504873,10.477770285220911
39,4,1.0,0.8385902489026964,0.0
39,4,0.75,0.8186359232556714,1.995432564702504
39,4,0.5,0.7982488827779703,4.034136612472605
39,4,0.25,0.7802662890253769,5.832395987731953
39,4,0.0,0.7513458065831647,8.724444231953166
39,5,1.0,0.8385902489026964,0.0
39,5,0.75,0.8242613006615717,1.432894824112474
39,5,0.5,0.8045125299261962,3.407771897650025
39,5,0.25,0.8032291824918554,3.5361066410841024
39,5,0.0,0.8094644165241875,2.9125832378508854
39,6,1.0,0.8385902489026964,0.0
39,6,0.75,0.849573246472153,-1.0982997569456643
39,6,0.5,0.8556313872925245,-1.7041138389828125
39,6,0.25,0.8564979197621473,-1.7907670859450886
39,6,0.0,0.8666139171104277,-2.802366820773128
39,7,1.0,0.8385902489026964,0.0
39,7,0.75,0.8323052560457102,0.6284992856986249
39,7,0.5,0.8217202882520886,1.6869960650607752
39,7,0.25,0.8306356902539374,0.7954558648759047
39,7,0.0,0.83069730373539,0.7892945167306431
39,8,1.0,0.8385902489026964,0.0
39,8,0.75,0.8500044583771824,-1.1414209474486015
39,8,0.5,0.8568539817128608,-1.8263732810164357
39,8,0.25,0.8563038010211983,-1.7713552118501896
39,8,0.0,0.8525879873331148,-1.3997738430418405
40,0,1.0,0.8270827703117707,0.0
40,0,0.75,0.817673462855234,0.9409307456536675
40,0,0.5,0.7985412229426798,2.854154736909087
40,0,0.25,0.779224033305498,4.785873700627263
40,0,0.0,0.7669905838326374,6.009218647913328
40,1,1.0,0.8270827703117707,0.0
40,1,0.75,0.8125295162778479,1.4553254033922824
40,1,0.5,0.7965051534252616,3.0577616886509063
40,1,0.25,0.7844111466404315,4.267162367133914
40,1,0.0,0.7817010294789073,4.538174083286339
40,2,1.0,0.8270827703117707,0.0
40,2,0.75,0.8447614387105813,-1.7678668398810604
40,2,0.5,0.8417534329342939,-1.4670662622523256
40,2,0.25,0.8457575324878835,-1.8674762176112858
40,2,0.0,0.8290650238493237,-0.19822535375529915
40,3,1.0,0.8270827703117707,0.0
40,3,0.75,0.8163934658148511,1.0689304496919627
40,3,0.5,0.7957786260967682,3.1304144215002494
40,3,0.25,0.7799651457162293,4.711762459554136
40,3,0.0,0.7804591580388142,4.662361227295653
40,4,1.0,0.8270827703117707,0.0
40,4,0.75,0.8173474663478891,0.9735303963881559
40,4,0.5,0.81437736941396,1.2705400897810692
40,4,0.25,0.7931805821908007,3.390218812097001
40,4,0.0,0.7971802739088099,2.990249640296083
40,5,1.0,0.8270827703117707,0.0
40,5,0.75,0.8329590730604101,-0.5876302748639373
40,5,0.5,0.8360645173090039,-0.8981746997233198
40,5,0.25,0.8274108865539451,-0.03281162421744366
40,5,0.0,0.830882033315862,-0.379926300409128
40,6,1.0,0.8270827703117707,0.0
40,6,0.75,0.8283244854090672,-0.12417150972965363
40,6,0.5,0.8267495880830189,0.03331822287517827
40,6,0.25,0.8227570041181647,0.4325766193606029
40,6,0.0,0.8184760152418145,0.8606755069956229
40,7,1.0,0.8270827703117707,0.0
40,7,0.75,0.8203562706588017,0.6726499652969009
40,7,0.5,0.8247918594647503,0.22909108470203776
40,7,0.25,0.798242022931717,2.884074738005371
40,7,0.0,0.7655438032978281,6.153896701394257
40,8,1.0,0.8270827703117707,0.0
40,8,0.75,0.8329203042204744,-0.5837533908703674
40,8,0.5,0.8203141290748069,0.6768641236963746
40,8,0.25,0.814155909844214,1.2926860467556645
40,8,0.0,0.7978397152657499,2.924305504602076
