subject,channel,f1_full,f1_occluded,drop_pp
1,0,0.678405274295729,0.6530754181066429,2.532985618908612
1,1,0.678405274295729,0.6846887573869144,-0.6283483091185316
1,2,0.678405274295729,0.6735272784009548,0.4877995894774223
1,3,0.678405274295729,0.6457425184595376,3.2662755836191493
1,4,0.678405274295729,0.7097927282921856,-3.1387453996456594
1,5,0.678405274295729,0.6017376903373269,7.666758395840212
1,6,0.678405274295729,0.7199265771276245,-4.152130283189548
1,7,0.678405274295729,0.5794750013037887,9.893027299194035
1,8,0.678405274295729,0.6486308575868954,2.977441670883363
2,0,0.8645669018202569,0.8740265572469158,-0.9459655426658942
2,1,0.8645669018202569,0.8378962829194566,2.6670618900800247
2,2,0.8645669018202569,0.8295978438541423,3.4969057966114603
2,3,0.8645669018202569,0.84825225456511,1.6314647255146864
2,4,0.8645669018202569,0.8496612764146434,1.4905625405613465
2,5,0.8645669018202569,0.8580505631273296,0.6516338692927226
2,6,0.8645669018202569,0.8415662705429582,2.3000631277298678
2,7,0.8645669018202569,0.8315736413260639,3.2993260494192933
2,8,0.8645669018202569,0.8529506015860295,1.1616300234227328
3,0,0.9171917142554475,0.8881550077480894,2.9036706507358123
3,1,0.9171917142554475,0.9081680106192799,0.9023703636167668
3,2,0.9171917142554475,0.9053598526264208,1.1831861629026719
3,3,0.9171917142554475,0.8095350208673562,10.765669338809136
3,4,0.9171917142554475,0.9143926119166279,0.2799102338819637
3,5,0.9171917142554475,0.9258402324918529,-0.8648518236405334
3,6,0.9171917142554475,0.9166701995625354,0.05215146929121728
3,7,0.9171917142554475,0.8927631201905126,2.4428594064934916
3,8,0.9171917142554475,0.9131024400441482,0.4089274211299343
4,0,0.8293275452630596,0.817559024810044,1.1768520453015574
4,1,0.8293275452630596,0.7627474640069313,6.658008125612835
4,2,0.8293275452630596,0.8349989866664923,-0.5671441403432675
4,3,0.8293275452630596,0.8644088574555999,-3.5081312192540293
4,4,0.8293275452630596,0.9020772778625328,-7.2749732599473145
4,5,0.8293275452630596,0.8231277890464862,0.6199756216573427
4,6,0.8293275452630596,0.8843592775829398,-5.503173231988012
4,7,0.8293275452630596,0.8119028598250765,1.7424685437983145
4,8,0.8293275452630596,0.8409833157943692,-1.1655770531309617
5,0,0.658951394837171,0.6515347969847439,0.7416597852427098
5,1,0.658951394837171,0.6713030308229143,-1.2351635985743292
5,2,0.658951394837171,0.6576883129672983,0.1263081869872673
5,3,0.658951394837171,0.6941998084558402,-3.524841361866915
5,4,0.658951394837171,0.6253716348813999,3.3579759955771116
5,5,0.658951394837171,0.618833498715015,4.011789612215599
5,6,0.658951394837171,0.6617310129994008,-0.27796181622298244
5,7,0.658951394837171,0.6607114657804738,-0.17600709433027717
5,8,0.658951394837171,0.6480098102812738,1.0941584555897221
6,0,0.762952087924452,0.7625237652993087,0.04283226251433625
6,1,0.762952087924452,0.7333182095259205,2.963387839853149
6,2,0.762952087924452,0.7634928450859236,-0.05407571614716167
6,3,0.762952087924452,0.8005141599316644,-3.75620720072124
6,4,0.762952087924452,0.7244072814224064,3.8544806502045614
6,5,0.762952087924452,0.7524110600014429,1.054102792300915
6,6,0.762952087924452,0.7580047308759452,0.4947357048506795
6,7,0.762952087924452,0.7021099043938197,6.084218353063231
6,8,0.762952087924452,0.7208404158457161,4.21116720787359
7,0,0.768659843876344,0.755925391592356,1.2734452283987951
7,1,0.768659843876344,0.7555563106209657,1.3103533255378275
7,2,0.768659843876344,0.7354769750350124,3.318286884133159
7,3,0.768659843876344,0.7617914136415022,0.6868430234841849
7,4,0.768659843876344,0.7560118998340201,1.2647944042323944
7,5,0.768659843876344,0.8139206810385873,-4.526083716224328
7,6,0.768659843876344,0.7687233005607591,-0.006345668441509744
7,7,0.768659843876344,0.7255066407502401,4.315320312610393
7,8,0.768659843876344,0.7716501831923045,-0.29903393159604885
8,0,0.8433094214908514,0.8504797627781854,-0.7170341287333959
8,1,0.8433094214908514,0.8401202309445817,0.318919054626976
8,2,0.8433094214908514,0.8557849781348906,-1.247555664403921
8,3,0.8433094214908514,0.8361529877257527,0.7156433765098669
8,4,0.8433094214908514,0.8168172221522905,2.649219933856095
8,5,0.8433094214908514,0.8488448176932428,-0.5535396202391407
8,6,0.8433094214908514,0.8329376905456637,1.037173094518773
8,7,0.8433094214908514,0.8118915229778854,3.141789851296606
8,8,0.8433094214908514,0.8019300833332521,4.137933815759931
9,0,0.8158743508083357,0.7959800539363833,1.9894296871952433
9,1,0.8158743508083357,0.7655423809310966,5.033196987723909
9,2,0.8158743508083357,0.7926193365258705,2.3255014282465236
9,3,0.8158743508083357,0.8172123291318338,-0.13379783234981346
9,4,0.8158743508083357,0.8262428190385515,-1.0368468230215755
9,5,0.8158743508083357,0.818773084028443,-0.28987332201072524
9,6,0.8158743508083357,0.7590872616021478,5.678708920618791
9,7,0.8158743508083357,0.7658803201605058,4.999403064782992
9,8,0.8158743508083357,0.7867475674787947,2.9126783329540995
10,0,0.6987031273373698,0.6667170241177461,3.1986103219623696
10,1,0.6987031273373698,0.7195956138051203,-2.0892486467750437
10,2,0.6987031273373698,0.6851968146277557,1.350631270961411
10,3,0.6987031273373698,0.7052412280701754,-0.6538100732805585
10,4,0.6987031273373698,0.6704285116228086,2.8274615714561246
10,5,0.6987031273373698,0.7199301910411814,-2.1227063703811555
10,6,0.6987031273373698,0.7440893914091948,-4.5386264071825
10,7,0.6987031273373698,0.7137385645612446,-1.5035437223874792
10,8,0.6987031273373698,0.7883588900279586,-8.965576269058872
11,0,0.9027420688337446,0.912576991047064,-0.9834922213319386
11,1,0.9027420688337446,0.901721428441203,0.10206403925416829
11,2,0.9027420688337446,0.8721539880040119,3.0588080829732744
11,3,0.9027420688337446,0.870843035668152,3.1899033165592616
11,4,0.9027420688337446,0.8786934717568142,2.404859707693041
11,5,0.9027420688337446,0.902156455369479,0.05856134642656663
11,6,0.9027420688337446,0.9083439718398899,-0.560190300614527
11,7,0.9027420688337446,0.9069301973002837,-0.4188128466539043
11,8,0.9027420688337446,0.904059495154542,-0.13174263207973436
12,0,0.8740588718107791,0.8888583252482641,-1.479945343748501
12,1,0.8740588718107791,0.8648726254795076,0.9186246331271519
12,2,0.8740588718107791,0.8717894077859203,0.2269464024858836
12,3,0.8740588718107791,0.8557335069584342,1.8325364852344928
12,4,0.8740588718107791,0.8915473434212581,-1.748847161047895
12,5,0.8740588718107791,0.8876044741419347,-1.3545602331155537
12,6,0.8740588718107791,0.8531498412068389,2.0909030603940226
12,7,0.8740588718107791,0.8625982052217759,1.1460666589003243
12,8,0.8740588718107791,0.8556032409480686,1.8455630862710515
13,0,0.9184911836984918,0.9238178465465918,-0.5326662848100017
13,1,0.9184911836984918,0.9230696918963378,-0.45785081978459985
13,2,0.9184911836984918,0.9003167969253821,1.8174386773109674
13,3,0.9184911836984918,0.8921071333514431,2.6384050347048715
13,4,0.9184911836984918,0.9117292472471139,0.6761936451377903
13,5,0.9184911836984918,0.9035462728754933,1.4944910822998536
13,6,0.9184911836984918,0.9183034899932925,0.018769370519933215
13,7,0.9184911836984918,0.8978420191559697,2.064916454252208
13,8,0.9184911836984918,0.9021783586472513,1.6312825051240543
14,0,0.8179704248069712,0.8214356084440075,-0.34651836370362954
14,1,0.8179704248069712,0.8129896429780504,0.49807818289208106
14,2,0.8179704248069712,0.825934530841014,-0.7964106034042739
14,3,0.8179704248069712,0.7596758759521527,5.829454885481855
14,4,0.8179704248069712,0.8010395539860975,1.6930870820873745
14,5,0.8179704248069712,0.8150325123444045,0.2937912462566694
14,6,0.8179704248069712,0.8122042669958633,0.5766157811107897
14,7,0.8179704248069712,0.775703651733362,4.2266773073609265
14,8,0.8179704248069712,0.7879838911088911,2.998653369808013
15,0,0.9369381042737606,0.8991435552779088,3.7794548995851773
15,1,0.9369381042737606,0.9062887678976517,3.0649336376108893
15,2,0.9369381042737606,0.8537113928358717,8.322671143788885
15,3,0.9369381042737606,0.8968528167433552,4.008528753040541
15,4,0.9369381042737606,0.9257260717871008,1.1212032486659806
15,5,0.9369381042737606,0.9171137719712805,1.982433230248004
15,6,0.9369381042737606,0.8929733076812306,4.396479659252995
15,7,0.9369381042737606,0.8912476416513989,4.569046262236165
15,8,0.9369381042737606,0.8937006007953315,4.323750347842903
16,0,0.8693053357921172,0.8616905969100074,0.7614738882109839
16,1,0.8693053357921172,0.863427139170814,0.5878196621303178
16,2,0.8693053357921172,0.8430848400998495,2.62204956922677
16,3,0.8693053357921172,0.8726761482911085,-0.33708124989912935
16,4,0.8693053357921172,0.8500579730095609,1.9247362782556343
16,5,0.8693053357921172,0.8570692320602987,1.2236103731818493
16,6,0.8693053357921172,0.8783549201038002,-0.9049584311683012
16,7,0.8693053357921172,0.8262904372526587,4.30148985394585
16,8,0.8693053357921172,0.8605182512349271,0.8787084557190128
17,0,0.8700836855607414,0.8423047955565894,2.7778890004152013
17,1,0.8700836855607414,0.8597719191940298,1.0311766366711606
17,2,0.8700836855607414,0.8605825368786418,0.9501148682099614
17,3,0.8700836855607414,0.8365131645939443,3.3570520966797135
17,4,0.8700836855607414,0.86087794956981,0.9205735990931441
17,5,0.8700836855607414,0.8641985840749898,0.5885101485751609
17,6,0.8700836855607414,0.866569704804999,0.3513980755742496
17,7,0.8700836855607414,0.8470761135661315,2.30075719946099
17,8,0.8700836855607414,0.8345276276848786,3.55560578758628
18,0,0.9034462488126583,0.8513700754198734,5.207617339278492
18,1,0.9034462488126583,0.8908819820140796,1.2564266798578694
18,2,0.9034462488126583,0.8908808847080061,1.2565364104652255
18,3,0.9034462488126583,0.773567495816461,12.987875299619734
18,4,0.9034462488126583,0.8733204969673795,3.012575184527888
18,5,0.9034462488126583,0.8884399532265979,1.500629558606048
18,6,0.9034462488126583,0.8922889286810218,1.1157320131636506
18,7,0.9034462488126583,0.8438305861470119,5.961566266564644
18,8,0.9034462488126583,0.8927532597283082,1.0692989084350124
19,0,0.8000227277428018,0.773796785467266,2.6225942275535763
19,1,0.8000227277428018,0.7886583527962387,1.136437494656306
19,2,0.8000227277428018,0.7911003427974163,0.8922384945385553
19,3,0.8000227277428018,0.7458249372257734,5.419779051702845
19,4,0.8000227277428018,0.7927629224297981,0.7259805313003742
19,5,0.8000227277428018,0.8013712297377398,-0.13485019949379673
19,6,0.8000227277428018,0.8225323697537688,-2.2509642010966946
19,7,0.8000227277428018,0.7852076638851675,1.4815063857634314
19,8,0.8000227277428018,0.7887587895868133,1.1263938155988473
20,0,0.812599813717079,0.7846710127330948,2.7928800983984203
20,1,0.812599813717079,0.7752128978359878,3.738691588109122
20,2,0.812599813717079,0.7848215325181157,2.7778281198963306
20,3,0.812599813717079,0.7909381866689487,2.166162704813035
20,4,0.812599813717079,0.8036268345613851,0.897297915569395
20,5,0.812599813717079,0.8007933047822742,1.1806508934804838
20,6,0.812599813717079,0.7959943220286066,1.6605491688472362
20,7,0.812599813717079,0.7609048022351657,5.169501148191335
20,8,0.812599813717079,0.7730899114040246,3.95099023130544
21,0,0.8394695933865112,0.8011453940047812,3.832419938172993
21,1,0.8394695933865112,0.8457347811511786,-0.6265187764667446
21,2,0.8394695933865112,0.8522630578055956,-1.2793464419084466
21,3,0.8394695933865112,0.8054340055396809,3.403558784683025
21,4,0.8394695933865112,0.8297888422494208,0.9680751137090327
21,5,0.8394695933865112,0.8691007790446506,-2.963118565813938
21,6,0.8394695933865112,0.8410219810361679,-0.15523876496567057
21,7,0.8394695933865112,0.8298304959595282,0.963909742698299
21,8,0.8394695933865112,0.8262130085539742,1.3256584832537
22,0,0.8339147805793976,0.8070037434417403,2.69110371376573
22,1,0.8339147805793976,0.8410247142088523,-0.7109933629454668
22,2,0.8339147805793976,0.8124023635282491,2.151241705114848
22,3,0.8339147805793976,0.7852743110448308,4.86404695345668
22,4,0.8339147805793976,0.8259169424313388,0.7997838148058767
22,5,0.8339147805793976,0.8168785291907134,1.7036251388684254
22,6,0.8339147805793976,0.8218761958047538,1.2038584774643812
22,7,0.8339147805793976,0.7604198999893281,7.349488059006948
22,8,0.8339147805793976,0.8101938481539559,2.372093242544171
23,0,0.7524856287451203,0.7141088449240858,3.837678382103449
23,1,0.7524856287451203,0.7577600611137196,-0.5274432368599369
23,2,0.7524856287451203,0.7921958431615507,-3.971021441643041
23,3,0.7524856287451203,0.7559960538357964,-0.3510425090676117
23,4,0.7524856287451203,0.7361605904643331,1.632503828078713
23,5,0.7524856287451203,0.7433747461456254,0.9110882599494885
23,6,0.7524856287451203,0.7552674424273633,-0.27818136822430617
23,7,0.7524856287451203,0.7198183378101644,3.2667290934955906
23,8,0.7524856287451203,0.7652016488799289,-1.2716020134808659
24,0,0.7718045795415922,0.7618428016876426,0.9961777853949583
24,1,0.7718045795415922,0.7646145497254355,0.7190029816156684
24,2,0.7718045795415922,0.7658146603291622,0.5989919212429973
24,3,0.7718045795415922,0.7833040767633441,-1.149949722175192
24,4,0.7718045795415922,0.7341522854565987,3.7652294084993487
24,5,0.7718045795415922,0.7514658922854862,2.033868725610599
24,6,0.7718045795415922,0.765338821105987,0.6465758435605151
24,7,0.7718045795415922,0.7410571732419565,3.0747406299635682
24,8,0.7718045795415922,0.7625929906291907,0.921158891240148
25,0,0.862853707660721,0.8560137008720397,0.6840006788681352
25,1,0.862853707660721,0.8730934079136458,-1.0239700252924755
25,2,0.862853707660721,0.8610573681966696,0.1796339464051444
25,3,0.862853707660721,0.849041160226538,1.3812547434183031
25,4,0.862853707660721,0.8746310878183856,-1.1777380157664608
25,5,0.862853707660721,0.8754876867632705,-1.2633979102549486
25,6,0.862853707660721,0.8850105275967394,-2.215681993601837
25,7,0.862853707660721,0.829953548762459,3.2900158898262033
25,8,0.862853707660721,0.888593773892296,-2.5740066231574987
26,0,0.7992697036009833,0.7795206414941502,1.9749062106833026
26,1,0.7992697036009833,0.8052372685277615,-0.596756492677819
26,2,0.7992697036009833,0.7813865444797117,1.7883159121271586
26,3,0.7992697036009833,0.7675856760470523,3.168402755393096
26,4,0.7992697036009833,0.7911505505819538,0.8119153019029435
26,5,0.7992697036009833,0.7764113691382939,2.2858334462689367
26,6,0.7992697036009833,0.7874260392259356,1.184366437504769
26,7,0.7992697036009833,0.7755292782573057,2.3740425343677596
26,8,0.7992697036009833,0.7586774473800064,4.059225622097684
27,0,0.8932476038388354,0.8888946914919871,0.43529123468483144
27,1,0.8932476038388354,0.9058822537165885,-1.263464987775309
27,2,0.8932476038388354,0.863824945642743,2.9422658196092355
27,3,0.8932476038388354,0.8826693080930368,1.0578295745798605
27,4,0.8932476038388354,0.8769521957308435,1.6295408107991904
27,5,0.8932476038388354,0.8908470658885096,0.24005379503257984
27,6,0.8932476038388354,0.8926698551004741,0.05777487383612501
27,7,0.8932476038388354,0.862843507716405,3.0404096122430446
27,8,0.8932476038388354,0.8834934405003387,0.9754163338496658
28,0,0.8015058620352737,0.8798445278729172,-7.833866583764348
28,1,0.8015058620352737,0.7859273079660094,1.5578554069264339
28,2,0.8015058620352737,0.8064974653080509,-0.49916032727771453
28,3,0.8015058620352737,0.7906302592907679,1.087560274450583
28,4,0.8015058620352737,0.7973361255736136,0.41697364616601895
28,5,0.8015058620352737,0.6959996496835537,10.55062123517201
28,6,0.8015058620352737,0.7340697719720815,6.743609006319229
28,7,0.8015058620352737,0.7983074774142791,0.3198384620994643
28,8,0.8015058620352737,0.820391487878511,-1.8885625843237275
29,0,0.8508457532627275,0.8457280643761996,0.511768888652786
29,1,0.8508457532627275,0.8590545728028998,-0.8208819540172274
29,2,0.8508457532627275,0.828510178823739,2.233557443898848
29,3,0.8508457532627275,0.8322115443092404,1.8634208953487108
29,4,0.8508457532627275,0.824030447395119,2.6815305867608497
29,5,0.8508457532627275,0.8390659239022169,1.1779829360510585
29,6,0.8508457532627275,0.8520875374167276,-0.1241784154000114
29,7,0.8508457532627275,0.8439002177662975,0.6945535496429955
29,8,0.8508457532627275,0.8130760927214759,3.7769660541251637
30,0,0.8406209379441295,0.8482643761034261,-0.7643438159296578
30,1,0.8406209379441295,0.8038854954574893,3.673544248664018
30,2,0.8406209379441295,0.857840651111699,-1.721971316756954
30,3,0.8406209379441295,0.8157309559172904,2.488998202683912
30,4,0.8406209379441295,0.8262161617912436,1.4404776152885934
30,5,0.8406209379441295,0.8298513652378157,1.0769572706313846
30,6,0.8406209379441295,0.8562789132225394,-1.5657975278409841
30,7,0.8406209379441295,0.7954073837817188,4.521355416241068
30,8,0.8406209379441295,0.8368732132912655,0.3747724652863993
31,0,0.7898028012788856,0.7969130344382468,-0.7110233159361212
31,1,0.7898028012788856,0.7695144303295077,2.0288370949377854
31,2,0.7898028012788856,0.7635245994126092,2.6278201866276385
31,3,0.7898028012788856,0.8046695909022848,-1.4866789623399268
31,4,0.7898028012788856,0.7873057048755856,0.2497096403299981
31,5,0.7898028012788856,0.80474375335202,-1.4940952073134395
31,6,0.7898028012788856,0.7925110788591194,-0.2708277580233842
31,7,0.7898028012788856,0.7529738407759132,3.682896050297235
31,8,0.7898028012788856,0.7508959187982752,3.890688248061036
32,0,0.85316270121316,0.8188604951909795,3.430220602218048
32,1,0.85316270121316,0.8191620480448943,3.4000653168265615
32,2,0.85316270121316,0.8178723808084113,3.5290320404748665
32,3,0.85316270121316,0.8240909701043517,2.907173110880823
32,4,0.85316270121316,0.8365931058321348,1.6569595381025204
32,5,0.85316270121316,0.8237583106097257,2.940439060343425
32,6,0.85316270121316,0.8360416129374438,1.7121088275716123
32,7,0.85316270121316,0.801816567321613,5.134613389154696
32,8,0.85316270121316,0.8521454593456343,0.1017241867525609
33,0,0.8970861432560012,0.8688874278358143,2.8198715420186926
33,1,0.8970861432560012,0.8954029332922591,0.16832099637421605
33,2,0.8970861432560012,0.8797654746139425,1.7320668642058723
33,3,0.8970861432560012,0.8690785114258522,2.8007631830148982
33,4,0.8970861432560012,0.9236664736414862,-2.658033038548502
33,5,0.8970861432560012,0.9087435834691056,-1.165744021310433
33,6,0.8970861432560012,0.8716465503434625,2.543959291253872
33,7,0.8970861432560012,0.8668189060608797,3.0267237195121477
33,8,0.8970861432560012,0.8825880794354055,1.4498063820595708
34,0,0.8858537226051489,0.848840006226395,3.7013716378753947
34,1,0.8858537226051489,0.8831437098601396,0.27100127450093714
34,2,0.8858537226051489,0.904296066233723,-1.844234362857411
34,3,0.8858537226051489,0.8731496167908859,1.2704105814263067
34,4,0.8858537226051489,0.8786429756529056,0.721074695224333
34,5,0.8858537226051489,0.8869821993149557,-0.11284767098067583
34,6,0.8858537226051489,0.8833677395557674,0.24859830493815238
34,7,0.8858537226051489,0.8898463740063454,-0.3992651401196423
34,8,0.8858537226051489,0.8610841593240621,2.4769563281086815
35,0,0.7242849883787454,0.6682036997096167,5.608128866912876
35,1,0.7242849883787454,0.7166941917558228,0.7590796622922613
35,2,0.7242849883787454,0.7339908626785009,-0.9705874299755446
35,3,0.7242849883787454,0.7230430655551932,0.12419228235522883
35,4,0.7242849883787454,0.7566981401326176,-3.241315175387216
35,5,0.7242849883787454,0.7098638017168457,1.4421186661899732
35,6,0.7242849883787454,0.7138274236257396,1.0457564753005855
35,7,0.7242849883787454,0.7184411239177594,0.5843864460986059
35,8,0.7242849883787454,0.7059693994289751,1.8315588949770367
36,0,0.6841402015997009,0.67350031538064,1.0639886219060868
36,1,0.6841402015997009,0.6449288361467065,3.921136545299442
36,2,0.6841402015997009,0.619910829739179,6.4229371860521915
36,3,0.6841402015997009,0.6516119161838012,3.2528285415899694
36,4,0.6841402015997009,0.6964160941884879,-1.227589258878703
36,5,0.6841402015997009,0.6835298917933651,0.0610309806335807
36,6,0.6841402015997009,0.6646577088478921,1.94824927518088
36,7,0.6841402015997009,0.5927543581223462,9.138584347735467
36,8,0.6841402015997009,0.6425930412001148,4.154716039958606
37,0,0.8639138485831914,0.8417257612312127,2.2188087351978747
37,1,0.8639138485831914,0.8201775801970494,4.373626838614197
37,2,0.8639138485831914,0.8539348670884169,0.9978981494774497
37,3,0.8639138485831914,0.8323853025554916,3.1528546027699833
37,4,0.8639138485831914,0.8747062018147354,-1.0792353231543927
37,5,0.8639138485831914,0.8491862338777205,1.4727614705470904
37,6,0.8639138485831914,0.8220908105111081,4.182303807208331
37,7,0.8639138485831914,0.8097423197641315,5.417152881905995
37,8,0.8639138485831914,0.825118430237346,3.8795418345845434
38,0,0.8350232496179485,0.7861629459043734,4.886030371357508
38,1,0.8350232496179485,0.8304049913030871,0.4618258314861401
38,2,0.8350232496179485,0.8436997133764547,-0.867646375850617
38,3,0.8350232496179485,0.8559869572855302,-2.096370766758171
38,4,0.8350232496179485,0.7984141547999772,3.6609094817971255
38,5,0.8350232496179485,0.8166373319087085,1.838591770924003
38,6,0.8350232496179485,0.7931052321584888,4.191801745945966
38,7,0.8350232496179485,0.7759494742889745,5.907377532897396
38,8,0.8350232496179485,0.8139820403904912,2.1041209227457336
39,0,0.8385902489026964,0.8010381787592697,3.7552070143426652
39,1,0.8385902489026964,0.8320509399276523,0.6539308975044067
39,2,0.8385902489026964,0.8301541055579574,0.8436143344738967
39,3,0.8385902489026964,0.7338125460504873,10.477770285220911
39,4,0.8385902489026964,0.7513458065831647,8.724444231953166
39,5,0.8385902489026964,0.8094644165241875,2.9125832378508854
39,6,0.8385902489026964,0.8666139171104277,-2.802366820773128
39,7,0.8385902489026964,0.83069730373539,0.7892945167306431
39,8,0.8385902489026964,0.8525879873331148,-1.3997738430418405
40,0,0.8270827703117707,0.7669905838326374,6.009218647913328
40,1,0.8270827703117707,0.7817010294789073,4.538174083286339
40,2,0.8270827703117707,0.8290650238493237,-0.19822535375529915
40,3,0.8270827703117707,0.7804591580388142,4.662361227295653
40,4,0.8270827703117707,0.7971802739088099,2.990249640296083
40,5,0.8270827703117707,0.830882033315862,-0.379926300409128
40,6,0.8270827703117707,0.8184760152418145,0.8606755069956229
40,7,0.8270827703117707,0.7655438032978281,6.153896701394257
40,8,0.8270827703117707,0.7978397152657499,2.924305504602076
