subject,block,block_width,feature_channel,gate_mean,gate_sd
1,0,32,0,0.4825599491596222,0.25225830078125
1,0,32,1,0.4641737639904022,0.19878317415714264
1,0,32,2,0.3647233247756958,0.12025823444128036
1,0,32,3,0.4483506679534912,0.17543700337409973
1,0,32,4,0.5397220253944397,0.10820189863443375
1,0,32,5,0.3615192472934723,0.14575321972370148
1,0,32,6,0.4992557168006897,0.10083223134279251
1,0,32,7,0.4513219892978668,0.24467308819293976
1,0,32,8,0.3524658679962158,0.09460192173719406
1,0,32,9,0.4622463881969452,0.1672239750623703
1,0,32,10,0.5095825791358948,0.05485563725233078
1,0,32,11,0.467701256275177,0.13953599333763123
1,0,32,12,0.5832799077033997,0.14449138939380646
1,0,32,13,0.2217945009469986,0.09030941873788834
1,0,32,14,0.45194777846336365,0.05958064645528793
1,0,32,15,0.491326242685318,0.16155540943145752
1,0,32,16,0.383527547121048,0.06340248882770538
1,0,32,17,0.40413013100624084,0.15141747891902924
1,0,32,18,0.5466194748878479,0.16684818267822266
1,0,32,19,0.4899941384792328,0.10722759366035461
1,0,32,20,0.49423325061798096,0.09343596547842026
1,0,32,21,0.48503533005714417,0.05458942428231239
1,0,32,22,0.40820977091789246,0.1528439223766327
1,0,32,23,0.4127393662929535,0.1726289987564087
1,0,32,24,0.6407917141914368,0.035476308315992355
1,0,32,25,0.39769840240478516,0.15570923686027527
1,0,32,26,0.5036008954048157,0.17774377763271332
1,0,32,27,0.4544350802898407,0.0526217445731163
1,0,32,28,0.360107958316803,0.04762665554881096
1,0,32,29,0.5026021599769592,0.12174573540687561
1,0,32,30,0.5642133951187134,0.11322703212499619
1,0,32,31,0.5046804547309875,0.06318332999944687
1,1,32,0,0.6158080101013184,0.07391402870416641
1,1,32,1,0.4784029424190521,0.07591186463832855
1,1,32,2,0.5749115347862244,0.13496382534503937
1,1,32,3,0.49196675419807434,0.06206892803311348
1,1,32,4,0.5027791261672974,0.06392106413841248
1,1,32,5,0.531737208366394,0.06530613452196121
1,1,32,6,0.561728835105896,0.07403399795293808
1,1,32,7,0.5490320920944214,0.07924573123455048
1,1,32,8,0.4524880349636078,0.057053595781326294
1,1,32,9,0.49542292952537537,0.11220435053110123
1,1,32,10,0.4435347318649292,0.14101642370224
1,1,32,11,0.39172518253326416,0.09941814094781876
1,1,32,12,0.3443133234977722,0.029958143830299377
1,1,32,13,0.5265159010887146,0.12713445723056793
1,1,32,14,0.37086543440818787,0.11021210253238678
1,1,32,15,0.6302830576896667,0.07789609581232071
1,1,32,16,0.4087693691253662,0.08465830981731415
1,1,32,17,0.5472011566162109,0.12389474362134933
1,1,32,18,0.4265214204788208,0.06703804433345795
1,1,32,19,0.33047249913215637,0.07109740376472473
1,1,32,20,0.6069774031639099,0.06839041411876678
1,1,32,21,0.5714052319526672,0.062423378229141235
1,1,32,22,0.37009990215301514,0.1100788563489914
1,1,32,23,0.5696386098861694,0.0713336244225502
1,1,32,24,0.485299289226532,0.045937731862068176
1,1,32,25,0.5374256372451782,0.06945934891700745
1,1,32,26,0.6192799806594849,0.12144269794225693
1,1,32,27,0.5179771780967712,0.10295581817626953
1,1,32,28,0.4496530294418335,0.15422314405441284
1,1,32,29,0.5136698484420776,0.11787956953048706
1,1,32,30,0.6415812373161316,0.054825570434331894
1,1,32,31,0.6063250303268433,0.08577893674373627
1,2,64,0,0.6177329421043396,0.24385082721710205
1,2,64,1,0.5668473243713379,0.15962184965610504
1,2,64,2,0.47733017802238464,0.16870243847370148
1,2,64,3,0.29242992401123047,0.1436479538679123
1,2,64,4,0.4991236925125122,0.17919796705245972
1,2,64,5,0.5020027756690979,0.12629756331443787
1,2,64,6,0.2778891921043396,0.0842464491724968
1,2,64,7,0.6170158386230469,0.11452379822731018
1,2,64,8,0.6775774359703064,0.10410177707672119
1,2,64,9,0.5038722157478333,0.14923295378684998
1,2,64,10,0.5149049758911133,0.07859515398740768
1,2,64,11,0.40628308057785034,0.1470807045698166
1,2,64,12,0.5340633988380432,0.17954090237617493
1,2,64,13,0.5872274041175842,0.24126583337783813
1,2,64,14,0.49777552485466003,0.1545974314212799
1,2,64,15,0.5086877346038818,0.2013443261384964
1,2,64,16,0.5027607083320618,0.1981935203075409
1,2,64,17,0.4229620397090912,0.1900528371334076
1,2,64,18,0.5434563159942627,0.19213636219501495
1,2,64,19,0.3179912567138672,0.08385922759771347
1,2,64,20,0.46253904700279236,0.12424072623252869
1,2,64,21,0.5968224406242371,0.1843542456626892
1,2,64,22,0.5786956548690796,0.16743159294128418
1,2,64,23,0.29904064536094666,0.14781232178211212
1,2,64,24,0.5434051752090454,0.12134210020303726
1,2,64,25,0.5883910655975342,0.1497156322002411
1,2,64,26,0.5782082080841064,0.24097809195518494
1,2,64,27,0.33766335248947144,0.15133409202098846
1,2,64,28,0.45414525270462036,0.21233904361724854
1,2,64,29,0.5685862302780151,0.24767035245895386
1,2,64,30,0.5194035172462463,0.11543123424053192
1,2,64,31,0.5402030944824219,0.16694186627864838
1,2,64,32,0.5256804823875427,0.11624724417924881
1,2,64,33,0.6683331727981567,0.13290247321128845
1,2,64,34,0.5214162468910217,0.18100321292877197
1,2,64,35,0.2997734546661377,0.10283587872982025
1,2,64,36,0.42100515961647034,0.2087591290473938
1,2,64,37,0.46409815549850464,0.1605401337146759
1,2,64,38,0.4650403559207916,0.10024221986532211
1,2,64,39,0.6430059671401978,0.060618285089731216
1,2,64,40,0.5427896976470947,0.1388097107410431
1,2,64,41,0.60920250415802,0.232333704829216
1,2,64,42,0.6059995293617249,0.09928405284881592
1,2,64,43,0.36531558632850647,0.22226139903068542
1,2,64,44,0.5482497215270996,0.10362682491540909
1,2,64,45,0.7019056081771851,0.13099119067192078
1,2,64,46,0.4665542244911194,0.10970956087112427
1,2,64,47,0.5746654868125916,0.16763678193092346
1,2,64,48,0.5444118976593018,0.15456001460552216
1,2,64,49,0.47690942883491516,0.1450781375169754
1,2,64,50,0.5585947632789612,0.1281699687242508
1,2,64,51,0.5047221183776855,0.08897320926189423
1,2,64,52,0.3163244128227234,0.0782834142446518
1,2,64,53,0.5694209337234497,0.07477986812591553
1,2,64,54,0.650672435760498,0.11503555625677109
1,2,64,55,0.3741847276687622,0.1106385737657547
1,2,64,56,0.4677332639694214,0.06693989783525467
1,2,64,57,0.37989798188209534,0.14915454387664795
1,2,64,58,0.5378140807151794,0.1863914281129837
1,2,64,59,0.6171438097953796,0.1592230647802353
1,2,64,60,0.5610438585281372,0.14565987884998322
1,2,64,61,0.41826075315475464,0.1558227688074112
1,2,64,62,0.6081299781799316,0.24379582703113556
1,2,64,63,0.4376099407672882,0.20706996321678162
1,3,64,0,0.5069464445114136,0.10035969316959381
1,3,64,1,0.6502115726470947,0.18397486209869385
1,3,64,2,0.662089467048645,0.11262837052345276
1,3,64,3,0.5496170520782471,0.11759021878242493
1,3,64,4,0.5521119832992554,0.08163157850503922
1,3,64,5,0.4977061450481415,0.17218166589736938
1,3,64,6,0.607666015625,0.08159389346837997
1,3,64,7,0.5072215795516968,0.13182048499584198
1,3,64,8,0.41540539264678955,0.09894933551549911
1,3,64,9,0.6466461420059204,0.1201549768447876
1,3,64,10,0.5716306567192078,0.21469171345233917
1,3,64,11,0.39954042434692383,0.09012321382761002
1,3,64,12,0.4146926999092102,0.12456278502941132
1,3,64,13,0.6841228008270264,0.08100270479917526
1,3,64,14,0.5973947048187256,0.1636435091495514
1,3,64,15,0.5570529103279114,0.16994501650333405
1,3,64,16,0.6017503142356873,0.08585858345031738
1,3,64,17,0.5904994606971741,0.16067853569984436
1,3,64,18,0.613348662853241,0.11513166129589081
1,3,64,19,0.35302597284317017,0.14474555850028992
1,3,64,20,0.56898432970047,0.16448602080345154
1,3,64,21,0.5010669231414795,0.09773258119821548
1,3,64,22,0.5016169548034668,0.09003152698278427
1,3,64,23,0.453298956155777,0.16820812225341797
1,3,64,24,0.514319121837616,0.12826965749263763
1,3,64,25,0.5079206824302673,0.0830998495221138
1,3,64,26,0.4253973066806793,0.16196461021900177
1,3,64,27,0.6863118410110474,0.1571342796087265
1,3,64,28,0.5520901679992676,0.11158622801303864
1,3,64,29,0.5149402618408203,0.15977853536605835
1,3,64,30,0.3529386520385742,0.12217797338962555
1,3,64,31,0.5998390913009644,0.12864789366722107
1,3,64,32,0.5850471258163452,0.08031649142503738
1,3,64,33,0.5745577216148376,0.09610841423273087
1,3,64,34,0.44243162870407104,0.09169626235961914
1,3,64,35,0.48922795057296753,0.13602377474308014
1,3,64,36,0.5445960164070129,0.06667327135801315
1,3,64,37,0.45683372020721436,0.13971129059791565
1,3,64,38,0.4520885646343231,0.12932637333869934
1,3,64,39,0.5156129598617554,0.13467921316623688
1,3,64,40,0.5397195816040039,0.10090656578540802
1,3,64,41,0.4319453537464142,0.07042892277240753
1,3,64,42,0.5443834662437439,0.11162783205509186
1,3,64,43,0.5424482226371765,0.20955681800842285
1,3,64,44,0.47498655319213867,0.16697201132774353
1,3,64,45,0.40904513001441956,0.12854337692260742
1,3,64,46,0.5103227496147156,0.11858022212982178
1,3,64,47,0.6228180527687073,0.10899706929922104
1,3,64,48,0.6614128947257996,0.091938316822052
1,3,64,49,0.46433016657829285,0.06753502786159515
1,3,64,50,0.5227272510528564,0.07776506245136261
1,3,64,51,0.5166846513748169,0.14387686550617218
1,3,64,52,0.4150179624557495,0.07232797145843506
1,3,64,53,0.4738907516002655,0.12681254744529724
1,3,64,54,0.3744216561317444,0.0504143089056015
1,3,64,55,0.5562769770622253,0.1135239526629448
1,3,64,56,0.40355604887008667,0.1413734257221222
1,3,64,57,0.6370179653167725,0.11297237873077393
1,3,64,58,0.5531319975852966,0.24972079694271088
1,3,64,59,0.2597728371620178,0.09566612541675568
1,3,64,60,0.5872959494590759,0.13860984146595
1,3,64,61,0.523399829864502,0.19179180264472961
1,3,64,62,0.5170865654945374,0.20107963681221008
1,3,64,63,0.38386017084121704,0.08975354582071304
1,4,128,0,0.4622669219970703,0.12061634659767151
1,4,128,1,0.4247259497642517,0.245833620429039
1,4,128,2,0.5212867856025696,0.3044482469558716
1,4,128,3,0.5983659625053406,0.07833389192819595
1,4,128,4,0.510922372341156,0.14354144036769867
1,4,128,5,0.4797765612602234,0.1706419587135315
1,4,128,6,0.5935083627700806,0.1424788534641266
1,4,128,7,0.6775400042533875,0.10042616724967957
1,4,128,8,0.40884947776794434,0.19290219247341156
1,4,128,9,0.3810189962387085,0.12153913080692291
1,4,128,10,0.4604294002056122,0.19341884553432465
1,4,128,11,0.6162862777709961,0.15882252156734467
1,4,128,12,0.3662969172000885,0.20881475508213043
1,4,128,13,0.4573628604412079,0.17293108999729156
1,4,128,14,0.565299391746521,0.2695646584033966
1,4,128,15,0.46316608786582947,0.2513810694217682
1,4,128,16,0.5464699268341064,0.16104650497436523
1,4,128,17,0.6395718455314636,0.16766561567783356
1,4,128,18,0.5132327675819397,0.236997589468956
1,4,128,19,0.4954833686351776,0.13917893171310425
1,4,128,20,0.5345925688743591,0.15975803136825562
1,4,128,21,0.42150360345840454,0.29492849111557007
1,4,128,22,0.6418206691741943,0.09708916395902634
1,4,128,23,0.4455886483192444,0.15758219361305237
1,4,128,24,0.5487346053123474,0.2067069709300995
1,4,128,25,0.7141585350036621,0.13260771334171295
1,4,128,26,0.6448031067848206,0.1252727508544922
1,4,128,27,0.46053746342658997,0.09375458210706711
1,4,128,28,0.6474335789680481,0.09045766294002533
1,4,128,29,0.6144444346427917,0.1440887749195099
1,4,128,30,0.5279484391212463,0.3112933933734894
1,4,128,31,0.5411427617073059,0.1606718897819519
1,4,128,32,0.5241405963897705,0.26844173669815063
1,4,128,33,0.42146408557891846,0.16466720402240753
1,4,128,34,0.5936769247055054,0.22566621005535126
1,4,128,35,0.4695577919483185,0.2897460460662842
1,4,128,36,0.6000165343284607,0.23315253853797913
1,4,128,37,0.44503986835479736,0.0908929780125618
1,4,128,38,0.5316166281700134,0.1726381927728653
1,4,128,39,0.35348865389823914,0.08647887408733368
1,4,128,40,0.5475832223892212,0.22479964792728424
1,4,128,41,0.5053583383560181,0.06844136863946915
1,4,128,42,0.5284903049468994,0.09810256958007812
1,4,128,43,0.5884383320808411,0.055371351540088654
1,4,128,44,0.5154175162315369,0.1512078046798706
1,4,128,45,0.5022553205490112,0.22871294617652893
1,4,128,46,0.5163069367408752,0.15013690292835236
1,4,128,47,0.6106768846511841,0.18804606795310974
1,4,128,48,0.5175662040710449,0.2004210501909256
1,4,128,49,0.5240715742111206,0.19787289202213287
1,4,128,50,0.5365172624588013,0.2328529804944992
1,4,128,51,0.6447216868400574,0.162301704287529
1,4,128,52,0.4426388144493103,0.26585817337036133
1,4,128,53,0.6513619422912598,0.10610818862915039
1,4,128,54,0.3832152783870697,0.16634313762187958
1,4,128,55,0.5459657311439514,0.27241232991218567
1,4,128,56,0.48064881563186646,0.129987433552742
1,4,128,57,0.6180216073989868,0.12789173424243927
1,4,128,58,0.5299602150917053,0.22162240743637085
1,4,128,59,0.3613768517971039,0.12208415567874908
1,4,128,60,0.6158290505409241,0.15569864213466644
1,4,128,61,0.46197307109832764,0.20456431806087494
1,4,128,62,0.6524460911750793,0.15869510173797607
1,4,128,63,0.6861938238143921,0.12202416360378265
1,4,128,64,0.6256462335586548,0.19517242908477783
1,4,128,65,0.6445337533950806,0.11481622606515884
1,4,128,66,0.40944939851760864,0.1359286606311798
1,4,128,67,0.628526508808136,0.10352274030447006
1,4,128,68,0.4494188725948334,0.09600544720888138
1,4,128,69,0.4775208532810211,0.3382200300693512
1,4,128,70,0.7162186503410339,0.12182240188121796
1,4,128,71,0.46980661153793335,0.23462069034576416
1,4,128,72,0.6013110280036926,0.2191544473171234
1,4,128,73,0.4182010293006897,0.15587396919727325
1,4,128,74,0.5683574676513672,0.15652842819690704
1,4,128,75,0.5329756736755371,0.30887407064437866
1,4,128,76,0.5494226217269897,0.09623880684375763
1,4,128,77,0.5573141574859619,0.25024425983428955
1,4,128,78,0.471659779548645,0.2911602258682251
1,4,128,79,0.6035839915275574,0.18020544946193695
1,4,128,80,0.5729346871376038,0.1849660724401474
1,4,128,81,0.6881985664367676,0.131205216050148
1,4,128,82,0.4768810272216797,0.17681385576725006
1,4,128,83,0.6182198524475098,0.22888927161693573
1,4,128,84,0.6333740949630737,0.1240394115447998
1,4,128,85,0.6548702120780945,0.14297261834144592
1,4,128,86,0.6521235108375549,0.17980998754501343
1,4,128,87,0.45063450932502747,0.21286585927009583
1,4,128,88,0.5476633906364441,0.23913821578025818
1,4,128,89,0.5890567898750305,0.19249603152275085
1,4,128,90,0.4634476900100708,0.21478389203548431
1,4,128,91,0.45860859751701355,0.0803629606962204
1,4,128,92,0.578894853591919,0.11127153784036636
1,4,128,93,0.6240032911300659,0.18392886221408844
1,4,128,94,0.47682881355285645,0.2017589807510376
1,4,128,95,0.6221773624420166,0.10748395323753357
1,4,128,96,0.534508466720581,0.20370356738567352
1,4,128,97,0.6023582220077515,0.17412599921226501
1,4,128,98,0.5715872645378113,0.18625779449939728
1,4,128,99,0.509390652179718,0.280256062746048
1,4,128,100,0.5747039914131165,0.25619375705718994
1,4,128,101,0.49302446842193604,0.3031559884548187
1,4,128,102,0.5610607266426086,0.09841922670602798
1,4,128,103,0.725302517414093,0.1117708683013916
1,4,128,104,0.4139052629470825,0.10033419728279114
1,4,128,105,0.6854473352432251,0.09035229682922363
1,4,128,106,0.6036134362220764,0.17459963262081146
1,4,128,107,0.5626981258392334,0.23374074697494507
1,4,128,108,0.6683477163314819,0.14637568593025208
1,4,128,109,0.579457700252533,0.21008272469043732
1,4,128,110,0.36587369441986084,0.07462611049413681
1,4,128,111,0.4799174964427948,0.28320077061653137
1,4,128,112,0.572751522064209,0.22626495361328125
1,4,128,113,0.4147234559059143,0.26142266392707825
1,4,128,114,0.5431444048881531,0.2621614634990692
1,4,128,115,0.5916141867637634,0.21859318017959595
1,4,128,116,0.4186606705188751,0.10721582174301147
1,4,128,117,0.35172197222709656,0.14370156824588776
1,4,128,118,0.594204843044281,0.11520947515964508
1,4,128,119,0.5482749938964844,0.23779898881912231
1,4,128,120,0.37904149293899536,0.2265147864818573
1,4,128,121,0.6865086555480957,0.11103636026382446
1,4,128,122,0.5033733248710632,0.17996583878993988
1,4,128,123,0.5478001832962036,0.18387958407402039
1,4,128,124,0.5230456590652466,0.23036853969097137
1,4,128,125,0.3839649558067322,0.13855862617492676
1,4,128,126,0.3863731622695923,0.06930797547101974
1,4,128,127,0.6893868446350098,0.11313249915838242
1,5,128,0,0.6993610858917236,0.2144831269979477
1,5,128,1,0.8026273250579834,0.09493231773376465
1,5,128,2,0.8327263593673706,0.08324054628610611
1,5,128,3,0.5423454642295837,0.2555297315120697
1,5,128,4,0.6523156762123108,0.08797979354858398
1,5,128,5,0.7050618529319763,0.10263709723949432
1,5,128,6,0.8144238591194153,0.15646997094154358
1,5,128,7,0.7666369676589966,0.16284310817718506
1,5,128,8,0.4653029143810272,0.3152000606060028
1,5,128,9,0.6365306973457336,0.17413023114204407
1,5,128,10,0.6219558715820312,0.16151869297027588
1,5,128,11,0.7440995573997498,0.236003577709198
1,5,128,12,0.46562659740448,0.24117884039878845
1,5,128,13,0.8349553942680359,0.0768708735704422
1,5,128,14,0.7485134601593018,0.20629002153873444
1,5,128,15,0.7477820515632629,0.12501110136508942
1,5,128,16,0.837222695350647,0.09816344082355499
1,5,128,17,0.6596622467041016,0.068283312022686
1,5,128,18,0.8046096563339233,0.11800656467676163
1,5,128,19,0.699256181716919,0.20181924104690552
1,5,128,20,0.4323244094848633,0.1378607451915741
1,5,128,21,0.2549556493759155,0.10580078512430191
1,5,128,22,0.754181444644928,0.14134034514427185
1,5,128,23,0.5199865698814392,0.1500232219696045
1,5,128,24,0.7823855876922607,0.09506263583898544
1,5,128,25,0.719817578792572,0.17496594786643982
1,5,128,26,0.7518842816352844,0.0844869390130043
1,5,128,27,0.7074941396713257,0.11873027682304382
1,5,128,28,0.6702768802642822,0.10791533440351486
1,5,128,29,0.7406600117683411,0.15742741525173187
1,5,128,30,0.7653838396072388,0.16284048557281494
1,5,128,31,0.805211067199707,0.0913086086511612
1,5,128,32,0.8289458751678467,0.10837943851947784
1,5,128,33,0.6249786615371704,0.28108730912208557
1,5,128,34,0.6747646927833557,0.1702796220779419
1,5,128,35,0.8270062804222107,0.09627290070056915
1,5,128,36,0.7071934938430786,0.11562517285346985
1,5,128,37,0.7429831027984619,0.13730530440807343
1,5,128,38,0.38230520486831665,0.2659788727760315
1,5,128,39,0.3063238263130188,0.23120886087417603
1,5,128,40,0.7848724126815796,0.15826527774333954
1,5,128,41,0.5556408166885376,0.11378570646047592
1,5,128,42,0.652848482131958,0.23982079327106476
1,5,128,43,0.47197720408439636,0.2526375353336334
1,5,128,44,0.5840924978256226,0.23220720887184143
1,5,128,45,0.5055754780769348,0.2599296569824219
1,5,128,46,0.7321826219558716,0.16805963218212128
1,5,128,47,0.7914530634880066,0.0902898758649826
1,5,128,48,0.6250858306884766,0.23466894030570984
1,5,128,49,0.8141956329345703,0.09205294400453568
1,5,128,50,0.7203880548477173,0.23834934830665588
1,5,128,51,0.8691704273223877,0.06659591943025589
1,5,128,52,0.6582745909690857,0.09951037168502808
1,5,128,53,0.6639305949211121,0.150734081864357
1,5,128,54,0.758662223815918,0.09865391999483109
1,5,128,55,0.747322678565979,0.20644257962703705
1,5,128,56,0.6557691693305969,0.2298325151205063
1,5,128,57,0.7801592350006104,0.14055125415325165
1,5,128,58,0.40727537870407104,0.2567739486694336
1,5,128,59,0.7666208744049072,0.10147833079099655
1,5,128,60,0.7960523366928101,0.12702177464962006
1,5,128,61,0.5889039635658264,0.21012790501117706
1,5,128,62,0.8227807283401489,0.0906357690691948
1,5,128,63,0.8223562240600586,0.09140495955944061
1,5,128,64,0.7123864889144897,0.16627734899520874
1,5,128,65,0.6485329866409302,0.22364558279514313
1,5,128,66,0.4734029471874237,0.2937684953212738
1,5,128,67,0.7467716932296753,0.14752008020877838
1,5,128,68,0.68805992603302,0.26604318618774414
1,5,128,69,0.7864298224449158,0.11119762808084488
1,5,128,70,0.804953932762146,0.07273820787668228
1,5,128,71,0.6570795178413391,0.1403847634792328
1,5,128,72,0.7688764333724976,0.0956510454416275
1,5,128,73,0.5223085880279541,0.22158963978290558
1,5,128,74,0.7841742038726807,0.11851024627685547
1,5,128,75,0.8092607259750366,0.0788511335849762
1,5,128,76,0.6999586224555969,0.17207029461860657
1,5,128,77,0.7272620797157288,0.20495837926864624
1,5,128,78,0.4110727608203888,0.2119513899087906
1,5,128,79,0.6662817001342773,0.18732336163520813
1,5,128,80,0.5939217209815979,0.16184400022029877
1,5,128,81,0.729995608329773,0.1638070046901703
1,5,128,82,0.6937230825424194,0.14507567882537842
1,5,128,83,0.7720137238502502,0.08558786660432816
1,5,128,84,0.5408094525337219,0.16441385447978973
1,5,128,85,0.7901377081871033,0.11353814601898193
1,5,128,86,0.7058023810386658,0.10230755805969238
1,5,128,87,0.4810227155685425,0.2744511067867279
1,5,128,88,0.6958712935447693,0.18568004667758942
1,5,128,89,0.6680175065994263,0.2598610818386078
1,5,128,90,0.6679978370666504,0.13208098709583282
1,5,128,91,0.7079353928565979,0.10231629759073257
1,5,128,92,0.6688556671142578,0.23671551048755646
1,5,128,93,0.8212660551071167,0.0960565134882927
1,5,128,94,0.7214227914810181,0.11955510824918747
1,5,128,95,0.5083913803100586,0.30340704321861267
1,5,128,96,0.5914228558540344,0.14311560988426208
1,5,128,97,0.8183021545410156,0.08192698657512665
1,5,128,98,0.563606321811676,0.2820775508880615
1,5,128,99,0.7432852387428284,0.18179090321063995
1,5,128,100,0.45877695083618164,0.2317568063735962
1,5,128,101,0.48464730381965637,0.2680242359638214
1,5,128,102,0.6827553510665894,0.2487785965204239
1,5,128,103,0.5605465769767761,0.15225480496883392
1,5,128,104,0.8716878890991211,0.07234261929988861
1,5,128,105,0.7886756062507629,0.13123160600662231
1,5,128,106,0.34525543451309204,0.2836669981479645
1,5,128,107,0.7830255627632141,0.08848152309656143
1,5,128,108,0.7799700498580933,0.07522720098495483
1,5,128,109,0.5859145522117615,0.26367536187171936
1,5,128,110,0.3980797231197357,0.1846681535243988
1,5,128,111,0.7399429082870483,0.09214796125888824
1,5,128,112,0.5165576934814453,0.1764565408229828
1,5,128,113,0.6863121390342712,0.1310426890850067
1,5,128,114,0.7141481041908264,0.1008259579539299
1,5,128,115,0.7159088850021362,0.18609772622585297
1,5,128,116,0.7374697327613831,0.15704692900180817
1,5,128,117,0.5648269653320312,0.18793295323848724
1,5,128,118,0.6380599141120911,0.25058844685554504
1,5,128,119,0.647407591342926,0.255997896194458
1,5,128,120,0.7353808283805847,0.1463540643453598
1,5,128,121,0.46180880069732666,0.1318550854921341
1,5,128,122,0.5349815487861633,0.2785458564758301
1,5,128,123,0.5976701974868774,0.1849021315574646
1,5,128,124,0.8634300231933594,0.082077756524086
1,5,128,125,0.6300264596939087,0.25323107838630676
1,5,128,126,0.4175516664981842,0.20476044714450836
1,5,128,127,0.6514565944671631,0.3052787482738495
2,0,32,0,0.46355023980140686,0.06342750042676926
2,0,32,1,0.42419886589050293,0.05295668542385101
2,0,32,2,0.535441517829895,0.0643351748585701
2,0,32,3,0.6207373142242432,0.10351545363664627
2,0,32,4,0.45568642020225525,0.0876811146736145
2,0,32,5,0.5778713822364807,0.05930783227086067
2,0,32,6,0.2978908121585846,0.10049963742494583
2,0,32,7,0.3533771336078644,0.06848067790269852
2,0,32,8,0.32760298252105713,0.07992669194936752
2,0,32,9,0.3611687421798706,0.08257115632295609
2,0,32,10,0.5391430854797363,0.05271074175834656
2,0,32,11,0.46872374415397644,0.05632498487830162
2,0,32,12,0.45902907848358154,0.024219291284680367
2,0,32,13,0.5043284893035889,0.05159369483590126
2,0,32,14,0.5752793550491333,0.07045970112085342
2,0,32,15,0.38739922642707825,0.044528476893901825
2,0,32,16,0.440570205450058,0.05126110464334488
2,0,32,17,0.4678429961204529,0.05261410400271416
2,0,32,18,0.47457408905029297,0.08689530938863754
2,0,32,19,0.42768004536628723,0.07760782539844513
2,0,32,20,0.6176400780677795,0.05983683094382286
2,0,32,21,0.4900991916656494,0.07236498594284058
2,0,32,22,0.34626251459121704,0.07283046096563339
2,0,32,23,0.5110520720481873,0.060538265854120255
2,0,32,24,0.4613098204135895,0.1184844896197319
2,0,32,25,0.36994367837905884,0.07561378926038742
2,0,32,26,0.5411643385887146,0.07595054805278778
2,0,32,27,0.39510488510131836,0.01691674441099167
2,0,32,28,0.5323786735534668,0.044805385172367096
2,0,32,29,0.5409349203109741,0.09792879223823547
2,0,32,30,0.46230965852737427,0.05756664276123047
2,0,32,31,0.4712066650390625,0.07933100312948227
2,1,32,0,0.4279618263244629,0.16480548679828644
2,1,32,1,0.6881852746009827,0.10140319168567657
2,1,32,2,0.5872297286987305,0.17382101714611053
2,1,32,3,0.43880683183670044,0.051564667373895645
2,1,32,4,0.514122486114502,0.05126182734966278
2,1,32,5,0.4960783123970032,0.11654972285032272
2,1,32,6,0.47014644742012024,0.23045827448368073
2,1,32,7,0.43957847356796265,0.2036641389131546
2,1,32,8,0.46478351950645447,0.08257327228784561
2,1,32,9,0.5685411095619202,0.07261102646589279
2,1,32,10,0.4943101108074188,0.14797529578208923
2,1,32,11,0.5452448725700378,0.1708575040102005
2,1,32,12,0.47342124581336975,0.07639993727207184
2,1,32,13,0.6041107177734375,0.11606064438819885
2,1,32,14,0.5567324757575989,0.12050741165876389
2,1,32,15,0.576408326625824,0.08697574585676193
2,1,32,16,0.6458954811096191,0.14027123153209686
2,1,32,17,0.3101673424243927,0.1353173702955246
2,1,32,18,0.6479927897453308,0.0706123486161232
2,1,32,19,0.6193810105323792,0.196782186627388
2,1,32,20,0.5171511769294739,0.22431448101997375
2,1,32,21,0.4492456614971161,0.271644651889801
2,1,32,22,0.4564542770385742,0.110719233751297
2,1,32,23,0.5582762956619263,0.23584286868572235
2,1,32,24,0.529241681098938,0.18484212458133698
2,1,32,25,0.40622296929359436,0.07381211221218109
2,1,32,26,0.5375329852104187,0.21023903787136078
2,1,32,27,0.4715327024459839,0.21648640930652618
2,1,32,28,0.4817875921726227,0.11355035752058029
2,1,32,29,0.40704721212387085,0.1608305424451828
2,1,32,30,0.5910153388977051,0.10402567684650421
2,1,32,31,0.34064990282058716,0.12502586841583252
2,2,64,0,0.40462395548820496,0.10897927731275558
2,2,64,1,0.4430732727050781,0.1387735903263092
2,2,64,2,0.48731908202171326,0.17713123559951782
2,2,64,3,0.47953158617019653,0.07191410660743713
2,2,64,4,0.5601310729980469,0.15104414522647858
2,2,64,5,0.44671136140823364,0.231190487742424
2,2,64,6,0.5066341757774353,0.1470312774181366
2,2,64,7,0.6612456440925598,0.15365616977214813
2,2,64,8,0.39792200922966003,0.12852990627288818
2,2,64,9,0.48206135630607605,0.16030381619930267
2,2,64,10,0.513637125492096,0.1788923293352127
2,2,64,11,0.5787702798843384,0.14691771566867828
2,2,64,12,0.45335516333580017,0.20904825627803802
2,2,64,13,0.3963223695755005,0.05413934215903282
2,2,64,14,0.4719729423522949,0.19530469179153442
2,2,64,15,0.44292908906936646,0.1339387595653534
2,2,64,16,0.5781921744346619,0.12849760055541992
2,2,64,17,0.3938884139060974,0.11515407264232635
2,2,64,18,0.36837247014045715,0.14033104479312897
2,2,64,19,0.38339295983314514,0.1789715439081192
2,2,64,20,0.5616362690925598,0.10369503498077393
2,2,64,21,0.38308146595954895,0.12610159814357758
2,2,64,22,0.48465707898139954,0.19410932064056396
2,2,64,23,0.5311548709869385,0.13719916343688965
2,2,64,24,0.6349780559539795,0.12739363312721252
2,2,64,25,0.3561445474624634,0.14535613358020782
2,2,64,26,0.4467303454875946,0.08567854762077332
2,2,64,27,0.54377681016922,0.13916906714439392
2,2,64,28,0.6030977368354797,0.1184191107749939
2,2,64,29,0.4977036118507385,0.0731782391667366
2,2,64,30,0.4938596785068512,0.13865236937999725
2,2,64,31,0.3052390515804291,0.13199317455291748
2,2,64,32,0.5610437989234924,0.10949597507715225
2,2,64,33,0.5992130041122437,0.19900813698768616
2,2,64,34,0.5104641318321228,0.18452253937721252
2,2,64,35,0.4011206328868866,0.09541821479797363
2,2,64,36,0.5331489443778992,0.20235981047153473
2,2,64,37,0.5100815892219543,0.20759455859661102
2,2,64,38,0.4611818492412567,0.08433277904987335
2,2,64,39,0.46126410365104675,0.106466144323349
2,2,64,40,0.43035250902175903,0.12212353199720383
2,2,64,41,0.38027217984199524,0.16570909321308136
2,2,64,42,0.44172799587249756,0.09687444567680359
2,2,64,43,0.5582525134086609,0.126013845205307
2,2,64,44,0.47460639476776123,0.15511447191238403
2,2,64,45,0.4826607406139374,0.14891204237937927
2,2,64,46,0.6338618993759155,0.15965721011161804
2,2,64,47,0.4308623671531677,0.10707535594701767
2,2,64,48,0.6691198348999023,0.11075115948915482
2,2,64,49,0.45043665170669556,0.10862705111503601
2,2,64,50,0.45774564146995544,0.1384468376636505
2,2,64,51,0.6273012161254883,0.1614927053451538
2,2,64,52,0.6963809728622437,0.16430822014808655
2,2,64,53,0.3913570046424866,0.1443096101284027
2,2,64,54,0.43712061643600464,0.1577068269252777
2,2,64,55,0.6229560971260071,0.1665092259645462
2,2,64,56,0.5110458135604858,0.1688670516014099
2,2,64,57,0.4244992733001709,0.07359133660793304
2,2,64,58,0.39729851484298706,0.14909908175468445
2,2,64,59,0.4427727460861206,0.05967824533581734
2,2,64,60,0.5174306035041809,0.13353848457336426
2,2,64,61,0.4745405316352844,0.15073828399181366
2,2,64,62,0.41504088044166565,0.1519327610731125
2,2,64,63,0.4212867021560669,0.16607654094696045
2,3,64,0,0.5111452341079712,0.2417844533920288
2,3,64,1,0.5112413763999939,0.11092528700828552
2,3,64,2,0.4997754693031311,0.138168066740036
2,3,64,3,0.44058066606521606,0.0839848592877388
2,3,64,4,0.5841314196586609,0.18733523786067963
2,3,64,5,0.46532782912254333,0.18446701765060425
2,3,64,6,0.4293745756149292,0.10812784731388092
2,3,64,7,0.5029373168945312,0.11647532135248184
2,3,64,8,0.4148588478565216,0.13876844942569733
2,3,64,9,0.4502834379673004,0.0677437111735344
2,3,64,10,0.634624183177948,0.0882907286286354
2,3,64,11,0.47767966985702515,0.13447193801403046
2,3,64,12,0.2984427213668823,0.07425874471664429
2,3,64,13,0.6359045505523682,0.14020320773124695
2,3,64,14,0.5798430442810059,0.1790216863155365
2,3,64,15,0.5998344421386719,0.08954726904630661
2,3,64,16,0.5230367183685303,0.08823490142822266
2,3,64,17,0.4742223918437958,0.05009813979268074
2,3,64,18,0.3874046206474304,0.09333852678537369
2,3,64,19,0.3747507631778717,0.06944578886032104
2,3,64,20,0.5714346170425415,0.21481071412563324
2,3,64,21,0.5472105145454407,0.08595184236764908
2,3,64,22,0.489804744720459,0.1841326355934143
2,3,64,23,0.4863920211791992,0.14591540396213531
2,3,64,24,0.5122725367546082,0.06989309191703796
2,3,64,25,0.5121050477027893,0.162486270070076
2,3,64,26,0.5557747483253479,0.11337712407112122
2,3,64,27,0.5655232071876526,0.08693431317806244
2,3,64,28,0.5035305023193359,0.12857523560523987
2,3,64,29,0.5837830305099487,0.09357992559671402
2,3,64,30,0.48057442903518677,0.1637810468673706
2,3,64,31,0.3857579529285431,0.21355177462100983
2,3,64,32,0.350690096616745,0.0876142680644989
2,3,64,33,0.3460797965526581,0.08283035457134247
2,3,64,34,0.6206746101379395,0.048891402781009674
2,3,64,35,0.4189472198486328,0.1439628005027771
2,3,64,36,0.467498779296875,0.1465970277786255
2,3,64,37,0.47595012187957764,0.1673685759305954
2,3,64,38,0.4929559528827667,0.17109927535057068
2,3,64,39,0.6061127781867981,0.1870916336774826
2,3,64,40,0.5107752680778503,0.16367077827453613
2,3,64,41,0.46631693840026855,0.04614562541246414
2,3,64,42,0.6604805588722229,0.1088896244764328
2,3,64,43,0.5418471097946167,0.1496836394071579
2,3,64,44,0.4168454706668854,0.12139762938022614
2,3,64,45,0.48480668663978577,0.07854968309402466
2,3,64,46,0.3918613791465759,0.052422892302274704
2,3,64,47,0.5709645748138428,0.14122813940048218
2,3,64,48,0.4493085443973541,0.10229489952325821
2,3,64,49,0.46763476729393005,0.11674785614013672
2,3,64,50,0.595637857913971,0.1476776897907257
2,3,64,51,0.3017004132270813,0.1805274933576584
2,3,64,52,0.5111110806465149,0.07773297280073166
2,3,64,53,0.3710028827190399,0.17468328773975372
2,3,64,54,0.3816196024417877,0.08160335570573807
2,3,64,55,0.4336325228214264,0.11838828027248383
2,3,64,56,0.345554918050766,0.12218949943780899
2,3,64,57,0.5540292859077454,0.19664309918880463
2,3,64,58,0.49151211977005005,0.16478003561496735
2,3,64,59,0.5476795434951782,0.23351380228996277
2,3,64,60,0.43821462988853455,0.13189972937107086
2,3,64,61,0.6385710835456848,0.08541803807020187
2,3,64,62,0.45586514472961426,0.10562170296907425
2,3,64,63,0.4244782626628876,0.15510550141334534
2,4,128,0,0.7262067794799805,0.10953879356384277
2,4,128,1,0.7050096988677979,0.10851628333330154
2,4,128,2,0.6319255828857422,0.31024861335754395
2,4,128,3,0.392620325088501,0.15918253362178802
2,4,128,4,0.6649488806724548,0.1443304717540741
2,4,128,5,0.6200260519981384,0.12693452835083008
2,4,128,6,0.3546770215034485,0.07294797152280807
2,4,128,7,0.6627452969551086,0.15608493983745575
2,4,128,8,0.5380387902259827,0.2284504622220993
2,4,128,9,0.610226035118103,0.27869653701782227
2,4,128,10,0.3837071359157562,0.08859990537166595
2,4,128,11,0.6735038161277771,0.07277420908212662
2,4,128,12,0.6032595038414001,0.19164060056209564
2,4,128,13,0.5505080819129944,0.15527743101119995
2,4,128,14,0.43073341250419617,0.12765255570411682
2,4,128,15,0.45017847418785095,0.14441555738449097
2,4,128,16,0.5882574319839478,0.1286727488040924
2,4,128,17,0.6587465405464172,0.10240964591503143
2,4,128,18,0.6815943717956543,0.1260833889245987
2,4,128,19,0.4476052224636078,0.2616141438484192
2,4,128,20,0.46956658363342285,0.24593915045261383
2,4,128,21,0.6015975475311279,0.17575280368328094
2,4,128,22,0.5320536494255066,0.029162952676415443
2,4,128,23,0.6386311054229736,0.31082895398139954
2,4,128,24,0.6023923754692078,0.18920765817165375
2,4,128,25,0.48128512501716614,0.10983870178461075
2,4,128,26,0.6346195340156555,0.29714059829711914
2,4,128,27,0.5963568687438965,0.19532738626003265
2,4,128,28,0.6337093710899353,0.3548436164855957
2,4,128,29,0.6691216826438904,0.09666411578655243
2,4,128,30,0.48406127095222473,0.08277816325426102
2,4,128,31,0.5308756232261658,0.039196986705064774
2,4,128,32,0.6412181258201599,0.3245021104812622
2,4,128,33,0.5752394199371338,0.2946425676345825
2,4,128,34,0.5108138918876648,0.12180890887975693
2,4,128,35,0.6347500085830688,0.2758978605270386
2,4,128,36,0.4670465886592865,0.2752286493778229
2,4,128,37,0.6452217698097229,0.18993361294269562
2,4,128,38,0.5593123435974121,0.2079036384820938
2,4,128,39,0.5539438724517822,0.13588358461856842
2,4,128,40,0.42920374870300293,0.13977470993995667
2,4,128,41,0.42708489298820496,0.2752326726913452
2,4,128,42,0.5933175683021545,0.2185673862695694
2,4,128,43,0.5943000316619873,0.09980107098817825
2,4,128,44,0.6792374849319458,0.10316696017980576
2,4,128,45,0.5549022555351257,0.24737748503684998
2,4,128,46,0.70518958568573,0.10222191363573074
2,4,128,47,0.5930511951446533,0.3175774812698364
2,4,128,48,0.655600905418396,0.08394418656826019
2,4,128,49,0.6391663551330566,0.17644339799880981
2,4,128,50,0.709313154220581,0.11112863570451736
2,4,128,51,0.6215697526931763,0.08585649728775024
2,4,128,52,0.4967323839664459,0.25738102197647095
2,4,128,53,0.6964566111564636,0.11950425803661346
2,4,128,54,0.6805623769760132,0.07865293323993683
2,4,128,55,0.400589257478714,0.09528571367263794
2,4,128,56,0.37316179275512695,0.07147549837827682
2,4,128,57,0.5110784769058228,0.1696043163537979
2,4,128,58,0.48168230056762695,0.06257707625627518
2,4,128,59,0.44634172320365906,0.11886277794837952
2,4,128,60,0.39049264788627625,0.06217115372419357
2,4,128,61,0.4113682508468628,0.31179624795913696
2,4,128,62,0.7408576011657715,0.12034381926059723
2,4,128,63,0.771439254283905,0.10672706365585327
2,4,128,64,0.726573646068573,0.07508572190999985
2,4,128,65,0.5471503734588623,0.12120480090379715
2,4,128,66,0.31651660799980164,0.12169576436281204
2,4,128,67,0.5456295013427734,0.2822643220424652
2,4,128,68,0.5224248170852661,0.04879423603415489
2,4,128,69,0.7214085459709167,0.11572082340717316
2,4,128,70,0.5704721808433533,0.14848482608795166
2,4,128,71,0.4520881772041321,0.26532304286956787
2,4,128,72,0.6630080342292786,0.06918475031852722
2,4,128,73,0.5375032424926758,0.23317067325115204
2,4,128,74,0.6660522222518921,0.08039264380931854
2,4,128,75,0.47344136238098145,0.1187828853726387
2,4,128,76,0.6845068335533142,0.12361079454421997
2,4,128,77,0.4092356860637665,0.18943805992603302
2,4,128,78,0.5347276926040649,0.20248721539974213
2,4,128,79,0.3867437243461609,0.2727586328983307
2,4,128,80,0.5413905382156372,0.139425590634346
2,4,128,81,0.5949614644050598,0.11084752529859543
2,4,128,82,0.5689926147460938,0.1163012832403183
2,4,128,83,0.3620935082435608,0.3250958025455475
2,4,128,84,0.4308742582798004,0.22095957398414612
2,4,128,85,0.7616392970085144,0.09353461861610413
2,4,128,86,0.4073920249938965,0.25379806756973267
2,4,128,87,0.5924477577209473,0.20281964540481567
2,4,128,88,0.6171054840087891,0.34022319316864014
2,4,128,89,0.6770154237747192,0.08448392897844315
2,4,128,90,0.501276433467865,0.2832089960575104
2,4,128,91,0.4068435728549957,0.27088889479637146
2,4,128,92,0.5519118905067444,0.2118498533964157
2,4,128,93,0.7006329298019409,0.21273016929626465
2,4,128,94,0.542699933052063,0.1528078019618988
2,4,128,95,0.5845381617546082,0.06178604066371918
2,4,128,96,0.5985592007637024,0.20159251987934113
2,4,128,97,0.680623471736908,0.1487407386302948
2,4,128,98,0.5293669104576111,0.16265331208705902
2,4,128,99,0.5837730169296265,0.18418298661708832
2,4,128,100,0.4337446987628937,0.09299977868795395
2,4,128,101,0.6638471484184265,0.1574704498052597
2,4,128,102,0.29895275831222534,0.09857635945081711
2,4,128,103,0.7167112827301025,0.08300420641899109
2,4,128,104,0.44983163475990295,0.3175000846385956
2,4,128,105,0.5583633184432983,0.06592614203691483
2,4,128,106,0.5791955590248108,0.0996362641453743
2,4,128,107,0.4931254982948303,0.14807865023612976
2,4,128,108,0.6526088714599609,0.08433230221271515
2,4,128,109,0.38382184505462646,0.24851945042610168
2,4,128,110,0.5447394251823425,0.022115543484687805
2,4,128,111,0.4521251916885376,0.23912397027015686
2,4,128,112,0.5544360280036926,0.2515084743499756
2,4,128,113,0.5115450024604797,0.23434042930603027
2,4,128,114,0.7017682194709778,0.09333520382642746
2,4,128,115,0.5616050362586975,0.2723398506641388
2,4,128,116,0.43092378973960876,0.2602338194847107
2,4,128,117,0.5174622535705566,0.03867700323462486
2,4,128,118,0.436783105134964,0.2778323292732239
2,4,128,119,0.41461381316185,0.30056601762771606
2,4,128,120,0.49533942341804504,0.31183090806007385
2,4,128,121,0.4880945384502411,0.06313519179821014
2,4,128,122,0.5432965755462646,0.15919601917266846
2,4,128,123,0.6490480899810791,0.24266047775745392
2,4,128,124,0.4528388977050781,0.15600155293941498
2,4,128,125,0.6869397759437561,0.07333389669656754
2,4,128,126,0.5031350255012512,0.18061015009880066
2,4,128,127,0.4617639183998108,0.273271769285202
2,5,128,0,0.8896697759628296,0.1091061607003212
2,5,128,1,0.8427079319953918,0.06543765962123871
2,5,128,2,0.9080370664596558,0.05142837017774582
2,5,128,3,0.6921547055244446,0.10822875797748566
2,5,128,4,0.6905009150505066,0.113193579018116
2,5,128,5,0.8668038249015808,0.07939047366380692
2,5,128,6,0.6663137674331665,0.1985369324684143
2,5,128,7,0.8971204161643982,0.10097876936197281
2,5,128,8,0.8368386030197144,0.08261699974536896
2,5,128,9,0.8375508785247803,0.12222834676504135
2,5,128,10,0.2577626705169678,0.10408136248588562
2,5,128,11,0.9006507992744446,0.09696310013532639
2,5,128,12,0.7987537384033203,0.057717904448509216
2,5,128,13,0.8586254715919495,0.05641225725412369
2,5,128,14,0.7025284767150879,0.2716834247112274
2,5,128,15,0.6177026629447937,0.22818222641944885
2,5,128,16,0.7802796959877014,0.09849505126476288
2,5,128,17,0.8099657297134399,0.09830327332019806
2,5,128,18,0.5380780100822449,0.1337965726852417
2,5,128,19,0.8285648822784424,0.15759913623332977
2,5,128,20,0.5220500230789185,0.17087887227535248
2,5,128,21,0.7318102717399597,0.18134190142154694
2,5,128,22,0.5590818524360657,0.2842353880405426
2,5,128,23,0.748428225517273,0.1918095052242279
2,5,128,24,0.8672885298728943,0.11775118857622147
2,5,128,25,0.9280468821525574,0.04726419597864151
2,5,128,26,0.8266410827636719,0.1640498787164688
2,5,128,27,0.7646868228912354,0.11628023535013199
2,5,128,28,0.9050667881965637,0.06857830286026001
2,5,128,29,0.8905095458030701,0.08183149993419647
2,5,128,30,0.6825716495513916,0.1382063329219818
2,5,128,31,0.7316728234291077,0.17724062502384186
2,5,128,32,0.8964361548423767,0.09829206764698029
2,5,128,33,0.8627415299415588,0.11490167677402496
2,5,128,34,0.7634206414222717,0.10399807244539261
2,5,128,35,0.7163757681846619,0.1877678632736206
2,5,128,36,0.8713825941085815,0.10625756531953812
2,5,128,37,0.9095783829689026,0.06853961944580078
2,5,128,38,0.6997596025466919,0.28919002413749695
2,5,128,39,0.925666332244873,0.07762066274881363
2,5,128,40,0.8308674097061157,0.06345637887716293
2,5,128,41,0.5887376666069031,0.2403290867805481
2,5,128,42,0.6991930603981018,0.2052466720342636
2,5,128,43,0.632556140422821,0.3824712038040161
2,5,128,44,0.8371513485908508,0.10591607540845871
2,5,128,45,0.8258486390113831,0.11556565761566162
2,5,128,46,0.8971348404884338,0.09390804916620255
2,5,128,47,0.8340762257575989,0.07918824255466461
2,5,128,48,0.7313410639762878,0.27157679200172424
2,5,128,49,0.7782374620437622,0.09519828110933304
2,5,128,50,0.6900518536567688,0.1505366414785385
2,5,128,51,0.7341213822364807,0.09791198372840881
2,5,128,52,0.8692193031311035,0.09464729577302933
2,5,128,53,0.8586940765380859,0.05783746391534805
2,5,128,54,0.8872207999229431,0.06921885162591934
2,5,128,55,0.7407819032669067,0.15040291845798492
2,5,128,56,0.3515903353691101,0.2834450900554657
2,5,128,57,0.8246201276779175,0.06591241806745529
2,5,128,58,0.814720869064331,0.16102385520935059
2,5,128,59,0.8213488459587097,0.08748691529035568
2,5,128,60,0.8311620354652405,0.08671773225069046
2,5,128,61,0.7744287252426147,0.23469673097133636
2,5,128,62,0.9035508036613464,0.06293514370918274
2,5,128,63,0.8123482465744019,0.07149836421012878
2,5,128,64,0.908017098903656,0.07271012663841248
2,5,128,65,0.8787874579429626,0.09746604412794113
2,5,128,66,0.7170557379722595,0.14499333500862122
2,5,128,67,0.6826964020729065,0.2845768928527832
2,5,128,68,0.7148265838623047,0.09670525044202805
2,5,128,69,0.6437993049621582,0.36151042580604553
2,5,128,70,0.7149702906608582,0.19775789976119995
2,5,128,71,0.45312559604644775,0.37275177240371704
2,5,128,72,0.8795437812805176,0.07182737439870834
2,5,128,73,0.37633615732192993,0.3364289104938507
2,5,128,74,0.6431889533996582,0.33184903860092163
2,5,128,75,0.6235873699188232,0.14528800547122955
2,5,128,76,0.8750157356262207,0.09977482259273529
2,5,128,77,0.685893177986145,0.13585244119167328
2,5,128,78,0.7688881754875183,0.11448551714420319
2,5,128,79,0.7561941742897034,0.19833961129188538
2,5,128,80,0.34309902787208557,0.23557807505130768
2,5,128,81,0.8826442360877991,0.08629696816205978
2,5,128,82,0.8670029640197754,0.09435476362705231
2,5,128,83,0.7123258709907532,0.0893043577671051
2,5,128,84,0.7648746371269226,0.06089049577713013
2,5,128,85,0.76735919713974,0.2108776718378067
2,5,128,86,0.8393133282661438,0.060239434242248535
2,5,128,87,0.5513952374458313,0.12125761061906815
2,5,128,88,0.8728180527687073,0.09053397923707962
2,5,128,89,0.890603244304657,0.05213598906993866
2,5,128,90,0.8261973857879639,0.1050366759300232
2,5,128,91,0.4074748456478119,0.39424172043800354
2,5,128,92,0.8157862424850464,0.148532435297966
2,5,128,93,0.7432225942611694,0.12472767382860184
2,5,128,94,0.8169336318969727,0.1499585658311844
2,5,128,95,0.7655470371246338,0.21731513738632202
2,5,128,96,0.903073787689209,0.06317600607872009
2,5,128,97,0.8789786100387573,0.04915539547801018
2,5,128,98,0.9172319769859314,0.07489251345396042
2,5,128,99,0.9077740907669067,0.07213874906301498
2,5,128,100,0.8373744487762451,0.15523572266101837
2,5,128,101,0.6343902349472046,0.32191070914268494
2,5,128,102,0.5495178699493408,0.23541443049907684
2,5,128,103,0.8474436402320862,0.09944936633110046
2,5,128,104,0.8862202167510986,0.05552394688129425
2,5,128,105,0.8313482403755188,0.17274759709835052
2,5,128,106,0.7620669007301331,0.14722591638565063
2,5,128,107,0.7746108174324036,0.08141740411520004
2,5,128,108,0.6025969982147217,0.2159140557050705
2,5,128,109,0.7115958333015442,0.0964244157075882
2,5,128,110,0.8909708261489868,0.06813181936740875
2,5,128,111,0.8987058401107788,0.06307180225849152
2,5,128,112,0.40903469920158386,0.3203343152999878
2,5,128,113,0.8733688592910767,0.12046420574188232
2,5,128,114,0.8517249822616577,0.11403178423643112
2,5,128,115,0.7940341234207153,0.12426551431417465
2,5,128,116,0.39008331298828125,0.3765334486961365
2,5,128,117,0.8048110008239746,0.1029176414012909
2,5,128,118,0.494173139333725,0.3444623649120331
2,5,128,119,0.723297119140625,0.20775263011455536
2,5,128,120,0.9093024134635925,0.05087272450327873
2,5,128,121,0.8898710012435913,0.05788370966911316
2,5,128,122,0.8675189018249512,0.054151684045791626
2,5,128,123,0.8257281184196472,0.08560943603515625
2,5,128,124,0.8126932978630066,0.18358378112316132
2,5,128,125,0.8749754428863525,0.07028364390134811
2,5,128,126,0.8490645885467529,0.0622917115688324
2,5,128,127,0.7631890773773193,0.08872976899147034
3,0,32,0,0.5938493609428406,0.09687799960374832
3,0,32,1,0.49951016902923584,0.09875629097223282
3,0,32,2,0.5809780359268188,0.08057865500450134
3,0,32,3,0.3050362467765808,0.08688990026712418
3,0,32,4,0.3174388110637665,0.06299210339784622
3,0,32,5,0.34039634466171265,0.08618063479661942
3,0,32,6,0.38396331667900085,0.08544600009918213
3,0,32,7,0.5987119078636169,0.13569508492946625
3,0,32,8,0.5890121459960938,0.01673327386379242
3,0,32,9,0.589620053768158,0.02745542861521244
3,0,32,10,0.4586615264415741,0.08094924688339233
3,0,32,11,0.6215354800224304,0.049797654151916504
3,0,32,12,0.5738311409950256,0.12876521050930023
3,0,32,13,0.47021356225013733,0.14522023499011993
3,0,32,14,0.5127065777778625,0.05789494514465332
3,0,32,15,0.4196220338344574,0.06771151721477509
3,0,32,16,0.4512617886066437,0.12382589280605316
3,0,32,17,0.4490223526954651,0.13164961338043213
3,0,32,18,0.3815665543079376,0.13397204875946045
3,0,32,19,0.28144827485084534,0.07423079758882523
3,0,32,20,0.4036604166030884,0.11093774437904358
3,0,32,21,0.5017805695533752,0.06725995242595673
3,0,32,22,0.3825676441192627,0.06812924891710281
3,0,32,23,0.5103698968887329,0.10156583786010742
3,0,32,24,0.6134060025215149,0.032136883586645126
3,0,32,25,0.576433539390564,0.08659182488918304
3,0,32,26,0.4350598156452179,0.047720689326524734
3,0,32,27,0.39796754717826843,0.10742101818323135
3,0,32,28,0.6660679578781128,0.099410779774189
3,0,32,29,0.48789721727371216,0.05735519528388977
3,0,32,30,0.30777841806411743,0.11534962058067322
3,0,32,31,0.3849617540836334,0.07507765293121338
3,1,32,0,0.42473867535591125,0.06097278743982315
3,1,32,1,0.4617031216621399,0.03751916438341141
3,1,32,2,0.4928920865058899,0.10717757046222687
3,1,32,3,0.41399890184402466,0.13991619646549225
3,1,32,4,0.5297420024871826,0.09077602624893188
3,1,32,5,0.3713986873626709,0.09540053457021713
3,1,32,6,0.5881502032279968,0.06652221083641052
3,1,32,7,0.5410684943199158,0.08940492570400238
3,1,32,8,0.5978562235832214,0.05141683295369148
3,1,32,9,0.452441543340683,0.06154867634177208
3,1,32,10,0.439068466424942,0.10632184892892838
3,1,32,11,0.5775279998779297,0.05704134330153465
3,1,32,12,0.451630562543869,0.11928500235080719
3,1,32,13,0.5738168358802795,0.12273547053337097
3,1,32,14,0.474514901638031,0.09044793993234634
3,1,32,15,0.6293178796768188,0.030894814059138298
3,1,32,16,0.5204786658287048,0.07266316562891006
3,1,32,17,0.34091663360595703,0.09398287534713745
3,1,32,18,0.5737311840057373,0.11002084612846375
3,1,32,19,0.47250762581825256,0.06270835548639297
3,1,32,20,0.5979113578796387,0.18598894774913788
3,1,32,21,0.6361831426620483,0.05239328742027283
3,1,32,22,0.3738875091075897,0.056271493434906006
3,1,32,23,0.45663684606552124,0.1374964714050293
3,1,32,24,0.3571241497993469,0.07974740862846375
3,1,32,25,0.545730471611023,0.11322234570980072
3,1,32,26,0.35975539684295654,0.07124730199575424
3,1,32,27,0.5121709108352661,0.10846816003322601
3,1,32,28,0.49100738763809204,0.1280207335948944
3,1,32,29,0.5189457535743713,0.16396595537662506
3,1,32,30,0.518982470035553,0.12334189563989639
3,1,32,31,0.5979504585266113,0.07163912057876587
3,2,64,0,0.5791721343994141,0.2546018064022064
3,2,64,1,0.47036322951316833,0.11126138269901276
3,2,64,2,0.5542467832565308,0.22031885385513306
3,2,64,3,0.6194767355918884,0.18483245372772217
3,2,64,4,0.44383934140205383,0.13001704216003418
3,2,64,5,0.5887823700904846,0.130417138338089
3,2,64,6,0.5316143035888672,0.13116075098514557
3,2,64,7,0.27533861994743347,0.11120684444904327
3,2,64,8,0.5198386311531067,0.14791423082351685
3,2,64,9,0.5661813020706177,0.11136823892593384
3,2,64,10,0.5382684469223022,0.22388814389705658
3,2,64,11,0.23878279328346252,0.09822294116020203
3,2,64,12,0.6121242046356201,0.10516476631164551
3,2,64,13,0.2957207262516022,0.0856209322810173
3,2,64,14,0.5733599662780762,0.10660625249147415
3,2,64,15,0.5314568281173706,0.1590486764907837
3,2,64,16,0.5023708343505859,0.09167810529470444
3,2,64,17,0.36697477102279663,0.16856451332569122
3,2,64,18,0.627824068069458,0.24101652204990387
3,2,64,19,0.5105919241905212,0.14276573061943054
3,2,64,20,0.5911937952041626,0.289981871843338
3,2,64,21,0.5524131059646606,0.10040919482707977
3,2,64,22,0.6227419376373291,0.11621375381946564
3,2,64,23,0.4820992350578308,0.08086258172988892
3,2,64,24,0.2548677921295166,0.09020404517650604
3,2,64,25,0.5246862769126892,0.14284449815750122
3,2,64,26,0.6574205160140991,0.1075436994433403
3,2,64,27,0.5537951588630676,0.21674293279647827
3,2,64,28,0.4527631103992462,0.1065615639090538
3,2,64,29,0.30655407905578613,0.13129521906375885
3,2,64,30,0.46558377146720886,0.055237818509340286
3,2,64,31,0.6181350946426392,0.1487300992012024
3,2,64,32,0.5753064751625061,0.10851869732141495
3,2,64,33,0.42927178740501404,0.1711813509464264
3,2,64,34,0.5024183988571167,0.07861247658729553
3,2,64,35,0.4717637002468109,0.15047039091587067
3,2,64,36,0.6429331302642822,0.20155146718025208
3,2,64,37,0.4263056218624115,0.11002178490161896
3,2,64,38,0.4365076720714569,0.125502347946167
3,2,64,39,0.46758705377578735,0.2225991189479828
3,2,64,40,0.6263946294784546,0.18310248851776123
3,2,64,41,0.5248634815216064,0.12938648462295532
3,2,64,42,0.6281986236572266,0.09251128137111664
3,2,64,43,0.6259424090385437,0.12893524765968323
3,2,64,44,0.5524007081985474,0.21033157408237457
3,2,64,45,0.47363579273223877,0.16148996353149414
3,2,64,46,0.6042279601097107,0.24533042311668396
3,2,64,47,0.5507336258888245,0.10241273045539856
3,2,64,48,0.622122585773468,0.31795474886894226
3,2,64,49,0.49959930777549744,0.20331504940986633
3,2,64,50,0.6983708143234253,0.13588230311870575
3,2,64,51,0.6040300726890564,0.13018456101417542
3,2,64,52,0.6079099774360657,0.17794741690158844
3,2,64,53,0.5427010655403137,0.11840203404426575
3,2,64,54,0.7653748393058777,0.11424972116947174
3,2,64,55,0.5690380334854126,0.11583846807479858
3,2,64,56,0.41799822449684143,0.059186313301324844
3,2,64,57,0.49940165877342224,0.22613348066806793
3,2,64,58,0.49385887384414673,0.16493745148181915
3,2,64,59,0.4759202003479004,0.27473434805870056
3,2,64,60,0.49135464429855347,0.19647684693336487
3,2,64,61,0.46951010823249817,0.24008232355117798
3,2,64,62,0.5958899259567261,0.09603439271450043
3,2,64,63,0.4666079580783844,0.11600159108638763
3,3,64,0,0.445461243391037,0.0596509613096714
3,3,64,1,0.6106019020080566,0.08269300311803818
3,3,64,2,0.6273841261863708,0.13829433917999268
3,3,64,3,0.523779034614563,0.12395107746124268
3,3,64,4,0.48293888568878174,0.0983513668179512
3,3,64,5,0.4827977418899536,0.029556114226579666
3,3,64,6,0.43195658922195435,0.09563128650188446
3,3,64,7,0.31754881143569946,0.09239453077316284
3,3,64,8,0.636010468006134,0.056303832679986954
3,3,64,9,0.4955921173095703,0.15379616618156433
3,3,64,10,0.5592679977416992,0.13653995096683502
3,3,64,11,0.5145946145057678,0.28336143493652344
3,3,64,12,0.4534234404563904,0.19804540276527405
3,3,64,13,0.5615827441215515,0.10805301368236542
3,3,64,14,0.5088102221488953,0.09713651984930038
3,3,64,15,0.5688809752464294,0.09317348152399063
3,3,64,16,0.43834924697875977,0.10712549835443497
3,3,64,17,0.5168032646179199,0.12581689655780792
3,3,64,18,0.58746737241745,0.1829252690076828
3,3,64,19,0.45427730679512024,0.1753445565700531
3,3,64,20,0.40397611260414124,0.15468722581863403
3,3,64,21,0.46569278836250305,0.07879935950040817
3,3,64,22,0.4937100410461426,0.1245005652308464
3,3,64,23,0.6519838571548462,0.08804044127464294
3,3,64,24,0.5206776857376099,0.23286837339401245
3,3,64,25,0.48609939217567444,0.15125802159309387
3,3,64,26,0.4858790338039398,0.031573981046676636
3,3,64,27,0.6338146924972534,0.09511750191450119
3,3,64,28,0.5815452337265015,0.10150165110826492
3,3,64,29,0.5593733191490173,0.23186242580413818
3,3,64,30,0.3968702554702759,0.1527239978313446
3,3,64,31,0.5205073952674866,0.09543956816196442
3,3,64,32,0.5029094219207764,0.1504683494567871
3,3,64,33,0.521431028842926,0.1799045354127884
3,3,64,34,0.42031219601631165,0.21118862926959991
3,3,64,35,0.47457751631736755,0.16061940789222717
3,3,64,36,0.6002480983734131,0.08428764343261719
3,3,64,37,0.5059922337532043,0.13948075473308563
3,3,64,38,0.5103240609169006,0.11558347940444946
3,3,64,39,0.5779544711112976,0.151040717959404
3,3,64,40,0.5333147644996643,0.22836394608020782
3,3,64,41,0.49909839034080505,0.03714625909924507
3,3,64,42,0.38488176465034485,0.12290308624505997
3,3,64,43,0.4050767421722412,0.1116003692150116
3,3,64,44,0.4588930308818817,0.1498056948184967
3,3,64,45,0.4769357442855835,0.0885797068476677
3,3,64,46,0.5334076285362244,0.1207965612411499
3,3,64,47,0.5131929516792297,0.13233117759227753
3,3,64,48,0.4397676885128021,0.10041669756174088
3,3,64,49,0.43885889649391174,0.07566489279270172
3,3,64,50,0.5456675887107849,0.15515443682670593
3,3,64,51,0.35956233739852905,0.08856065571308136
3,3,64,52,0.45410752296447754,0.19719597697257996
3,3,64,53,0.4024182856082916,0.17369651794433594
3,3,64,54,0.4232036769390106,0.19064749777317047
3,3,64,55,0.49910712242126465,0.09087028354406357
3,3,64,56,0.5061461329460144,0.12648814916610718
3,3,64,57,0.44982272386550903,0.18005633354187012
3,3,64,58,0.5507354736328125,0.19667084515094757
3,3,64,59,0.5864198207855225,0.18350183963775635
3,3,64,60,0.536071240901947,0.1884627789258957
3,3,64,61,0.385797381401062,0.08202575892210007
3,3,64,62,0.49970170855522156,0.08063962310552597
3,3,64,63,0.6618314981460571,0.08785263448953629
3,4,128,0,0.742331326007843,0.13843095302581787
3,4,128,1,0.6174036860466003,0.12913967669010162
3,4,128,2,0.20762543380260468,0.09344268590211868
3,4,128,3,0.5354878306388855,0.21675539016723633
3,4,128,4,0.6638000011444092,0.10115267336368561
3,4,128,5,0.6710548400878906,0.12756597995758057
3,4,128,6,0.6719245910644531,0.13444946706295013
3,4,128,7,0.7321934700012207,0.09832678735256195
3,4,128,8,0.34329473972320557,0.06363117694854736
3,4,128,9,0.4511529803276062,0.25839415192604065
3,4,128,10,0.7447393536567688,0.0950726643204689
3,4,128,11,0.6734891533851624,0.10058144479990005
3,4,128,12,0.6497023105621338,0.14939749240875244
3,4,128,13,0.5951921939849854,0.20076884329319
3,4,128,14,0.7261660695075989,0.246962770819664
3,4,128,15,0.7747752666473389,0.22659917175769806
3,4,128,16,0.6067931652069092,0.27370327711105347
3,4,128,17,0.608306348323822,0.20852798223495483
3,4,128,18,0.3601517379283905,0.2558215260505676
3,4,128,19,0.7008428573608398,0.269076406955719
3,4,128,20,0.5890468955039978,0.20592635869979858
3,4,128,21,0.7564263343811035,0.2567579448223114
3,4,128,22,0.4247080087661743,0.11432705074548721
3,4,128,23,0.7302512526512146,0.2615054249763489
3,4,128,24,0.6008110642433167,0.17391526699066162
3,4,128,25,0.6219836473464966,0.27714595198631287
3,4,128,26,0.6634825468063354,0.25564199686050415
3,4,128,27,0.6878417730331421,0.30329665541648865
3,4,128,28,0.6433160901069641,0.21288247406482697
3,4,128,29,0.6826964020729065,0.1283133327960968
3,4,128,30,0.7498987913131714,0.11039169132709503
3,4,128,31,0.5793728828430176,0.2564088702201843
3,4,128,32,0.2555409371852875,0.15641774237155914
3,4,128,33,0.633904218673706,0.14471369981765747
3,4,128,34,0.7645996809005737,0.10654550045728683
3,4,128,35,0.7923826575279236,0.16243310272693634
3,4,128,36,0.6441029906272888,0.1957496553659439
3,4,128,37,0.595923900604248,0.26380908489227295
3,4,128,38,0.6487633585929871,0.25397607684135437
3,4,128,39,0.5669297575950623,0.1276770979166031
3,4,128,40,0.6724762320518494,0.16809850931167603
3,4,128,41,0.38613075017929077,0.0913420170545578
3,4,128,42,0.46211931109428406,0.11189354956150055
3,4,128,43,0.664232611656189,0.2905993163585663
3,4,128,44,0.3920207619667053,0.3531627953052521
3,4,128,45,0.5247477293014526,0.2649540305137634
3,4,128,46,0.4028855562210083,0.264996200799942
3,4,128,47,0.6632906794548035,0.05657803639769554
3,4,128,48,0.7674171328544617,0.10919647663831711
3,4,128,49,0.36179569363594055,0.27170664072036743
3,4,128,50,0.38836225867271423,0.30935195088386536
3,4,128,51,0.5250361561775208,0.17309041321277618
3,4,128,52,0.8090444803237915,0.13283905386924744
3,4,128,53,0.6448891162872314,0.12946221232414246
3,4,128,54,0.5723893642425537,0.1518462896347046
3,4,128,55,0.6992877721786499,0.1662977784872055
3,4,128,56,0.4305548369884491,0.17975948750972748
3,4,128,57,0.7039255499839783,0.12301019579172134
3,4,128,58,0.5072577595710754,0.11147868633270264
3,4,128,59,0.5020053386688232,0.25407496094703674
3,4,128,60,0.6805667877197266,0.3400406241416931
3,4,128,61,0.16554470360279083,0.11529017239809036
3,4,128,62,0.5541286468505859,0.09486515820026398
3,4,128,63,0.6515911221504211,0.11636228114366531
3,4,128,64,0.36961913108825684,0.309526264667511
3,4,128,65,0.373364120721817,0.1069328635931015
3,4,128,66,0.7274816036224365,0.21563977003097534
3,4,128,67,0.5191965103149414,0.21675749123096466
3,4,128,68,0.48930683732032776,0.1956305354833603
3,4,128,69,0.8286671042442322,0.11048547178506851
3,4,128,70,0.7403470873832703,0.09192940592765808
3,4,128,71,0.4129748046398163,0.13282601535320282
3,4,128,72,0.6999667882919312,0.10146394371986389
3,4,128,73,0.6977412700653076,0.19765478372573853
3,4,128,74,0.49528637528419495,0.18963222205638885
3,4,128,75,0.5977442860603333,0.2569791376590729
3,4,128,76,0.3194206953048706,0.2958270013332367
3,4,128,77,0.5913404226303101,0.1433212161064148
3,4,128,78,0.7105686068534851,0.1091177836060524
3,4,128,79,0.5920237302780151,0.06489311903715134
3,4,128,80,0.5590733885765076,0.1771484911441803
3,4,128,81,0.6481882333755493,0.10330648720264435
3,4,128,82,0.6498432755470276,0.18171465396881104
3,4,128,83,0.6956027150154114,0.15290264785289764
3,4,128,84,0.6027669906616211,0.28983965516090393
3,4,128,85,0.6390235424041748,0.3363240957260132
3,4,128,86,0.7993678450584412,0.10301034897565842
3,4,128,87,0.6795811653137207,0.21597667038440704
3,4,128,88,0.6837720274925232,0.1685197949409485
3,4,128,89,0.4549393653869629,0.11115357279777527
3,4,128,90,0.5539631247520447,0.26130133867263794
3,4,128,91,0.6912767291069031,0.13739129900932312
3,4,128,92,0.496639609336853,0.23228329420089722
3,4,128,93,0.6011372208595276,0.21814802289009094
3,4,128,94,0.4343525171279907,0.21313156187534332
3,4,128,95,0.4697665870189667,0.11194388568401337
3,4,128,96,0.5023473501205444,0.2554377317428589
3,4,128,97,0.7592183351516724,0.10046817362308502
3,4,128,98,0.42717763781547546,0.24290303885936737
3,4,128,99,0.3413664698600769,0.1449190378189087
3,4,128,100,0.6445139050483704,0.21340805292129517
3,4,128,101,0.6695099472999573,0.12765157222747803
3,4,128,102,0.7229008674621582,0.17655465006828308
3,4,128,103,0.32521119713783264,0.1273282915353775
3,4,128,104,0.4387422800064087,0.10927309095859528
3,4,128,105,0.5297744274139404,0.20257771015167236
3,4,128,106,0.5662077069282532,0.20245401561260223
3,4,128,107,0.7217763066291809,0.22530794143676758
3,4,128,108,0.5812844634056091,0.19072052836418152
3,4,128,109,0.5470491647720337,0.07893222570419312
3,4,128,110,0.6623461842536926,0.2569020092487335
3,4,128,111,0.28862279653549194,0.2155279964208603
3,4,128,112,0.6640816330909729,0.24639463424682617
3,4,128,113,0.4912247955799103,0.14236575365066528
3,4,128,114,0.8130324482917786,0.08697114139795303
3,4,128,115,0.4165201187133789,0.2630360424518585
3,4,128,116,0.5860140323638916,0.2087695449590683
3,4,128,117,0.7011136412620544,0.2701164782047272
3,4,128,118,0.4530934691429138,0.12109217047691345
3,4,128,119,0.3203391432762146,0.1449672430753708
3,4,128,120,0.7153977155685425,0.1716170459985733
3,4,128,121,0.7365142703056335,0.2840645909309387
3,4,128,122,0.7599127888679504,0.19394394755363464
3,4,128,123,0.3835339844226837,0.2511824071407318
3,4,128,124,0.6876406669616699,0.21911172568798065
3,4,128,125,0.695273756980896,0.3019471764564514
3,4,128,126,0.6759089231491089,0.17958025634288788
3,4,128,127,0.6688576936721802,0.14088872075080872
3,5,128,0,0.713046133518219,0.09713179618120193
3,5,128,1,0.6446307897567749,0.2795379161834717
3,5,128,2,0.8695420622825623,0.0768447145819664
3,5,128,3,0.2898743450641632,0.33788156509399414
3,5,128,4,0.7840303182601929,0.2542635500431061
3,5,128,5,0.8304021954536438,0.19682855904102325
3,5,128,6,0.7344793677330017,0.13226811587810516
3,5,128,7,0.8227905035018921,0.1088733822107315
3,5,128,8,0.6224960088729858,0.28731974959373474
3,5,128,9,0.4716242551803589,0.20578281581401825
3,5,128,10,0.687599241733551,0.17891357839107513
3,5,128,11,0.7184552550315857,0.29899871349334717
3,5,128,12,0.8898030519485474,0.1437821388244629
3,5,128,13,0.7970905900001526,0.18398286402225494
3,5,128,14,0.8882863521575928,0.10236003994941711
3,5,128,15,0.7754577994346619,0.13275988399982452
3,5,128,16,0.8435852527618408,0.17854486405849457
3,5,128,17,0.7939262986183167,0.17686446011066437
3,5,128,18,0.641122579574585,0.2636876106262207
3,5,128,19,0.41344234347343445,0.27699851989746094
3,5,128,20,0.7951673269271851,0.1705119013786316
3,5,128,21,0.8210105299949646,0.1768450289964676
3,5,128,22,0.5538946390151978,0.17937052249908447
3,5,128,23,0.760225236415863,0.24760688841342926
3,5,128,24,0.7838874459266663,0.16489657759666443
3,5,128,25,0.7446685433387756,0.07248575240373611
3,5,128,26,0.8078674077987671,0.16550946235656738
3,5,128,27,0.8423727750778198,0.15150682628154755
3,5,128,28,0.8078570365905762,0.18306170403957367
3,5,128,29,0.7752707004547119,0.1522657722234726
3,5,128,30,0.8300026655197144,0.12204674631357193
3,5,128,31,0.6727147698402405,0.30720946192741394
3,5,128,32,0.7996890544891357,0.194214329123497
3,5,128,33,0.4973178505897522,0.14451560378074646
3,5,128,34,0.7550244927406311,0.12726807594299316
3,5,128,35,0.7605739831924438,0.30338799953460693
3,5,128,36,0.7604215741157532,0.1928974837064743
3,5,128,37,0.8296641111373901,0.0844208300113678
3,5,128,38,0.8076143860816956,0.15613813698291779
3,5,128,39,0.6582554578781128,0.12141154706478119
3,5,128,40,0.7635360360145569,0.2044629454612732
3,5,128,41,0.8544149398803711,0.11109519749879837
3,5,128,42,0.7577730417251587,0.144033282995224
3,5,128,43,0.8006566166877747,0.19699405133724213
3,5,128,44,0.7519950866699219,0.1963004469871521
3,5,128,45,0.8804243206977844,0.06330378353595734
3,5,128,46,0.6258119344711304,0.11671510338783264
3,5,128,47,0.7111912965774536,0.30590009689331055
3,5,128,48,0.46611911058425903,0.2944256365299225
3,5,128,49,0.6712741851806641,0.2177155315876007
3,5,128,50,0.6365910768508911,0.209329292178154
3,5,128,51,0.6875681281089783,0.251194566488266
3,5,128,52,0.8533995151519775,0.14268440008163452
3,5,128,53,0.8126598596572876,0.2279377281665802
3,5,128,54,0.820035457611084,0.15253834426403046
3,5,128,55,0.695141077041626,0.22379428148269653
3,5,128,56,0.5609354376792908,0.16288413107395172
3,5,128,57,0.668556809425354,0.35359132289886475
3,5,128,58,0.8110492825508118,0.08730119466781616
3,5,128,59,0.8410427570343018,0.08432100713253021
3,5,128,60,0.8976154923439026,0.0998692736029625
3,5,128,61,0.6982465386390686,0.24536970257759094
3,5,128,62,0.7909544706344604,0.08065740019083023
3,5,128,63,0.7152664661407471,0.14075496792793274
3,5,128,64,0.8513230085372925,0.08853153139352798
3,5,128,65,0.3830595910549164,0.33330434560775757
3,5,128,66,0.7483885288238525,0.12340595573186874
3,5,128,67,0.7649977207183838,0.09459871798753738
3,5,128,68,0.7212285399436951,0.11523222178220749
3,5,128,69,0.8171547055244446,0.17771746218204498
3,5,128,70,0.589901864528656,0.1598881185054779
3,5,128,71,0.6002671122550964,0.10615779459476471
3,5,128,72,0.7175046801567078,0.1838119477033615
3,5,128,73,0.7722753882408142,0.2086041420698166
3,5,128,74,0.6140246391296387,0.28877854347229004
3,5,128,75,0.7998620271682739,0.14142797887325287
3,5,128,76,0.8270626664161682,0.14880411326885223
3,5,128,77,0.4233763813972473,0.2502283751964569
3,5,128,78,0.7451345324516296,0.14245180785655975
3,5,128,79,0.40888383984565735,0.28423595428466797
3,5,128,80,0.7243595719337463,0.22853678464889526
3,5,128,81,0.5507552027702332,0.17696942389011383
3,5,128,82,0.8171131610870361,0.14726673066616058
3,5,128,83,0.7896752953529358,0.1987474113702774
3,5,128,84,0.7849428057670593,0.22193442285060883
3,5,128,85,0.8730268478393555,0.15596924722194672
3,5,128,86,0.8045432567596436,0.10293159633874893
3,5,128,87,0.7192012667655945,0.20884442329406738
3,5,128,88,0.7770418524742126,0.10537493228912354
3,5,128,89,0.6932684779167175,0.11165957897901535
3,5,128,90,0.43151500821113586,0.1579309105873108
3,5,128,91,0.8844507932662964,0.07974094152450562
3,5,128,92,0.5996595621109009,0.16965581476688385
3,5,128,93,0.8053728342056274,0.20372027158737183
3,5,128,94,0.6030941009521484,0.16185568273067474
3,5,128,95,0.8655625581741333,0.07857628911733627
3,5,128,96,0.8297996520996094,0.10223159939050674
3,5,128,97,0.7618404030799866,0.10195329040288925
3,5,128,98,0.8871473073959351,0.09322884678840637
3,5,128,99,0.733215868473053,0.09840581566095352
3,5,128,100,0.6924188733100891,0.23667676746845245
3,5,128,101,0.7821314930915833,0.07389519363641739
3,5,128,102,0.7343215346336365,0.12778864800930023
3,5,128,103,0.8379960656166077,0.07849036157131195
3,5,128,104,0.8038275837898254,0.08083228766918182
3,5,128,105,0.7452763319015503,0.1757749617099762
3,5,128,106,0.4413255751132965,0.26358169317245483
3,5,128,107,0.768454909324646,0.217179536819458
3,5,128,108,0.7935889363288879,0.10409485548734665
3,5,128,109,0.7344728708267212,0.23564378917217255
3,5,128,110,0.8393805623054504,0.10516007244586945
3,5,128,111,0.664318859577179,0.2710729241371155
3,5,128,112,0.7982413172721863,0.18391329050064087
3,5,128,113,0.7312909364700317,0.07043846696615219
3,5,128,114,0.770954966545105,0.2777218520641327
3,5,128,115,0.46948468685150146,0.1978560984134674
3,5,128,116,0.8749725818634033,0.07416686415672302
3,5,128,117,0.8369986414909363,0.18143080174922943
3,5,128,118,0.5580834746360779,0.21829137206077576
3,5,128,119,0.698830246925354,0.35103100538253784
3,5,128,120,0.8608167767524719,0.11892764270305634
3,5,128,121,0.3264283537864685,0.28508973121643066
3,5,128,122,0.8306785821914673,0.11189859360456467
3,5,128,123,0.7900852560997009,0.24911002814769745
3,5,128,124,0.7992779016494751,0.20737744867801666
3,5,128,125,0.6508097648620605,0.16651488840579987
3,5,128,126,0.8195643424987793,0.1053607165813446
3,5,128,127,0.6639498472213745,0.11583171784877777
4,0,32,0,0.5375472903251648,0.09589515626430511
4,0,32,1,0.47599342465400696,0.08416273444890976
4,0,32,2,0.555550217628479,0.07720676064491272
4,0,32,3,0.3313881456851959,0.12564833462238312
4,0,32,4,0.2925477921962738,0.09003911912441254
4,0,32,5,0.32076337933540344,0.09412794560194016
4,0,32,6,0.45165717601776123,0.09615138173103333
4,0,32,7,0.5120588541030884,0.20612218976020813
4,0,32,8,0.5645741820335388,0.037242937833070755
4,0,32,9,0.6144843697547913,0.05155219882726669
4,0,32,10,0.425688236951828,0.05245397239923477
4,0,32,11,0.6058844327926636,0.061929360032081604
4,0,32,12,0.5971348285675049,0.11005614697933197
4,0,32,13,0.5042568445205688,0.08823564648628235
4,0,32,14,0.4763033092021942,0.10351356863975525
4,0,32,15,0.398823082447052,0.12356535345315933
4,0,32,16,0.404883474111557,0.07394639402627945
4,0,32,17,0.48404577374458313,0.08480015397071838
4,0,32,18,0.3912646472454071,0.15063044428825378
4,0,32,19,0.32033199071884155,0.10153084993362427
4,0,32,20,0.4327198266983032,0.0934123694896698
4,0,32,21,0.48225638270378113,0.1562015265226364
4,0,32,22,0.3827746510505676,0.10159777849912643
4,0,32,23,0.5602805614471436,0.08566586673259735
4,0,32,24,0.620100200176239,0.09852959215641022
4,0,32,25,0.5761643052101135,0.13282188773155212
4,0,32,26,0.43617409467697144,0.12408281862735748
4,0,32,27,0.39242246747016907,0.08674123883247375
4,0,32,28,0.5766107439994812,0.1455405205488205
4,0,32,29,0.4733254313468933,0.07348212599754333
4,0,32,30,0.28503039479255676,0.1199546605348587
4,0,32,31,0.3972792327404022,0.10648538172245026
4,1,32,0,0.44123637676239014,0.10720252990722656
4,1,32,1,0.5161406993865967,0.07228183001279831
4,1,32,2,0.4821659326553345,0.15872050821781158
4,1,32,3,0.47709473967552185,0.07412687689065933
4,1,32,4,0.5910472869873047,0.18986594676971436
4,1,32,5,0.3018547296524048,0.09410407394170761
4,1,32,6,0.6092108488082886,0.06394243240356445
4,1,32,7,0.5716646313667297,0.1378897726535797
4,1,32,8,0.6389269828796387,0.03731320798397064
4,1,32,9,0.4620984196662903,0.08244921267032623
4,1,32,10,0.48898693919181824,0.11211127042770386
4,1,32,11,0.6711403727531433,0.1559700220823288
4,1,32,12,0.3785565495491028,0.08654796332120895
4,1,32,13,0.5661116242408752,0.14300058782100677
4,1,32,14,0.47622114419937134,0.09756718575954437
4,1,32,15,0.7157350182533264,0.08932041376829147
4,1,32,16,0.5016170740127563,0.03870237246155739
4,1,32,17,0.4271603524684906,0.111382395029068
4,1,32,18,0.45007073879241943,0.1661013662815094
4,1,32,19,0.435682088136673,0.18825994431972504
4,1,32,20,0.7180848121643066,0.06988496333360672
4,1,32,21,0.6059653759002686,0.06338516622781754
4,1,32,22,0.3578694760799408,0.07294540107250214
4,1,32,23,0.5796705484390259,0.09678781032562256
4,1,32,24,0.40043336153030396,0.07921487092971802
4,1,32,25,0.5455651879310608,0.09319004416465759
4,1,32,26,0.4231114983558655,0.0792040228843689
4,1,32,27,0.5624669790267944,0.07836829870939255
4,1,32,28,0.4628370404243469,0.08677906543016434
4,1,32,29,0.5777006149291992,0.09479190409183502
4,1,32,30,0.38478052616119385,0.05374964326620102
4,1,32,31,0.6209431290626526,0.0923742800951004
4,2,64,0,0.556982696056366,0.20444464683532715
4,2,64,1,0.4607902467250824,0.19364096224308014
4,2,64,2,0.4865623712539673,0.2100260853767395
4,2,64,3,0.49460065364837646,0.10970488935709
4,2,64,4,0.5018351078033447,0.07910427451133728
4,2,64,5,0.5742447376251221,0.16053210198879242
4,2,64,6,0.5794453024864197,0.13536018133163452
4,2,64,7,0.25433778762817383,0.1080777645111084
4,2,64,8,0.5632001757621765,0.2185630202293396
4,2,64,9,0.555658221244812,0.12223836034536362
4,2,64,10,0.5178926587104797,0.22823584079742432
4,2,64,11,0.3156641125679016,0.15201610326766968
4,2,64,12,0.5682657957077026,0.13051292300224304
4,2,64,13,0.26794931292533875,0.13348254561424255
4,2,64,14,0.5991171002388,0.14408667385578156
4,2,64,15,0.39909207820892334,0.11469364911317825
4,2,64,16,0.5104167461395264,0.13761766254901886
4,2,64,17,0.4152359962463379,0.19668692350387573
4,2,64,18,0.5725876092910767,0.12482424825429916
4,2,64,19,0.4391208291053772,0.14328178763389587
4,2,64,20,0.5392789840698242,0.23496071994304657
4,2,64,21,0.6020560264587402,0.12764285504817963
4,2,64,22,0.6010100841522217,0.13204795122146606
4,2,64,23,0.5030127763748169,0.1241883635520935
4,2,64,24,0.31454429030418396,0.11995875835418701
4,2,64,25,0.5741796493530273,0.06477756798267365
4,2,64,26,0.6410728693008423,0.1027730330824852
4,2,64,27,0.5152121186256409,0.11605903506278992
4,2,64,28,0.44991129636764526,0.1586507111787796
4,2,64,29,0.30986231565475464,0.13148993253707886
4,2,64,30,0.4719512164592743,0.14655600488185883
4,2,64,31,0.671560525894165,0.13385909795761108
4,2,64,32,0.5186643600463867,0.20285779237747192
4,2,64,33,0.4779350757598877,0.17739704251289368
4,2,64,34,0.5845382213592529,0.1674300879240036
4,2,64,35,0.5442763566970825,0.12522321939468384
4,2,64,36,0.5676530003547668,0.15810896456241608
4,2,64,37,0.5431521534919739,0.16916799545288086
4,2,64,38,0.4901737868785858,0.14896662533283234
4,2,64,39,0.37936511635780334,0.0984329879283905
4,2,64,40,0.5928606390953064,0.1454819142818451
4,2,64,41,0.43886715173721313,0.0859939232468605
4,2,64,42,0.6136121153831482,0.13181544840335846
4,2,64,43,0.5206378698348999,0.14710813760757446
4,2,64,44,0.5533818602561951,0.1800982654094696
4,2,64,45,0.4428310990333557,0.26910537481307983
4,2,64,46,0.5494353175163269,0.24323874711990356
4,2,64,47,0.48189401626586914,0.11843596398830414
4,2,64,48,0.44945037364959717,0.09927598387002945
4,2,64,49,0.5652816295623779,0.06679343432188034
4,2,64,50,0.5863901376724243,0.10922392457723618
4,2,64,51,0.5163131952285767,0.07174436748027802
4,2,64,52,0.501878559589386,0.18010921776294708
4,2,64,53,0.4228145182132721,0.10648214817047119
4,2,64,54,0.7084693908691406,0.12305615097284317
4,2,64,55,0.5412880778312683,0.16060207784175873
4,2,64,56,0.44431161880493164,0.142026886343956
4,2,64,57,0.48324427008628845,0.1497775912284851
4,2,64,58,0.5022563934326172,0.13339723646640778
4,2,64,59,0.56693035364151,0.2080942690372467
4,2,64,60,0.5046744346618652,0.13535425066947937
4,2,64,61,0.5327348709106445,0.1858994960784912
4,2,64,62,0.47799649834632874,0.09916766732931137
4,2,64,63,0.4232204854488373,0.14399942755699158
4,3,64,0,0.42396220564842224,0.10279349237680435
4,3,64,1,0.4796906113624573,0.05414523184299469
4,3,64,2,0.7427184581756592,0.16657912731170654
4,3,64,3,0.5135625600814819,0.1213451623916626
4,3,64,4,0.33967500925064087,0.1152648851275444
4,3,64,5,0.5009432435035706,0.06284912675619125
4,3,64,6,0.2853246033191681,0.10498609393835068
4,3,64,7,0.23840029537677765,0.12061967700719833
4,3,64,8,0.6367228031158447,0.06570737808942795
4,3,64,9,0.3654395043849945,0.25385963916778564
4,3,64,10,0.5136855244636536,0.11024424433708191
4,3,64,11,0.6328294277191162,0.2747829854488373
4,3,64,12,0.5311188101768494,0.1303008645772934
4,3,64,13,0.4751315116882324,0.10936936736106873
4,3,64,14,0.48372599482536316,0.040220070630311966
4,3,64,15,0.6466705799102783,0.14830926060676575
4,3,64,16,0.5173041224479675,0.15064465999603271
4,3,64,17,0.6034491658210754,0.1765047311782837
4,3,64,18,0.6628506183624268,0.23343059420585632
4,3,64,19,0.3927146792411804,0.1929805427789688
4,3,64,20,0.3921830654144287,0.19722498953342438
4,3,64,21,0.44167277216911316,0.06393658369779587
4,3,64,22,0.48033586144447327,0.11680614203214645
4,3,64,23,0.5085597038269043,0.21055400371551514
4,3,64,24,0.6591238975524902,0.22243957221508026
4,3,64,25,0.5697677135467529,0.15489566326141357
4,3,64,26,0.567772626876831,0.08401239663362503
4,3,64,27,0.6906940340995789,0.09275510162115097
4,3,64,28,0.4548672139644623,0.20021262764930725
4,3,64,29,0.5705397129058838,0.11355308443307877
4,3,64,30,0.3337782621383667,0.15249459445476532
4,3,64,31,0.6256862282752991,0.13372527062892914
4,3,64,32,0.5401982665061951,0.1896395981311798
4,3,64,33,0.6022403240203857,0.2166987508535385
4,3,64,34,0.5058999061584473,0.1930270791053772
4,3,64,35,0.5920763611793518,0.19987832009792328
4,3,64,36,0.6280319094657898,0.11116906255483627
4,3,64,37,0.5907556414604187,0.08632806688547134
4,3,64,38,0.4883633553981781,0.13825999200344086
4,3,64,39,0.5453908443450928,0.14463837444782257
4,3,64,40,0.6199558973312378,0.27234336733818054
4,3,64,41,0.6003129482269287,0.06777022033929825
4,3,64,42,0.34662407636642456,0.12470600008964539
4,3,64,43,0.3501116931438446,0.09902956336736679
4,3,64,44,0.5603934526443481,0.18159465491771698
4,3,64,45,0.4119766652584076,0.1074543222784996
4,3,64,46,0.6333975195884705,0.13877397775650024
4,3,64,47,0.40902426838874817,0.14168179035186768
4,3,64,48,0.5778650641441345,0.21452173590660095
4,3,64,49,0.4665997624397278,0.06592810899019241
4,3,64,50,0.6015600562095642,0.15461060404777527
4,3,64,51,0.320956826210022,0.11272139847278595
4,3,64,52,0.3476147949695587,0.14441415667533875
4,3,64,53,0.5027969479560852,0.2402268946170807
4,3,64,54,0.3436218798160553,0.23664338886737823
4,3,64,55,0.4518396258354187,0.08601053059101105
4,3,64,56,0.49004971981048584,0.11157089471817017
4,3,64,57,0.4098738133907318,0.07750540971755981
4,3,64,58,0.566698431968689,0.18261630833148956
4,3,64,59,0.6568295955657959,0.07865191251039505
4,3,64,60,0.5775260925292969,0.08056218177080154
4,3,64,61,0.3495155870914459,0.11392209678888321
4,3,64,62,0.5350343585014343,0.08179839700460434
4,3,64,63,0.5683830976486206,0.05268420651555061
4,4,128,0,0.660123884677887,0.09191682934761047
4,4,128,1,0.5223917365074158,0.15614457428455353
4,4,128,2,0.321743369102478,0.18761572241783142
4,4,128,3,0.5450879335403442,0.23473577201366425
4,4,128,4,0.6639446020126343,0.09907781332731247
4,4,128,5,0.5541143417358398,0.08270983397960663
4,4,128,6,0.4812893867492676,0.20209798216819763
4,4,128,7,0.7005375027656555,0.11997748166322708
4,4,128,8,0.3405868113040924,0.14370723068714142
4,4,128,9,0.36928632855415344,0.350972443819046
4,4,128,10,0.5710220336914062,0.11765869706869125
4,4,128,11,0.4186404347419739,0.20828111469745636
4,4,128,12,0.6826682090759277,0.06499133259057999
4,4,128,13,0.5022704601287842,0.20628517866134644
4,4,128,14,0.7300142645835876,0.2419550120830536
4,4,128,15,0.6546830534934998,0.19941972196102142
4,4,128,16,0.6599729061126709,0.18593230843544006
4,4,128,17,0.6558690071105957,0.20307841897010803
4,4,128,18,0.5277485847473145,0.18562743067741394
4,4,128,19,0.648488461971283,0.21351788938045502
4,4,128,20,0.5937145352363586,0.20837827026844025
4,4,128,21,0.6634677648544312,0.15798112750053406
4,4,128,22,0.6105204224586487,0.18316622078418732
4,4,128,23,0.6150949597358704,0.18032020330429077
4,4,128,24,0.47098568081855774,0.21083661913871765
4,4,128,25,0.6753464937210083,0.17689818143844604
4,4,128,26,0.6616111993789673,0.30843386054039
4,4,128,27,0.7024057507514954,0.295491099357605
4,4,128,28,0.6434046626091003,0.20705655217170715
4,4,128,29,0.5024904608726501,0.19183997809886932
4,4,128,30,0.6748910546302795,0.1240013986825943
4,4,128,31,0.4297025799751282,0.1365528702735901
4,4,128,32,0.3568740785121918,0.16395345330238342
4,4,128,33,0.4336243271827698,0.11002461612224579
4,4,128,34,0.806050717830658,0.08139300346374512
4,4,128,35,0.7741036415100098,0.23230184614658356
4,4,128,36,0.6152021884918213,0.09344511479139328
4,4,128,37,0.6681835055351257,0.22203677892684937
4,4,128,38,0.6593402624130249,0.22304265201091766
4,4,128,39,0.4482133090496063,0.1929909586906433
4,4,128,40,0.6534704566001892,0.15566568076610565
4,4,128,41,0.5720304846763611,0.16652490198612213
4,4,128,42,0.4152293801307678,0.19519765675067902
4,4,128,43,0.6658002138137817,0.2011796236038208
4,4,128,44,0.43444913625717163,0.29614701867103577
4,4,128,45,0.536392092704773,0.22386988997459412
4,4,128,46,0.5032722353935242,0.1689983606338501
4,4,128,47,0.6638773679733276,0.09777985513210297
4,4,128,48,0.5596970319747925,0.21719495952129364
4,4,128,49,0.5712623596191406,0.19542130827903748
4,4,128,50,0.3910757303237915,0.2033737152814865
4,4,128,51,0.5929763913154602,0.22563670575618744
4,4,128,52,0.8174629211425781,0.11821528524160385
4,4,128,53,0.5809669494628906,0.13735823333263397
4,4,128,54,0.6880887150764465,0.1437576711177826
4,4,128,55,0.6218174695968628,0.11555454134941101
4,4,128,56,0.4704626500606537,0.10024041682481766
4,4,128,57,0.3877071440219879,0.13238421082496643
4,4,128,58,0.6029641628265381,0.08600176870822906
4,4,128,59,0.34264346957206726,0.22283324599266052
4,4,128,60,0.7027902603149414,0.3286627531051636
4,4,128,61,0.2423655241727829,0.06516813486814499
4,4,128,62,0.396060049533844,0.19886325299739838
4,4,128,63,0.6253882646560669,0.10306281596422195
4,4,128,64,0.3401956558227539,0.3204984664916992
4,4,128,65,0.5310419797897339,0.18731634318828583
4,4,128,66,0.5411502718925476,0.22509115934371948
4,4,128,67,0.5280411243438721,0.05432842671871185
4,4,128,68,0.698760986328125,0.16584427654743195
4,4,128,69,0.7249792814254761,0.08266107738018036
4,4,128,70,0.6471550464630127,0.13051480054855347
4,4,128,71,0.5962479710578918,0.2124689668416977
4,4,128,72,0.3919028341770172,0.08270423114299774
4,4,128,73,0.6458583474159241,0.14956030249595642
4,4,128,74,0.27645421028137207,0.22614668309688568
4,4,128,75,0.6621481776237488,0.15055827796459198
4,4,128,76,0.51392662525177,0.18393586575984955
4,4,128,77,0.6314265131950378,0.17016707360744476
4,4,128,78,0.7443400621414185,0.14053045213222504
4,4,128,79,0.6292152404785156,0.1080482229590416
4,4,128,80,0.5959436893463135,0.1800670027732849
4,4,128,81,0.5437591671943665,0.07469727843999863
4,4,128,82,0.6836989521980286,0.22772151231765747
4,4,128,83,0.5736017823219299,0.18619024753570557
4,4,128,84,0.6503611207008362,0.1950501799583435
4,4,128,85,0.6912348866462708,0.31628140807151794
4,4,128,86,0.6087256073951721,0.17116402089595795
4,4,128,87,0.49794813990592957,0.2606392502784729
4,4,128,88,0.3898770213127136,0.1703912913799286
4,4,128,89,0.7049581408500671,0.10735473036766052
4,4,128,90,0.30537930130958557,0.09767307341098785
4,4,128,91,0.6518381237983704,0.17237317562103271
4,4,128,92,0.39398324489593506,0.2555556893348694
4,4,128,93,0.3387894630432129,0.19474327564239502
4,4,128,94,0.5695686936378479,0.14958059787750244
4,4,128,95,0.7354890704154968,0.11288859695196152
4,4,128,96,0.7434203028678894,0.07992085814476013
4,4,128,97,0.7463276386260986,0.08370711654424667
4,4,128,98,0.7118508219718933,0.2497759312391281
4,4,128,99,0.28968966007232666,0.1814156472682953
4,4,128,100,0.5246384143829346,0.11161307990550995
4,4,128,101,0.7723898887634277,0.1819746494293213
4,4,128,102,0.38194695115089417,0.10315708816051483
4,4,128,103,0.45879727602005005,0.13466918468475342
4,4,128,104,0.4577752947807312,0.1818365603685379
4,4,128,105,0.6769447922706604,0.12381251156330109
4,4,128,106,0.4562036395072937,0.2262200564146042
4,4,128,107,0.6975015997886658,0.20138999819755554
4,4,128,108,0.3722724914550781,0.19718964397907257
4,4,128,109,0.6251698136329651,0.1450536847114563
4,4,128,110,0.6116012930870056,0.23729686439037323
4,4,128,111,0.42281392216682434,0.2411564439535141
4,4,128,112,0.629616379737854,0.1303524225950241
4,4,128,113,0.40329456329345703,0.14863483607769012
4,4,128,114,0.6316799521446228,0.07773218303918839
4,4,128,115,0.5227991342544556,0.22076362371444702
4,4,128,116,0.46769434213638306,0.26417097449302673
4,4,128,117,0.6767321228981018,0.23887911438941956
4,4,128,118,0.4248373210430145,0.21924765408039093
4,4,128,119,0.5042521953582764,0.20500582456588745
4,4,128,120,0.5342080593109131,0.1342354565858841
4,4,128,121,0.4730428159236908,0.25061750411987305
4,4,128,122,0.7247859835624695,0.17707806825637817
4,4,128,123,0.4375320374965668,0.11297401785850525
4,4,128,124,0.7010584473609924,0.2164989411830902
4,4,128,125,0.6172997355461121,0.1279699206352234
4,4,128,126,0.6491166353225708,0.08026927709579468
4,4,128,127,0.6309880018234253,0.24195492267608643
4,5,128,0,0.5935868620872498,0.07620978355407715
4,5,128,1,0.4335139989852905,0.3096882402896881
4,5,128,2,0.7366088628768921,0.197362020611763
4,5,128,3,0.3652585744857788,0.3221062123775482
4,5,128,4,0.8080869317054749,0.21783478558063507
4,5,128,5,0.6563283801078796,0.14802773296833038
4,5,128,6,0.7864246368408203,0.1514199823141098
4,5,128,7,0.7569712400436401,0.09223096072673798
4,5,128,8,0.658367931842804,0.2452392578125
4,5,128,9,0.5502809286117554,0.1580032855272293
4,5,128,10,0.49222317337989807,0.2323465794324875
4,5,128,11,0.6916433572769165,0.25413253903388977
4,5,128,12,0.7859870791435242,0.2547578513622284
4,5,128,13,0.8179247975349426,0.13360153138637543
4,5,128,14,0.9142024517059326,0.06288374215364456
4,5,128,15,0.8218347430229187,0.09553028643131256
4,5,128,16,0.8020496368408203,0.18037369847297668
4,5,128,17,0.8033867478370667,0.1641223281621933
4,5,128,18,0.6672891974449158,0.2285505086183548
4,5,128,19,0.5668298602104187,0.19021910429000854
4,5,128,20,0.7592829465866089,0.18799591064453125
4,5,128,21,0.8567342162132263,0.0628465861082077
4,5,128,22,0.5647955536842346,0.07693298906087875
4,5,128,23,0.786180317401886,0.211622953414917
4,5,128,24,0.8568503856658936,0.10477355867624283
4,5,128,25,0.8263064622879028,0.1198640838265419
4,5,128,26,0.8189575672149658,0.13009795546531677
4,5,128,27,0.8628942370414734,0.06950853019952774
4,5,128,28,0.8063411712646484,0.07979195564985275
4,5,128,29,0.7794675230979919,0.12534569203853607
4,5,128,30,0.8194540143013,0.09506922215223312
4,5,128,31,0.6917338371276855,0.23532162606716156
4,5,128,32,0.7145197987556458,0.12773998081684113
4,5,128,33,0.6197512149810791,0.22691065073013306
4,5,128,34,0.8000633120536804,0.10170769691467285
4,5,128,35,0.8298785090446472,0.10179015249013901
4,5,128,36,0.7285003662109375,0.19505338370800018
4,5,128,37,0.8270341157913208,0.07350490242242813
4,5,128,38,0.8405991792678833,0.08999655395746231
4,5,128,39,0.6387336850166321,0.2241760939359665
4,5,128,40,0.7659027576446533,0.17415520548820496
4,5,128,41,0.8015045523643494,0.11350280791521072
4,5,128,42,0.7154142260551453,0.1507095992565155
4,5,128,43,0.7451686859130859,0.17129077017307281
4,5,128,44,0.8222618103027344,0.08366917818784714
4,5,128,45,0.8814874887466431,0.060353972017765045
4,5,128,46,0.7210280299186707,0.2420068383216858
4,5,128,47,0.7217159271240234,0.27539190649986267
4,5,128,48,0.5468080639839172,0.23888036608695984
4,5,128,49,0.6523752808570862,0.1244242861866951
4,5,128,50,0.7756050229072571,0.09886559844017029
4,5,128,51,0.6883155107498169,0.24896034598350525
4,5,128,52,0.8342976570129395,0.140932098031044
4,5,128,53,0.794838011264801,0.20541559159755707
4,5,128,54,0.8033368587493896,0.14244858920574188
4,5,128,55,0.6788221001625061,0.2468603104352951
4,5,128,56,0.5917717218399048,0.22699478268623352
4,5,128,57,0.6580008864402771,0.3266475796699524
4,5,128,58,0.8475980162620544,0.1073916032910347
4,5,128,59,0.7676764130592346,0.06047084555029869
4,5,128,60,0.8144680261611938,0.19116218388080597
4,5,128,61,0.5856776833534241,0.20849646627902985
4,5,128,62,0.8639756441116333,0.07297805696725845
4,5,128,63,0.5633333325386047,0.17287810146808624
4,5,128,64,0.7602626085281372,0.14923597872257233
4,5,128,65,0.44446441531181335,0.3575453758239746
4,5,128,66,0.866804301738739,0.058040518313646317
4,5,128,67,0.8122596740722656,0.0796421691775322
4,5,128,68,0.6249186992645264,0.20968881249427795
4,5,128,69,0.8566256761550903,0.06896467506885529
4,5,128,70,0.641650915145874,0.17325836420059204
4,5,128,71,0.627373456954956,0.2542116045951843
4,5,128,72,0.599261999130249,0.16115453839302063
4,5,128,73,0.727064311504364,0.23628951609134674
4,5,128,74,0.5899828672409058,0.23987121880054474
4,5,128,75,0.8102323412895203,0.10496237128973007
4,5,128,76,0.7992478013038635,0.20150025188922882
4,5,128,77,0.44833722710609436,0.34693023562431335
4,5,128,78,0.7740901708602905,0.13471122086048126
4,5,128,79,0.7071915864944458,0.11768953502178192
4,5,128,80,0.645257830619812,0.2888389229774475
4,5,128,81,0.759178638458252,0.1852492392063141
4,5,128,82,0.761447548866272,0.18298201262950897
4,5,128,83,0.8081094026565552,0.18733175098896027
4,5,128,84,0.8686825037002563,0.09997043758630753
4,5,128,85,0.8792929649353027,0.10833767056465149
4,5,128,86,0.8033788204193115,0.13794200122356415
4,5,128,87,0.8320451378822327,0.11577724665403366
4,5,128,88,0.8233866691589355,0.0847255066037178
4,5,128,89,0.6618765592575073,0.1163632795214653
4,5,128,90,0.5392386317253113,0.2056119590997696
4,5,128,91,0.8581415414810181,0.08063150942325592
4,5,128,92,0.6356338262557983,0.2539553642272949
4,5,128,93,0.843432605266571,0.09644876420497894
4,5,128,94,0.7111942768096924,0.16181878745555878
4,5,128,95,0.8027538657188416,0.13388919830322266
4,5,128,96,0.8365346789360046,0.0788009762763977
4,5,128,97,0.7958860993385315,0.08079394698143005
4,5,128,98,0.8946897387504578,0.05815306678414345
4,5,128,99,0.6808302402496338,0.12371692806482315
4,5,128,100,0.7277559638023376,0.2939585745334625
4,5,128,101,0.8616213202476501,0.083479143679142
4,5,128,102,0.726706862449646,0.15621891617774963
4,5,128,103,0.8765231370925903,0.06006598100066185
4,5,128,104,0.7114336490631104,0.14612312614917755
4,5,128,105,0.6921163201332092,0.35037338733673096
4,5,128,106,0.5262601971626282,0.23206789791584015
4,5,128,107,0.7568519711494446,0.17153209447860718
4,5,128,108,0.8398687839508057,0.06669691205024719
4,5,128,109,0.6850892305374146,0.21176785230636597
4,5,128,110,0.7433793544769287,0.2586110532283783
4,5,128,111,0.7152984738349915,0.16343678534030914
4,5,128,112,0.8128265738487244,0.16747140884399414
4,5,128,113,0.8379544615745544,0.09550780802965164
4,5,128,114,0.7420418858528137,0.26776260137557983
4,5,128,115,0.5443658828735352,0.24384139478206635
4,5,128,116,0.7110009789466858,0.17745086550712585
4,5,128,117,0.895275354385376,0.08097564429044724
4,5,128,118,0.5507328510284424,0.21676774322986603
4,5,128,119,0.5698893666267395,0.28583306074142456
4,5,128,120,0.8418020009994507,0.07557065039873123
4,5,128,121,0.4690914452075958,0.39108702540397644
4,5,128,122,0.859670102596283,0.06944060325622559
4,5,128,123,0.7251735925674438,0.24948541820049286
4,5,128,124,0.7250219583511353,0.24326267838478088
4,5,128,125,0.6056477427482605,0.1262897402048111
4,5,128,126,0.7567132115364075,0.12421967834234238
4,5,128,127,0.6223654747009277,0.22733889520168304
5,0,32,0,0.5615940690040588,0.09445402026176453
5,0,32,1,0.4760177433490753,0.059011053293943405
5,0,32,2,0.5579557418823242,0.053287800401449203
5,0,32,3,0.33085718750953674,0.1254768818616867
5,0,32,4,0.3342120051383972,0.06011394411325455
5,0,32,5,0.33625075221061707,0.10950302332639694
5,0,32,6,0.40458956360816956,0.044599343091249466
5,0,32,7,0.47139760851860046,0.1937790960073471
5,0,32,8,0.5549976825714111,0.03034042939543724
5,0,32,9,0.5527263283729553,0.07591044157743454
5,0,32,10,0.395639032125473,0.084697425365448
5,0,32,11,0.6241530776023865,0.05629095807671547
5,0,32,12,0.6079548001289368,0.08568168431520462
5,0,32,13,0.5194054841995239,0.13525208830833435
5,0,32,14,0.49633651971817017,0.06114153191447258
5,0,32,15,0.4228176772594452,0.10124962031841278
5,0,32,16,0.4162018895149231,0.11264511197805405
5,0,32,17,0.5057436227798462,0.0750357136130333
5,0,32,18,0.41008660197257996,0.11487135291099548
5,0,32,19,0.3035806715488434,0.10011933743953705
5,0,32,20,0.44844573736190796,0.07449895888566971
5,0,32,21,0.44209665060043335,0.1126227155327797
5,0,32,22,0.382077157497406,0.07874113321304321
5,0,32,23,0.5664243698120117,0.103178009390831
5,0,32,24,0.671985924243927,0.06640661507844925
5,0,32,25,0.5516574382781982,0.11820963025093079
5,0,32,26,0.45465561747550964,0.08244915306568146
5,0,32,27,0.39890533685684204,0.10521901398897171
5,0,32,28,0.6540931463241577,0.0897548496723175
5,0,32,29,0.4839424192905426,0.04937173053622246
5,0,32,30,0.3215189576148987,0.09953828901052475
5,0,32,31,0.3623746931552887,0.11232036352157593
5,1,32,0,0.479574054479599,0.11728636175394058
5,1,32,1,0.5343876481056213,0.05257757380604744
5,1,32,2,0.4606159031391144,0.0653805211186409
5,1,32,3,0.42080774903297424,0.10604692250490189
5,1,32,4,0.5887007117271423,0.1575310081243515
5,1,32,5,0.3286580741405487,0.06862830370664597
5,1,32,6,0.583145797252655,0.0473964549601078
5,1,32,7,0.5735659599304199,0.15544940531253815
5,1,32,8,0.6742026209831238,0.0314854271709919
5,1,32,9,0.4690163731575012,0.06756851822137833
5,1,32,10,0.4974134564399719,0.08505109697580338
5,1,32,11,0.6458796858787537,0.1297374665737152
5,1,32,12,0.4229338765144348,0.1026892438530922
5,1,32,13,0.6187560558319092,0.06558968871831894
5,1,32,14,0.45266008377075195,0.11719559133052826
5,1,32,15,0.6677408218383789,0.14911240339279175
5,1,32,16,0.5133419036865234,0.08430790156126022
5,1,32,17,0.3690672516822815,0.12306497991085052
5,1,32,18,0.4848366379737854,0.18907831609249115
5,1,32,19,0.46788275241851807,0.13570885360240936
5,1,32,20,0.6515728831291199,0.12982220947742462
5,1,32,21,0.6037170886993408,0.04962589219212532
5,1,32,22,0.36744236946105957,0.07802830636501312
5,1,32,23,0.5286110639572144,0.1357193887233734
5,1,32,24,0.3503139913082123,0.08473406732082367
5,1,32,25,0.5796584486961365,0.05735614895820618
5,1,32,26,0.3970332145690918,0.12046457082033157
5,1,32,27,0.53453528881073,0.08332463353872299
5,1,32,28,0.47517213225364685,0.09427221864461899
5,1,32,29,0.5459136366844177,0.1452091783285141
5,1,32,30,0.4442022144794464,0.1730547696352005
5,1,32,31,0.6397542953491211,0.08612249791622162
5,2,64,0,0.5340471863746643,0.26163336634635925
5,2,64,1,0.40913188457489014,0.21239334344863892
5,2,64,2,0.532447099685669,0.24872255325317383
5,2,64,3,0.5519428849220276,0.19813691079616547
5,2,64,4,0.5059784054756165,0.12226615101099014
5,2,64,5,0.5947257876396179,0.17887525260448456
5,2,64,6,0.4707149267196655,0.13954071700572968
5,2,64,7,0.309369832277298,0.17287291586399078
5,2,64,8,0.5654624700546265,0.2662643492221832
5,2,64,9,0.48587965965270996,0.1947452872991562
5,2,64,10,0.5346804261207581,0.29086169600486755
5,2,64,11,0.3417517840862274,0.15154406428337097
5,2,64,12,0.606377363204956,0.15026962757110596
5,2,64,13,0.25495582818984985,0.09910854697227478
5,2,64,14,0.5138633251190186,0.15855105221271515
5,2,64,15,0.4020332396030426,0.11235400289297104
5,2,64,16,0.4493372440338135,0.11640336364507675
5,2,64,17,0.41349491477012634,0.24548229575157166
5,2,64,18,0.5498164892196655,0.2463914453983307
5,2,64,19,0.41094350814819336,0.10098497569561005
5,2,64,20,0.535618007183075,0.11366927623748779
5,2,64,21,0.5629141330718994,0.10704059898853302
5,2,64,22,0.5351464748382568,0.13111956417560577
5,2,64,23,0.3889293372631073,0.15441790223121643
5,2,64,24,0.3191542625427246,0.11344794183969498
5,2,64,25,0.5520446300506592,0.08889228105545044
5,2,64,26,0.6489136815071106,0.11559179425239563
5,2,64,27,0.5738353133201599,0.17897671461105347
5,2,64,28,0.4700680375099182,0.1810266524553299
5,2,64,29,0.37123823165893555,0.2146805375814438
5,2,64,30,0.39680731296539307,0.09837395697832108
5,2,64,31,0.639971137046814,0.1693842113018036
5,2,64,32,0.523409903049469,0.19837787747383118
5,2,64,33,0.5001598000526428,0.1735537052154541
5,2,64,34,0.5823198556900024,0.13619965314865112
5,2,64,35,0.5887186527252197,0.09163779765367508
5,2,64,36,0.5066986083984375,0.18095917999744415
5,2,64,37,0.5226386189460754,0.11538255214691162
5,2,64,38,0.512671172618866,0.20709587633609772
5,2,64,39,0.3817211091518402,0.13283580541610718
5,2,64,40,0.5553234815597534,0.16737699508666992
5,2,64,41,0.42625313997268677,0.12574835121631622
5,2,64,42,0.5973860621452332,0.10120696574449539
5,2,64,43,0.5395205616950989,0.21216247975826263
5,2,64,44,0.6226406693458557,0.14920775592327118
5,2,64,45,0.4744583070278168,0.22610744833946228
5,2,64,46,0.5971227884292603,0.24923017621040344
5,2,64,47,0.5183396935462952,0.10535597056150436
5,2,64,48,0.5256294012069702,0.12041959911584854
5,2,64,49,0.5123171806335449,0.11731595546007156
5,2,64,50,0.6086041331291199,0.10073769837617874
5,2,64,51,0.6004261374473572,0.11835715919733047
5,2,64,52,0.4673178195953369,0.16042695939540863
5,2,64,53,0.5089420676231384,0.179924875497818
5,2,64,54,0.6029289960861206,0.16127020120620728
5,2,64,55,0.5618191957473755,0.1252993792295456
5,2,64,56,0.5307026505470276,0.1504141092300415
5,2,64,57,0.5049148797988892,0.08528699725866318
5,2,64,58,0.5385685563087463,0.11283927410840988
5,2,64,59,0.6434163451194763,0.17487725615501404
5,2,64,60,0.4775407910346985,0.2527468502521515
5,2,64,61,0.4963197410106659,0.2735523581504822
5,2,64,62,0.4835466146469116,0.10446370393037796
5,2,64,63,0.4278325140476227,0.15600457787513733
5,3,64,0,0.44761621952056885,0.055719029158353806
5,3,64,1,0.553144097328186,0.08124667406082153
5,3,64,2,0.760063886642456,0.12847435474395752
5,3,64,3,0.5419566631317139,0.28251901268959045
5,3,64,4,0.3894173204898834,0.12799589335918427
5,3,64,5,0.4211924970149994,0.18010474741458893
5,3,64,6,0.41928592324256897,0.1436832696199417
5,3,64,7,0.23704075813293457,0.09004372358322144
5,3,64,8,0.6037887334823608,0.07928969711065292
5,3,64,9,0.5086351037025452,0.19013366103172302
5,3,64,10,0.5272089838981628,0.2446022778749466
5,3,64,11,0.5153903961181641,0.2808898687362671
5,3,64,12,0.4873234033584595,0.09215252101421356
5,3,64,13,0.4982840418815613,0.20511838793754578
5,3,64,14,0.4859686493873596,0.22907695174217224
5,3,64,15,0.5414838790893555,0.12451814115047455
5,3,64,16,0.5157455801963806,0.06684423983097076
5,3,64,17,0.5080811381340027,0.08751248568296432
5,3,64,18,0.5787101984024048,0.14120204746723175
5,3,64,19,0.41251611709594727,0.09449990093708038
5,3,64,20,0.47388339042663574,0.18275505304336548
5,3,64,21,0.47785720229148865,0.1565842479467392
5,3,64,22,0.4859369993209839,0.16972173750400543
5,3,64,23,0.6935271620750427,0.0435054637491703
5,3,64,24,0.6147955060005188,0.1769755780696869
5,3,64,25,0.5589706301689148,0.09544222801923752
5,3,64,26,0.6098966598510742,0.143522709608078
5,3,64,27,0.7099340558052063,0.13275235891342163
5,3,64,28,0.5774933099746704,0.08445847779512405
5,3,64,29,0.5357646346092224,0.15408195555210114
5,3,64,30,0.44590070843696594,0.18270115554332733
5,3,64,31,0.5383098721504211,0.2512410879135132
5,3,64,32,0.4756242632865906,0.10478843003511429
5,3,64,33,0.5229341983795166,0.15355752408504486
5,3,64,34,0.5327132940292358,0.1871507167816162
5,3,64,35,0.47077181935310364,0.057707346975803375
5,3,64,36,0.6039901971817017,0.11872956901788712
5,3,64,37,0.5889797806739807,0.15492965281009674
5,3,64,38,0.5608507394790649,0.07096301019191742
5,3,64,39,0.6318790316581726,0.13070210814476013
5,3,64,40,0.6101487874984741,0.21675585210323334
5,3,64,41,0.6283774375915527,0.11901368200778961
5,3,64,42,0.3744553029537201,0.12377651035785675
5,3,64,43,0.4045217037200928,0.21383139491081238
5,3,64,44,0.5413689613342285,0.16238346695899963
5,3,64,45,0.5205389857292175,0.04040028527379036
5,3,64,46,0.5669329762458801,0.04742887243628502
5,3,64,47,0.5318036079406738,0.07375113666057587
5,3,64,48,0.48718464374542236,0.10316428542137146
5,3,64,49,0.4798807203769684,0.07035638391971588
5,3,64,50,0.5667133331298828,0.09583137184381485
5,3,64,51,0.4130595028400421,0.20689721405506134
5,3,64,52,0.396491140127182,0.2392248511314392
5,3,64,53,0.4569501578807831,0.24152179062366486
5,3,64,54,0.31070247292518616,0.12489330023527145
5,3,64,55,0.47386062145233154,0.03934035077691078
5,3,64,56,0.5604003071784973,0.08107058703899384
5,3,64,57,0.4588581323623657,0.1218956857919693
5,3,64,58,0.5666160583496094,0.22178539633750916
5,3,64,59,0.642054557800293,0.1350579559803009
5,3,64,60,0.5519053339958191,0.12735626101493835
5,3,64,61,0.44785749912261963,0.03479117155075073
5,3,64,62,0.521169900894165,0.03349507600069046
5,3,64,63,0.6192898750305176,0.0950704887509346
5,4,128,0,0.49546417593955994,0.2102004885673523
5,4,128,1,0.48755696415901184,0.13472814857959747
5,4,128,2,0.278909832239151,0.10924075543880463
5,4,128,3,0.49126413464546204,0.20437951385974884
5,4,128,4,0.4969220459461212,0.14310283958911896
5,4,128,5,0.6641860604286194,0.09530948847532272
5,4,128,6,0.5658689737319946,0.2664988934993744
5,4,128,7,0.7432225346565247,0.13301235437393188
5,4,128,8,0.4478076100349426,0.14043140411376953
5,4,128,9,0.47257158160209656,0.31053870916366577
5,4,128,10,0.43949365615844727,0.18186978995800018
5,4,128,11,0.5967308282852173,0.13301849365234375
5,4,128,12,0.6431319117546082,0.10154513269662857
5,4,128,13,0.4065563678741455,0.28166434168815613
5,4,128,14,0.6505926847457886,0.24443984031677246
5,4,128,15,0.6983954906463623,0.20286166667938232
5,4,128,16,0.5225227475166321,0.16810362040996552
5,4,128,17,0.6416491866111755,0.18202358484268188
5,4,128,18,0.4938413202762604,0.26295557618141174
5,4,128,19,0.6033512949943542,0.290657639503479
5,4,128,20,0.632027804851532,0.1730320155620575
5,4,128,21,0.6816070079803467,0.2301263064146042
5,4,128,22,0.6749745607376099,0.13810758292675018
5,4,128,23,0.6898112297058105,0.20574887096881866
5,4,128,24,0.4289240837097168,0.29658982157707214
5,4,128,25,0.640125036239624,0.1861390471458435
5,4,128,26,0.6045438051223755,0.2144341617822647
5,4,128,27,0.5821724534034729,0.2923278212547302
5,4,128,28,0.5019733905792236,0.12634862959384918
5,4,128,29,0.6731957793235779,0.1504351943731308
5,4,128,30,0.6896814703941345,0.1108550950884819
5,4,128,31,0.48167040944099426,0.2284134477376938
5,4,128,32,0.3593592345714569,0.22225481271743774
5,4,128,33,0.4113447964191437,0.2052089422941208
5,4,128,34,0.7885822653770447,0.09208163619041443
5,4,128,35,0.7588232755661011,0.2217252105474472
5,4,128,36,0.6456637978553772,0.07549932599067688
5,4,128,37,0.5495814681053162,0.21891407668590546
5,4,128,38,0.6421524882316589,0.17348676919937134
5,4,128,39,0.5937908887863159,0.15665341913700104
5,4,128,40,0.5758892893791199,0.23221668601036072
5,4,128,41,0.521583080291748,0.1825694888830185
5,4,128,42,0.5798219442367554,0.18472373485565186
5,4,128,43,0.5552862286567688,0.2792658507823944
5,4,128,44,0.4618080258369446,0.31472980976104736
5,4,128,45,0.6412181258201599,0.2046019732952118
5,4,128,46,0.29981982707977295,0.1387973576784134
5,4,128,47,0.7465735673904419,0.08498068153858185
5,4,128,48,0.6673962473869324,0.2077288031578064
5,4,128,49,0.4007377028465271,0.29116755723953247
5,4,128,50,0.6245378255844116,0.19118401408195496
5,4,128,51,0.5592545866966248,0.2971441149711609
5,4,128,52,0.7279695868492126,0.20400042831897736
5,4,128,53,0.2717738449573517,0.1012156531214714
5,4,128,54,0.5236907601356506,0.204879492521286
5,4,128,55,0.6233343482017517,0.17742718756198883
5,4,128,56,0.5194364786148071,0.14269623160362244
5,4,128,57,0.5485291481018066,0.20287184417247772
5,4,128,58,0.7025564312934875,0.13980349898338318
5,4,128,59,0.47156262397766113,0.23740112781524658
5,4,128,60,0.6606376767158508,0.32100147008895874
5,4,128,61,0.41235968470573425,0.11841194331645966
5,4,128,62,0.5822548270225525,0.15657491981983185
5,4,128,63,0.6993721127510071,0.14258529245853424
5,4,128,64,0.474481999874115,0.31075194478034973
5,4,128,65,0.2967916429042816,0.0837559625506401
5,4,128,66,0.6440556049346924,0.16436585783958435
5,4,128,67,0.5063493251800537,0.22046230733394623
5,4,128,68,0.5907176733016968,0.1935701221227646
5,4,128,69,0.8221140503883362,0.10017511993646622
5,4,128,70,0.6894310712814331,0.10147640109062195
5,4,128,71,0.6127018928527832,0.2221648246049881
5,4,128,72,0.46540966629981995,0.22588038444519043
5,4,128,73,0.6392453908920288,0.16642972826957703
5,4,128,74,0.5518041253089905,0.1654936671257019
5,4,128,75,0.6318609714508057,0.17240220308303833
5,4,128,76,0.43457621335983276,0.2663023769855499
5,4,128,77,0.5538655519485474,0.18828734755516052
5,4,128,78,0.7372747659683228,0.09810495376586914
5,4,128,79,0.69059157371521,0.0880572721362114
5,4,128,80,0.5432313680648804,0.2133045196533203
5,4,128,81,0.6486794352531433,0.18074877560138702
5,4,128,82,0.6749930381774902,0.15769857168197632
5,4,128,83,0.6820425391197205,0.08655354380607605
5,4,128,84,0.6046015620231628,0.23807890713214874
5,4,128,85,0.6576215624809265,0.32803067564964294
5,4,128,86,0.6904162168502808,0.13325920701026917
5,4,128,87,0.6700192093849182,0.19342799484729767
5,4,128,88,0.6350492835044861,0.14347854256629944
5,4,128,89,0.5431553721427917,0.24523237347602844
5,4,128,90,0.47242051362991333,0.21346943080425262
5,4,128,91,0.7155303359031677,0.11697091907262802
5,4,128,92,0.41217803955078125,0.26277080178260803
5,4,128,93,0.558767557144165,0.1429326981306076
5,4,128,94,0.3448207378387451,0.2580333650112152
5,4,128,95,0.6021184325218201,0.11971882730722427
5,4,128,96,0.5808636546134949,0.22782427072525024
5,4,128,97,0.6940363049507141,0.1254616230726242
5,4,128,98,0.6479729413986206,0.2584986686706543
5,4,128,99,0.4154019057750702,0.2210337519645691
5,4,128,100,0.6650866270065308,0.20663957297801971
5,4,128,101,0.8671457171440125,0.05923987552523613
5,4,128,102,0.41528767347335815,0.18308673799037933
5,4,128,103,0.37844792008399963,0.09349425137042999
5,4,128,104,0.445389062166214,0.22986851632595062
5,4,128,105,0.6002781987190247,0.14629654586315155
5,4,128,106,0.45329198241233826,0.21401681005954742
5,4,128,107,0.6586187481880188,0.26449739933013916
5,4,128,108,0.446786493062973,0.16669505834579468
5,4,128,109,0.5586186051368713,0.0967903658747673
5,4,128,110,0.5344387292861938,0.32348668575286865
5,4,128,111,0.39018306136131287,0.21528229117393494
5,4,128,112,0.6014751195907593,0.24421626329421997
5,4,128,113,0.4425842761993408,0.1906386762857437
5,4,128,114,0.6025792956352234,0.1352759748697281
5,4,128,115,0.431870698928833,0.272705078125
5,4,128,116,0.5645869970321655,0.2743941843509674
5,4,128,117,0.6482918858528137,0.29418858885765076
5,4,128,118,0.4338218569755554,0.2651713788509369
5,4,128,119,0.38462358713150024,0.1728031039237976
5,4,128,120,0.6981324553489685,0.28222620487213135
5,4,128,121,0.6289352774620056,0.31084001064300537
5,4,128,122,0.7142060995101929,0.22078591585159302
5,4,128,123,0.6084480881690979,0.2443227469921112
5,4,128,124,0.7295094132423401,0.09829414635896683
5,4,128,125,0.637640655040741,0.24791555106639862
5,4,128,126,0.5661269426345825,0.25063273310661316
5,4,128,127,0.616519570350647,0.24882924556732178
5,5,128,0,0.515762984752655,0.21201445162296295
5,5,128,1,0.623548150062561,0.1966063678264618
5,5,128,2,0.8200637102127075,0.09414287656545639
5,5,128,3,0.3065430223941803,0.30573755502700806
5,5,128,4,0.7684556245803833,0.22795447707176208
5,5,128,5,0.8098363280296326,0.21567599475383759
5,5,128,6,0.7126864790916443,0.1787744015455246
5,5,128,7,0.8138315677642822,0.08983052521944046
5,5,128,8,0.5114820003509521,0.22502334415912628
5,5,128,9,0.6571130752563477,0.1684289574623108
5,5,128,10,0.6490991711616516,0.16914357244968414
5,5,128,11,0.7231335043907166,0.2602403163909912
5,5,128,12,0.7915270924568176,0.16055075824260712
5,5,128,13,0.878261387348175,0.07999998331069946
5,5,128,14,0.8560928106307983,0.09986095875501633
5,5,128,15,0.5385597348213196,0.22227780520915985
5,5,128,16,0.8172940015792847,0.1099681481719017
5,5,128,17,0.6471600532531738,0.1660536825656891
5,5,128,18,0.5509034991264343,0.2922705113887787
5,5,128,19,0.6779562830924988,0.11740616708993912
5,5,128,20,0.71379554271698,0.20141945779323578
5,5,128,21,0.7782453894615173,0.1796722412109375
5,5,128,22,0.7175090312957764,0.10343043506145477
5,5,128,23,0.7381240725517273,0.20797094702720642
5,5,128,24,0.7735685110092163,0.1347699910402298
5,5,128,25,0.8379825353622437,0.11416492611169815
5,5,128,26,0.7128309607505798,0.21483400464057922
5,5,128,27,0.8459285497665405,0.11529765278100967
5,5,128,28,0.7883557081222534,0.14174982905387878
5,5,128,29,0.7040929198265076,0.23709172010421753
5,5,128,30,0.7180763483047485,0.20574569702148438
5,5,128,31,0.6744608879089355,0.22740550339221954
5,5,128,32,0.6691218018531799,0.25391140580177307
5,5,128,33,0.6135264039039612,0.0932241678237915
5,5,128,34,0.7935495376586914,0.09182903915643692
5,5,128,35,0.7543449401855469,0.24524283409118652
5,5,128,36,0.7817294001579285,0.11409049481153488
5,5,128,37,0.8158202767372131,0.10466413199901581
5,5,128,38,0.7751368284225464,0.1050124391913414
5,5,128,39,0.6244744658470154,0.25564059615135193
5,5,128,40,0.6933948993682861,0.22213950753211975
5,5,128,41,0.7504788637161255,0.20609073340892792
5,5,128,42,0.6693686842918396,0.15616454184055328
5,5,128,43,0.8180418014526367,0.11159881204366684
5,5,128,44,0.7659998536109924,0.12410339713096619
5,5,128,45,0.8521614074707031,0.0792464017868042
5,5,128,46,0.6929733157157898,0.2282310277223587
5,5,128,47,0.7397788763046265,0.2357824742794037
5,5,128,48,0.5354564189910889,0.2595715820789337
5,5,128,49,0.6068120002746582,0.2119111269712448
5,5,128,50,0.8057780265808105,0.12161439657211304
5,5,128,51,0.6104434728622437,0.3237331807613373
5,5,128,52,0.8136307001113892,0.10323818773031235
5,5,128,53,0.7838610410690308,0.1580590158700943
5,5,128,54,0.7803239822387695,0.12911318242549896
5,5,128,55,0.644914448261261,0.2301870733499527
5,5,128,56,0.6137727499008179,0.16966257989406586
5,5,128,57,0.7738012075424194,0.15038424730300903
5,5,128,58,0.7681287527084351,0.12971946597099304
5,5,128,59,0.7334463596343994,0.11166051030158997
5,5,128,60,0.8627756237983704,0.10385170578956604
5,5,128,61,0.7375096678733826,0.21745899319648743
5,5,128,62,0.8571333289146423,0.0828443393111229
5,5,128,63,0.7281734943389893,0.14508622884750366
5,5,128,64,0.8156112432479858,0.10673840343952179
5,5,128,65,0.4577811360359192,0.3532114624977112
5,5,128,66,0.7209182381629944,0.15101692080497742
5,5,128,67,0.811238169670105,0.09007543325424194
5,5,128,68,0.673492968082428,0.20856264233589172
5,5,128,69,0.8030237555503845,0.10295015573501587
5,5,128,70,0.4270300269126892,0.24814464151859283
5,5,128,71,0.6059651970863342,0.12387355417013168
5,5,128,72,0.7460359334945679,0.13781218230724335
5,5,128,73,0.6506894826889038,0.24567651748657227
5,5,128,74,0.6354851722717285,0.17788253724575043
5,5,128,75,0.7220642566680908,0.14393773674964905
5,5,128,76,0.8612512946128845,0.10716316103935242
5,5,128,77,0.47520148754119873,0.26279065012931824
5,5,128,78,0.5216598510742188,0.23541629314422607
5,5,128,79,0.4308996796607971,0.3138556182384491
5,5,128,80,0.6939781904220581,0.2023010104894638
5,5,128,81,0.7113064527511597,0.1802481859922409
5,5,128,82,0.8161104917526245,0.13006365299224854
5,5,128,83,0.7773723006248474,0.15001371502876282
5,5,128,84,0.750002384185791,0.23709972202777863
5,5,128,85,0.8423396348953247,0.11982192099094391
5,5,128,86,0.8436818718910217,0.09972870349884033
5,5,128,87,0.7302603721618652,0.14870291948318481
5,5,128,88,0.7412019968032837,0.18214641511440277
5,5,128,89,0.7103716731071472,0.1418810933828354
5,5,128,90,0.5064691305160522,0.21584130823612213
5,5,128,91,0.801998496055603,0.11295470595359802
5,5,128,92,0.7468874454498291,0.11921949684619904
5,5,128,93,0.6643412113189697,0.2495776116847992
5,5,128,94,0.4809653162956238,0.2866486608982086
5,5,128,95,0.8909380435943604,0.08279471844434738
5,5,128,96,0.602302610874176,0.15652617812156677
5,5,128,97,0.7798985242843628,0.12254305928945541
5,5,128,98,0.8117868900299072,0.10235153138637543
5,5,128,99,0.7025167346000671,0.10080920159816742
5,5,128,100,0.7340804934501648,0.25795647501945496
5,5,128,101,0.8697624206542969,0.07591651380062103
5,5,128,102,0.815276563167572,0.09315598756074905
5,5,128,103,0.8397791981697083,0.08497988432645798
5,5,128,104,0.7951639294624329,0.11929961293935776
5,5,128,105,0.6642274260520935,0.32306864857673645
5,5,128,106,0.5148917436599731,0.2727283835411072
5,5,128,107,0.6164129376411438,0.32813405990600586
5,5,128,108,0.8420188426971436,0.09876497089862823
5,5,128,109,0.7892032861709595,0.10789821296930313
5,5,128,110,0.6926940083503723,0.29507917165756226
5,5,128,111,0.7521358132362366,0.1709340214729309
5,5,128,112,0.813618004322052,0.12774169445037842
5,5,128,113,0.7455071210861206,0.17959533631801605
5,5,128,114,0.7604618668556213,0.269107848405838
5,5,128,115,0.46714791655540466,0.16722968220710754
5,5,128,116,0.5876196026802063,0.24154068529605865
5,5,128,117,0.8407427072525024,0.13837239146232605
5,5,128,118,0.4892486333847046,0.25560685992240906
5,5,128,119,0.7163786888122559,0.29886123538017273
5,5,128,120,0.4731006920337677,0.34856879711151123
5,5,128,121,0.4312734603881836,0.28782665729522705
5,5,128,122,0.8040056228637695,0.1481412649154663
5,5,128,123,0.736595094203949,0.20014196634292603
5,5,128,124,0.7298495769500732,0.19127081334590912
5,5,128,125,0.7412007451057434,0.09466920047998428
5,5,128,126,0.7119622230529785,0.13162438571453094
5,5,128,127,0.7863553762435913,0.0904742181301117
6,0,32,0,0.5610146522521973,0.10925813019275665
6,0,32,1,0.4684126377105713,0.07429318130016327
6,0,32,2,0.6065661311149597,0.09106126427650452
6,0,32,3,0.3266872465610504,0.15038669109344482
6,0,32,4,0.2961934506893158,0.09509210288524628
6,0,32,5,0.37194493412971497,0.09291679412126541
6,0,32,6,0.41740912199020386,0.10003459453582764
6,0,32,7,0.4870581328868866,0.17756196856498718
6,0,32,8,0.5989380478858948,0.017849519848823547
6,0,32,9,0.60848468542099,0.03095996379852295
6,0,32,10,0.47024160623550415,0.04975055530667305
6,0,32,11,0.6295254230499268,0.06523262709379196
6,0,32,12,0.5384786128997803,0.07108855247497559
6,0,32,13,0.5190620422363281,0.04686413332819939
6,0,32,14,0.5178346037864685,0.09747716039419174
6,0,32,15,0.4196714162826538,0.14180929958820343
6,0,32,16,0.3933278024196625,0.07508093118667603
6,0,32,17,0.507143497467041,0.055545032024383545
6,0,32,18,0.4079466760158539,0.1433676928281784
6,0,32,19,0.3234870731830597,0.08513500541448593
6,0,32,20,0.4653741717338562,0.04905713349580765
6,0,32,21,0.44172248244285583,0.14293810725212097
6,0,32,22,0.35236677527427673,0.10543078184127808
6,0,32,23,0.5905924439430237,0.08649712055921555
6,0,32,24,0.6466078758239746,0.06328041851520538
6,0,32,25,0.5237744450569153,0.1260187327861786
6,0,32,26,0.4254741072654724,0.1137956753373146
6,0,32,27,0.37265244126319885,0.06768882274627686
6,0,32,28,0.6358077526092529,0.12459152191877365
6,0,32,29,0.4885587990283966,0.07376696169376373
6,0,32,30,0.2754986882209778,0.10984586924314499
6,0,32,31,0.37857839465141296,0.07167384028434753
6,1,32,0,0.47291985154151917,0.05124097317457199
6,1,32,1,0.5131959319114685,0.03338421881198883
6,1,32,2,0.4667004644870758,0.11135672777891159
6,1,32,3,0.44531360268592834,0.09508546441793442
6,1,32,4,0.566161036491394,0.105808787047863
6,1,32,5,0.3799147307872772,0.07920537143945694
6,1,32,6,0.56341552734375,0.04324765503406525
6,1,32,7,0.565277099609375,0.09734481573104858
6,1,32,8,0.6264398694038391,0.026778822764754295
6,1,32,9,0.4344625771045685,0.058353617787361145
6,1,32,10,0.46675410866737366,0.09947141259908676
6,1,32,11,0.6386808753013611,0.053134094923734665
6,1,32,12,0.4407224655151367,0.10396634787321091
6,1,32,13,0.5874090194702148,0.09767621755599976
6,1,32,14,0.453928142786026,0.08617832511663437
6,1,32,15,0.6776697039604187,0.05413536727428436
6,1,32,16,0.5015090107917786,0.06237441673874855
6,1,32,17,0.36636659502983093,0.07674500346183777
6,1,32,18,0.5198189616203308,0.1328253149986267
6,1,32,19,0.4934355914592743,0.07325366139411926
6,1,32,20,0.6190664768218994,0.17225079238414764
6,1,32,21,0.615400493144989,0.040694862604141235
6,1,32,22,0.39008817076683044,0.04333991929888725
6,1,32,23,0.4944509267807007,0.10279287397861481
6,1,32,24,0.3553650975227356,0.07082512229681015
6,1,32,25,0.5441601276397705,0.10246311128139496
6,1,32,26,0.3925536572933197,0.0807398185133934
6,1,32,27,0.5161646604537964,0.10893286019563675
6,1,32,28,0.5448936820030212,0.054499126970767975
6,1,32,29,0.5414050221443176,0.15145458281040192
6,1,32,30,0.4448230564594269,0.10101700574159622
6,1,32,31,0.6149311661720276,0.06190258637070656
6,2,64,0,0.5643615126609802,0.23005850613117218
6,2,64,1,0.4800141751766205,0.19298171997070312
6,2,64,2,0.544063150882721,0.1945910006761551
6,2,64,3,0.5284928679466248,0.049709200859069824
6,2,64,4,0.5540902018547058,0.16695921123027802
6,2,64,5,0.5740997791290283,0.12993577122688293
6,2,64,6,0.582423746585846,0.13643042743206024
6,2,64,7,0.2685921788215637,0.06763546913862228
6,2,64,8,0.588686466217041,0.17953041195869446
6,2,64,9,0.5846742391586304,0.16419392824172974
6,2,64,10,0.4367280900478363,0.2721024453639984
6,2,64,11,0.4337780177593231,0.21609827876091003
6,2,64,12,0.6171259880065918,0.18597634136676788
6,2,64,13,0.4192134439945221,0.22088336944580078
6,2,64,14,0.4737771153450012,0.17998085916042328
6,2,64,15,0.3647211492061615,0.07611975073814392
6,2,64,16,0.46802499890327454,0.09755324572324753
6,2,64,17,0.5174899101257324,0.2599281072616577
6,2,64,18,0.6535049080848694,0.1512337476015091
6,2,64,19,0.3618161976337433,0.13490410149097443
6,2,64,20,0.47115570306777954,0.18850791454315186
6,2,64,21,0.5335170030593872,0.10169987380504608
6,2,64,22,0.6011641621589661,0.097121961414814
6,2,64,23,0.40265053510665894,0.19936718046665192
6,2,64,24,0.33213528990745544,0.11011916399002075
6,2,64,25,0.5336115956306458,0.08340205997228622
6,2,64,26,0.6293642520904541,0.11693102866411209
6,2,64,27,0.5142968893051147,0.13069278001785278
6,2,64,28,0.3914303779602051,0.08706481754779816
6,2,64,29,0.4056782126426697,0.15437863767147064
6,2,64,30,0.3996877372264862,0.07905926555395126
6,2,64,31,0.5790164470672607,0.1776672899723053
6,2,64,32,0.5012611746788025,0.22010859847068787
6,2,64,33,0.49852243065834045,0.16339430212974548
6,2,64,34,0.6280204653739929,0.1457708179950714
6,2,64,35,0.5784283876419067,0.1088438332080841
6,2,64,36,0.5274289846420288,0.15414825081825256
6,2,64,37,0.5263811945915222,0.13610176742076874
6,2,64,38,0.49729880690574646,0.12328384816646576
6,2,64,39,0.37820205092430115,0.16251246631145477
6,2,64,40,0.465414434671402,0.14392931759357452
6,2,64,41,0.36754700541496277,0.1240612044930458
6,2,64,42,0.5770806074142456,0.13594849407672882
6,2,64,43,0.5881091952323914,0.15787704288959503
6,2,64,44,0.6332356333732605,0.1577884703874588
6,2,64,45,0.4274352192878723,0.20296292006969452
6,2,64,46,0.6131320595741272,0.24869272112846375
6,2,64,47,0.506513774394989,0.1072465032339096
6,2,64,48,0.4401414096355438,0.15659022331237793
6,2,64,49,0.5569760799407959,0.18192818760871887
6,2,64,50,0.5943710803985596,0.12041404098272324
6,2,64,51,0.5830256938934326,0.10787613689899445
6,2,64,52,0.41378945112228394,0.12911178171634674
6,2,64,53,0.5913106799125671,0.2505970001220703
6,2,64,54,0.6331804990768433,0.13994617760181427
6,2,64,55,0.5795146226882935,0.1905972957611084
6,2,64,56,0.4884684383869171,0.17375439405441284
6,2,64,57,0.3867785632610321,0.08534210920333862
6,2,64,58,0.5170735120773315,0.050113826990127563
6,2,64,59,0.6523109674453735,0.16955508291721344
6,2,64,60,0.45934635400772095,0.1589193046092987
6,2,64,61,0.5741583704948425,0.23159439861774445
6,2,64,62,0.5123715996742249,0.03474358841776848
6,2,64,63,0.40094223618507385,0.09475001692771912
6,3,64,0,0.44786813855171204,0.06017989665269852
6,3,64,1,0.46410730481147766,0.14006121456623077
6,3,64,2,0.6750069260597229,0.206731915473938
6,3,64,3,0.559846043586731,0.18628261983394623
6,3,64,4,0.43512192368507385,0.058543164283037186
6,3,64,5,0.5171005129814148,0.06960240006446838
6,3,64,6,0.2647255063056946,0.11706164479255676
6,3,64,7,0.22264137864112854,0.12262185662984848
6,3,64,8,0.6956575512886047,0.08502756804227829
6,3,64,9,0.4949118494987488,0.19346699118614197
6,3,64,10,0.5349621772766113,0.07370537519454956
6,3,64,11,0.5532466173171997,0.3301467001438141
6,3,64,12,0.49113497138023376,0.07497076690196991
6,3,64,13,0.4744243919849396,0.09062957763671875
6,3,64,14,0.5264807343482971,0.06214075908064842
6,3,64,15,0.45777565240859985,0.16504405438899994
6,3,64,16,0.504302442073822,0.10550208389759064
6,3,64,17,0.5497419834136963,0.1476820856332779
6,3,64,18,0.6172087788581848,0.26881054043769836
6,3,64,19,0.3938720226287842,0.2932058572769165
6,3,64,20,0.4712831676006317,0.11632349342107773
6,3,64,21,0.3729735016822815,0.06734371930360794
6,3,64,22,0.5468178391456604,0.06021720543503761
6,3,64,23,0.573506772518158,0.171928271651268
6,3,64,24,0.5751314759254456,0.3047417104244232
6,3,64,25,0.534055769443512,0.1712043583393097
6,3,64,26,0.4475516378879547,0.15706466138362885
6,3,64,27,0.7278615832328796,0.10749462991952896
6,3,64,28,0.4814516007900238,0.17113569378852844
6,3,64,29,0.5847007632255554,0.2007610946893692
6,3,64,30,0.24059870839118958,0.17314718663692474
6,3,64,31,0.5646576881408691,0.11515277624130249
6,3,64,32,0.5579591989517212,0.2637825012207031
6,3,64,33,0.6120607256889343,0.250337690114975
6,3,64,34,0.5148221254348755,0.2971642017364502
6,3,64,35,0.4552285075187683,0.12039907276630402
6,3,64,36,0.7160646319389343,0.09888074547052383
6,3,64,37,0.5390985012054443,0.16374051570892334
6,3,64,38,0.5641478300094604,0.05136236920952797
6,3,64,39,0.5666952133178711,0.14526072144508362
6,3,64,40,0.6112217307090759,0.31716880202293396
6,3,64,41,0.6750619411468506,0.09936190396547318
6,3,64,42,0.3718309998512268,0.12893782556056976
6,3,64,43,0.4986308515071869,0.16887474060058594
6,3,64,44,0.5771973133087158,0.2739897072315216
6,3,64,45,0.4295201301574707,0.13810575008392334
6,3,64,46,0.49750882387161255,0.23388586938381195
6,3,64,47,0.42314302921295166,0.07965035736560822
6,3,64,48,0.5363210439682007,0.21307627856731415
6,3,64,49,0.4173559248447418,0.0707654356956482
6,3,64,50,0.5008836984634399,0.16710874438285828
6,3,64,51,0.3735429048538208,0.10509214550256729
6,3,64,52,0.297004759311676,0.16261768341064453
6,3,64,53,0.5133950114250183,0.28362494707107544
6,3,64,54,0.3603922128677368,0.2978484630584717
6,3,64,55,0.42713698744773865,0.08810675144195557
6,3,64,56,0.612076461315155,0.10652957111597061
6,3,64,57,0.5566911697387695,0.19008836150169373
6,3,64,58,0.5899972319602966,0.2869018316268921
6,3,64,59,0.6033598184585571,0.12953750789165497
6,3,64,60,0.5585017800331116,0.1355373114347458
6,3,64,61,0.39851564168930054,0.08159554749727249
6,3,64,62,0.5110408067703247,0.12053286284208298
6,3,64,63,0.6526697278022766,0.15139424800872803
