subject,channel,f1_full,f1_occluded,drop_pp
1,0,0.5551840916405262,0.5135027971544412,4.168129448608493
1,1,0.5551840916405262,0.5353600413003172,1.9824050340208954
1,2,0.5551840916405262,0.5012418928248941,5.394219881563211
1,3,0.5551840916405262,0.4571396569799547,9.80444346605715
1,4,0.5551840916405262,0.42400568181818177,13.11784098223444
1,5,0.5551840916405262,0.38001537870841107,17.516871293211512
1,6,0.5551840916405262,0.6144427169623866,-5.925862532186043
1,7,0.5551840916405262,0.5004616095802021,5.472248206032404
1,8,0.5551840916405262,0.4568409432252412,9.834314841528496
2,0,0.8408392164837566,0.7316204804328639,10.92187360508927
2,1,0.8408392164837566,0.7582817588506273,8.255745763312927
2,2,0.8408392164837566,0.6508438204285595,18.99953960551971
2,3,0.8408392164837566,0.7802991824112514,6.054003407250519
2,4,0.8408392164837566,0.7700278232325898,7.0811393251166805
2,5,0.8408392164837566,0.7102516968325792,13.058751965117743
2,6,0.8408392164837566,0.7765393578918836,6.429985859187304
2,7,0.8408392164837566,0.5779260275620858,26.29131889216708
2,8,0.8408392164837566,0.718201014847476,12.263820163628058
3,0,0.8374828825727152,0.723447251314435,11.40356312582802
3,1,0.8374828825727152,0.639742349486524,19.774053308619123
3,2,0.8374828825727152,0.6443725784851836,19.31103040875316
3,3,0.8374828825727152,0.553705602673145,28.377727989957023
3,4,0.8374828825727152,0.6978221303571315,13.966075221558372
3,5,0.8374828825727152,0.5718893519911978,26.559353058151736
3,6,0.8374828825727152,0.8327773945674493,0.4705488005265934
3,7,0.8374828825727152,0.7154885953318958,12.19942872408194
3,8,0.8374828825727152,0.7428008048842231,9.468207768849213
4,0,0.7282578971148025,0.6676612561452971,6.059664096950534
4,1,0.7282578971148025,0.6567977788400406,7.146011827476184
4,2,0.7282578971148025,0.6150789479671467,11.317894914765581
4,3,0.7282578971148025,0.6614180324974317,6.68398646173708
4,4,0.7282578971148025,0.7025223563655791,2.573554074922335
4,5,0.7282578971148025,0.4930793362097281,23.51785609050744
4,6,0.7282578971148025,0.6296717698469889,9.858612726781358
4,7,0.7282578971148025,0.5937655226598565,13.4492374454946
4,8,0.7282578971148025,0.7340772019260768,-0.5819304811274351
5,0,0.5620212419147826,0.48187466382806443,8.01465780867182
5,1,0.5620212419147826,0.5146553633618898,4.736587855289287
5,2,0.5620212419147826,0.49462557883990876,6.739566307487388
5,3,0.5620212419147826,0.6044218515667215,-4.240060965193882
5,4,0.5620212419147826,0.5194205167410179,4.260072517376479
5,5,0.5620212419147826,0.4731430945793452,8.887814733543742
5,6,0.5620212419147826,0.5343250141485439,2.76962277662387
5,7,0.5620212419147826,0.47397885643045523,8.80423854843274
5,8,0.5620212419147826,0.46810936253527524,9.39118793795074
6,0,0.7199034847841594,0.5855648967085049,13.433858807565457
6,1,0.7199034847841594,0.5815719788016657,13.833150598249377
6,2,0.7199034847841594,0.7096108291185407,1.0292655665618766
6,3,0.7199034847841594,0.623447372562245,9.645611222191441
6,4,0.7199034847841594,0.6818936298878485,3.8009854896310924
6,5,0.7199034847841594,0.5219021401680305,19.800134461612895
6,6,0.7199034847841594,0.5950895689860036,12.481391579815583
6,7,0.7199034847841594,0.4573302063390991,26.257327844506033
6,8,0.7199034847841594,0.6379859380061657,8.191754677799379
7,0,0.7257292747607517,0.5226686092373851,20.306066552336656
7,1,0.7257292747607517,0.6166268289149645,10.91024458457872
7,2,0.7257292747607517,0.6873840631197264,3.8345211641025223
7,3,0.7257292747607517,0.6028630030758594,12.286627168489229
7,4,0.7257292747607517,0.6180413095969137,10.768796516383794
7,5,0.7257292747607517,0.5211925589676796,20.45367157930721
7,6,0.7257292747607517,0.69802811173606,2.770116302469161
7,7,0.7257292747607517,0.6489130823567171,7.6816192404034584
7,8,0.7257292747607517,0.6556705969884808,7.005867777227081
8,0,0.8049499183018128,0.5891176973895103,21.583222091230258
8,1,0.8049499183018128,0.7114185286969568,9.353138960485607
8,2,0.8049499183018128,0.8105958714621923,-0.5645953160379413
8,3,0.8049499183018128,0.7351983734899871,6.975154481182577
8,4,0.8049499183018128,0.7103342820224496,9.46156362793632
8,5,0.8049499183018128,0.6583504245704023,14.659949373141057
8,6,0.8049499183018128,0.7388834744889194,6.606644381289339
8,7,0.8049499183018128,0.7368412026855804,6.8108715616232445
8,8,0.8049499183018128,0.6921455965497638,11.280432175204902
9,0,0.8061579340612931,0.7244702874978234,8.168764656346973
9,1,0.8061579340612931,0.6827907882465722,12.336714581472085
9,2,0.8061579340612931,0.702996943861959,10.31609901993341
9,3,0.8061579340612931,0.7617611659697088,4.439676809158433
9,4,0.8061579340612931,0.7042334450080161,10.1924489053277
9,5,0.8061579340612931,0.6467288789722492,15.942905508904392
9,6,0.8061579340612931,0.729768976068073,7.638895799322009
9,7,0.8061579340612931,0.6640650678846505,14.209286617664263
9,8,0.8061579340612931,0.6400608581039366,16.609707595735646
10,0,0.6935186719168973,0.4917068387885283,20.181183312836904
10,1,0.6935186719168973,0.5678200778976288,12.569859401926852
10,2,0.6935186719168973,0.5309495494815262,16.256912243537116
10,3,0.6935186719168973,0.5959500610130581,9.756861090383918
10,4,0.6935186719168973,0.6490051501040022,4.451352181289514
10,5,0.6935186719168973,0.6213979659912893,7.212070592560805
10,6,0.6935186719168973,0.6699876470089369,2.353102490796044
10,7,0.6935186719168973,0.577413932286313,11.610473963058432
10,8,0.6935186719168973,0.6382867017419912,5.523197017490611
11,0,0.868079356305713,0.7509120864415526,11.716726986416038
11,1,0.868079356305713,0.7441745541175712,12.390480218814181
11,2,0.868079356305713,0.7332682082136677,13.48111480920453
11,3,0.868079356305713,0.6985681469386955,16.95112093670175
11,4,0.868079356305713,0.7713546964815835,9.672465982412948
11,5,0.868079356305713,0.6484545997501608,21.962475655555213
11,6,0.868079356305713,0.8293923206137142,3.868703569199883
11,7,0.868079356305713,0.6352343643548168,23.284499195089616
11,8,0.868079356305713,0.8059406703306601,6.213868597505289
12,0,0.7412239621910744,0.7110299483391911,3.019401385188336
12,1,0.7412239621910744,0.7346908316247003,0.6533130566374168
12,2,0.7412239621910744,0.7512127543851082,-0.9988792194033702
12,3,0.7412239621910744,0.57456858621217,16.665537597890445
12,4,0.7412239621910744,0.5678916499064484,17.33323122846261
12,5,0.7412239621910744,0.5914004410880653,14.982352110300912
12,6,0.7412239621910744,0.7450244806522162,-0.3800518461141711
12,7,0.7412239621910744,0.7067590661829131,3.4464896008161383
12,8,0.7412239621910744,0.7127126021001664,2.8511360090908044
13,0,0.9029544952133747,0.7915581449679059,11.139635024546878
13,1,0.9029544952133747,0.8139608448336313,8.899365037974338
13,2,0.9029544952133747,0.8167899423673095,8.616455284606516
13,3,0.9029544952133747,0.8457723492791621,5.718214593421256
13,4,0.9029544952133747,0.7719606616200088,13.099383359336592
13,5,0.9029544952133747,0.6263979404698548,27.655655474351992
13,6,0.9029544952133747,0.862583511532798,4.037098368057668
13,7,0.9029544952133747,0.8417130403121974,6.124145490117727
13,8,0.9029544952133747,0.8343788190493651,6.857567616400962
14,0,0.8214944455125526,0.7563286445897046,6.516580092284796
14,1,0.8214944455125526,0.7486345586959778,7.285988681657473
14,2,0.8214944455125526,0.6342662284539032,18.722821705864934
14,3,0.8214944455125526,0.7168253838952885,10.466906161726408
14,4,0.8214944455125526,0.6772779990867995,14.421644642575304
14,5,0.8214944455125526,0.6147837316155186,20.6710713897034
14,6,0.8214944455125526,0.7891906906522982,3.2303754860254386
14,7,0.8214944455125526,0.7474221187771515,7.4072326735401095
14,8,0.8214944455125526,0.7351479590316414,8.634648648091115
15,0,0.7845036063460702,0.7378381613573928,4.666544498867742
15,1,0.7845036063460702,0.7361477792486978,4.83558270973724
15,2,0.7845036063460702,0.7449197904445456,3.95838159015246
15,3,0.7845036063460702,0.752092752673095,3.2410853672975137
15,4,0.7845036063460702,0.6807597485336061,10.37438578124641
15,5,0.7845036063460702,0.3920187491341721,39.24848572118981
15,6,0.7845036063460702,0.7452922382593975,3.9211368086672693
15,7,0.7845036063460702,0.7062444627489248,7.825914359714536
15,8,0.7845036063460702,0.7229236093309408,6.1579997015129395
16,0,0.8085383348387439,0.648811830452901,15.97265043858429
16,1,0.8085383348387439,0.723166586555648,8.53717482830959
16,2,0.8085383348387439,0.7164881505853182,9.20501842534257
16,3,0.8085383348387439,0.6003189365664088,20.821939827233514
16,4,0.8085383348387439,0.6654497430609712,14.308859177777277
16,5,0.8085383348387439,0.5580493351967046,25.04889996420393
16,6,0.8085383348387439,0.7747366117200307,3.380172311871321
16,7,0.8085383348387439,0.6574210452686843,15.111728957005965
16,8,0.8085383348387439,0.7422639159264233,6.627441891232067
17,0,0.7919459475018558,0.6092675354683343,18.26784120335214
17,1,0.7919459475018558,0.675836652088081,11.61092954137748
17,2,0.7919459475018558,0.7100903279127424,8.185561958911336
17,3,0.7919459475018558,0.6831319165535971,10.88140309482587
17,4,0.7919459475018558,0.734814498250105,5.713144925175073
17,5,0.7919459475018558,0.6561712969155924,13.577465058626338
17,6,0.7919459475018558,0.8056910217991615,-1.374507429730576
17,7,0.7919459475018558,0.7170497891416251,7.4896158360230665
17,8,0.7919459475018558,0.6647698875364991,12.717605996535664
18,0,0.7283135249436007,0.6710556404455843,5.725788449801639
18,1,0.7283135249436007,0.6637673904641723,6.454613447942837
18,2,0.7283135249436007,0.7249641125261975,0.33494124174031636
18,3,0.7283135249436007,0.578080014344206,15.023351059939472
18,4,0.7283135249436007,0.5958342313357292,13.247929360787147
18,5,0.7283135249436007,0.47059009712204153,25.772342782155917
18,6,0.7283135249436007,0.79354292154586,-6.522939660225935
18,7,0.7283135249436007,0.633782048256485,9.45314766871157
18,8,0.7283135249436007,0.6872914915192043,4.102203342439637
19,0,0.7977570722681976,0.6869961738223465,11.076089844585113
19,1,0.7977570722681976,0.6823024432505504,11.545462901764713
19,2,0.7977570722681976,0.7299256248476214,6.7831447420576225
19,3,0.7977570722681976,0.6230902198149587,17.466685245323887
19,4,0.7977570722681976,0.5939556176935269,20.38014545746707
19,5,0.7977570722681976,0.4671409000141289,33.06161722540687
19,6,0.7977570722681976,0.7740167461324391,2.3740326135758494
19,7,0.7977570722681976,0.7005283296269559,9.72287426412417
19,8,0.7977570722681976,0.7051096309257985,9.26474413423991
20,0,0.7856962891646132,0.5887258694091355,19.69704197554777
20,1,0.7856962891646132,0.6498765999876012,13.581968917701204
20,2,0.7856962891646132,0.7469160997732427,3.878018939137051
20,3,0.7856962891646132,0.7754552745418901,1.0241014622723088
20,4,0.7856962891646132,0.7343365094288727,5.135977973574047
20,5,0.7856962891646132,0.5792846172849941,20.641167187961905
20,6,0.7856962891646132,0.7401240664254065,4.557222273920669
20,7,0.7856962891646132,0.6983462241692301,8.735006499538311
20,8,0.7856962891646132,0.696287099473896,8.94091896907172
21,0,0.7462177696502997,0.6408348530027846,10.538291664751508
21,1,0.7462177696502997,0.7217321177260791,2.4485651924220586
21,2,0.7462177696502997,0.7379300662499212,0.8287703400378543
21,3,0.7462177696502997,0.5734923473260289,17.272542232427078
21,4,0.7462177696502997,0.6564043197511578,8.981344989914197
21,5,0.7462177696502997,0.49710424214268767,24.911352750761207
21,6,0.7462177696502997,0.746945336434825,-0.07275667845252354
21,7,0.7462177696502997,0.7414696708528277,0.4748098797472067
21,8,0.7462177696502997,0.6877410938296974,5.847667582060234
22,0,0.7830412335671195,0.7063281558867464,7.671307768037316
22,1,0.7830412335671195,0.7183002278099906,6.474100575712893
22,2,0.7830412335671195,0.6434811759765686,13.95600575905509
22,3,0.7830412335671195,0.655723194906233,12.731803866088654
22,4,0.7830412335671195,0.6875908721302767,9.545036143684282
22,5,0.7830412335671195,0.6490304100170192,13.401082355010029
22,6,0.7830412335671195,0.7638832162390304,1.9158017328089083
22,7,0.7830412335671195,0.6247867129935778,15.825452057354173
22,8,0.7830412335671195,0.6436264003016348,13.941483326548475
23,0,0.749147392052469,0.6434610730314232,10.568631902104586
23,1,0.749147392052469,0.6307848777436212,11.836251430884781
23,2,0.749147392052469,0.6436879701388968,10.545942191357227
23,3,0.749147392052469,0.6560506282018863,9.309676385058275
23,4,0.749147392052469,0.6532330360577275,9.591435599474153
23,5,0.749147392052469,0.5502200940748752,19.89272979775939
23,6,0.749147392052469,0.6866168394764866,6.25305525759825
23,7,0.749147392052469,0.5595470947659652,18.960029728650383
23,8,0.749147392052469,0.6360197020439967,11.312769000847233
24,0,0.6862586404785893,0.6094032292894027,7.6855411189186595
24,1,0.6862586404785893,0.5718339406820625,11.442469979652682
24,2,0.6862586404785893,0.570634415659702,11.562422481888735
24,3,0.6862586404785893,0.7578578074124541,-7.1599166933864815
24,4,0.6862586404785893,0.6105671831178849,7.569145736070437
24,5,0.6862586404785893,0.4079834769074178,27.827516357117148
24,6,0.6862586404785893,0.6242720048081991,6.19866356703902
24,7,0.6862586404785893,0.564407568018655,12.185107245993432
24,8,0.6862586404785893,0.6466880456478432,3.9570594830746098
25,0,0.7566209623539848,0.6523134073194993,10.430755503448552
25,1,0.7566209623539848,0.7067742795217151,4.984668283226967
25,2,0.7566209623539848,0.6565311066571271,10.00898556968577
25,3,0.7566209623539848,0.6611563139402943,9.546464841369051
25,4,0.7566209623539848,0.583048861518903,17.35721008350818
25,5,0.7566209623539848,0.5468881198286755,20.97328425253093
25,6,0.7566209623539848,0.7057937993620358,5.0827162991949
25,7,0.7566209623539848,0.7026420306604243,5.397893169356049
25,8,0.7566209623539848,0.7380918945744611,1.8529067779523678
26,0,0.708719864336429,0.605110088438525,10.360977589790398
26,1,0.708719864336429,0.6350039215701135,7.371594276631543
26,2,0.708719864336429,0.6068792878186362,10.184057651779277
26,3,0.708719864336429,0.6722460672338251,3.64737971026039
26,4,0.708719864336429,0.6097890008669218,9.893086346950719
26,5,0.708719864336429,0.502761827917268,20.5958036419161
26,6,0.708719864336429,0.7029252596330607,0.5794604703368234
26,7,0.708719864336429,0.6396981524850377,6.902171185139128
26,8,0.708719864336429,0.6343610096133248,7.435885472310422
27,0,0.7843252155282193,0.681070467246704,10.325474828151538
27,1,0.7843252155282193,0.777215233243385,0.7109982284834282
27,2,0.7843252155282193,0.6654338333924982,11.889138213572114
27,3,0.7843252155282193,0.7790815195987609,0.5243695929458392
27,4,0.7843252155282193,0.6692530422269342,11.507217330128515
27,5,0.7843252155282193,0.5405724164963462,24.37527990318731
27,6,0.7843252155282193,0.7875176431029443,-0.3192427574724932
27,7,0.7843252155282193,0.6784934091417645,10.583180638645484
27,8,0.7843252155282193,0.7207675769529784,6.355763857524089
28,0,0.7532017118236252,0.7360216552101009,1.7180056613524286
28,1,0.7532017118236252,0.7187259483008626,3.4475763522762604
28,2,0.7532017118236252,0.690965638416162,6.223607340746318
28,3,0.7532017118236252,0.7328591911583716,2.034252066525355
28,4,0.7532017118236252,0.6841058931436045,6.909581868002068
28,5,0.7532017118236252,0.6132916108035754,13.991010102004974
28,6,0.7532017118236252,0.7677138057765749,-1.4512093952949723
28,7,0.7532017118236252,0.6826340087048769,7.056770311874827
28,8,0.7532017118236252,0.7241599973967168,2.9041714426908394
29,0,0.7955845744848578,0.6547900542547429,14.079452023011484
29,1,0.7955845744848578,0.7277699251302245,6.781464935463322
29,2,0.7955845744848578,0.6184997428884698,17.7084831596388
29,3,0.7955845744848578,0.7617270402140229,3.385753427083482
29,4,0.7955845744848578,0.6811042628970199,11.448031158783788
29,5,0.7955845744848578,0.5028381566620352,29.274641782282252
29,6,0.7955845744848578,0.8067325935750302,-1.114801909017249
29,7,0.7955845744848578,0.7023205649546185,9.326400953023928
29,8,0.7955845744848578,0.6930369355385888,10.254763894626894
30,0,0.7558545347610572,0.7202152955546299,3.563923920642731
30,1,0.7558545347610572,0.6664919891229119,8.936254563814538
30,2,0.7558545347610572,0.6914227338199828,6.443180094107448
30,3,0.7558545347610572,0.7232157688680212,3.263876589303605
30,4,0.7558545347610572,0.6768950039882706,7.895953077278661
30,5,0.7558545347610572,0.5805849928591253,17.526954190193187
30,6,0.7558545347610572,0.7839753038062034,-2.8120769045146154
30,7,0.7558545347610572,0.6953013978334142,6.055313692764308
30,8,0.7558545347610572,0.7638174325033742,-0.7962897742316954
31,0,0.7033852252155527,0.6341917263676883,6.919349884786441
31,1,0.7033852252155527,0.6534235123941461,4.99617128214066
31,2,0.7033852252155527,0.573379223047148,13.000600216840475
31,3,0.7033852252155527,0.6991440449987771,0.4241180216775553
31,4,0.7033852252155527,0.6132044800885681,9.01807451269846
31,5,0.7033852252155527,0.45417649204211463,24.920873317343805
31,6,0.7033852252155527,0.6650121183820243,3.8373106833528348
31,7,0.7033852252155527,0.6153216815419386,8.806354367361413
31,8,0.7033852252155527,0.6103717921060824,9.30134331094703
32,0,0.7195063189930907,0.6452479735508176,7.425834544227305
32,1,0.7195063189930907,0.6685758427396005,5.093047625349023
32,2,0.7195063189930907,0.6749575197465224,4.454879924656829
32,3,0.7195063189930907,0.7312501947132541,-1.1743875720163444
32,4,0.7195063189930907,0.6478574837985425,7.164883519454824
32,5,0.7195063189930907,0.37464614859483447,34.486017039825626
32,6,0.7195063189930907,0.7159916171427156,0.3514701850375057
32,7,0.7195063189930907,0.6360202978658865,8.348602112720416
32,8,0.7195063189930907,0.6757107625924765,4.379555640061417
33,0,0.903063468961407,0.7935730952755492,10.94903736858578
33,1,0.903063468961407,0.7776959596391568,12.536750932225015
33,2,0.903063468961407,0.6903966304237239,21.26668385376831
33,3,0.903063468961407,0.7002962508201726,20.276721814123444
33,4,0.903063468961407,0.8122153536515239,9.084811530988313
33,5,0.903063468961407,0.48598788467625,41.7075584285157
33,6,0.903063468961407,0.8758318272278678,2.7231641733539202
33,7,0.903063468961407,0.7258140381124252,17.724943084898182
33,8,0.903063468961407,0.8604750676214818,4.258840133992514
34,0,0.8764386133374936,0.7255794034742968,15.085920986319678
34,1,0.8764386133374936,0.8140526818452076,6.238593149228599
34,2,0.8764386133374936,0.7670467722562266,10.939184108126698
34,3,0.8764386133374936,0.8245201248543494,5.191848848314418
34,4,0.8764386133374936,0.7694504310499156,10.698818228757801
34,5,0.8764386133374936,0.8037529726460633,7.268564069143036
34,6,0.8764386133374936,0.8505848947100576,2.5853718627436018
34,7,0.8764386133374936,0.7441159330865214,13.232268025097227
34,8,0.8764386133374936,0.7649796736171565,11.145893972033715
35,0,0.6726137188119499,0.5362333008834869,13.6380417928463
35,1,0.6726137188119499,0.6526805186338336,1.9933200178116284
35,2,0.6726137188119499,0.6807403521333739,-0.8126633321424048
35,3,0.6726137188119499,0.6052969860040799,6.731673280786998
35,4,0.6726137188119499,0.6697645007774057,0.28492180345441875
35,5,0.6726137188119499,0.5886624154462261,8.395130336572375
35,6,0.6726137188119499,0.6682857933845223,0.4327925427427548
35,7,0.6726137188119499,0.6069198151042479,6.569390370770201
35,8,0.6726137188119499,0.5531215003522982,11.949221845965162
36,0,0.6016821946169773,0.5886192533387876,1.3062941278189633
36,1,0.6016821946169773,0.5884840920407789,1.3198102576198356
36,2,0.6016821946169773,0.5872749190219582,1.4407275595019087
36,3,0.6016821946169773,0.5895484644574689,1.213373015950836
36,4,0.6016821946169773,0.6310875025435727,-2.940530792659546
36,5,0.6016821946169773,0.595951226769264,0.5730967847713209
36,6,0.6016821946169773,0.568671944326802,3.3010250290175236
36,7,0.6016821946169773,0.5399736069721314,6.1708587644845885
36,8,0.6016821946169773,0.584447820906254,1.7234373710723228
37,0,0.8478003774089667,0.7529957996136534,9.480457779531337
37,1,0.8478003774089667,0.7258740064486622,12.192637096030456
37,2,0.8478003774089667,0.7587105228212461,8.908985458772067
37,3,0.8478003774089667,0.7886060695454257,5.919430786354107
37,4,0.8478003774089667,0.804894303479369,4.290607392959778
37,5,0.8478003774089667,0.4098496709002054,43.795070650876134
37,6,0.8478003774089667,0.7819670961810572,6.583328122790954
37,7,0.8478003774089667,0.7709039806985707,7.689639671039606
37,8,0.8478003774089667,0.7606516953831219,8.71486820258448
38,0,0.7850465517058133,0.7317334017903458,5.331314991546742
38,1,0.7850465517058133,0.5784371500657242,20.660940164008913
38,2,0.7850465517058133,0.568962010113263,21.608454159255032
38,3,0.7850465517058133,0.7797421809321272,0.5304370773686062
38,4,0.7850465517058133,0.5965253622392366,18.85211894665767
38,5,0.7850465517058133,0.37788412610465494,40.71624256011583
38,6,0.7850465517058133,0.7168517771223333,6.8194774583480005
38,7,0.7850465517058133,0.7226475821403725,6.239896956544078
38,8,0.7850465517058133,0.7443741698664542,4.067238183935906
39,0,0.7287060357848888,0.5516711068378043,17.70349289470845
39,1,0.7287060357848888,0.660201713241387,6.8504322543501805
39,2,0.7287060357848888,0.6772990905180866,5.140694526680223
39,3,0.7287060357848888,0.6152206852394824,11.348535054540642
39,4,0.7287060357848888,0.6473049071322101,8.140112865267868
39,5,0.7287060357848888,0.4925412500312505,23.616478575363832
39,6,0.7287060357848888,0.7290341930528135,-0.0328157267924678
39,7,0.7287060357848888,0.7077204665162896,2.098556926859918
39,8,0.7287060357848888,0.7469387831320857,-1.8232747347196931
40,0,0.7809702965498342,0.7150349608960527,6.593533565378151
40,1,0.7809702965498342,0.7157190861372948,6.525121041253934
40,2,0.7809702965498342,0.7401434265509008,4.082686999893337
40,3,0.7809702965498342,0.691040229558747,8.993006699108719
40,4,0.7809702965498342,0.6941266357423681,8.684366080746608
40,5,0.7809702965498342,0.6323183912590725,14.865190529076166
40,6,0.7809702965498342,0.7373795347967,4.359076175313414
40,7,0.7809702965498342,0.6388803606837079,14.208993586612628
40,8,0.7809702965498342,0.6377190027021435,14.325129384769063
