subject,channel,alpha,f1,drop_pp
1,0,1.0,0.5141521165673121,0.0
1,0,0.75,0.5207100850150148,-0.6557968447702733
1,0,0.5,0.5173797771868115,-0.32276606194994173
1,0,0.25,0.4993821554842551,1.4769961083057004
1,0,0.0,0.4951868064766368,1.8965310090675258
1,1,1.0,0.5141521165673121,0.0
1,1,0.75,0.5431272904500682,-2.8975173882756167
1,1,0.5,0.571375518258209,-5.722340169089691
1,1,0.25,0.5618327326868475,-4.768061611953545
1,1,0.0,0.5360237375297616,-2.1871620962449545
1,2,1.0,0.5141521165673121,0.0
1,2,0.75,0.5167015604063974,-0.2549443839085286
1,2,0.5,0.5148906921419764,-0.07385755746642797
1,2,0.25,0.511535391472457,0.261672509485511
1,2,0.0,0.48706036655111296,2.7091750016199123
1,3,1.0,0.5141521165673121,0.0
1,3,0.75,0.5311379504176197,-1.6985833850307608
1,3,0.5,0.5112548612688715,0.28972552984405375
1,3,0.25,0.4871642549770653,2.6987861590246798
1,3,0.0,0.4486193424406493,6.553277412666275
1,4,1.0,0.5141521165673121,0.0
1,4,0.75,0.506664143310106,0.7487973257206071
1,4,0.5,0.5203618290412337,-0.6209712473921658
1,4,0.25,0.5242685832574263,-1.0116466690114234
1,4,0.0,0.5234117283042914,-0.9259611736979312
1,5,1.0,0.5141521165673121,0.0
1,5,0.75,0.4723027450484477,4.1849371518864364
1,5,0.5,0.4515594634251893,6.259265314212276
1,5,0.25,0.4454034271564541,6.874868941085799
1,5,0.0,0.4432099329862388,7.094218358107329
1,6,1.0,0.5141521165673121,0.0
1,6,0.75,0.5576599315523728,-4.350781498506073
1,6,0.5,0.5796506667588113,-6.54985501914992
1,6,0.25,0.595025054466231,-8.087293789891891
1,6,0.0,0.5911856537542816,-7.703353718696948
1,7,1.0,0.5141521165673121,0.0
1,7,0.75,0.5147096841919396,-0.055756762462755294
1,7,0.5,0.528440237993114,-1.4288121425801936
1,7,0.25,0.5071289619399895,0.7023154627322614
1,7,0.0,0.48824317169317905,2.590894487413303
1,8,1.0,0.5141521165673121,0.0
1,8,0.75,0.52473622322157,-1.0584106654257908
1,8,0.5,0.5072216157023901,0.6930500864921973
1,8,0.25,0.48910492775132075,2.504718881599133
1,8,0.0,0.4720606544630012,4.209146210431086
2,0,1.0,0.7976759858818271,0.0
2,0,0.75,0.7887399264512103,0.8936059430616816
2,0,0.5,0.7841893930791293,1.3486592802697817
2,0,0.25,0.7489451417782856,4.873084410354145
2,0,0.0,0.7191069225706446,7.856906331118251
2,1,1.0,0.7976759858818271,0.0
2,1,0.75,0.7809219792590693,1.6754006622757833
2,1,0.5,0.7600924486379674,3.7583537243859655
2,1,0.25,0.7543335871363822,4.334239874544488
2,1,0.0,0.7112075415635156,8.646844431831147
2,2,1.0,0.7976759858818271,0.0
2,2,0.75,0.783924497584445,1.3751488297382042
2,2,0.5,0.7773056653491436,2.0370320532683506
2,2,0.25,0.7179575679355771,7.971841794625001
2,2,0.0,0.6893303264006185,10.834565948120856
2,3,1.0,0.7976759858818271,0.0
2,3,0.75,0.7932307400187937,0.4445245863033409
2,3,0.5,0.7922783133034481,0.5397672578378976
2,3,0.25,0.7525161601438783,4.515982573794874
2,3,0.0,0.7191915849999428,7.848440088188424
2,4,1.0,0.7976759858818271,0.0
2,4,0.75,0.8387634993018976,-4.108751342007055
2,4,0.5,0.8433087113433484,-4.563272546152131
2,4,0.25,0.8174399995287414,-1.976401364691427
2,4,0.0,0.7704343199538051,2.724166592802202
2,5,1.0,0.7976759858818271,0.0
2,5,0.75,0.7688706376398533,2.8805348241973783
2,5,0.5,0.7393442033057493,5.8331782576077735
2,5,0.25,0.6908006567196072,10.687532916221986
2,5,0.0,0.5167565936049189,28.091939227690823
2,6,1.0,0.7976759858818271,0.0
2,6,0.75,0.7956647295164299,0.20112563653972293
2,6,0.5,0.7822842304733398,1.539175540848725
2,6,0.25,0.7524499459840985,4.522603989772856
2,6,0.0,0.7319313371428166,6.574464873901054
2,7,1.0,0.7976759858818271,0.0
2,7,0.75,0.7847629605708917,1.291302531093541
2,7,0.5,0.7507299640342882,4.694602184753894
2,7,0.25,0.7334056254905208,6.427036039130629
2,7,0.0,0.7011656355231773,9.651035035864975
2,8,1.0,0.7976759858818271,0.0
2,8,0.75,0.8071985928014983,-0.9522606919671217
2,8,0.5,0.801587644618116,-0.3911658736288959
2,8,0.25,0.7848596150615852,1.2816370820241896
2,8,0.0,0.7541899236192715,4.3486062262555585
3,0,1.0,0.8212874817335755,0.0
3,0,0.75,0.8188529212840009,0.24345604495745743
3,0,0.5,0.6784265386795804,14.28609430539951
3,0,0.25,0.6394110853176076,18.187639641596785
3,0,0.0,0.5875775398514592,23.370994188211625
3,1,1.0,0.8212874817335755,0.0
3,1,0.75,0.8555799223012958,-3.4292440567720295
3,1,0.5,0.8761958615984553,-5.490837986487984
3,1,0.25,0.8661956995800277,-4.490821784645227
3,1,0.0,0.804151083750986,1.713639798258948
3,2,1.0,0.8212874817335755,0.0
3,2,0.75,0.7936970497679121,2.7590431965663353
3,2,0.5,0.7370224701245868,8.42650116089887
3,2,0.25,0.6779356992570891,14.335178247648638
3,2,0.0,0.6392052035141889,18.20822782193866
3,3,1.0,0.8212874817335755,0.0
3,3,0.75,0.7246423196836966,9.664516204987883
3,3,0.5,0.657303415182146,16.39840665514295
3,3,0.25,0.6155992355992357,20.56882461343398
3,3,0.0,0.5853300269067837,23.595745482679177
3,4,1.0,0.8212874817335755,0.0
3,4,0.75,0.816594775069541,0.46927066640344295
3,4,0.5,0.7841860094049361,3.710147232863936
3,4,0.25,0.7697233469370266,5.156413479654887
3,4,0.0,0.7495703812667733,7.171710046680213
3,5,1.0,0.8212874817335755,0.0
3,5,0.75,0.7749310751794196,4.635640655415585
3,5,0.5,0.6522330329005999,16.90544488329756
3,5,0.25,0.5845512900089613,23.673619172461414
3,5,0.0,0.5344762830834567,28.681119865011873
3,6,1.0,0.8212874817335755,0.0
3,6,0.75,0.8199908266030365,0.1296655130539004
3,6,0.5,0.7964855833276885,2.480189840588698
3,6,0.25,0.7632668245193424,5.802065721423311
3,6,0.0,0.692591121301485,12.869636043209043
3,7,1.0,0.8212874817335755,0.0
3,7,0.75,0.8142645546499669,0.7022927083608521
3,7,0.5,0.7906463806787083,3.064110105486717
3,7,0.25,0.7418240104717538,7.946347126182163
3,7,0.0,0.7201818896649583,10.110559206861714
3,8,1.0,0.8212874817335755,0.0
3,8,0.75,0.8238719124585318,-0.2584430724956288
3,8,0.5,0.8348500814254239,-1.3562599691848476
3,8,0.25,0.8242312494797001,-0.29437677461245926
3,8,0.0,0.7492111151191799,7.207636661439554
4,0,1.0,0.8087681686252537,0.0
4,0,0.75,0.7679994441606649,4.076872446458879
4,0,0.5,0.7397249253033307,6.904324332192302
4,0,0.25,0.6971428430955502,11.162532552970351
4,0,0.0,0.6614822347587169,14.728593386653676
4,1,1.0,0.8087681686252537,0.0
4,1,0.75,0.7730371017871018,3.573106683815186
4,1,0.5,0.7878940901210254,2.087407850422829
4,1,0.25,0.7860318212947056,2.273634733054808
4,1,0.0,0.7528914360238836,5.587673260137005
4,2,1.0,0.8087681686252537,0.0
4,2,0.75,0.7778796750901777,3.0888493535075945
4,2,0.5,0.7671065944582982,4.166157416695548
4,2,0.25,0.7141231901904557,9.464497843479801
4,2,0.0,0.7048339222507158,10.393424637453785
4,3,1.0,0.8087681686252537,0.0
4,3,0.75,0.7653665122405414,4.340165638471227
4,3,0.5,0.735565065581818,7.320310304343569
4,3,0.25,0.701251722267927,10.75164463573267
4,3,0.0,0.675562328190034,13.320584043521965
4,4,1.0,0.8087681686252537,0.0
4,4,0.75,0.856034252093027,-4.726608346777327
4,4,0.5,0.8124087517614552,-0.3640583136201525
4,4,0.25,0.7891460846893712,1.9622083935882495
4,4,0.0,0.7574268414963077,5.134132712894601
4,5,1.0,0.8087681686252537,0.0
4,5,0.75,0.7889925411180094,1.9775627507244264
4,5,0.5,0.7950692268133979,1.3698941811855825
4,5,0.25,0.7708891662290103,3.787900239624342
4,5,0.0,0.7065397930175328,10.222837560772092
4,6,1.0,0.8087681686252537,0.0
4,6,0.75,0.7793680628355527,2.940010578970098
4,6,0.5,0.76313337394744,4.563479467781373
4,6,0.25,0.7520793643174664,5.668880430778733
4,6,0.0,0.7478727749270522,6.089539369820152
4,7,1.0,0.8087681686252537,0.0
4,7,0.75,0.7739315281150504,3.48366405102033
4,7,0.5,0.7521179868089712,5.665018181628245
4,7,0.25,0.7032092591098802,10.55589095153735
4,7,0.0,0.6565984499092039,15.21697187160498
4,8,1.0,0.8087681686252537,0.0
4,8,0.75,0.8432055634973923,-3.4437394872138594
4,8,0.5,0.8533988348193211,-4.463066619406741
4,8,0.25,0.8222818690953748,-1.3513700470121126
4,8,0.0,0.7787519020123949,3.0016266612858833
5,0,1.0,0.5645631695160993,0.0
5,0,0.75,0.5360404787388701,2.8522690777229243
5,0,0.5,0.5238242433564324,4.07389261596669
5,0,0.25,0.506797933036339,5.7765236479760285
5,0,0.0,0.48995084966533864,7.461231985076067
5,1,1.0,0.5645631695160993,0.0
5,1,0.75,0.5593212119992323,0.5241957516866957
5,1,0.5,0.5439764881878542,2.058668132824515
5,1,0.25,0.5045777025311754,5.99854669849239
5,1,0.0,0.44733398096781135,11.722918854828796
5,2,1.0,0.5645631695160993,0.0
5,2,0.75,0.5673094460361491,-0.2746276520049773
5,2,0.5,0.5580733132598065,0.6489856256292836
5,2,0.25,0.5445503921861348,2.0012777329964537
5,2,0.0,0.5283210992461667,3.6242070269932647
5,3,1.0,0.5645631695160993,0.0
5,3,0.75,0.5756250111224808,-1.1061841606381462
5,3,0.5,0.5932263603064818,-2.8663190790382487
5,3,0.25,0.60340291914798,-3.883974963188075
5,3,0.0,0.5309836612858883,3.3579508230211053
5,4,1.0,0.5645631695160993,0.0
5,4,0.75,0.5581117761126557,0.6451393403443584
5,4,0.5,0.5412551989903136,2.3307970525785704
5,4,0.25,0.5345546707981048,3.000849871799449
5,4,0.0,0.5231901288941571,4.137304062194225
5,5,1.0,0.5645631695160993,0.0
5,5,0.75,0.5485385864758361,1.6024583040263218
5,5,0.5,0.5233827591445731,4.11804103715262
5,5,0.25,0.5078057789863702,5.675739052972906
5,5,0.0,0.4997248765386236,6.483829297747573
5,6,1.0,0.5645631695160993,0.0
5,6,0.75,0.5605942905824569,0.39688789336423946
5,6,0.5,0.5580040950189062,0.6559074497193063
5,6,0.25,0.5593095191681209,0.5253650347978422
5,6,0.0,0.5689040831113583,-0.43409135952590105
5,7,1.0,0.5645631695160993,0.0
5,7,0.75,0.5527321481602896,1.1831021355809712
5,7,0.5,0.554266160666706,1.029700884939333
5,7,0.25,0.5358993073138087,2.8663862202290558
5,7,0.0,0.5179964769244405,4.65666925916588
5,8,1.0,0.5645631695160993,0.0
5,8,0.75,0.5675775315036342,-0.3014361987534908
5,8,0.5,0.545676454196236,1.88867153198633
5,8,0.25,0.519142262634614,4.542090688148526
5,8,0.0,0.48187265567781906,8.269051383828025
6,0,1.0,0.7106558326217818,0.0
6,0,0.75,0.693388378541941,1.726745407984076
6,0,0.5,0.6404692079757812,7.018662464600056
6,0,0.25,0.6322567698184554,7.8399062803326425
6,0,0.0,0.6010126363955443,10.964319622623753
6,1,1.0,0.7106558326217818,0.0
6,1,0.75,0.7113759613819252,-0.07201287601433792
6,1,0.5,0.7018356847543346,0.8820147867447226
6,1,0.25,0.6380226191732166,7.2633213448565215
6,1,0.0,0.6129076477351185,9.774818488666327
6,2,1.0,0.7106558326217818,0.0
6,2,0.75,0.7355352995152464,-2.4879466893464652
6,2,0.5,0.7302173714999474,-1.9561538878165585
6,2,0.25,0.7313783240746308,-2.072249145284899
6,2,0.0,0.6976277178583843,1.3028114763397491
6,3,1.0,0.7106558326217818,0.0
6,3,0.75,0.6847700841766344,2.588574844514735
6,3,0.5,0.645044191628809,6.561164099297279
6,3,0.25,0.6356016709916965,7.505416163008527
6,3,0.0,0.6350575738757629,7.559825874601889
6,4,1.0,0.7106558326217818,0.0
6,4,0.75,0.7224716719999781,-1.1815839378196302
6,4,0.5,0.7228165652709372,-1.2160732649155404
6,4,0.25,0.7210021749769888,-1.0346342355207039
6,4,0.0,0.6998651200317288,1.079071259005293
6,5,1.0,0.7106558326217818,0.0
6,5,0.75,0.6114093775858481,9.924645503593366
6,5,0.5,0.5576196289300627,15.303620369171911
6,5,0.25,0.4959345081868334,21.47213244349484
6,5,0.0,0.4687279879041524,24.19278447176294
6,6,1.0,0.7106558326217818,0.0
6,6,0.75,0.7241280555071187,-1.3472222885336893
6,6,0.5,0.7334918535718515,-2.2836020950069758
6,6,0.25,0.730052038846387,-1.939620622460525
6,6,0.0,0.7045782622395526,0.6077570382229225
6,7,1.0,0.7106558326217818,0.0
6,7,0.75,0.6150992224959039,9.555661012587791
6,7,0.5,0.5530181439834052,15.763768863837658
6,7,0.25,0.4644682336002347,24.618759902154707
6,7,0.0,0.41719481853534246,29.346101408643932
6,8,1.0,0.7106558326217818,0.0
6,8,0.75,0.7313943774321758,-2.0738544810394055
6,8,0.5,0.7322535750766088,-2.159774245482704
6,8,0.25,0.7017395039343919,0.8916328687389896
6,8,0.0,0.6460168627047622,6.463896991701956
7,0,1.0,0.6758885476512901,0.0
7,0,0.75,0.700756184085743,-2.486763643445289
7,0,0.5,0.6531426293767221,2.2745918274568067
7,0,0.25,0.5419748765845721,13.391367106671803
7,0,0.0,0.505465537636991,17.042301001429916
7,1,1.0,0.6758885476512901,0.0
7,1,0.75,0.6855759174762758,-0.9687369824985637
7,1,0.5,0.6187362359393805,5.715231171190959
7,1,0.25,0.6194504834868952,5.64380641643949
7,1,0.0,0.6060061930893734,6.9882354561916715
7,2,1.0,0.6758885476512901,0.0
7,2,0.75,0.67799291187434,-0.2104364223049826
7,2,0.5,0.666008649598297,0.9879898052993163
7,2,0.25,0.6480240829092971,2.7864464741993
7,2,0.0,0.628618952856835,4.726959479445513
7,3,1.0,0.6758885476512901,0.0
7,3,0.75,0.7218907695542474,-4.600222190295722
7,3,0.5,0.7191303890121219,-4.324184136083176
7,3,0.25,0.6619895061185422,1.3899041532747902
7,3,0.0,0.6437434868026303,3.2145060848659868
7,4,1.0,0.6758885476512901,0.0
7,4,0.75,0.6470804322557994,2.8808115395490774
7,4,0.5,0.6235893570799045,5.229919057138566
7,4,0.25,0.6217991767344808,5.408937091680932
7,4,0.0,0.6106656448494407,6.522290280184939
7,5,1.0,0.6758885476512901,0.0
7,5,0.75,0.6959784807982774,-2.008993314698726
7,5,0.5,0.6830780279173878,-0.718948026609767
7,5,0.25,0.6369996606185179,3.888888703277227
7,5,0.0,0.4929106596872988,18.297788796399132
7,6,1.0,0.6758885476512901,0.0
7,6,0.75,0.6712055916424524,0.4682956008837724
7,6,0.5,0.6546188330457033,2.12697146055868
7,6,0.25,0.652864624719439,2.302392293185118
7,6,0.0,0.638084705297727,3.7803842353563155
7,7,1.0,0.6758885476512901,0.0
7,7,0.75,0.6788374784898701,-0.2948930838579944
7,7,0.5,0.661445341295639,1.4443206355651106
7,7,0.25,0.6283033336704082,4.758521398088189
7,7,0.0,0.5796924182055421,9.619612944574808
7,8,1.0,0.6758885476512901,0.0
7,8,0.75,0.658621839658591,1.7266707992699137
7,8,0.5,0.62054620965479,5.534233799650012
7,8,0.25,0.5820278086342118,9.386073901707837
7,8,0.0,0.5138964213871189,16.199212626417125
8,0,1.0,0.7566655952419701,0.0
8,0,0.75,0.7766112438858458,-1.9945648643875713
8,0,0.5,0.7809634700872102,-2.4297874845240153
8,0,0.25,0.7521761204481792,0.4489474793790915
8,0,0.0,0.6335168581299802,12.314873711198992
8,1,1.0,0.7566655952419701,0.0
8,1,0.75,0.7706197376786608,-1.3954142436690686
8,1,0.5,0.7862569436948803,-2.9591348452910227
8,1,0.25,0.7632802106705119,-0.6614615428541804
8,1,0.0,0.6965986192259233,6.0066976016046825
8,2,1.0,0.7566655952419701,0.0
8,2,0.75,0.7675311860640115,-1.0865590822041415
8,2,0.5,0.7619026879088783,-0.5237092666908194
8,2,0.25,0.7393904624163142,1.7275132825655848
8,2,0.0,0.7071054617368238,4.956013350514632
8,3,1.0,0.7566655952419701,0.0
8,3,0.75,0.7664881977448941,-0.9822602502923994
8,3,0.5,0.7739224126669219,-1.7256817424951776
8,3,0.25,0.7351937401846658,2.147185505730431
8,3,0.0,0.72557466906423,3.109092617774012
8,4,1.0,0.7566655952419701,0.0
8,4,0.75,0.7572028831461168,-0.05372879041467549
8,4,0.5,0.7366630042149933,2.000259102697677
8,4,0.25,0.6938990467171477,6.276654852482233
8,4,0.0,0.6725567193770037,8.41088758649664
8,5,1.0,0.7566655952419701,0.0
8,5,0.75,0.7312004571679075,2.5465138074062588
8,5,0.5,0.6796173332819523,7.704826196001779
8,5,0.25,0.6164786663828834,14.018692885908667
8,5,0.0,0.6029640041094121,15.370159113255799
8,6,1.0,0.7566655952419701,0.0
8,6,0.75,0.7591745526236253,-0.25089573816552413
8,6,0.5,0.750852502002539,0.5813093239431133
8,6,0.25,0.7391619217081851,1.7503673533785014
8,6,0.0,0.7421776066221828,1.4487988619787284
8,7,1.0,0.7566655952419701,0.0
8,7,0.75,0.7619800022309245,-0.5314406988954468
8,7,0.5,0.7500177081629441,0.6647887079025971
8,7,0.25,0.7169130960718801,3.975249917008994
8,7,0.0,0.6021031360421503,15.456245919981981
8,8,1.0,0.7566655952419701,0.0
8,8,0.75,0.7538646979644702,0.2800897277499881
8,8,0.5,0.7465678374048512,1.009775783711886
8,8,0.25,0.6890060762840937,6.765951895787636
8,8,0.0,0.6437514791892422,11.291411605272783
9,0,1.0,0.7902472704712904,0.0
9,0,0.75,0.7957283555916136,-0.5481085120323193
9,0,0.5,0.7886538751755148,0.15933952957756237
9,0,0.25,0.776432288232015,1.3814982239275353
9,0,0.0,0.7348734517236678,5.537381874762259
9,1,1.0,0.7902472704712904,0.0
9,1,0.75,0.7771005590338105,1.3146711437479919
9,1,0.5,0.7713411847746156,1.8906085696674846
9,1,0.25,0.7430562024334588,4.719106803783157
9,1,0.0,0.7024815243048571,8.776574616643328
9,2,1.0,0.7902472704712904,0.0
9,2,0.75,0.7902569294335823,-0.000965896229188079
9,2,0.5,0.7719463439171035,1.8300926554186914
9,2,0.25,0.7563760924388018,3.3871178032488625
9,2,0.0,0.740436774426842,4.981049604444843
9,3,1.0,0.7902472704712904,0.0
9,3,0.75,0.8060938348717277,-1.5846564400437302
9,3,0.5,0.7690830884312745,2.116418204001591
9,3,0.25,0.7052152025193639,8.503206795192654
9,3,0.0,0.6495519220998027,14.069534837148767
9,4,1.0,0.7902472704712904,0.0
9,4,0.75,0.7776179088782829,1.2629361593007538
9,4,0.5,0.7812538311352349,0.8993439336055453
9,4,0.25,0.7607820428918894,2.9465227579400954
9,4,0.0,0.7539673076887149,3.6279962782575503
9,5,1.0,0.7902472704712904,0.0
9,5,0.75,0.7867911332351902,0.3456137236100165
9,5,0.5,0.7796279014246658,1.0619369046624638
9,5,0.25,0.6906191184763923,9.962815199489805
9,5,0.0,0.6297646465776547,16.048262389363565
9,6,1.0,0.7902472704712904,0.0
9,6,0.75,0.7864102445434389,0.3837025927851512
9,6,0.5,0.7807204805137853,0.9526789957505111
9,6,0.25,0.7702104888539547,2.0036781617335686
9,6,0.0,0.7492493900559648,4.099788041532559
9,7,1.0,0.7902472704712904,0.0
9,7,0.75,0.7800438333134118,1.0203437157878636
9,7,0.5,0.753459400646615,3.678786982467541
9,7,0.25,0.6979711963484783,9.227607412281213
9,7,0.0,0.6043681627790808,18.58791076922096
9,8,1.0,0.7902472704712904,0.0
9,8,0.75,0.7864698349675265,0.37774355037638596
9,8,0.5,0.7843620407672499,0.5885229704040484
9,8,0.25,0.7706284390634016,1.9618831407888782
9,8,0.0,0.7295867205913387,6.066054987995173
10,0,1.0,0.734215952965953,0.0
10,0,0.75,0.7107231206789812,2.3492832286971743
10,0,0.5,0.6578715933813098,7.634435958464314
10,0,0.25,0.6323903584974122,10.182559446854079
10,0,0.0,0.5301750100487066,20.40409429172464
10,1,1.0,0.734215952965953,0.0
10,1,0.75,0.7450968633694038,-1.088091040345085
10,1,0.5,0.6880254571589345,4.619049580701851
10,1,0.25,0.6552645266030587,7.895142636289432
10,1,0.0,0.626482444114737,10.773350885121602
10,2,1.0,0.734215952965953,0.0
10,2,0.75,0.7378611998050391,-0.36452468390860693
10,2,0.5,0.7207105066969455,1.3505446269007515
10,2,0.25,0.7030057928411491,3.121016012480393
10,2,0.0,0.6744956936621335,5.972025930381952
10,3,1.0,0.734215952965953,0.0
10,3,0.75,0.7299307186386614,0.4285234327291554
10,3,0.5,0.6841113715117544,5.010458145419861
10,3,0.25,0.6315105906333528,10.27053623326002
10,3,0.0,0.5885735651421284,14.564238782382455
10,4,1.0,0.734215952965953,0.0
10,4,0.75,0.7315799503777535,0.2636002588199515
10,4,0.5,0.7203747052359963,1.3841247729956652
10,4,0.25,0.7043740344470972,2.984191851885576
10,4,0.0,0.7031392658693272,3.107668709662581
10,5,1.0,0.734215952965953,0.0
10,5,0.75,0.7229577242248783,1.1258228741074738
10,5,0.5,0.6816221481022882,5.259380486366483
10,5,0.25,0.6774271087259823,5.678884423997066
10,5,0.0,0.6869622905149221,4.725366245103091
10,6,1.0,0.734215952965953,0.0
10,6,0.75,0.7533616485409281,-1.9145695574975141
10,6,0.5,0.7449027619219292,-1.068680895597618
10,6,0.25,0.744711234395966,-1.0495281430012993
10,6,0.0,0.72921588482689,0.5000068139062952
10,7,1.0,0.734215952965953,0.0
10,7,0.75,0.7181678663698758,1.604808659607715
10,7,0.5,0.678901995493328,5.531395747262502
10,7,0.25,0.6508925948421013,8.332335812385171
10,7,0.0,0.5757681363323244,15.84478166336286
10,8,1.0,0.734215952965953,0.0
10,8,0.75,0.7192856303044157,1.4930322661537265
10,8,0.5,0.7033237943899886,3.089215857596439
10,8,0.25,0.6469480991849215,8.726785378103152
10,8,0.0,0.575325859787646,15.889009317830693
11,0,1.0,0.8970973475317485,0.0
11,0,0.75,0.8778131377338048,1.9284209797943763
11,0,0.5,0.8756568857051017,2.144046182664683
11,0,0.25,0.7947052258111043,10.239212172064427
11,0,0.0,0.7355165837093548,16.158076382239372
11,1,1.0,0.8970973475317485,0.0
11,1,0.75,0.9001496011299659,-0.30522535982173693
11,1,0.5,0.8689345805266636,2.816276700508491
11,1,0.25,0.8480395536652852,4.905779386646336
11,1,0.0,0.765669359438672,13.142798809307655
11,2,1.0,0.8970973475317485,0.0
11,2,0.75,0.8904011215781878,0.6696225953560675
11,2,0.5,0.8746540992516176,2.244324828013089
11,2,0.25,0.8419899619025367,5.51073856292118
11,2,0.0,0.7824391395567016,11.465820797504689
11,3,1.0,0.8970973475317485,0.0
11,3,0.75,0.8954272502889818,0.16700972427666771
11,3,0.5,0.8608320555890647,3.6265291942683797
11,3,0.25,0.8281397615273794,6.895758600436908
11,3,0.0,0.7762213960741067,12.087595145764185
11,4,1.0,0.8970973475317485,0.0
11,4,0.75,0.8878128839384107,0.9284463593337788
11,4,0.5,0.8836774825041339,1.3419865027614608
11,4,0.25,0.8524560434960696,4.464130403567889
11,4,0.0,0.814720928787223,8.23764187445255
11,5,1.0,0.8970973475317485,0.0
11,5,0.75,0.8898553096274232,0.7242037904325316
11,5,0.5,0.844551755646858,5.25455918848905
11,5,0.25,0.7641951393222778,13.290220820947074
11,5,0.0,0.6936099579586534,20.348738957309507
11,6,1.0,0.8970973475317485,0.0
11,6,0.75,0.894063735328103,0.3033612203645508
11,6,0.5,0.8811637583385977,1.59335891931508
11,6,0.25,0.8700715441346416,2.702580339710692
11,6,0.0,0.8343109576334279,6.278638989832064
11,7,1.0,0.8970973475317485,0.0
11,7,0.75,0.8845880769145456,1.2509270617202972
11,7,0.5,0.8623500861047068,3.4747261427041765
11,7,0.25,0.8102395749221389,8.685777260960958
11,7,0.0,0.7181700977356039,17.89272497961446
11,8,1.0,0.8970973475317485,0.0
11,8,0.75,0.8832050096161694,1.389233791557909
11,8,0.5,0.8570416370637406,4.005571046800793
11,8,0.25,0.82449172103446,7.260562649728852
11,8,0.0,0.7903710996008674,10.672624793088115
12,0,1.0,0.7971693038456464,0.0
12,0,0.75,0.7947029800597919,0.24663237858545406
12,0,0.5,0.7818325258036548,1.5336778041991628
12,0,0.25,0.7478480305081161,4.932127333753034
12,0,0.0,0.6676019690539332,12.956733479171323
12,1,1.0,0.7971693038456464,0.0
12,1,0.75,0.8030491332942274,-0.5879829448581009
12,1,0.5,0.7765866665277694,2.0582637317877017
12,1,0.25,0.7357490541404217,6.142024970522475
12,1,0.0,0.6962314996233635,10.093780422228294
12,2,1.0,0.7971693038456464,0.0
12,2,0.75,0.7997473330971501,-0.2578029251503633
12,2,0.5,0.7869111976002178,1.0258106245428666
12,2,0.25,0.7430562067957166,5.411309704992984
12,2,0.0,0.6764345279325286,12.073477591311788
12,3,1.0,0.7971693038456464,0.0
12,3,0.75,0.799144312393888,-0.1975008548241508
12,3,0.5,0.7858246548709911,1.134464897465537
12,3,0.25,0.7627727766138979,3.4396527231748575
12,3,0.0,0.7383177497254724,5.885155412017406
12,4,1.0,0.7971693038456464,0.0
12,4,0.75,0.768230922889876,2.8938380955770393
12,4,0.5,0.7460015381810994,5.116776566454706
12,4,0.25,0.7062085290048454,9.096077484080102
12,4,0.0,0.6624867176523077,13.468258619333874
12,5,1.0,0.7971693038456464,0.0
12,5,0.75,0.8029753603218907,-0.5806056476244215
12,5,0.5,0.7593818337646463,3.778747008100014
12,5,0.25,0.6301228367737507,16.704646707189575
12,5,0.0,0.5651265792545447,23.204272459110175
12,6,1.0,0.7971693038456464,0.0
12,6,0.75,0.7972740005714006,-0.01046967257541942
12,6,0.5,0.7934210467796464,0.3748257066000016
12,6,0.25,0.7974699517911878,-0.030064794554141017
12,6,0.0,0.7897504512484567,0.7418852597189773
12,7,1.0,0.7971693038456464,0.0
12,7,0.75,0.806283894961461,-0.9114591115814585
12,7,0.5,0.8063939563290886,-0.9224652483442175
12,7,0.25,0.7641865757223402,3.298272812330627
12,7,0.0,0.7091187774405189,8.805052640512756
12,8,1.0,0.7971693038456464,0.0
12,8,0.75,0.7742901636969434,2.287914014870307
12,8,0.5,0.7332132460211106,6.395605782453584
12,8,0.25,0.6884232424841904,10.874606136145603
12,8,0.0,0.6324710961151204,16.4698207730526
13,0,1.0,0.8970213599811231,0.0
13,0,0.75,0.911660753086476,-1.4639393105352894
13,0,0.5,0.8896453284330565,0.7376031548066542
13,0,0.25,0.835434713824131,6.158664615699205
13,0,0.0,0.6951276702468873,20.189368973423583
13,1,1.0,0.8970213599811231,0.0
13,1,0.75,0.877474122964679,1.954723701644412
13,1,0.5,0.8396554195453649,5.736594043575815
13,1,0.25,0.808067064359182,8.895429562194114
13,1,0.0,0.7916247593302609,10.53966006508622
13,2,1.0,0.8970213599811231,0.0
13,2,0.75,0.892217444721562,0.48039152595611423
13,2,0.5,0.8835717895710211,1.3449570410101974
13,2,0.25,0.8762754241701467,2.074593581097639
13,2,0.0,0.8293437326742847,6.767762730683835
13,3,1.0,0.8970213599811231,0.0
13,3,0.75,0.8935453968076513,0.34759631734717633
13,3,0.5,0.8743340399828836,2.2687319998239475
13,3,0.25,0.853974933517073,4.304642646405011
13,3,0.0,0.8295667726554135,6.745458732570963
13,4,1.0,0.8970213599811231,0.0
13,4,0.75,0.8862138937994734,1.0807466181649739
13,4,0.5,0.8825613420169245,1.4460017964198602
13,4,0.25,0.856149940087545,4.0871419893578125
13,4,0.0,0.8040789230279746,9.294243695314853
13,5,1.0,0.8970213599811231,0.0
13,5,0.75,0.8872364971260487,0.9784862855074405
13,5,0.5,0.8417853715046463,5.523598847647682
13,5,0.25,0.7568420719223559,14.017928805876723
13,5,0.0,0.5811248647322609,31.58964952488622
13,6,1.0,0.8970213599811231,0.0
13,6,0.75,0.8958656234621043,0.11557365190187907
13,6,0.5,0.885068903828613,1.195245615251006
13,6,0.25,0.8621434777924548,3.4877882188668274
13,6,0.0,0.8303212031400418,6.670015684108133
13,7,1.0,0.8970213599811231,0.0
13,7,0.75,0.900423972177856,-0.34026121967328793
13,7,0.5,0.8708457419693783,2.617561801174484
13,7,0.25,0.8382913282854128,5.873003169571033
13,7,0.0,0.827121393305786,6.989996667533704
13,8,1.0,0.8970213599811231,0.0
13,8,0.75,0.9020388312616354,-0.5017471280512331
13,8,0.5,0.8849256834019883,1.2095676579134795
13,8,0.25,0.8488190522176762,4.820230776344692
13,8,0.0,0.8035166479531152,9.350471202800792
14,0,1.0,0.8174567407739803,0.0
14,0,0.75,0.8209737002323301,-0.3516959458349733
14,0,0.5,0.7988307536478971,1.862598712608321
14,0,0.25,0.7710459204286899,4.641082034529043
14,0,0.0,0.7265630824869106,9.089365828706974
14,1,1.0,0.8174567407739803,0.0
14,1,0.75,0.8173244434231234,0.013229735085695804
14,1,0.5,0.8006890108172833,1.6767729956697064
14,1,0.25,0.7907604927440418,2.669624802993853
14,1,0.0,0.7739567025752294,4.350003819875092
14,2,1.0,0.8174567407739803,0.0
14,2,0.75,0.7935420864076523,2.3914654366328003
14,2,0.5,0.7175972104046795,9.985953036930084
14,2,0.25,0.6691271135285121,14.832962724546828
14,2,0.0,0.6220974185272605,19.53593222467198
14,3,1.0,0.8174567407739803,0.0
14,3,0.75,0.7934312115437884,2.4025529230191967
14,3,0.5,0.7711050457665708,4.635169500740954
14,3,0.25,0.7338780203445887,8.357872042939164
14,3,0.0,0.6808641921839156,13.659254859006476
14,4,1.0,0.8174567407739803,0.0
14,4,0.75,0.8182891091965655,-0.08323684225851613
14,4,0.5,0.8027585348075006,1.469820596647975
14,4,0.25,0.7813608665414203,3.609587423256
14,4,0.0,0.7275597970214054,8.989694375257496
14,5,1.0,0.8174567407739803,0.0
14,5,0.75,0.7891884393925691,2.826830138141123
14,5,0.5,0.7088855393728459,10.857120140113441
14,5,0.25,0.6684871925351259,14.896954823885444
14,5,0.0,0.6126256358477589,20.483110492622146
14,6,1.0,0.8174567407739803,0.0
14,6,0.75,0.8101183388132281,0.7338401960752194
14,6,0.5,0.8025085212592925,1.4948219514687833
14,6,0.25,0.8037960055324184,1.3660735241561972
14,6,0.0,0.7965454354308432,2.091130534313712
14,7,1.0,0.8174567407739803,0.0
14,7,0.75,0.8249400617172562,-0.7483320943275862
14,7,0.5,0.7957912395148407,2.1665501259139686
14,7,0.25,0.7720364032655123,4.542033750846808
14,7,0.0,0.717114104722605,10.03426360513754
14,8,1.0,0.8174567407739803,0.0
14,8,0.75,0.8033979547866896,1.4058785987290712
14,8,0.5,0.7887009670352494,2.875577373873095
14,8,0.25,0.765467001028808,5.198973974517229
14,8,0.0,0.6965514716306918,12.090526914328859
15,0,1.0,0.8850947234921344,0.0
15,0,0.75,0.8781487680835628,0.6945955408571569
15,0,0.5,0.8586800658218386,2.6414657670295716
15,0,0.25,0.8383766414737432,4.671808201839111
15,0,0.0,0.7797578499270522,10.533687356508214
15,1,1.0,0.8850947234921344,0.0
15,1,0.75,0.8779411232548656,0.7153600237268742
15,1,0.5,0.8648928808752565,2.020184261687785
15,1,0.25,0.8044880295968599,8.060669389527442
15,1,0.0,0.7504292384669118,13.466548502522258
15,2,1.0,0.8850947234921344,0.0
15,2,0.75,0.8655263148288845,1.9568408663249826
15,2,0.5,0.835133406842729,4.99613166494054
15,2,0.25,0.8114894385933222,7.360528489881213
15,2,0.0,0.7698114115961127,11.52833118960217
15,3,1.0,0.8850947234921344,0.0
15,3,0.75,0.8759392572497444,0.9155466242389942
15,3,0.5,0.8536459683197901,3.1448755172344245
15,3,0.25,0.8266161392093069,5.847858428282748
15,3,0.0,0.7892219138565415,9.587280963559285
15,4,1.0,0.8850947234921344,0.0
15,4,0.75,0.8698014205070257,1.529330298510867
15,4,0.5,0.86731412794148,1.7780595550654366
15,4,0.25,0.7970236331917975,8.807109030033688
15,4,0.0,0.7886109349819027,9.648378851023164
15,5,1.0,0.8850947234921344,0.0
15,5,0.75,0.8572433344351906,2.785138905694373
15,5,0.5,0.7859254421223497,9.916928136978465
15,5,0.25,0.6933071568585394,19.178756663359497
15,5,0.0,0.6180204307224542,26.70742927696802
15,6,1.0,0.8850947234921344,0.0
15,6,0.75,0.8800943728579302,0.500035063420412
15,6,0.5,0.8769378974739744,0.8156826018159924
15,6,0.25,0.8730610730101576,1.2033650481976799
15,6,0.0,0.8473562792016817,3.77384442904527
15,7,1.0,0.8850947234921344,0.0
15,7,0.75,0.8591153481036464,2.5979375388487935
15,7,0.5,0.8338580187319683,5.123670476016606
15,7,0.25,0.7935654844152074,9.152923907692701
15,7,0.0,0.76265772081848,12.243700267365432
15,8,1.0,0.8850947234921344,0.0
15,8,0.75,0.8874925203390915,-0.23977968469571787
15,8,0.5,0.8693306847575142,1.5764038734620178
15,8,0.25,0.8485323868372064,3.656233665492792
15,8,0.0,0.8264755386414246,5.861918485070971
16,0,1.0,0.8318707141546784,0.0
16,0,0.75,0.8022472659196569,2.96234482350215
16,0,0.5,0.7679236871038861,6.394702705079225
16,0,0.25,0.7224018639385266,10.946885021615183
16,0,0.0,0.6880569432547023,14.381377089997605
16,1,1.0,0.8318707141546784,0.0
16,1,0.75,0.8390458798079083,-0.7175165653229953
16,1,0.5,0.817784470186208,1.4086243968470358
16,1,0.25,0.8090924922609288,2.277822189374956
16,1,0.0,0.7695560918906044,6.231462226407403
16,2,1.0,0.8318707141546784,0.0
16,2,0.75,0.8247534668774871,0.7117247277191319
16,2,0.5,0.8044184589749004,2.7452255179778007
16,2,0.25,0.7747796896098147,5.70910245448637
16,2,0.0,0.7423478462747917,8.952286787988673
16,3,1.0,0.8318707141546784,0.0
16,3,0.75,0.8265612076922194,0.5309506462458979
16,3,0.5,0.8079294170438436,2.3941297110834814
16,3,0.25,0.7812621893989595,5.060852475571886
16,3,0.0,0.7629531803608594,6.891753379381904
16,4,1.0,0.8318707141546784,0.0
16,4,0.75,0.8233122321622882,0.8558481992390177
16,4,0.5,0.8094664865639789,2.240422759069949
16,4,0.25,0.7549714486074935,7.689926554718484
16,4,0.0,0.6946309452043485,13.723976895032985
16,5,1.0,0.8318707141546784,0.0
16,5,0.75,0.8030020590211986,2.8868655133479804
16,5,0.5,0.7475460196093155,8.432469454536285
16,5,0.25,0.6577671586311418,17.410355552353664
16,5,0.0,0.6016974800286097,23.01732341260687
16,6,1.0,0.8318707141546784,0.0
16,6,0.75,0.8306960661121762,0.11746480425022243
16,6,0.5,0.8338501899358188,-0.19794757811404384
16,6,0.25,0.8222144683675915,0.9656245787086903
16,6,0.0,0.8098965657904927,2.1974148364185653
16,7,1.0,0.8318707141546784,0.0
16,7,0.75,0.8338357936614769,-0.19650795067984728
16,7,0.5,0.7987823270723964,3.308838708228201
16,7,0.25,0.7694068218570274,6.246389229765104
16,7,0.0,0.7333059576361086,9.856475651856977
16,8,1.0,0.8318707141546784,0.0
16,8,0.75,0.8150746940099394,1.6796020144739021
16,8,0.5,0.7884462191604508,4.342449499422763
16,8,0.25,0.7596613192371664,7.220939491751199
16,8,0.0,0.7021129111834599,12.975780297121853
17,0,1.0,0.773331293140856,0.0
17,0,0.75,0.7761346520111648,-0.2803358870308803
17,0,0.5,0.7320598136520632,4.1271479488792835
17,0,0.25,0.5848214535321665,18.850983960868952
17,0,0.0,0.5068185764614199,26.65127166794361
17,1,1.0,0.773331293140856,0.0
17,1,0.75,0.7692287079897382,0.41025851511178324
17,1,0.5,0.7302923300804657,4.303896306039034
17,1,0.25,0.7136106035105948,5.972068963026123
17,1,0.0,0.6955275650942471,7.780372804660896
17,2,1.0,0.773331293140856,0.0
17,2,0.75,0.7753937410738739,-0.2062447933017908
17,2,0.5,0.7452353935545173,2.8095899586338735
17,2,0.25,0.7128461821931638,6.048511094769227
17,2,0.0,0.668588152524893,10.474314061596301
17,3,1.0,0.773331293140856,0.0
17,3,0.75,0.7742881745900688,-0.09568814492127986
17,3,0.5,0.7547349586616602,1.8596334479195842
17,3,0.25,0.6372374289143432,13.609386422651282
17,3,0.0,0.6051397480985257,16.819154504233037
17,4,1.0,0.773331293140856,0.0
17,4,0.75,0.7820886579309438,-0.8757364790087818
17,4,0.5,0.761996716064013,1.1334577076843044
17,4,0.25,0.7416036916338059,3.172760150705012
17,4,0.0,0.6739863709655463,9.934492217530977
17,5,1.0,0.773331293140856,0.0
17,5,0.75,0.7153577354848542,5.797355765600187
17,5,0.5,0.6956111772755934,7.772011586526261
17,5,0.25,0.6604403741250051,11.289091901585092
17,5,0.0,0.6273372237229808,14.599406941787517
17,6,1.0,0.773331293140856,0.0
17,6,0.75,0.7734599189575492,-0.012862581669315087
17,6,0.5,0.7663960572698915,0.6935235870964562
17,6,0.25,0.7613775596837926,1.195373345706341
17,6,0.0,0.7575119132507726,1.5819379890083418
17,7,1.0,0.773331293140856,0.0
17,7,0.75,0.768533945650395,0.47973474904610125
17,7,0.5,0.7283302877357457,4.500100540511031
17,7,0.25,0.699296142696238,7.403515044461805
17,7,0.0,0.6605014183549861,11.282987478586993
17,8,1.0,0.773331293140856,0.0
17,8,0.75,0.7944062514773783,-2.1074958336522287
17,8,0.5,0.7880891801431658,-1.4757887002309733
17,8,0.25,0.7783207321847235,-0.4989439043867505
17,8,0.0,0.7369374394943007,3.639385364655534
18,0,1.0,0.7344253989369502,0.0
18,0,0.75,0.7246852005916515,0.9740198345298712
18,0,0.5,0.7008988258041481,3.352657313280216
18,0,0.25,0.6864380763337768,4.79873226031734
18,0,0.0,0.6786567215496487,5.576867738730151
18,1,1.0,0.7344253989369502,0.0
18,1,0.75,0.6983127054489656,3.6112693487984626
18,1,0.5,0.6928289897039897,4.15964092329606
18,1,0.25,0.6860709718175714,4.835442711937887
18,1,0.0,0.6795593731107774,5.486602582617284
18,2,1.0,0.7344253989369502,0.0
18,2,0.75,0.7577788978176575,-2.3353498880707257
18,2,0.5,0.7527447426462559,-1.8319343709305658
18,2,0.25,0.7289389001432096,0.5486498793740635
18,2,0.0,0.7057960923198694,2.862930661708085
18,3,1.0,0.7344253989369502,0.0
18,3,0.75,0.711057288634899,2.3368110302051215
18,3,0.5,0.6797858380090754,5.46395609278748
18,3,0.25,0.6443289747593026,9.009642417764763
18,3,0.0,0.6068948708478963,12.753052808905396
18,4,1.0,0.7344253989369502,0.0
18,4,0.75,0.7465171233211114,-1.2091724384161173
18,4,0.5,0.7354340933157844,-0.10086943788341074
18,4,0.25,0.6900404077544013,4.4384991182548905
18,4,0.0,0.5829920508854535,15.143334805149678
18,5,1.0,0.7344253989369502,0.0
18,5,0.75,0.7449148783755193,-1.0489479438569038
18,5,0.5,0.7273974674817377,0.7027931455212522
18,5,0.25,0.6672131191615279,6.721227977542233
18,5,0.0,0.595897645892846,13.852775304410425
18,6,1.0,0.7344253989369502,0.0
18,6,0.75,0.7678521213774807,-3.3426722440530465
18,6,0.5,0.7833053879803017,-4.887998904335145
18,6,0.25,0.7902590057859087,-5.583360684895844
18,6,0.0,0.7824724201594584,-4.804702122250815
18,7,1.0,0.7344253989369502,0.0
18,7,0.75,0.7239321246840044,1.0493274252945883
18,7,0.5,0.7033394633889212,3.1085935548029076
18,7,0.25,0.6842485227507804,5.017687618616984
18,7,0.0,0.6803247234392407,5.410067549770958
18,8,1.0,0.7344253989369502,0.0
18,8,0.75,0.7190059580541736,1.5419440882776692
18,8,0.5,0.7049502318658318,2.9475167071118413
18,8,0.25,0.678428561570009,5.599683736694128
18,8,0.0,0.6693802818284269,6.504511710852334
19,0,1.0,0.8246911116150938,0.0
19,0,0.75,0.8141852533512126,1.0505858263881174
19,0,0.5,0.8092704908716093,1.5420620743484492
19,0,0.25,0.7789883382366771,4.570277337841667
19,0,0.0,0.750809337255349,7.388177435974475
19,1,1.0,0.8246911116150938,0.0
19,1,0.75,0.8231701123760595,0.15209992390342597
19,1,0.5,0.7817850265683961,4.290608504669768
19,1,0.25,0.767198557117912,5.7492554497181825
19,1,0.0,0.7392623200527456,8.542879156234818
19,2,1.0,0.8246911116150938,0.0
19,2,0.75,0.8293330887964568,-0.4641977181363055
19,2,0.5,0.80827372606798,1.6417385547113805
19,2,0.25,0.7877385593484373,3.69525522666565
19,2,0.0,0.7431385583334669,8.155255328162692
19,3,1.0,0.8246911116150938,0.0
19,3,0.75,0.8181424176111987,0.6548694003895128
19,3,0.5,0.7831891062467233,4.150200536837046
19,3,0.25,0.7324185481602914,9.227256345480239
19,3,0.0,0.6942457423407212,13.044536927437257
19,4,1.0,0.8246911116150938,0.0
19,4,0.75,0.8433811350402616,-1.869002342516779
19,4,0.5,0.8355482700360122,-1.085715842091839
19,4,0.25,0.7897055894330278,3.4985522182065965
19,4,0.0,0.7544172679155063,7.027384369958744
19,5,1.0,0.8246911116150938,0.0
19,5,0.75,0.8262467102970016,-0.15555986819077994
19,5,0.5,0.7895051779934444,3.5185933621649346
19,5,0.25,0.7479091508121511,7.6781960802942635
19,5,0.0,0.6528425932697343,17.18485183453595
19,6,1.0,0.8246911116150938,0.0
19,6,0.75,0.841067675493905,-1.6376563878811257
19,6,0.5,0.8470567382090121,-2.2365626593918275
19,6,0.25,0.8534862901137832,-2.87951784986894
19,6,0.0,0.8436297704651075,-1.8938658850013668
19,7,1.0,0.8246911116150938,0.0
19,7,0.75,0.8224399461445179,0.2251165470575911
19,7,0.5,0.8127850812495302,1.1906030365563591
19,7,0.25,0.7791108466549076,4.558026496018619
19,7,0.0,0.7353010025915584,8.93901090235354
19,8,1.0,0.8246911116150938,0.0
19,8,0.75,0.822969687101436,0.17214245136577544
19,8,0.5,0.8021902554521854,2.2500856162908422
19,8,0.25,0.7794084799918306,4.5282631623263185
19,8,0.0,0.7261639907202357,9.852712089485804
20,0,1.0,0.7164927800617144,0.0
20,0,0.75,0.7300475126129431,-1.3554732551228743
20,0,0.5,0.7298564014128383,-1.33636213511239
20,0,0.25,0.7041655409898127,1.2327239071901697
20,0,0.0,0.6578720428142484,5.8620737247465975
20,1,1.0,0.7164927800617144,0.0
20,1,0.75,0.7152846658884954,0.12081141732189771
20,1,0.5,0.6854865200049162,3.1006260056798185
20,1,0.25,0.6520753815174914,6.44173985442229
20,1,0.0,0.6046176288924983,11.18751511692161
20,2,1.0,0.7164927800617144,0.0
20,2,0.75,0.7170102095866289,-0.051742952491451444
20,2,0.5,0.7016636998838043,1.482908017791007
20,2,0.25,0.6869566779170028,2.9536102144711585
20,2,0.0,0.6249470555793333,9.154572448238108
20,3,1.0,0.7164927800617144,0.0
20,3,0.75,0.7267224277603347,-1.0229647698620337
20,3,0.5,0.7278042141400568,-1.1311434078342453
20,3,0.25,0.741863961363056,-2.537118130134164
20,3,0.0,0.7459652187452113,-2.9472438683496915
20,4,1.0,0.7164927800617144,0.0
20,4,0.75,0.7193854517088392,-0.28926716471248115
20,4,0.5,0.7435220542150243,-2.7029274153309912
20,4,0.25,0.7189716809356795,-0.2478900873965184
20,4,0.0,0.6542669402266985,6.222583983501584
20,5,1.0,0.7164927800617144,0.0
20,5,0.75,0.7467301074845782,-3.023732742286389
20,5,0.5,0.7495190802327302,-3.302630017101582
20,5,0.25,0.7353373672786103,-1.884458721689597
20,5,0.0,0.6357603890376791,8.073239102403528
20,6,1.0,0.7164927800617144,0.0
20,6,0.75,0.7140146301386964,0.24781499230179804
20,6,0.5,0.7090041699826305,0.7488610079083857
20,6,0.25,0.7095319096063526,0.6960870455361756
20,6,0.0,0.717243453199055,-0.07506731373406739
20,7,1.0,0.7164927800617144,0.0
20,7,0.75,0.7035330800062065,1.295970005550784
20,7,0.5,0.6963746353923955,2.0118144669318827
20,7,0.25,0.6763272181238746,4.0165561937839716
20,7,0.0,0.6590134822938309,5.747929776788341
20,8,1.0,0.7164927800617144,0.0
20,8,0.75,0.7122498210624459,0.4242958999268409
20,8,0.5,0.6861810928561717,3.031168720554267
20,8,0.25,0.6996437052945101,1.6849074767204208
20,8,0.0,0.6950379271872078,2.1454852874506547
21,0,1.0,0.8165948467567381,0.0
21,0,0.75,0.8112092981936213,0.5385548563116793
21,0,0.5,0.77487848657886,4.171636017787805
21,0,0.25,0.693287346339745,12.330750041699313
21,0,0.0,0.518429885945449,29.816496081128907
21,1,1.0,0.8165948467567381,0.0
21,1,0.75,0.787114259933882,2.9480586822856147
21,1,0.5,0.7718383169159461,4.475652984079204
21,1,0.25,0.747752668488928,6.884217826781014
21,1,0.0,0.7370104965400818,7.9584350216656325
21,2,1.0,0.8165948467567381,0.0
21,2,0.75,0.8063078780369612,1.0286968719776857
21,2,0.5,0.7708780286199864,4.571681813675166
21,2,0.25,0.7245209313204797,9.207391543625842
21,2,0.0,0.6928735032964694,12.372134346026876
21,3,1.0,0.8165948467567381,0.0
21,3,0.75,0.7759529580186452,4.064188873809293
21,3,0.5,0.7542214361443574,6.237341061238066
21,3,0.25,0.7295846683487193,8.701017840801883
21,3,0.0,0.6253039371568189,19.129090959991924
21,4,1.0,0.8165948467567381,0.0
21,4,0.75,0.8275716958834349,-1.097684912669683
21,4,0.5,0.8326857566793556,-1.6090909922617525
21,4,0.25,0.8306969204867639,-1.410207373002581
21,4,0.0,0.7979533231984213,1.864152355831683
21,5,1.0,0.8165948467567381,0.0
21,5,0.75,0.8062864845317632,1.0308362224974887
21,5,0.5,0.8038336853357201,1.276116142101802
21,5,0.25,0.7715919849933133,4.500286176342483
21,5,0.0,0.7434209534528031,7.317389330393498
21,6,1.0,0.8165948467567381,0.0
21,6,0.75,0.8277258012763729,-1.113095451963475
21,6,0.5,0.8248122992812454,-0.821745252450734
21,6,0.25,0.8263891104279373,-0.9794263671199177
21,6,0.0,0.8226723238708521,-0.6077477114113994
21,7,1.0,0.8165948467567381,0.0
21,7,0.75,0.812472755574321,0.41220911824171313
21,7,0.5,0.8053644887590774,1.12303579976607
21,7,0.25,0.7891270797562391,2.746776700049902
21,7,0.0,0.7843566905957028,3.2238156161035314
21,8,1.0,0.8165948467567381,0.0
21,8,0.75,0.8093672695551151,0.7227577201623037
21,8,0.5,0.7967188134730233,1.987603328371479
21,8,0.25,0.7746143277642296,4.198051899250855
21,8,0.0,0.7269588480407638,8.963599871597427
22,0,1.0,0.7210954742931488,0.0
22,0,0.75,0.7160523422433587,0.5043132049790122
22,0,0.5,0.6967738920945825,2.4321582198566283
22,0,0.25,0.688732186610552,3.2363287682596775
22,0,0.0,0.5802897974457175,14.080567684743128
22,1,1.0,0.7210954742931488,0.0
22,1,0.75,0.7263907588935006,-0.529528460035178
22,1,0.5,0.7213062883797375,-0.02108140865887398
22,1,0.25,0.7064759898449737,1.4619484448175069
22,1,0.0,0.6789341700917894,4.2161304201359435
22,2,1.0,0.7210954742931488,0.0
22,2,0.75,0.7172188306704022,0.3876643622746645
22,2,0.5,0.7206587993694282,0.043667492372057026
22,2,0.25,0.7194636425991591,0.1631831693989727
22,2,0.0,0.6733335569303547,4.7761917362794115
22,3,1.0,0.7210954742931488,0.0
22,3,0.75,0.7132197348232491,0.7875739469899723
22,3,0.5,0.6798696937150046,4.122578057814419
22,3,0.25,0.6276347075656645,9.346076672748428
22,3,0.0,0.5752740534504511,14.582142084269767
22,4,1.0,0.7210954742931488,0.0
22,4,0.75,0.7088204429242843,1.2275031368864542
22,4,0.5,0.7062089409659776,1.4886533327171159
22,4,0.25,0.6741293124673786,4.696616182577018
22,4,0.0,0.6478608196666341,7.323465462651468
22,5,1.0,0.7210954742931488,0.0
22,5,0.75,0.6986913297988988,2.240414449424999
22,5,0.5,0.6731719998733956,4.79234744197532
22,5,0.25,0.5817956443330863,13.929982996006252
22,5,0.0,0.45917233930236473,26.192313499078406
22,6,1.0,0.7210954742931488,0.0
22,6,0.75,0.7203961735938481,0.06993006993006867
22,6,0.5,0.7166086789901956,0.44867953029531504
22,6,0.25,0.7154563698544276,0.5639104438721176
22,6,0.0,0.7209002392030861,0.019523509006269535
22,7,1.0,0.7210954742931488,0.0
22,7,0.75,0.7099549131499004,1.114056114324835
22,7,0.5,0.6938079352763536,2.728753901679515
22,7,0.25,0.6765900133086911,4.450546098445773
22,7,0.0,0.6509627447182958,7.013272957485295
22,8,1.0,0.7210954742931488,0.0
22,8,0.75,0.7024914530883513,1.8604021204797538
22,8,0.5,0.6686293309185571,5.246614337459166
22,8,0.25,0.6477608542380875,7.333462005506131
22,8,0.0,0.6098993764172336,11.119609787591521
23,0,1.0,0.7030653798385902,0.0
23,0,0.75,0.6898373812416878,1.322799859690238
23,0,0.5,0.6550842722000669,4.798110763852326
23,0,0.25,0.6374006542589367,6.566472557965353
23,0,0.0,0.6337880648248877,6.927731501370249
23,1,1.0,0.7030653798385902,0.0
23,1,0.75,0.7020272050589553,0.10381747796348595
23,1,0.5,0.7074277487256322,-0.4362368887042001
23,1,0.25,0.7068116645918119,-0.3746284753221696
23,1,0.0,0.6940543811170115,0.9010998721578733
23,2,1.0,0.7030653798385902,0.0
23,2,0.75,0.7195326727164815,-1.6467292877891282
23,2,0.5,0.7233801814351574,-2.031480159656718
23,2,0.25,0.731128206423832,-2.806282658524184
23,2,0.0,0.7343877734264508,-3.1322393587860597
23,3,1.0,0.7030653798385902,0.0
23,3,0.75,0.7002421187088398,0.28232611297503984
23,3,0.5,0.6899036606323835,1.316171920620668
23,3,0.25,0.6804884876685513,2.2576892170038887
23,3,0.0,0.6743018597233992,2.876352011519101
23,4,1.0,0.7030653798385902,0.0
23,4,0.75,0.7065887264493497,-0.35233466107594813
23,4,0.5,0.6820185214510597,2.104685838753051
23,4,0.25,0.620170432043137,8.289494779545315
23,4,0.0,0.5243704158975757,17.869496394101446
23,5,1.0,0.7030653798385902,0.0
23,5,0.75,0.6916539254922279,1.141145434636226
23,5,0.5,0.6460226378583069,5.704274198028325
23,5,0.25,0.5495656281899386,15.34997516486516
23,5,0.0,0.5042609604160473,19.88044194225429
23,6,1.0,0.7030653798385902,0.0
23,6,0.75,0.7017450767240547,0.13203031145354593
23,6,0.5,0.6895619878329071,1.3503392005683068
23,6,0.25,0.6422642972549856,6.080108258360461
23,6,0.0,0.5747879749589163,12.827740487967388
23,7,1.0,0.7030653798385902,0.0
23,7,0.75,0.7199662301293139,-1.6900850290723746
23,7,0.5,0.69882127614366,0.42441036949302235
23,7,0.25,0.653896761911552,4.91686179270382
23,7,0.0,0.5818159810377581,12.124939880083208
23,8,1.0,0.7030653798385902,0.0
23,8,0.75,0.69421403287578,0.8851346962810203
23,8,0.5,0.663322815599781,3.9742564238809175
23,8,0.25,0.6259130637752454,7.715231606334482
23,8,0.0,0.6021031986906215,10.096218114796873
24,0,1.0,0.7026684432639875,0.0
24,0,0.75,0.6736959642623217,2.8972479001665774
24,0,0.5,0.6202738012200928,8.239464204389469
24,0,0.25,0.5833118855388952,11.935655772509223
24,0,0.0,0.5781923654166858,12.447607784730163
24,1,1.0,0.7026684432639875,0.0
24,1,0.75,0.6858353508377844,1.6833092426203122
24,1,0.5,0.6516776741188822,5.099076914510525
24,1,0.25,0.6119157278773196,9.075271538666785
24,1,0.0,0.5920858440247487,11.058259923923874
24,2,1.0,0.7026684432639875,0.0
24,2,0.75,0.7010488405888672,0.16196026751202908
24,2,0.5,0.6769907713189116,2.5677671945075864
24,2,0.25,0.6513932823158343,5.127516094815321
24,2,0.0,0.6075744492239338,9.50939940400537
24,3,1.0,0.7026684432639875,0.0
24,3,0.75,0.7123272621053056,-0.965881884131814
24,3,0.5,0.7084474553134348,-0.5779012049447307
24,3,0.25,0.6930379159381548,0.9630527325832694
24,3,0.0,0.6780392332550819,2.462921000890561
24,4,1.0,0.7026684432639875,0.0
24,4,0.75,0.7022899228984848,0.0378520365502677
24,4,0.5,0.6594614090454003,4.320703421858719
24,4,0.25,0.5846016076584593,11.806683560552822
24,4,0.0,0.541345436226459,16.132300703752843
24,5,1.0,0.7026684432639875,0.0
24,5,0.75,0.6193482040381931,8.332023922579435
24,5,0.5,0.5496103165801078,15.305812668387963
24,5,0.25,0.4818395549859579,22.08288882780296
24,5,0.0,0.40792121811725807,29.47472251467294
24,6,1.0,0.7026684432639875,0.0
24,6,0.75,0.6750426296718062,2.7625813592181303
24,6,0.5,0.661783723259133,4.088472000485444
24,6,0.25,0.6424545383004242,6.021390496356327
24,6,0.0,0.6125550305977184,9.011341266626903
24,7,1.0,0.7026684432639875,0.0
24,7,0.75,0.6976603977885114,0.5008045475476064
24,7,0.5,0.6938857218896941,0.8782721374293367
24,7,0.25,0.6094143409435974,9.325410232039012
24,7,0.0,0.5521159055328966,15.05525377310909
24,8,1.0,0.7026684432639875,0.0
24,8,0.75,0.7129892536724834,-1.0320810408495973
24,8,0.5,0.722276120113506,-1.9607676849518474
24,8,0.25,0.7084830351772973,-0.5814591913309797
24,8,0.0,0.6795368379910104,2.3131605272977085
25,0,1.0,0.7627111384180012,0.0
25,0,0.75,0.7658178392269084,-0.3106700808907181
25,0,0.5,0.7394082289065408,2.3302909511460412
25,0,0.25,0.705561364640691,5.714977377731023
25,0,0.0,0.6867026424689443,7.600849594905689
25,1,1.0,0.7627111384180012,0.0
25,1,0.75,0.7556517486115325,0.7059389806468697
25,1,0.5,0.7347144949442797,2.799664347372155
25,1,0.25,0.7132441452122883,4.946699320571291
25,1,0.0,0.6667464497240545,9.59646886939467
25,2,1.0,0.7627111384180012,0.0
25,2,0.75,0.765280498889411,-0.2569360471409765
25,2,0.5,0.7540971119282504,0.8614026489750848
25,2,0.25,0.7292780319035446,3.3433106514456634
25,2,0.0,0.664377668131409,9.833347028659222
25,3,1.0,0.7627111384180012,0.0
25,3,0.75,0.7602919618742852,0.24191765437160395
25,3,0.5,0.7440068549572729,1.8704283460728277
25,3,0.25,0.6913786207006805,7.133251771732074
25,3,0.0,0.65483030858035,10.788082983765124
25,4,1.0,0.7627111384180012,0.0
25,4,0.75,0.7676791106262086,-0.49679722082074385
25,4,0.5,0.7509042478918231,1.1806890526178115
25,4,0.25,0.7231482953555748,3.956284306242641
25,4,0.0,0.6818376949986796,8.087344341932157
25,5,1.0,0.7627111384180012,0.0
25,5,0.75,0.7223682190742928,4.034291934370837
25,5,0.5,0.6839338088295402,7.877732958846096
25,5,0.25,0.6549547505461484,10.775638787185283
25,5,0.0,0.5900598396496279,17.265129876837328
25,6,1.0,0.7627111384180012,0.0
25,6,0.75,0.7613174180865071,0.1393720331494097
25,6,0.5,0.7692296487140261,-0.6518510296024904
25,6,0.25,0.7721681123036961,-0.9456973885694886
25,6,0.0,0.7725188564972071,-0.9807718079205885
25,7,1.0,0.7627111384180012,0.0
25,7,0.75,0.7661137618005633,-0.3402623382562142
25,7,0.5,0.745495895342257,1.721524307574418
25,7,0.25,0.7297814178696413,3.2929720548359853
25,7,0.0,0.6889194383755713,7.379170004242985
25,8,1.0,0.7627111384180012,0.0
25,8,0.75,0.7786683233113422,-1.595718489334097
25,8,0.5,0.7811544488004162,-1.844331038241498
25,8,0.25,0.7798801276344419,-1.7168989216440722
25,8,0.0,0.7486738397177004,1.4037298700300793
26,0,1.0,0.7521744717316212,0.0
26,0,0.75,0.7569947073868188,-0.48202356551976244
26,0,0.5,0.7372701319361854,1.4904339795435817
26,0,0.25,0.7090329690391777,4.3141502692443545
26,0,0.0,0.6849810604487203,6.719341128290091
26,1,1.0,0.7521744717316212,0.0
26,1,0.75,0.76097355052434,-0.8799078792718795
26,1,0.5,0.7518650685582597,0.03094031733614777
26,1,0.25,0.7373491237819436,1.4825347949677603
26,1,0.0,0.6975063653153977,5.466810641622355
26,2,1.0,0.7521744717316212,0.0
26,2,0.75,0.7400649373386123,1.210953439300888
26,2,0.5,0.723622507376223,2.8551964355398196
26,2,0.25,0.7067657344305287,4.540873730109252
26,2,0.0,0.6614869037013131,9.068756803030809
26,3,1.0,0.7521744717316212,0.0
26,3,0.75,0.7444810821103199,0.7693389621301283
26,3,0.5,0.7422460000650745,0.9928471666546757
26,3,0.25,0.7211660572553513,3.1008414476269897
26,3,0.0,0.689542245601383,6.263222613023823
26,4,1.0,0.7521744717316212,0.0
26,4,0.75,0.7370606473735546,1.511382435806663
26,4,0.5,0.7171849199889613,3.498955174265994
26,4,0.25,0.6732713107803724,7.8903160951248825
26,4,0.0,0.6318986641928783,12.02758075387429
26,5,1.0,0.7521744717316212,0.0
26,5,0.75,0.7502069808959317,0.19674908356894782
26,5,0.5,0.7259292902583933,2.6245181473227963
26,5,0.25,0.6449868408902023,10.71876308414189
26,5,0.0,0.594710454806225,15.746401692539624
26,6,1.0,0.7521744717316212,0.0
26,6,0.75,0.7564929237726671,-0.43184520410458616
26,6,0.5,0.756159471985059,-0.39850002534377316
26,6,0.25,0.7284052667563475,2.3769204975273683
26,6,0.0,0.7142391104240517,3.793536130756947
26,7,1.0,0.7521744717316212,0.0
26,7,0.75,0.7547165174690619,-0.2542045737440657
26,7,0.5,0.738989431272135,1.3185040459486208
26,7,0.25,0.7093191587722723,4.285531295934897
26,7,0.0,0.6802358951049987,7.193857662662251
26,8,1.0,0.7521744717316212,0.0
26,8,0.75,0.7491839582705526,0.29905134610686
26,8,0.5,0.7209562208190193,3.1218250912601886
26,8,0.25,0.6760766840930615,7.609778763855967
26,8,0.0,0.630371601869854,12.180286986176725
27,0,1.0,0.8348214573091084,0.0
27,0,0.75,0.8445117456520187,-0.9690288342910303
27,0,0.5,0.8698809408765439,-3.505948356743549
27,0,0.25,0.8378374275422196,-0.3015970233111176
27,0,0.0,0.8179023289610949,1.6919128348013457
27,1,1.0,0.8348214573091084,0.0
27,1,0.75,0.834028110460189,0.07933468489194073
27,1,0.5,0.8034111412598586,3.141031604924982
27,1,0.25,0.7912163450514705,4.360511225763785
27,1,0.0,0.7980070752699211,3.68143820391873
27,2,1.0,0.8348214573091084,0.0
27,2,0.75,0.8274188593688454,0.7402597940262989
27,2,0.5,0.8117186762670556,2.3102781042052767
27,2,0.25,0.7832436769761488,5.157778033295957
27,2,0.0,0.7283561625981259,10.646529471098255
27,3,1.0,0.8348214573091084,0.0
27,3,0.75,0.8356089978236425,-0.0787540514534113
27,3,0.5,0.8285024068596798,0.6319050449428598
27,3,0.25,0.7944469890194674,4.0374468289640975
27,3,0.0,0.7323417068606246,10.247975044848378
27,4,1.0,0.8348214573091084,0.0
27,4,0.75,0.8412118048520779,-0.6390347542969521
27,4,0.5,0.829961042331482,0.48604149776263483
27,4,0.25,0.8088054649231521,2.601599238595631
27,4,0.0,0.7556346516543022,7.918680565480618
27,5,1.0,0.8348214573091084,0.0
27,5,0.75,0.823797950586195,1.1023506722913412
27,5,0.5,0.7195599903261038,11.526146698300455
27,5,0.25,0.6048648974528509,22.995655985625753
27,5,0.0,0.5584058028101091,27.64156544989993
27,6,1.0,0.8348214573091084,0.0
27,6,0.75,0.8397059756503129,-0.48845183412045134
27,6,0.5,0.826573519575866,0.8247937733242394
27,6,0.25,0.8200178322378231,1.4803625071285298
27,6,0.0,0.8108637351830561,2.3957722126052294
27,7,1.0,0.8348214573091084,0.0
27,7,0.75,0.835861927545961,-0.10404702368526086
27,7,0.5,0.8325365536684459,0.22849036406624723
27,7,0.25,0.7055266187685777,12.92948385405307
27,7,0.0,0.6584697151134782,17.63517421956302
27,8,1.0,0.8348214573091084,0.0
27,8,0.75,0.8535620629370629,-1.8740605627954543
27,8,0.5,0.8537089943358052,-1.8887537026696766
27,8,0.25,0.847324082455833,-1.2502625146724622
27,8,0.0,0.7933954991653132,4.142595814379524
28,0,1.0,0.6965334105733682,0.0
28,0,0.75,0.7136347442139531,-1.710133364058497
28,0,0.5,0.7324805795355895,-3.5947168962221387
28,0,0.25,0.6776149598541422,1.8918450719225932
28,0,0.0,0.6021429836355515,9.439042693781662
28,1,1.0,0.6965334105733682,0.0
28,1,0.75,0.7526829434037129,-5.614953283034474
28,1,0.5,0.7403208261704813,-4.378741559711319
28,1,0.25,0.6848894955677511,1.1643915005617012
28,1,0.0,0.6426765249853705,5.385688558799762
28,2,1.0,0.6965334105733682,0.0
28,2,0.75,0.6806392732519219,1.5894137321446289
28,2,0.5,0.6724128783976947,2.412053217567345
28,2,0.25,0.645805831981806,5.072757859156218
28,2,0.0,0.6243160179203736,7.221739265299454
28,3,1.0,0.6965334105733682,0.0
28,3,0.75,0.7119847094906541,-1.5451298917285916
28,3,0.5,0.7282963788837518,-3.176296831038361
28,3,0.25,0.6957801809182473,0.07532296551208129
28,3,0.0,0.6648100413775714,3.172336919579677
28,4,1.0,0.6965334105733682,0.0
28,4,0.75,0.7299165062437736,-3.3383095670405427
28,4,0.5,0.7166347720212796,-2.0101361447911414
28,4,0.25,0.6833383851234407,1.3195025449927456
28,4,0.0,0.6793878853256079,1.7145525247760252
28,5,1.0,0.6965334105733682,0.0
28,5,0.75,0.673610877735141,2.2922532838227205
28,5,0.5,0.6093575246187566,8.717588595461157
28,5,0.25,0.559418758927415,13.711465164595316
28,5,0.0,0.5065278416753283,19.00055688980399
28,6,1.0,0.6965334105733682,0.0
28,6,0.75,0.6939754139410891,0.2557996632279069
28,6,0.5,0.6928287669558627,0.3704643617505443
28,6,0.25,0.6890916575140942,0.744175305927397
28,6,0.0,0.6718025961025853,2.4730814470782847
28,7,1.0,0.6965334105733682,0.0
28,7,0.75,0.699577582442901,-0.30441718695328746
28,7,0.5,0.6677604381949633,2.8772972378404815
28,7,0.25,0.6272485101860755,6.9284900387292625
28,7,0.0,0.5713609601957176,12.517245037765058
28,8,1.0,0.6965334105733682,0.0
28,8,0.75,0.7341038418491853,-3.757043127581716
28,8,0.5,0.7477949418531697,-5.12615312798016
28,8,0.25,0.7091431639378215,-1.2609753364453358
28,8,0.0,0.6336170578873754,6.291635268599272
29,0,1.0,0.7268090184186882,0.0
29,0,0.75,0.7213267413713548,0.5482277047333395
29,0,0.5,0.6792638851069444,4.7545133311743815
29,0,0.25,0.6660790936170443,6.072992480164386
29,0,0.0,0.6494359244939567,7.737309392473146
29,1,1.0,0.7268090184186882,0.0
29,1,0.75,0.726984736392972,-0.017571797428383995
29,1,0.5,0.7215606468247749,0.5248371593913226
29,1,0.25,0.731055330329034,-0.4246311910345857
29,1,0.0,0.714690424110036,1.2118594308652142
29,2,1.0,0.7268090184186882,0.0
29,2,0.75,0.7544609145476429,-2.765189612895469
29,2,0.5,0.7719155597337629,-4.510654131507474
29,2,0.25,0.7564011590669751,-2.959214064828697
29,2,0.0,0.7093313593391831,1.7477659079505048
29,3,1.0,0.7268090184186882,0.0
29,3,0.75,0.7373100825072022,-1.0501064088514034
29,3,0.5,0.7485839452168932,-2.177492679820503
29,3,0.25,0.7521648959442075,-2.5355877525519377
29,3,0.0,0.7470228378802765,-2.021381946158829
29,4,1.0,0.7268090184186882,0.0
29,4,0.75,0.7188940030779696,0.791501534071859
29,4,0.5,0.7069674899644264,1.9841528454261792
29,4,0.25,0.6979170194741752,2.8891998944512998
29,4,0.0,0.6592273737783483,6.758164464033989
29,5,1.0,0.7268090184186882,0.0
29,5,0.75,0.7169612174196698,0.9847800999018386
29,5,0.5,0.6956028991937306,3.120611922495753
29,5,0.25,0.6564671921310137,7.034182628767449
29,5,0.0,0.6120727083394795,11.47363100792087
29,6,1.0,0.7268090184186882,0.0
29,6,0.75,0.7287553375693858,-0.19463191506976507
29,6,0.5,0.7368810838660443,-1.007206544735617
29,6,0.25,0.7306106562689396,-0.3801637850251449
29,6,0.0,0.7297889980720875,-0.2979979653399356
29,7,1.0,0.7268090184186882,0.0
29,7,0.75,0.7375578576860192,-1.0748839267331056
29,7,0.5,0.73806927302887,-1.1260254610181875
29,7,0.25,0.7198621294391659,0.6946888979522226
29,7,0.0,0.6637441609147939,6.306485750389424
29,8,1.0,0.7268090184186882,0.0
29,8,0.75,0.7312368212047748,-0.44278027860866764
29,8,0.5,0.71776024067539,0.9048777743298153
29,8,0.25,0.6696680097744349,5.7141008644253315
29,8,0.0,0.6136058850567758,11.320313336191234
30,0,1.0,0.8268625718461672,0.0
30,0,0.75,0.8312299227282012,-0.43673508820339935
30,0,0.5,0.8279533750137864,-0.10908031676192254
30,0,0.25,0.8110962415875893,1.5766330258577876
30,0,0.0,0.7854582992225985,4.140427262356871
30,1,1.0,0.8268625718461672,0.0
30,1,0.75,0.8160097904185327,1.0852781427634461
30,1,0.5,0.7928779941475145,3.3984577698652707
30,1,0.25,0.7734274538203094,5.343511802585777
30,1,0.0,0.7216752102369224,10.51873616092448
30,2,1.0,0.8268625718461672,0.0
30,2,0.75,0.8303723064712677,-0.35097346251005135
30,2,0.5,0.8357273965440206,-0.8864824697853435
30,2,0.25,0.7903448752933997,3.6517696552767487
30,2,0.0,0.7907040628512113,3.6158508994955874
30,3,1.0,0.8268625718461672,0.0
30,3,0.75,0.8194478090289448,0.741476281722242
30,3,0.5,0.8165197018610263,1.034286998514089
30,3,0.25,0.8005867787816351,2.6275793064532094
30,3,0.0,0.7756669891212249,5.1195582724942295
30,4,1.0,0.8268625718461672,0.0
30,4,0.75,0.7967065252914529,3.0156046554714266
30,4,0.5,0.7700140196553348,5.68485521908324
30,4,0.25,0.7452051372846304,8.165743456153674
30,4,0.0,0.7133247959670331,11.353777587913406
30,5,1.0,0.8268625718461672,0.0
30,5,0.75,0.8245539432208772,0.23086286252900212
30,5,0.5,0.767839167898851,5.90234039473162
30,5,0.25,0.6837678635911579,14.309470825500926
30,5,0.0,0.4216447726415602,40.5217799204607
30,6,1.0,0.8268625718461672,0.0
30,6,0.75,0.8236667116005479,0.3195860245619242
30,6,0.5,0.8342744275003355,-0.7411855654168353
30,6,0.25,0.8432017672036133,-1.6339195357446101
30,6,0.0,0.8408956421610471,-1.403307031487988
30,7,1.0,0.8268625718461672,0.0
30,7,0.75,0.8262286763279085,0.06338955182586536
30,7,0.5,0.8047022203610463,2.2160351485120855
30,7,0.25,0.7785319644610664,4.833060738510076
30,7,0.0,0.7496219973255409,7.7240574520626275
30,8,1.0,0.8268625718461672,0.0
30,8,0.75,0.8151088168472858,1.1753754998881427
30,8,0.5,0.8085895762964073,1.8272995549759918
30,8,0.25,0.7858135448444876,4.1049027001679566
30,8,0.0,0.7365555696343715,9.030700221179567
31,0,1.0,0.7195451719286996,0.0
31,0,0.75,0.7086337377438887,1.0911434184810886
31,0,0.5,0.6838102773302991,3.5734894598400513
31,0,0.25,0.6440933297161644,7.54518422125352
31,0,0.0,0.5939828885025394,12.556228342616016
31,1,1.0,0.7195451719286996,0.0
31,1,0.75,0.7044287418659159,1.5116430062783737
31,1,0.5,0.6736607289833398,4.588444294535976
31,1,0.25,0.66937836928606,5.016680264263962
31,1,0.0,0.6404391431463585,7.910602878234108
31,2,1.0,0.7195451719286996,0.0
31,2,0.75,0.6902715381781144,2.9273633750585226
31,2,0.5,0.6297679027243488,8.977726920435082
31,2,0.25,0.6006979918541324,11.88471800745672
31,2,0.0,0.5686956715583983,15.084950037030131
31,3,1.0,0.7195451719286996,0.0
31,3,0.75,0.7156631266042688,0.3882045324430816
31,3,0.5,0.707592665727716,1.1952506200983648
31,3,0.25,0.7083387616467656,1.1206410281934032
31,3,0.0,0.7031176104102063,1.6427561518493339
31,4,1.0,0.7195451719286996,0.0
31,4,0.75,0.725958978694696,-0.6413806765996455
31,4,0.5,0.729995790234878,-1.0450618306178439
31,4,0.25,0.7128520663371668,0.66931055915328
31,4,0.0,0.6677516183436623,5.179355358503734
31,5,1.0,0.7195451719286996,0.0
31,5,0.75,0.6490004240295062,7.0544747899193405
31,5,0.5,0.5370650499841594,18.24801219445402
31,5,0.25,0.4312881893940774,28.825698253462217
31,5,0.0,0.4070439086236795,31.25012633050201
31,6,1.0,0.7195451719286996,0.0
31,6,0.75,0.7257854287831609,-0.6240256854461279
31,6,0.5,0.7142463521536894,0.5298819775010233
31,6,0.25,0.7163663316835698,0.31788402451298214
31,6,0.0,0.7057797626215326,1.3765409307166965
31,7,1.0,0.7195451719286996,0.0
31,7,0.75,0.6817785147290936,3.7766657199606035
31,7,0.5,0.6668274427329217,5.2717729195777885
31,7,0.25,0.596765350877193,12.277982105150665
31,7,0.0,0.49212487858424026,22.742029334445935
31,8,1.0,0.7195451719286996,0.0
31,8,0.75,0.7071251790187806,1.241999290991902
31,8,0.5,0.6832673593580495,3.6277812570650103
31,8,0.25,0.6345674269965332,8.497774493216637
31,8,0.0,0.6020063785332649,11.753879339543472
32,0,1.0,0.7886403704092475,0.0
32,0,0.75,0.7763801956270575,1.2260174782189992
32,0,0.5,0.7597910236276073,2.8849346781640195
32,0,0.25,0.713513377057478,7.512699335176953
32,0,0.0,0.6863197603697667,10.232061003948079
32,1,1.0,0.7886403704092475,0.0
32,1,0.75,0.7971044691353045,-0.8464098726057023
32,1,0.5,0.7731877251183685,1.5452645290878975
32,1,0.25,0.7491572634326229,3.9483106976624605
32,1,0.0,0.7193311966524407,6.930917375680679
32,2,1.0,0.7886403704092475,0.0
32,2,0.75,0.7964640803183671,-0.7823709909119625
32,2,0.5,0.7824256515946219,0.6214718814625653
32,2,0.25,0.7448084886777511,4.383188173149644
32,2,0.0,0.668643559037566,11.99968113716815
32,3,1.0,0.7886403704092475,0.0
32,3,0.75,0.7661105559256792,2.252981448356828
32,3,0.5,0.7647650502080882,2.3875320201159345
32,3,0.25,0.7433686523973908,4.52717180118567
32,3,0.0,0.747862887832854,4.077748257639346
32,4,1.0,0.7886403704092475,0.0
32,4,0.75,0.7765848572845698,1.2055513124677675
32,4,0.5,0.7737917045051149,1.4848665904132585
32,4,0.25,0.7281929735444314,6.0447396864816145
32,4,0.0,0.6758345408040477,11.28058296051998
32,5,1.0,0.7886403704092475,0.0
32,5,0.75,0.7564600247452901,3.2180345663957444
32,5,0.5,0.7578109423063502,3.082942810289735
32,5,0.25,0.7654084836208492,2.323188678839827
32,5,0.0,0.7145936849141767,7.404668549507076
32,6,1.0,0.7886403704092475,0.0
32,6,0.75,0.7801886091948258,0.8451761214421705
32,6,0.5,0.7576602945801177,3.098007582912976
32,6,0.25,0.741116835839394,4.752353456985348
32,6,0.0,0.735184392096058,5.345597831318949
32,7,1.0,0.7886403704092475,0.0
32,7,0.75,0.7883903038151341,0.025006659411341836
32,7,0.5,0.7575580665455588,3.108230386368871
32,7,0.25,0.7158907349717318,7.274963543751567
32,7,0.0,0.6808441558441558,10.779621456509169
32,8,1.0,0.7886403704092475,0.0
32,8,0.75,0.7924835131393256,-0.38431427300781307
32,8,0.5,0.7841111533675351,0.45292170417123856
32,8,0.25,0.7634677302177565,2.5172640191491014
32,8,0.0,0.7188901025648516,6.975026784439587
33,0,1.0,0.897858393628956,0.0
33,0,0.75,0.8968620180502012,0.09963755787548711
33,0,0.5,0.8976269621337267,0.023143149522930617
33,0,0.25,0.8255040138997404,7.235437972921566
33,0,0.0,0.7213423481682383,17.651604546071773
33,1,1.0,0.897858393628956,0.0
33,1,0.75,0.8919915073324073,0.5866886296548746
33,1,0.5,0.8902812459092889,0.757714771966711
33,1,0.25,0.8619756968855401,3.588269674341593
33,1,0.0,0.8238550469931122,7.400334663584385
33,2,1.0,0.897858393628956,0.0
33,2,0.75,0.888912250347927,0.8946143281029051
33,2,0.5,0.8614074262806903,3.6450967348265695
33,2,0.25,0.8503563640660415,4.750202956291449
33,2,0.0,0.8183389806052284,7.9519413023727665
33,3,1.0,0.897858393628956,0.0
33,3,0.75,0.8964195514337862,0.1438842195169876
33,3,0.5,0.8980453890552105,-0.018699542625444376
33,3,0.25,0.8885258312150914,0.9332562413864598
33,3,0.0,0.8641105080765266,3.374788555242947
33,4,1.0,0.897858393628956,0.0
33,4,0.75,0.9111759311356462,-1.331753750669018
33,4,0.5,0.914059926744937,-1.6201533115980937
33,4,0.25,0.9033454731323727,-0.5487079503416648
33,4,0.0,0.8416414655706369,5.621692805831913
33,5,1.0,0.897858393628956,0.0
33,5,0.75,0.9036334791707167,-0.577508554176065
33,5,0.5,0.886039703564994,1.1818690063962078
33,5,0.25,0.8782581284450255,1.9600265183930543
33,5,0.0,0.8446961604415235,5.316223318743251
33,6,1.0,0.897858393628956,0.0
33,6,0.75,0.9063830253259975,-0.8524631697041429
33,6,0.5,0.9015255978410711,-0.3667204212115083
33,6,0.25,0.8875429104928296,1.0315483136126402
33,6,0.0,0.8562848673538574,4.157352627509859
33,7,1.0,0.897858393628956,0.0
33,7,0.75,0.9085135483831516,-1.065515475419554
33,7,0.5,0.8491859769783554,4.867241665060062
33,7,0.25,0.7869296669908903,11.092872663806574
33,7,0.0,0.7341145210943079,16.374387253464818
33,8,1.0,0.897858393628956,0.0
33,8,0.75,0.8960377523503547,0.1820641278601376
33,8,0.5,0.8875890016664142,1.026939196254184
33,8,0.25,0.8405058240783196,5.7352569550636385
33,8,0.0,0.7723060209440913,12.555237268486474
34,0,1.0,0.8363824108007794,0.0
34,0,0.75,0.8468057284332406,-1.0423317632461293
34,0,0.5,0.8369957802242344,-0.061336942345502354
34,0,0.25,0.7989853777706044,3.739703303017494
34,0,0.0,0.6619343132624185,17.44480975383609
34,1,1.0,0.8363824108007794,0.0
34,1,0.75,0.8349741440421388,0.14082667586405861
34,1,0.5,0.8179401832564662,1.8442227544313128
34,1,0.25,0.7950158150093302,4.1366595791449186
34,1,0.0,0.7734713728993022,6.291103790147712
34,2,1.0,0.8363824108007794,0.0
34,2,0.75,0.8342739640269586,0.21084467738207158
34,2,0.5,0.784786924381152,5.15954864196273
34,2,0.25,0.7484419986754505,8.794041212532889
34,2,0.0,0.7231044382694111,11.32779725313683
34,3,1.0,0.8363824108007794,0.0
34,3,0.75,0.8336610041128552,0.27214066879241994
34,3,0.5,0.8359932320408139,0.03891787599654695
34,3,0.25,0.8319378612874223,0.44445495133570434
34,3,0.0,0.8197700026490153,1.6612408151764013
34,4,1.0,0.8363824108007794,0.0
34,4,0.75,0.8227227047750595,1.3659706025719864
34,4,0.5,0.8013545322614077,3.5027878539371615
34,4,0.25,0.7628106937893939,7.357171701138543
34,4,0.0,0.7147443943567282,12.163801644405115
34,5,1.0,0.8363824108007794,0.0
34,5,0.75,0.8127413764271376,2.3641034373641734
34,5,0.5,0.7468186543017417,8.95637564990377
34,5,0.25,0.6407048343071725,19.567757649360683
34,5,0.0,0.5167161295365637,31.96662812642157
34,6,1.0,0.8363824108007794,0.0
34,6,0.75,0.8310307319198019,0.5351678880977428
34,6,0.5,0.8178066353297903,1.8575775470989098
34,6,0.25,0.8148391402553823,2.1543270545397064
34,6,0.0,0.8183750926901612,1.8007318110618176
34,7,1.0,0.8363824108007794,0.0
34,7,0.75,0.8352345991990612,0.11478116017181739
34,7,0.5,0.8201032321730013,1.6279178627778057
34,7,0.25,0.7807630185411685,5.561939225961088
34,7,0.0,0.6597628136800443,17.661959712073504
34,8,1.0,0.8363824108007794,0.0
34,8,0.75,0.8427153546150198,-0.6332943814240433
34,8,0.5,0.8231183853712094,1.3264025429569948
34,8,0.25,0.7854189315853074,5.096347921547196
34,8,0.0,0.7286852343004746,10.769717650030476
35,0,1.0,0.6900605956829837,0.0
35,0,0.75,0.6872618837248927,0.27987119580910047
35,0,0.5,0.6856773005475711,0.43832951354125793
35,0,0.25,0.6532607110923851,3.6799884590598575
35,0,0.0,0.610792908560351,7.926768712263277
35,1,1.0,0.6900605956829837,0.0
35,1,0.75,0.6806891479932131,0.9371447689770607
35,1,0.5,0.6675959405710669,2.2464655111916865
35,1,0.25,0.6699438424502164,2.0116753232767293
35,1,0.0,0.6546489663313778,3.541162935160591
35,2,1.0,0.6900605956829837,0.0
35,2,0.75,0.6877661366047061,0.2294459078277633
35,2,0.5,0.6864944784979499,0.3566117185033857
35,2,0.25,0.6833439083233974,0.6716687359586304
35,2,0.0,0.6577500380068774,3.2310557676106355
35,3,1.0,0.6900605956829837,0.0
35,3,0.75,0.6568714998741503,3.3189095808833446
35,3,0.5,0.6352626057488336,5.479798993415008
35,3,0.25,0.6350690267837779,5.499156889920586
35,3,0.0,0.6314463104717744,5.861428521120937
35,4,1.0,0.6900605956829837,0.0
35,4,0.75,0.6939860344403279,-0.39254387573441907
35,4,0.5,0.6742895979664247,1.5770997716558988
35,4,0.25,0.6802065704800702,0.9854025202913563
35,4,0.0,0.6693011132497452,2.075948243323855
35,5,1.0,0.6900605956829837,0.0
35,5,0.75,0.7016854412333211,-1.1624845550337382
35,5,0.5,0.687034500366339,0.30260953166447724
35,5,0.25,0.6568285830671128,3.3232012615870943
35,5,0.0,0.4784205347986164,21.164006088436732
35,6,1.0,0.6900605956829837,0.0
35,6,0.75,0.6999777465341113,-0.9917150851127543
35,6,0.5,0.6994981899409529,-0.9437594257969195
35,6,0.25,0.6932746683137909,-0.32140726308071965
35,6,0.0,0.7002118046818115,-1.015120899882782
35,7,1.0,0.6900605956829837,0.0
35,7,0.75,0.6940756661179196,-0.40150704349358746
35,7,0.5,0.705568505693141,-1.5507910010157278
35,7,0.25,0.6927687562818493,-0.2708160598865583
35,7,0.0,0.6730439713094656,1.701662437351814
35,8,1.0,0.6900605956829837,0.0
35,8,0.75,0.6920690743121058,-0.20084786291221235
35,8,0.5,0.6896686314188216,0.03919642641621035
35,8,0.25,0.6887415811798664,0.13190145031173328
35,8,0.0,0.6634673392563983,2.6593256426585388
36,0,1.0,0.6200795398448504,0.0
36,0,0.75,0.6180453249864934,0.20342148583569752
36,0,0.5,0.6087991929475773,1.1280346897273086
36,0,0.25,0.6011763131248472,1.890322672000322
36,0,0.0,0.6100364863419776,1.0043053502872823
36,1,1.0,0.6200795398448504,0.0
36,1,0.75,0.6322747273586193,-1.2195187513768913
36,1,0.5,0.6273932396335584,-0.7313699788707995
36,1,0.25,0.6064571773504587,1.3622362494391749
36,1,0.0,0.5812645739470867,3.8814965897763676
36,2,1.0,0.6200795398448504,0.0
36,2,0.75,0.6203678388430601,-0.028829899820970173
36,2,0.5,0.6034850943628338,1.6594445482016607
36,2,0.25,0.5962815239708438,2.379801587400665
36,2,0.0,0.5816145093674585,3.8465030477391915
36,3,1.0,0.6200795398448504,0.0
36,3,0.75,0.6255612492981438,-0.5481709453293404
36,3,0.5,0.61272960714622,0.7349932698630379
36,3,0.25,0.6174553588645918,0.2624180980258628
36,3,0.0,0.6017919405785549,1.828759926629553
36,4,1.0,0.6200795398448504,0.0
36,4,0.75,0.6215921371982146,-0.15125973533641757
36,4,0.5,0.6207704616296644,-0.06909217848140026
36,4,0.25,0.5795157536880198,4.056378615683065
36,4,0.0,0.5725690274435958,4.751051240125459
36,5,1.0,0.6200795398448504,0.0
36,5,0.75,0.6326892534498609,-1.2609713605010509
36,5,0.5,0.6385180265050516,-1.8438486660201203
36,5,0.25,0.6319275281091664,-1.184798826431599
36,5,0.0,0.39467575703996216,22.540378280488827
36,6,1.0,0.6200795398448504,0.0
36,6,0.75,0.6192980851777978,0.07814546670525946
36,6,0.5,0.6281432286407234,-0.8063688795872936
36,6,0.25,0.6168188762152801,0.32606636295703373
36,6,0.0,0.6044153662633336,1.5664173581516838
36,7,1.0,0.6200795398448504,0.0
36,7,0.75,0.6163250133413104,0.3754526503540023
36,7,0.5,0.600769096766565,1.9310443078285444
36,7,0.25,0.5803649689986984,3.971457084615204
36,7,0.0,0.5592897342720273,6.07898055728231
36,8,1.0,0.6200795398448504,0.0
36,8,0.75,0.6205084294998277,-0.0428889654977227
36,8,0.5,0.6144191028629267,0.5660436981923755
36,8,0.25,0.5917470405847303,2.833249926012016
36,8,0.0,0.576784696143765,4.329484370108538
37,0,1.0,0.8582316267588221,0.0
37,0,0.75,0.8435238033441073,1.4707823414714882
37,0,0.5,0.8173278942558119,4.0903732503010275
37,0,0.25,0.7691164717186889,8.911515504013323
37,0,0.0,0.7002621336473671,15.796949311145504
37,1,1.0,0.8582316267588221,0.0
37,1,0.75,0.8317486263474718,2.648300041135032
37,1,0.5,0.8175671342413172,4.066449251750493
37,1,0.25,0.7918663964802315,6.636523027859065
37,1,0.0,0.7723854792509688,8.584614750785335
37,2,1.0,0.8582316267588221,0.0
37,2,0.75,0.835215436200479,2.301619055834314
37,2,0.5,0.8001212261471723,5.811040061164984
37,2,0.25,0.7743953801466631,8.383624661215904
37,2,0.0,0.7014490642643023,15.678256249451984
37,3,1.0,0.8582316267588221,0.0
37,3,0.75,0.8474700556675153,1.076157109130682
37,3,0.5,0.8355427370850848,2.268888967373739
37,3,0.25,0.8234818195967444,3.474980716207776
37,3,0.0,0.8055376013143694,5.269402544445279
37,4,1.0,0.8582316267588221,0.0
37,4,0.75,0.8514054752336643,0.6826151525157864
37,4,0.5,0.8456252533606795,1.2606373398142634
37,4,0.25,0.8412012385633258,1.7030388195496293
37,4,0.0,0.8070853465824945,5.114628017632761
37,5,1.0,0.8582316267588221,0.0
37,5,0.75,0.8745684876738014,-1.6336860914979212
37,5,0.5,0.8827851679012413,-2.4553541142419144
37,5,0.25,0.8690582033102408,-1.082657655141861
37,5,0.0,0.8190573381376318,3.9174288621190323
37,6,1.0,0.8582316267588221,0.0
37,6,0.75,0.8523963356087264,0.5835291150095734
37,6,0.5,0.8304224844234425,2.7809142335379677
37,6,0.25,0.7913123691913844,6.691925756743777
37,6,0.0,0.7612400173656904,9.699160939313177
37,7,1.0,0.8582316267588221,0.0
37,7,0.75,0.8263247598888881,3.1906866869934047
37,7,0.5,0.8004051949650471,5.7826431793775
37,7,0.25,0.7723369528615285,8.589467389729366
37,7,0.0,0.7841027383703454,7.4128888388476755
37,8,1.0,0.8582316267588221,0.0
37,8,0.75,0.8350399442325879,2.319168252623427
37,8,0.5,0.8011309816834816,5.710064507534051
37,8,0.25,0.7773536625289943,8.087796422982784
37,8,0.0,0.7495521439720473,10.867948278677487
38,0,1.0,0.7946327739191047,0.0
38,0,0.75,0.7826571248482004,1.1975649070904315
38,0,0.5,0.7661714584809282,2.8461315438176538
38,0,0.25,0.7537426540003025,4.08901199188022
38,0,0.0,0.7496449027432996,4.498787117580505
38,1,1.0,0.7946327739191047,0.0
38,1,0.75,0.7854123079917816,0.9220465927323063
38,1,0.5,0.7747549808994695,1.9877793019635215
38,1,0.25,0.7643485021452566,3.028427177384807
38,1,0.0,0.731034817512805,6.359795640629972
38,2,1.0,0.7946327739191047,0.0
38,2,0.75,0.7780833650648582,1.6549408854246495
38,2,0.5,0.7650384041310129,2.9594369788091823
38,2,0.25,0.7401629639002874,5.446981001881735
38,2,0.0,0.7050366188126471,8.959615510645758
38,3,1.0,0.7946327739191047,0.0
38,3,0.75,0.8083649718042745,-1.3732197885169772
38,3,0.5,0.8064751313084674,-1.1842357389362679
38,3,0.25,0.7991439097777011,-0.45111358585964156
38,3,0.0,0.7493397520528872,4.529302186621753
38,4,1.0,0.7946327739191047,0.0
38,4,0.75,0.7849322527676253,0.9700521151479347
38,4,0.5,0.7723040228404552,2.232875107864951
38,4,0.25,0.7257915324436263,6.884124147547843
38,4,0.0,0.6162594675716383,17.83733063474664
38,5,1.0,0.7946327739191047,0.0
38,5,0.75,0.7746945660213904,1.9938207897714277
38,5,0.5,0.5985127175754559,19.61200563436488
38,5,0.25,0.5157446424864078,27.888813143269687
38,5,0.0,0.4666270193058644,32.80057546132403
38,6,1.0,0.7946327739191047,0.0
38,6,0.75,0.8059716374489811,-1.1338863529876453
38,6,0.5,0.8050734502948333,-1.0440676375728652
38,6,0.25,0.8039960048636616,-0.9363230944556933
38,6,0.0,0.7981180431123419,-0.3485269193237217
38,7,1.0,0.7946327739191047,0.0
38,7,0.75,0.7927204074464348,0.1912366472669902
38,7,0.5,0.7726047704088633,2.2028003510241367
38,7,0.25,0.7612870929521759,3.3345680966928803
38,7,0.0,0.7183266557806616,7.630611813844313
38,8,1.0,0.7946327739191047,0.0
38,8,0.75,0.7825696999211356,1.2063073997969131
38,8,0.5,0.7751961050478724,1.9436668871232299
38,8,0.25,0.7617169152649952,3.291585865410951
38,8,0.0,0.7547615580683902,3.9871215850714514
39,0,1.0,0.8056306306306306,0.0
39,0,0.75,0.7829807874454016,2.2649843185229
39,0,0.5,0.7508278291853794,5.480280144525118
39,0,0.25,0.6900691700034464,11.556146062718419
39,0,0.0,0.6146766728873753,19.09539577432553
39,1,1.0,0.8056306306306306,0.0
39,1,0.75,0.7950925837359669,1.0538046894663644
39,1,0.5,0.8014480039907526,0.41826266398780065
39,1,0.25,0.7938019707520966,1.1828659878533987
39,1,0.0,0.7806039037836404,2.5026726846990144
39,2,1.0,0.8056306306306306,0.0
39,2,0.75,0.8045960948982489,0.10345357323816584
39,2,0.5,0.7999740858426788,0.5656544787951745
39,2,0.25,0.7829665444445262,2.266408618610438
39,2,0.0,0.7658313442958757,3.9799286334754824
39,3,1.0,0.8056306306306306,0.0
39,3,0.75,0.7908504160164501,1.4780214614180442
39,3,0.5,0.7682466479053178,3.7383982725312737
39,3,0.25,0.7295660412059896,7.6064589424641005
39,3,0.0,0.6933989236053995,11.223170702523111
39,4,1.0,0.8056306306306306,0.0
39,4,0.75,0.8114782180950102,-0.5847587464379633
39,4,0.5,0.7912610411089309,1.4369589521699644
39,4,0.25,0.7709138719330735,3.471675869755708
39,4,0.0,0.733220060984391,7.24105696462396
39,5,1.0,0.8056306306306306,0.0
39,5,0.75,0.801590409490887,0.40402211397435606
39,5,0.5,0.7317984053754908,7.383222525513977
39,5,0.25,0.5492166547670205,25.641397586361002
39,5,0.0,0.38958322914364185,41.60474014869887
39,6,1.0,0.8056306306306306,0.0
39,6,0.75,0.791652774470112,1.397785616051861
39,6,0.5,0.7871513976106479,1.8479233019982666
39,6,0.25,0.7798399818210457,2.5790648809584815
39,6,0.0,0.7413308662202682,6.429976441036233
39,7,1.0,0.8056306306306306,0.0
39,7,0.75,0.8055425956247492,0.00880350058813928
39,7,0.5,0.7996487748760632,0.5981855754567333
39,7,0.25,0.7681268028315437,3.7503827799086897
39,7,0.0,0.7326921987707838,7.293843185984672
39,8,1.0,0.8056306306306306,0.0
39,8,0.75,0.8050499669940967,0.058066363653386244
39,8,0.5,0.8002497490900996,0.5380881540530957
39,8,0.25,0.7826663936783858,2.296423695224481
39,8,0.0,0.7647578661962012,4.087276443442933
40,0,1.0,0.7647594365244483,0.0
40,0,0.75,0.752470882736677,1.2288553787771384
40,0,0.5,0.7430352462308243,2.1724190293624046
40,0,0.25,0.6863238057223684,7.843563080207994
40,0,0.0,0.6189846023103736,14.577483421407479
40,1,1.0,0.7647594365244483,0.0
40,1,0.75,0.7474172289828269,1.7342207541621413
40,1,0.5,0.7256843180720647,3.907511845238365
40,1,0.25,0.7168941207889122,4.78653157355361
40,1,0.0,0.704647658304266,6.011177822018232
40,2,1.0,0.7647594365244483,0.0
40,2,0.75,0.73950141762068,2.525801890376833
40,2,0.5,0.7310127878337679,3.3746648690680447
40,2,0.25,0.7262775639923816,3.8481872532066697
40,2,0.0,0.7026513286823193,6.210810784212906
40,3,1.0,0.7647594365244483,0.0
40,3,0.75,0.7588078305571617,0.5951605967286611
40,3,0.5,0.7499980654152884,1.4761371109159982
40,3,0.25,0.711730586178614,5.302885034583438
40,3,0.0,0.6933451737284799,7.141426279596841
40,4,1.0,0.7647594365244483,0.0
40,4,0.75,0.7549373561487887,0.9822080375659681
40,4,0.5,0.7552628630569669,0.9496573467481451
40,4,0.25,0.7451660570612184,1.959337946322992
40,4,0.0,0.7232454028036001,4.151403372084827
40,5,1.0,0.7647594365244483,0.0
40,5,0.75,0.7514250376251282,1.3334398899320088
40,5,0.5,0.7437112754260408,2.104816109840757
40,5,0.25,0.6426163390464626,12.214309747798568
40,5,0.0,0.5608864082650129,20.387302825943543
40,6,1.0,0.7647594365244483,0.0
40,6,0.75,0.7382409530047486,2.6518483519699765
40,6,0.5,0.7221561657263555,4.2603270798092785
40,6,0.25,0.7149727668845316,4.978666963991674
40,6,0.0,0.6974319278275879,6.732750869686043
40,7,1.0,0.7647594365244483,0.0
40,7,0.75,0.724171702804286,4.058773372016233
40,7,0.5,0.6662059210344291,9.855351549001924
40,7,0.25,0.5531060672203147,21.16533693041336
40,7,0.0,0.4733641416715076,29.139529485294073
40,8,1.0,0.7647594365244483,0.0
40,8,0.75,0.7445353499160702,2.0224086608378156
40,8,0.5,0.7196408882695402,4.511854825490813
40,8,0.25,0.6962769738654043,6.8482462659044
40,8,0.0,0.6505324547947499,11.422698172969847
