subject,channel,f1_full,f1_occluded,drop_pp
1,0,0.5141521165673121,0.4951868064766368,1.8965310090675258
1,1,0.5141521165673121,0.5360237375297616,-2.1871620962449545
1,2,0.5141521165673121,0.48706036655111296,2.7091750016199123
1,3,0.5141521165673121,0.4486193424406493,6.553277412666275
1,4,0.5141521165673121,0.5234117283042914,-0.9259611736979312
1,5,0.5141521165673121,0.4432099329862388,7.094218358107329
1,6,0.5141521165673121,0.5911856537542816,-7.703353718696948
1,7,0.5141521165673121,0.48824317169317905,2.590894487413303
1,8,0.5141521165673121,0.4720606544630012,4.209146210431086
2,0,0.7976759858818271,0.7191069225706446,7.856906331118251
2,1,0.7976759858818271,0.7112075415635156,8.646844431831147
2,2,0.7976759858818271,0.6893303264006185,10.834565948120856
2,3,0.7976759858818271,0.7191915849999428,7.848440088188424
2,4,0.7976759858818271,0.7704343199538051,2.724166592802202
2,5,0.7976759858818271,0.5167565936049189,28.091939227690823
2,6,0.7976759858818271,0.7319313371428166,6.574464873901054
2,7,0.7976759858818271,0.7011656355231773,9.651035035864975
2,8,0.7976759858818271,0.7541899236192715,4.3486062262555585
3,0,0.8212874817335755,0.5875775398514592,23.370994188211625
3,1,0.8212874817335755,0.804151083750986,1.713639798258948
3,2,0.8212874817335755,0.6392052035141889,18.20822782193866
3,3,0.8212874817335755,0.5853300269067837,23.595745482679177
3,4,0.8212874817335755,0.7495703812667733,7.171710046680213
3,5,0.8212874817335755,0.5344762830834567,28.681119865011873
3,6,0.8212874817335755,0.692591121301485,12.869636043209043
3,7,0.8212874817335755,0.7201818896649583,10.110559206861714
3,8,0.8212874817335755,0.7492111151191799,7.207636661439554
4,0,0.8087681686252537,0.6614822347587169,14.728593386653676
4,1,0.8087681686252537,0.7528914360238836,5.587673260137005
4,2,0.8087681686252537,0.7048339222507158,10.393424637453785
4,3,0.8087681686252537,0.675562328190034,13.320584043521965
4,4,0.8087681686252537,0.7574268414963077,5.134132712894601
4,5,0.8087681686252537,0.7065397930175328,10.222837560772092
4,6,0.8087681686252537,0.7478727749270522,6.089539369820152
4,7,0.8087681686252537,0.6565984499092039,15.21697187160498
4,8,0.8087681686252537,0.7787519020123949,3.0016266612858833
5,0,0.5645631695160993,0.48995084966533864,7.461231985076067
5,1,0.5645631695160993,0.44733398096781135,11.722918854828796
5,2,0.5645631695160993,0.5283210992461667,3.6242070269932647
5,3,0.5645631695160993,0.5309836612858883,3.3579508230211053
5,4,0.5645631695160993,0.5231901288941571,4.137304062194225
5,5,0.5645631695160993,0.4997248765386236,6.483829297747573
5,6,0.5645631695160993,0.5689040831113583,-0.43409135952590105
5,7,0.5645631695160993,0.5179964769244405,4.65666925916588
5,8,0.5645631695160993,0.48187265567781906,8.269051383828025
6,0,0.7106558326217818,0.6010126363955443,10.964319622623753
6,1,0.7106558326217818,0.6129076477351185,9.774818488666327
6,2,0.7106558326217818,0.6976277178583843,1.3028114763397491
6,3,0.7106558326217818,0.6350575738757629,7.559825874601889
6,4,0.7106558326217818,0.6998651200317288,1.079071259005293
6,5,0.7106558326217818,0.4687279879041524,24.19278447176294
6,6,0.7106558326217818,0.7045782622395526,0.6077570382229225
6,7,0.7106558326217818,0.41719481853534246,29.346101408643932
6,8,0.7106558326217818,0.6460168627047622,6.463896991701956
7,0,0.6758885476512901,0.505465537636991,17.042301001429916
7,1,0.6758885476512901,0.6060061930893734,6.9882354561916715
7,2,0.6758885476512901,0.628618952856835,4.726959479445513
7,3,0.6758885476512901,0.6437434868026303,3.2145060848659868
7,4,0.6758885476512901,0.6106656448494407,6.522290280184939
7,5,0.6758885476512901,0.4929106596872988,18.297788796399132
7,6,0.6758885476512901,0.638084705297727,3.7803842353563155
7,7,0.6758885476512901,0.5796924182055421,9.619612944574808
7,8,0.6758885476512901,0.5138964213871189,16.199212626417125
8,0,0.7566655952419701,0.6335168581299802,12.314873711198992
8,1,0.7566655952419701,0.6965986192259233,6.0066976016046825
8,2,0.7566655952419701,0.7071054617368238,4.956013350514632
8,3,0.7566655952419701,0.72557466906423,3.109092617774012
8,4,0.7566655952419701,0.6725567193770037,8.41088758649664
8,5,0.7566655952419701,0.6029640041094121,15.370159113255799
8,6,0.7566655952419701,0.7421776066221828,1.4487988619787284
8,7,0.7566655952419701,0.6021031360421503,15.456245919981981
8,8,0.7566655952419701,0.6437514791892422,11.291411605272783
9,0,0.7902472704712904,0.7348734517236678,5.537381874762259
9,1,0.7902472704712904,0.7024815243048571,8.776574616643328
9,2,0.7902472704712904,0.740436774426842,4.981049604444843
9,3,0.7902472704712904,0.6495519220998027,14.069534837148767
9,4,0.7902472704712904,0.7539673076887149,3.6279962782575503
9,5,0.7902472704712904,0.6297646465776547,16.048262389363565
9,6,0.7902472704712904,0.7492493900559648,4.099788041532559
9,7,0.7902472704712904,0.6043681627790808,18.58791076922096
9,8,0.7902472704712904,0.7295867205913387,6.066054987995173
10,0,0.734215952965953,0.5301750100487066,20.40409429172464
10,1,0.734215952965953,0.626482444114737,10.773350885121602
10,2,0.734215952965953,0.6744956936621335,5.972025930381952
10,3,0.734215952965953,0.5885735651421284,14.564238782382455
10,4,0.734215952965953,0.7031392658693272,3.107668709662581
10,5,0.734215952965953,0.6869622905149221,4.725366245103091
10,6,0.734215952965953,0.72921588482689,0.5000068139062952
10,7,0.734215952965953,0.5757681363323244,15.84478166336286
10,8,0.734215952965953,0.575325859787646,15.889009317830693
11,0,0.8970973475317485,0.7355165837093548,16.158076382239372
11,1,0.8970973475317485,0.765669359438672,13.142798809307655
11,2,0.8970973475317485,0.7824391395567016,11.465820797504689
11,3,0.8970973475317485,0.7762213960741067,12.087595145764185
11,4,0.8970973475317485,0.814720928787223,8.23764187445255
11,5,0.8970973475317485,0.6936099579586534,20.348738957309507
11,6,0.8970973475317485,0.8343109576334279,6.278638989832064
11,7,0.8970973475317485,0.7181700977356039,17.89272497961446
11,8,0.8970973475317485,0.7903710996008674,10.672624793088115
12,0,0.7971693038456464,0.6676019690539332,12.956733479171323
12,1,0.7971693038456464,0.6962314996233635,10.093780422228294
12,2,0.7971693038456464,0.6764345279325286,12.073477591311788
12,3,0.7971693038456464,0.7383177497254724,5.885155412017406
12,4,0.7971693038456464,0.6624867176523077,13.468258619333874
12,5,0.7971693038456464,0.5651265792545447,23.204272459110175
12,6,0.7971693038456464,0.7897504512484567,0.7418852597189773
12,7,0.7971693038456464,0.7091187774405189,8.805052640512756
12,8,0.7971693038456464,0.6324710961151204,16.4698207730526
13,0,0.8970213599811231,0.6951276702468873,20.189368973423583
13,1,0.8970213599811231,0.7916247593302609,10.53966006508622
13,2,0.8970213599811231,0.8293437326742847,6.767762730683835
13,3,0.8970213599811231,0.8295667726554135,6.745458732570963
13,4,0.8970213599811231,0.8040789230279746,9.294243695314853
13,5,0.8970213599811231,0.5811248647322609,31.58964952488622
13,6,0.8970213599811231,0.8303212031400418,6.670015684108133
13,7,0.8970213599811231,0.827121393305786,6.989996667533704
13,8,0.8970213599811231,0.8035166479531152,9.350471202800792
14,0,0.8174567407739803,0.7265630824869106,9.089365828706974
14,1,0.8174567407739803,0.7739567025752294,4.350003819875092
14,2,0.8174567407739803,0.6220974185272605,19.53593222467198
14,3,0.8174567407739803,0.6808641921839156,13.659254859006476
14,4,0.8174567407739803,0.7275597970214054,8.989694375257496
14,5,0.8174567407739803,0.6126256358477589,20.483110492622146
14,6,0.8174567407739803,0.7965454354308432,2.091130534313712
14,7,0.8174567407739803,0.717114104722605,10.03426360513754
14,8,0.8174567407739803,0.6965514716306918,12.090526914328859
15,0,0.8850947234921344,0.7797578499270522,10.533687356508214
15,1,0.8850947234921344,0.7504292384669118,13.466548502522258
15,2,0.8850947234921344,0.7698114115961127,11.52833118960217
15,3,0.8850947234921344,0.7892219138565415,9.587280963559285
15,4,0.8850947234921344,0.7886109349819027,9.648378851023164
15,5,0.8850947234921344,0.6180204307224542,26.70742927696802
15,6,0.8850947234921344,0.8473562792016817,3.77384442904527
15,7,0.8850947234921344,0.76265772081848,12.243700267365432
15,8,0.8850947234921344,0.8264755386414246,5.861918485070971
16,0,0.8318707141546784,0.6880569432547023,14.381377089997605
16,1,0.8318707141546784,0.7695560918906044,6.231462226407403
16,2,0.8318707141546784,0.7423478462747917,8.952286787988673
16,3,0.8318707141546784,0.7629531803608594,6.891753379381904
16,4,0.8318707141546784,0.6946309452043485,13.723976895032985
16,5,0.8318707141546784,0.6016974800286097,23.01732341260687
16,6,0.8318707141546784,0.8098965657904927,2.1974148364185653
16,7,0.8318707141546784,0.7333059576361086,9.856475651856977
16,8,0.8318707141546784,0.7021129111834599,12.975780297121853
17,0,0.773331293140856,0.5068185764614199,26.65127166794361
17,1,0.773331293140856,0.6955275650942471,7.780372804660896
17,2,0.773331293140856,0.668588152524893,10.474314061596301
17,3,0.773331293140856,0.6051397480985257,16.819154504233037
17,4,0.773331293140856,0.6739863709655463,9.934492217530977
17,5,0.773331293140856,0.6273372237229808,14.599406941787517
17,6,0.773331293140856,0.7575119132507726,1.5819379890083418
17,7,0.773331293140856,0.6605014183549861,11.282987478586993
17,8,0.773331293140856,0.7369374394943007,3.639385364655534
18,0,0.7344253989369502,0.6786567215496487,5.576867738730151
18,1,0.7344253989369502,0.6795593731107774,5.486602582617284
18,2,0.7344253989369502,0.7057960923198694,2.862930661708085
18,3,0.7344253989369502,0.6068948708478963,12.753052808905396
18,4,0.7344253989369502,0.5829920508854535,15.143334805149678
18,5,0.7344253989369502,0.595897645892846,13.852775304410425
18,6,0.7344253989369502,0.7824724201594584,-4.804702122250815
18,7,0.7344253989369502,0.6803247234392407,5.410067549770958
18,8,0.7344253989369502,0.6693802818284269,6.504511710852334
19,0,0.8246911116150938,0.750809337255349,7.388177435974475
19,1,0.8246911116150938,0.7392623200527456,8.542879156234818
19,2,0.8246911116150938,0.7431385583334669,8.155255328162692
19,3,0.8246911116150938,0.6942457423407212,13.044536927437257
19,4,0.8246911116150938,0.7544172679155063,7.027384369958744
19,5,0.8246911116150938,0.6528425932697343,17.18485183453595
19,6,0.8246911116150938,0.8436297704651075,-1.8938658850013668
19,7,0.8246911116150938,0.7353010025915584,8.93901090235354
19,8,0.8246911116150938,0.7261639907202357,9.852712089485804
20,0,0.7164927800617144,0.6578720428142484,5.8620737247465975
20,1,0.7164927800617144,0.6046176288924983,11.18751511692161
20,2,0.7164927800617144,0.6249470555793333,9.154572448238108
20,3,0.7164927800617144,0.7459652187452113,-2.9472438683496915
20,4,0.7164927800617144,0.6542669402266985,6.222583983501584
20,5,0.7164927800617144,0.6357603890376791,8.073239102403528
20,6,0.7164927800617144,0.717243453199055,-0.07506731373406739
20,7,0.7164927800617144,0.6590134822938309,5.747929776788341
20,8,0.7164927800617144,0.6950379271872078,2.1454852874506547
21,0,0.8165948467567381,0.518429885945449,29.816496081128907
21,1,0.8165948467567381,0.7370104965400818,7.9584350216656325
21,2,0.8165948467567381,0.6928735032964694,12.372134346026876
21,3,0.8165948467567381,0.6253039371568189,19.129090959991924
21,4,0.8165948467567381,0.7979533231984213,1.864152355831683
21,5,0.8165948467567381,0.7434209534528031,7.317389330393498
21,6,0.8165948467567381,0.8226723238708521,-0.6077477114113994
21,7,0.8165948467567381,0.7843566905957028,3.2238156161035314
21,8,0.8165948467567381,0.7269588480407638,8.963599871597427
22,0,0.7210954742931488,0.5802897974457175,14.080567684743128
22,1,0.7210954742931488,0.6789341700917894,4.2161304201359435
22,2,0.7210954742931488,0.6733335569303547,4.7761917362794115
22,3,0.7210954742931488,0.5752740534504511,14.582142084269767
22,4,0.7210954742931488,0.6478608196666341,7.323465462651468
22,5,0.7210954742931488,0.45917233930236473,26.192313499078406
22,6,0.7210954742931488,0.7209002392030861,0.019523509006269535
22,7,0.7210954742931488,0.6509627447182958,7.013272957485295
22,8,0.7210954742931488,0.6098993764172336,11.119609787591521
23,0,0.7030653798385902,0.6337880648248877,6.927731501370249
23,1,0.7030653798385902,0.6940543811170115,0.9010998721578733
23,2,0.7030653798385902,0.7343877734264508,-3.1322393587860597
23,3,0.7030653798385902,0.6743018597233992,2.876352011519101
23,4,0.7030653798385902,0.5243704158975757,17.869496394101446
23,5,0.7030653798385902,0.5042609604160473,19.88044194225429
23,6,0.7030653798385902,0.5747879749589163,12.827740487967388
23,7,0.7030653798385902,0.5818159810377581,12.124939880083208
23,8,0.7030653798385902,0.6021031986906215,10.096218114796873
24,0,0.7026684432639875,0.5781923654166858,12.447607784730163
24,1,0.7026684432639875,0.5920858440247487,11.058259923923874
24,2,0.7026684432639875,0.6075744492239338,9.50939940400537
24,3,0.7026684432639875,0.6780392332550819,2.462921000890561
24,4,0.7026684432639875,0.541345436226459,16.132300703752843
24,5,0.7026684432639875,0.40792121811725807,29.47472251467294
24,6,0.7026684432639875,0.6125550305977184,9.011341266626903
24,7,0.7026684432639875,0.5521159055328966,15.05525377310909
24,8,0.7026684432639875,0.6795368379910104,2.3131605272977085
25,0,0.7627111384180012,0.6867026424689443,7.600849594905689
25,1,0.7627111384180012,0.6667464497240545,9.59646886939467
25,2,0.7627111384180012,0.664377668131409,9.833347028659222
25,3,0.7627111384180012,0.65483030858035,10.788082983765124
25,4,0.7627111384180012,0.6818376949986796,8.087344341932157
25,5,0.7627111384180012,0.5900598396496279,17.265129876837328
25,6,0.7627111384180012,0.7725188564972071,-0.9807718079205885
25,7,0.7627111384180012,0.6889194383755713,7.379170004242985
25,8,0.7627111384180012,0.7486738397177004,1.4037298700300793
26,0,0.7521744717316212,0.6849810604487203,6.719341128290091
26,1,0.7521744717316212,0.6975063653153977,5.466810641622355
26,2,0.7521744717316212,0.6614869037013131,9.068756803030809
26,3,0.7521744717316212,0.689542245601383,6.263222613023823
26,4,0.7521744717316212,0.6318986641928783,12.02758075387429
26,5,0.7521744717316212,0.594710454806225,15.746401692539624
26,6,0.7521744717316212,0.7142391104240517,3.793536130756947
26,7,0.7521744717316212,0.6802358951049987,7.193857662662251
26,8,0.7521744717316212,0.630371601869854,12.180286986176725
27,0,0.8348214573091084,0.8179023289610949,1.6919128348013457
27,1,0.8348214573091084,0.7980070752699211,3.68143820391873
27,2,0.8348214573091084,0.7283561625981259,10.646529471098255
27,3,0.8348214573091084,0.7323417068606246,10.247975044848378
27,4,0.8348214573091084,0.7556346516543022,7.918680565480618
27,5,0.8348214573091084,0.5584058028101091,27.64156544989993
27,6,0.8348214573091084,0.8108637351830561,2.3957722126052294
27,7,0.8348214573091084,0.6584697151134782,17.63517421956302
27,8,0.8348214573091084,0.7933954991653132,4.142595814379524
28,0,0.6965334105733682,0.6021429836355515,9.439042693781662
28,1,0.6965334105733682,0.6426765249853705,5.385688558799762
28,2,0.6965334105733682,0.6243160179203736,7.221739265299454
28,3,0.6965334105733682,0.6648100413775714,3.172336919579677
28,4,0.6965334105733682,0.6793878853256079,1.7145525247760252
28,5,0.6965334105733682,0.5065278416753283,19.00055688980399
28,6,0.6965334105733682,0.6718025961025853,2.4730814470782847
28,7,0.6965334105733682,0.5713609601957176,12.517245037765058
28,8,0.6965334105733682,0.6336170578873754,6.291635268599272
29,0,0.7268090184186882,0.6494359244939567,7.737309392473146
29,1,0.7268090184186882,0.714690424110036,1.2118594308652142
29,2,0.7268090184186882,0.7093313593391831,1.7477659079505048
29,3,0.7268090184186882,0.7470228378802765,-2.021381946158829
29,4,0.7268090184186882,0.6592273737783483,6.758164464033989
29,5,0.7268090184186882,0.6120727083394795,11.47363100792087
29,6,0.7268090184186882,0.7297889980720875,-0.2979979653399356
29,7,0.7268090184186882,0.6637441609147939,6.306485750389424
29,8,0.7268090184186882,0.6136058850567758,11.320313336191234
30,0,0.8268625718461672,0.7854582992225985,4.140427262356871
30,1,0.8268625718461672,0.7216752102369224,10.51873616092448
30,2,0.8268625718461672,0.7907040628512113,3.6158508994955874
30,3,0.8268625718461672,0.7756669891212249,5.1195582724942295
30,4,0.8268625718461672,0.7133247959670331,11.353777587913406
30,5,0.8268625718461672,0.4216447726415602,40.5217799204607
30,6,0.8268625718461672,0.8408956421610471,-1.403307031487988
30,7,0.8268625718461672,0.7496219973255409,7.7240574520626275
30,8,0.8268625718461672,0.7365555696343715,9.030700221179567
31,0,0.7195451719286996,0.5939828885025394,12.556228342616016
31,1,0.7195451719286996,0.6404391431463585,7.910602878234108
31,2,0.7195451719286996,0.5686956715583983,15.084950037030131
31,3,0.7195451719286996,0.7031176104102063,1.6427561518493339
31,4,0.7195451719286996,0.6677516183436623,5.179355358503734
31,5,0.7195451719286996,0.4070439086236795,31.25012633050201
31,6,0.7195451719286996,0.7057797626215326,1.3765409307166965
31,7,0.7195451719286996,0.49212487858424026,22.742029334445935
31,8,0.7195451719286996,0.6020063785332649,11.753879339543472
32,0,0.7886403704092475,0.6863197603697667,10.232061003948079
32,1,0.7886403704092475,0.7193311966524407,6.930917375680679
32,2,0.7886403704092475,0.668643559037566,11.99968113716815
32,3,0.7886403704092475,0.747862887832854,4.077748257639346
32,4,0.7886403704092475,0.6758345408040477,11.28058296051998
32,5,0.7886403704092475,0.7145936849141767,7.404668549507076
32,6,0.7886403704092475,0.735184392096058,5.345597831318949
32,7,0.7886403704092475,0.6808441558441558,10.779621456509169
32,8,0.7886403704092475,0.7188901025648516,6.975026784439587
33,0,0.897858393628956,0.7213423481682383,17.651604546071773
33,1,0.897858393628956,0.8238550469931122,7.400334663584385
33,2,0.897858393628956,0.8183389806052284,7.9519413023727665
33,3,0.897858393628956,0.8641105080765266,3.374788555242947
33,4,0.897858393628956,0.8416414655706369,5.621692805831913
33,5,0.897858393628956,0.8446961604415235,5.316223318743251
33,6,0.897858393628956,0.8562848673538574,4.157352627509859
33,7,0.897858393628956,0.7341145210943079,16.374387253464818
33,8,0.897858393628956,0.7723060209440913,12.555237268486474
34,0,0.8363824108007794,0.6619343132624185,17.44480975383609
34,1,0.8363824108007794,0.7734713728993022,6.291103790147712
34,2,0.8363824108007794,0.7231044382694111,11.32779725313683
34,3,0.8363824108007794,0.8197700026490153,1.6612408151764013
34,4,0.8363824108007794,0.7147443943567282,12.163801644405115
34,5,0.8363824108007794,0.5167161295365637,31.96662812642157
34,6,0.8363824108007794,0.8183750926901612,1.8007318110618176
34,7,0.8363824108007794,0.6597628136800443,17.661959712073504
34,8,0.8363824108007794,0.7286852343004746,10.769717650030476
35,0,0.6900605956829837,0.610792908560351,7.926768712263277
35,1,0.6900605956829837,0.6546489663313778,3.541162935160591
35,2,0.6900605956829837,0.6577500380068774,3.2310557676106355
35,3,0.6900605956829837,0.6314463104717744,5.861428521120937
35,4,0.6900605956829837,0.6693011132497452,2.075948243323855
35,5,0.6900605956829837,0.4784205347986164,21.164006088436732
35,6,0.6900605956829837,0.7002118046818115,-1.015120899882782
35,7,0.6900605956829837,0.6730439713094656,1.701662437351814
35,8,0.6900605956829837,0.6634673392563983,2.6593256426585388
36,0,0.6200795398448504,0.6100364863419776,1.0043053502872823
36,1,0.6200795398448504,0.5812645739470867,3.8814965897763676
36,2,0.6200795398448504,0.5816145093674585,3.8465030477391915
36,3,0.6200795398448504,0.6017919405785549,1.828759926629553
36,4,0.6200795398448504,0.5725690274435958,4.751051240125459
36,5,0.6200795398448504,0.39467575703996216,22.540378280488827
36,6,0.6200795398448504,0.6044153662633336,1.5664173581516838
36,7,0.6200795398448504,0.5592897342720273,6.07898055728231
36,8,0.6200795398448504,0.576784696143765,4.329484370108538
37,0,0.8582316267588221,0.7002621336473671,15.796949311145504
37,1,0.8582316267588221,0.7723854792509688,8.584614750785335
37,2,0.8582316267588221,0.7014490642643023,15.678256249451984
37,3,0.8582316267588221,0.8055376013143694,5.269402544445279
37,4,0.8582316267588221,0.8070853465824945,5.114628017632761
37,5,0.8582316267588221,0.8190573381376318,3.9174288621190323
37,6,0.8582316267588221,0.7612400173656904,9.699160939313177
37,7,0.8582316267588221,0.7841027383703454,7.4128888388476755
37,8,0.8582316267588221,0.7495521439720473,10.867948278677487
38,0,0.7946327739191047,0.7496449027432996,4.498787117580505
38,1,0.7946327739191047,0.731034817512805,6.359795640629972
38,2,0.7946327739191047,0.7050366188126471,8.959615510645758
38,3,0.7946327739191047,0.7493397520528872,4.529302186621753
38,4,0.7946327739191047,0.6162594675716383,17.83733063474664
38,5,0.7946327739191047,0.4666270193058644,32.80057546132403
38,6,0.7946327739191047,0.7981180431123419,-0.3485269193237217
38,7,0.7946327739191047,0.7183266557806616,7.630611813844313
38,8,0.7946327739191047,0.7547615580683902,3.9871215850714514
39,0,0.8056306306306306,0.6146766728873753,19.09539577432553
39,1,0.8056306306306306,0.7806039037836404,2.5026726846990144
39,2,0.8056306306306306,0.7658313442958757,3.9799286334754824
39,3,0.8056306306306306,0.6933989236053995,11.223170702523111
39,4,0.8056306306306306,0.733220060984391,7.24105696462396
39,5,0.8056306306306306,0.38958322914364185,41.60474014869887
39,6,0.8056306306306306,0.7413308662202682,6.429976441036233
39,7,0.8056306306306306,0.7326921987707838,7.293843185984672
39,8,0.8056306306306306,0.7647578661962012,4.087276443442933
40,0,0.7647594365244483,0.6189846023103736,14.577483421407479
40,1,0.7647594365244483,0.704647658304266,6.011177822018232
40,2,0.7647594365244483,0.7026513286823193,6.210810784212906
40,3,0.7647594365244483,0.6933451737284799,7.141426279596841
40,4,0.7647594365244483,0.7232454028036001,4.151403372084827
40,5,0.7647594365244483,0.5608864082650129,20.387302825943543
40,6,0.7647594365244483,0.6974319278275879,6.732750869686043
40,7,0.7647594365244483,0.4733641416715076,29.139529485294073
40,8,0.7647594365244483,0.6505324547947499,11.422698172969847
