subject,channel,f1_full,f1_occluded,drop_pp
1,0,0.6691714823690847,0.7002927055906282,-3.1121223221543426
1,1,0.6691714823690847,0.6984167040926167,-2.9245221723531944
1,2,0.6691714823690847,0.6831088504207514,-1.3937368051666676
1,3,0.6691714823690847,0.6040520582387563,6.511942413032845
1,4,0.6691714823690847,0.7239385625190111,-5.476708014992637
1,5,0.6691714823690847,0.6123690963899191,5.680238597916565
1,6,0.6691714823690847,0.6837510116263159,-1.457952925723116
1,7,0.6691714823690847,0.6447426401390596,2.442884223002517
1,8,0.6691714823690847,0.6568076756252177,1.2363806743867056
2,0,0.8157568630783878,0.8101144872004375,0.5642375877950245
2,1,0.8157568630783878,0.7911088018828183,2.4648061195569504
2,2,0.8157568630783878,0.7806894034209428,3.5067459657444955
2,3,0.8157568630783878,0.8026664073425763,1.3090455735811468
2,4,0.8157568630783878,0.8123450022953534,0.34118607830343484
2,5,0.8157568630783878,0.8058095284317632,0.9947334646624562
2,6,0.8157568630783878,0.8012279464398502,1.4528916638537615
2,7,0.8157568630783878,0.7732972698210727,4.245959325731508
2,8,0.8157568630783878,0.8084884014994549,0.7268461578932905
3,0,0.8258565586590975,0.8411308512118066,-1.5274292552709179
3,1,0.8258565586590975,0.7801950812422016,4.566147741689585
3,2,0.8258565586590975,0.819687840504167,0.6168718154930475
3,3,0.8258565586590975,0.7624436150660865,6.341294359301097
3,4,0.8258565586590975,0.8249611435281787,0.08954151309187308
3,5,0.8258565586590975,0.8305611996022106,-0.4704640943113181
3,6,0.8258565586590975,0.8322320231295615,-0.6375464470463998
3,7,0.8258565586590975,0.8134541236668775,1.2402434992219935
3,8,0.8258565586590975,0.8168929709719618,0.8963587687135677
4,0,0.8984987856379176,0.8300045254586079,6.849426017930971
4,1,0.8984987856379176,0.8320482506446223,6.645053499329534
4,2,0.8984987856379176,0.8629870152565481,3.5511770381369545
4,3,0.8984987856379176,0.8768365688287293,2.166221680918834
4,4,0.8984987856379176,0.8892277811810325,0.9271004456885112
4,5,0.8984987856379176,0.8869456997724272,1.155308586549042
4,6,0.8984987856379176,0.8817924751582777,1.6706310479639885
4,7,0.8984987856379176,0.886220882991575,1.2277902646342653
4,8,0.8984987856379176,0.8832162344545655,1.5282551183352089
5,0,0.6773449246382122,0.677433271964333,-0.008834732612084117
5,1,0.6773449246382122,0.6766611489148696,0.06837757233425501
5,2,0.6773449246382122,0.6762491031044674,0.10958215337447674
5,3,0.6773449246382122,0.7061034597985473,-2.875853516033511
5,4,0.6773449246382122,0.5906077176997679,8.673720693844423
5,5,0.6773449246382122,0.6424246902966426,3.4920234341569545
5,6,0.6773449246382122,0.6749787982209465,0.2366126417265635
5,7,0.6773449246382122,0.6489689945005489,2.8375930137663263
5,8,0.6773449246382122,0.6470701349555976,3.0274789682614545
6,0,0.8064925278307352,0.7928844161915589,1.3608111639176301
6,1,0.8064925278307352,0.7968092654458947,0.9683262384840519
6,2,0.8064925278307352,0.8279364875533526,-2.1443959722617367
6,3,0.8064925278307352,0.8378791172309127,-3.1386589400177467
6,4,0.8064925278307352,0.7841620536860504,2.233047414468481
6,5,0.8064925278307352,0.7866794901180499,1.9813037712685277
6,6,0.8064925278307352,0.780446623093682,2.604590473705326
6,7,0.8064925278307352,0.7556393076290424,5.085322020169281
6,8,0.8064925278307352,0.7642108557645576,4.228167206617761
7,0,0.7322363357662361,0.7004801878250538,3.175614794118231
7,1,0.7322363357662361,0.710459912054223,2.177642371201316
7,2,0.7322363357662361,0.7253485717916854,0.6887763974550709
7,3,0.7322363357662361,0.774407974976649,-4.217163921041289
7,4,0.7322363357662361,0.6986124456513644,3.362389011487177
7,5,0.7322363357662361,0.7689009770504297,-3.6664641284193555
7,6,0.7322363357662361,0.6349444524265024,9.72918833397337
7,7,0.7322363357662361,0.7039646706961301,2.8271665070106033
7,8,0.7322363357662361,0.7206809959749739,1.155533979126222
8,0,0.8501816236999128,0.8347584421146902,1.54231815852226
8,1,0.8501816236999128,0.8269064055772806,2.3275218122632224
8,2,0.8501816236999128,0.8462269420876538,0.3954681612258981
8,3,0.8501816236999128,0.8323885215248873,1.77931021750255
8,4,0.8501816236999128,0.8355897421218899,1.4591881578022936
8,5,0.8501816236999128,0.8126645588190791,3.751706488083373
8,6,0.8501816236999128,0.8344994752932834,1.5682148406629404
8,7,0.8501816236999128,0.7890750542653906,6.11065694345222
8,8,0.8501816236999128,0.8026785241198688,4.7503099580043955
9,0,0.8148764187192945,0.8007676627796187,1.4108755939675754
9,1,0.8148764187192945,0.791510512348171,2.3365906371123457
9,2,0.8148764187192945,0.7649046072735572,4.997181144573726
9,3,0.8148764187192945,0.8079479465064142,0.6928472212880288
9,4,0.8148764187192945,0.7907707584116606,2.4105660307633947
9,5,0.8148764187192945,0.8032559430512831,1.1620475668011387
9,6,0.8148764187192945,0.8102087749648725,0.46676437544219684
9,7,0.8148764187192945,0.7980421754670816,1.6834243252212944
9,8,0.8148764187192945,0.8293792526633676,-1.4502833944073146
10,0,0.7167888803471484,0.6989222095193426,1.7866670827805797
10,1,0.7167888803471484,0.7159053293221622,0.08835510249861622
10,2,0.7167888803471484,0.7129163149114712,0.38725654356771555
10,3,0.7167888803471484,0.678777384504679,3.8011495842469434
10,4,0.7167888803471484,0.716084825103202,0.07040552439463443
10,5,0.7167888803471484,0.7165091752048274,0.02797051423210073
10,6,0.7167888803471484,0.7114290128797205,0.5359867467427892
10,7,0.7167888803471484,0.7082034640574449,0.858541628970344
10,8,0.7167888803471484,0.7197621803640956,-0.2973300016947178
11,0,0.9085965080064626,0.911530585591291,-0.2934077584828332
11,1,0.9085965080064626,0.8791241770056353,2.9472331000827356
11,2,0.9085965080064626,0.8755902794890033,3.300622851745938
11,3,0.9085965080064626,0.8773874145632117,3.1209093443250957
11,4,0.9085965080064626,0.8935110557971174,1.5085452209345207
11,5,0.9085965080064626,0.8911299671525236,1.746654085393906
11,6,0.9085965080064626,0.9153465326647123,-0.6750024658249698
11,7,0.9085965080064626,0.9220324172609713,-1.343590925450866
11,8,0.9085965080064626,0.9058694683694684,0.27270396369942773
12,0,0.9065268339581087,0.8873481046722032,1.9178729285905582
12,1,0.9065268339581087,0.8402096956875531,6.631713827055563
12,2,0.9065268339581087,0.8604179728326744,4.610886112543433
12,3,0.9065268339581087,0.8659910442087607,4.053578974934801
12,4,0.9065268339581087,0.9090427700954017,-0.2515936137292951
12,5,0.9065268339581087,0.9191384288928157,-1.2611594934706982
12,6,0.9065268339581087,0.9013672808742109,0.5159553083897817
12,7,0.9065268339581087,0.8935187747264615,1.3008059231647273
12,8,0.9065268339581087,0.8523777173913043,5.414911656680443
13,0,0.8543088710499245,0.8465506437989085,0.7758227251015937
13,1,0.8543088710499245,0.8356625484117614,1.8646322638163126
13,2,0.8543088710499245,0.8347494947990306,1.9559376250893878
13,3,0.8543088710499245,0.8244942814108294,2.9814589639095113
13,4,0.8543088710499245,0.8010042922202246,5.330457882969986
13,5,0.8543088710499245,0.8093692244250866,4.493964662483785
13,6,0.8543088710499245,0.834211694140688,2.0097176909236514
13,7,0.8543088710499245,0.8277119696704716,2.659690137945292
13,8,0.8543088710499245,0.8356826712180098,1.8626199831914714
14,0,0.8294720731101806,0.8330499447790349,-0.3577871668854371
14,1,0.8294720731101806,0.8060868201741741,2.338525293600646
14,2,0.8294720731101806,0.8401797216978808,-1.0707648587700236
14,3,0.8294720731101806,0.7640292610042405,6.544281210594005
14,4,0.8294720731101806,0.8492689849433237,-1.9796911833143138
14,5,0.8294720731101806,0.8299791200737905,-0.05070469636099251
14,6,0.8294720731101806,0.8206383238706867,0.8833749239493871
14,7,0.8294720731101806,0.7728348211577314,5.6637251952449175
14,8,0.8294720731101806,0.8024375111915187,2.7034561918661826
15,0,0.8742012304644969,0.8588082544845896,1.5392975979907297
15,1,0.8742012304644969,0.9018324701238597,-2.763123965936276
15,2,0.8742012304644969,0.8459420182532693,2.8259212211227625
15,3,0.8742012304644969,0.8593887670299032,1.4812463434593748
15,4,0.8742012304644969,0.9084982613270935,-3.429703086259661
15,5,0.8742012304644969,0.8667849147142659,0.7416315750231051
15,6,0.8742012304644969,0.8613731859314876,1.2828044533009342
15,7,0.8742012304644969,0.8413911466289371,3.2810083835559833
15,8,0.8742012304644969,0.8694563779426298,0.4744852521867182
16,0,0.8254796041750928,0.8265759637188209,-0.10963595437281093
16,1,0.8254796041750928,0.8366808405960569,-1.1201236420964045
16,2,0.8254796041750928,0.825460143034287,0.001946114080575434
16,3,0.8254796041750928,0.844069476852775,-1.8589872677682195
16,4,0.8254796041750928,0.8143498180951821,1.1129786079910664
16,5,0.8254796041750928,0.8200378784884995,0.5441725686593291
16,6,0.8254796041750928,0.8202001007188817,0.5279503456211088
16,7,0.8254796041750928,0.7786884127662732,4.67911914088196
16,8,0.8254796041750928,0.8186796683905746,0.6799935784518207
17,0,0.8230937843506783,0.8191003281463116,0.3993456204366641
17,1,0.8230937843506783,0.8358884702042411,-1.2794685853562804
17,2,0.8230937843506783,0.819568373078496,0.35254112721823105
17,3,0.8230937843506783,0.8097783853240723,1.3315399026605945
17,4,0.8230937843506783,0.815607624786668,0.748615956401022
17,5,0.8230937843506783,0.8281411763440004,-0.5047391993322159
17,6,0.8230937843506783,0.8226258596012268,0.04679247494514538
17,7,0.8230937843506783,0.8051571365196155,1.7936647831062746
17,8,0.8230937843506783,0.7950923334145318,2.8001450936146477
18,0,0.8874780758742342,0.8693238003764464,1.8154275497787808
18,1,0.8874780758742342,0.8978603819297432,-1.0382306055508939
18,2,0.8874780758742342,0.9085025243716456,-2.1024448497411363
18,3,0.8874780758742342,0.7708987143307777,11.657936154345649
18,4,0.8874780758742342,0.8836354233890786,0.38426524851555843
18,5,0.8874780758742342,0.895760853696385,-0.8282777822150811
18,6,0.8874780758742342,0.886219370644691,0.1258705229543189
18,7,0.8874780758742342,0.8349032837760697,5.257479209816451
18,8,0.8874780758742342,0.8930404935918558,-0.556241771762156
19,0,0.8370197626916501,0.8478560639762615,-1.0836301284611327
19,1,0.8370197626916501,0.824712299191245,1.2307463500405125
19,2,0.8370197626916501,0.817870462660631,1.9149300031019112
19,3,0.8370197626916501,0.7860673125635218,5.095245012812832
19,4,0.8370197626916501,0.8355040209299058,0.15157417617442936
19,5,0.8370197626916501,0.8368026147535846,0.021714793806548727
19,6,0.8370197626916501,0.854701415843983,-1.7681653152332832
19,7,0.8370197626916501,0.833515237964413,0.3504524727237168
19,8,0.8370197626916501,0.8142827364087339,2.2737026282916184
20,0,0.6775951130104441,0.690977725854416,-1.3382612843971908
20,1,0.6775951130104441,0.6585694500373631,1.9025662973080948
20,2,0.6775951130104441,0.6440936865732101,3.350142643723397
20,3,0.6775951130104441,0.7138723695694164,-3.6277256558972293
20,4,0.6775951130104441,0.6462376319946787,3.135748101576541
20,5,0.6775951130104441,0.6326707595978189,4.492435341262513
20,6,0.6775951130104441,0.6864539456462245,-0.8858832635780467
20,7,0.6775951130104441,0.6931002177754864,-1.55051047650423
20,8,0.6775951130104441,0.6799058892037682,-0.23107761933240933
21,0,0.8552429740636762,0.818588413793498,3.6654560270178216
21,1,0.8552429740636762,0.8824504491521331,-2.720747508845689
21,2,0.8552429740636762,0.8404177281353465,1.4825245928329678
21,3,0.8552429740636762,0.8348996961621062,2.034327790156998
21,4,0.8552429740636762,0.8550637366462011,0.01792374174751643
21,5,0.8552429740636762,0.862590801735283,-0.7347827671606799
21,6,0.8552429740636762,0.8692669713808507,-1.402399731717452
21,7,0.8552429740636762,0.8606499372687072,-0.5406963205030979
21,8,0.8552429740636762,0.8430293346145723,1.221363944910392
22,0,0.821648001190214,0.8248447509693597,-0.31967497791457467
22,1,0.821648001190214,0.8193083846699594,0.2339616520254606
22,2,0.821648001190214,0.8120284825946211,0.9619518595592846
22,3,0.821648001190214,0.7977873180414179,2.386068314879608
22,4,0.821648001190214,0.8104820172343746,1.1165983955839343
22,5,0.821648001190214,0.8078752949361414,1.3772706254072564
22,6,0.821648001190214,0.809419651308611,1.222834988160293
22,7,0.821648001190214,0.7696453179067446,5.200268328346935
22,8,0.821648001190214,0.8127249195902045,0.892308160000943
23,0,0.8129748197825549,0.6990785424469234,11.389627733563156
23,1,0.8129748197825549,0.7688374976362549,4.413732214630006
23,2,0.8129748197825549,0.8070387534274475,0.5936066355107461
23,3,0.8129748197825549,0.7780781835205992,3.4896636261955716
23,4,0.8129748197825549,0.7454212392111859,6.755358057136906
23,5,0.8129748197825549,0.7906924986649395,2.228232111761541
23,6,0.8129748197825549,0.7830427657987612,2.9932053983793727
23,7,0.8129748197825549,0.806421583392949,0.6553236389605921
23,8,0.8129748197825549,0.7739325776799748,3.9042242102580116
24,0,0.7839786645713855,0.7551197384478423,2.885892612354324
24,1,0.7839786645713855,0.7744962459602511,0.9482418611134413
24,2,0.7839786645713855,0.7574546284512043,2.6524036120181282
24,3,0.7839786645713855,0.8224872991644065,-3.8508634593021007
24,4,0.7839786645713855,0.7228832203991309,6.109544417225465
24,5,0.7839786645713855,0.7224963396109834,6.148232496040218
24,6,0.7839786645713855,0.7940924656602117,-1.0113801088826202
24,7,0.7839786645713855,0.7350307422318914,4.894792233949419
24,8,0.7839786645713855,0.7545726456952759,2.9406018876109608
25,0,0.8394916336092807,0.8000382862880228,3.9453347321257937
25,1,0.8394916336092807,0.8306071343761515,0.8884499233129173
25,2,0.8394916336092807,0.8162987289681746,2.3192904641106127
25,3,0.8394916336092807,0.8200902397351832,1.940139387409745
25,4,0.8394916336092807,0.8126012210742327,2.689041253504798
25,5,0.8394916336092807,0.8533018954131395,-1.3810261803858803
25,6,0.8394916336092807,0.870289463468112,-3.0797829858831283
25,7,0.8394916336092807,0.8115297030556667,2.7961930553613956
25,8,0.8394916336092807,0.8438623308072514,-0.43706971979706744
26,0,0.7580523425565036,0.7522016742148108,0.5850668341692788
26,1,0.7580523425565036,0.758684198754388,-0.06318561978844173
26,2,0.7580523425565036,0.7357365289199126,2.2315813636590964
26,3,0.7580523425565036,0.7480579109119858,0.9994431644517743
26,4,0.7580523425565036,0.7452563346694923,1.2796007887011296
26,5,0.7580523425565036,0.7334631045501028,2.458923800640078
26,6,0.7580523425565036,0.7498352685132976,0.821707404320593
26,7,0.7580523425565036,0.7429064244593764,1.5145918097127176
26,8,0.7580523425565036,0.7271147794933055,3.093756306319806
27,0,0.8525686109750356,0.8628871055697379,-1.0318494594702354
27,1,0.8525686109750356,0.8778240798703393,-2.5255468895303723
27,2,0.8525686109750356,0.837262964488783,1.5305646486252544
27,3,0.8525686109750356,0.8322381032251882,2.033050774984735
27,4,0.8525686109750356,0.81875899753051,3.38096134445256
27,5,0.8525686109750356,0.8179865075118018,3.458210346323376
27,6,0.8525686109750356,0.8582202049166412,-0.5651593941605637
27,7,0.8525686109750356,0.8425112173988311,1.0057393576204499
27,8,0.8525686109750356,0.8360380530894849,1.653055788555069
28,0,0.8218723662278062,0.8633396441580585,-4.146727793025229
28,1,0.8218723662278062,0.8190566688000458,0.2815697427760444
28,2,0.8218723662278062,0.8150122807299466,0.6860085497859658
28,3,0.8218723662278062,0.799927186179564,2.1945180048242197
28,4,0.8218723662278062,0.7849041494047818,3.6968216823024425
28,5,0.8218723662278062,0.7226859542266518,9.918641200115442
28,6,0.8218723662278062,0.8308842251556379,-0.9011858927831629
28,7,0.8218723662278062,0.8174806207275249,0.4391745500281319
28,8,0.8218723662278062,0.8243295041492851,-0.24571379214788358
29,0,0.7946101382623736,0.7584289325296519,3.6181205732721655
29,1,0.7946101382623736,0.7841400707850075,1.0470067477366118
29,2,0.7946101382623736,0.7601721237101478,3.4438014552225837
29,3,0.7946101382623736,0.7857297508128275,0.8880387449546112
29,4,0.7946101382623736,0.732259508720265,6.235062954210857
29,5,0.7946101382623736,0.7620677548240657,3.2542383438307843
29,6,0.7946101382623736,0.7954286387452177,-0.08185004828441533
29,7,0.7946101382623736,0.7717990374538629,2.2811100808510676
29,8,0.7946101382623736,0.721315283951965,7.329485431040861
30,0,0.7945228259583609,0.786166856726611,0.835596923174986
30,1,0.7945228259583609,0.7451739081012929,4.934891785706796
30,2,0.7945228259583609,0.8003037252728863,-0.5780899314525412
30,3,0.7945228259583609,0.760732359908879,3.379046604948188
30,4,0.7945228259583609,0.7745599297286123,1.9962896229748561
30,5,0.7945228259583609,0.764774363151554,2.9748462806806875
30,6,0.7945228259583609,0.800482300232706,-0.5959474274345067
30,7,0.7945228259583609,0.7367027175779766,5.782010838038431
30,8,0.7945228259583609,0.8014321569634997,-0.6909331005138797
31,0,0.7924675216192881,0.7816760050282882,1.0791516590999972
31,1,0.7924675216192881,0.7660621703706452,2.640535124864296
31,2,0.7924675216192881,0.7574634842843811,3.500403733490698
31,3,0.7924675216192881,0.7767956391177031,1.5671882501585022
31,4,0.7924675216192881,0.7560751267096569,3.63923949096312
31,5,0.7924675216192881,0.7789934082240733,1.347411339521487
31,6,0.7924675216192881,0.7944861326797266,-0.20186110604384355
31,7,0.7924675216192881,0.7480431036305955,4.442441798869268
31,8,0.7924675216192881,0.7552335068032742,3.723401481601396
32,0,0.8093715094679479,0.7819404792779722,2.7431030189975725
32,1,0.8093715094679479,0.8079382698353719,0.14332396325760222
32,2,0.8093715094679479,0.8229983903235565,-1.3626880855608592
32,3,0.8093715094679479,0.7933819716943256,1.598953777362233
32,4,0.8093715094679479,0.7937805176575369,1.5590991810411015
32,5,0.8093715094679479,0.8055780140975644,0.3793495370383537
32,6,0.8093715094679479,0.8225928006930362,-1.3221291225088305
32,7,0.8093715094679479,0.7606255958994939,4.874591356845404
32,8,0.8093715094679479,0.8022877508637687,0.7083758604179202
33,0,0.8145522493449519,0.7989902992784761,1.556195006647576
33,1,0.8145522493449519,0.8579162385957517,-4.336398925079987
33,2,0.8145522493449519,0.7928408468731929,2.1711402471758956
33,3,0.8145522493449519,0.8116219540922864,0.2930295252665416
33,4,0.8145522493449519,0.8112225813500177,0.3329667994934171
33,5,0.8145522493449519,0.8074210153131108,0.7131234031841016
33,6,0.8145522493449519,0.834428114468222,-1.987586512327011
33,7,0.8145522493449519,0.7331403495202637,8.141189982468811
33,8,0.8145522493449519,0.8202771487547347,-0.5724899409782824
34,0,0.8870670467791882,0.8568674545663364,3.0199592212851845
34,1,0.8870670467791882,0.8774905250816749,0.9576521697513329
34,2,0.8870670467791882,0.875159651223481,1.190739555570719
34,3,0.8870670467791882,0.8548638925351253,3.220315424406295
34,4,0.8870670467791882,0.8881917390300524,-0.1124692250864201
34,5,0.8870670467791882,0.876109709770764,1.0957337008424273
34,6,0.8870670467791882,0.8785125851224596,0.8554461656728685
34,7,0.8870670467791882,0.865470976094014,2.159607068517422
34,8,0.8870670467791882,0.8688979284622373,1.8169118316950894
35,0,0.7275284430220328,0.7041222250899,2.3406217932132822
35,1,0.7275284430220328,0.6961383548421959,3.1390088179836906
35,2,0.7275284430220328,0.7108862971662864,1.6642145855746415
35,3,0.7275284430220328,0.719349980828943,0.8178462193089819
35,4,0.7275284430220328,0.7446086091376779,-1.7080166115645112
35,5,0.7275284430220328,0.7007400837656317,2.6788359256401106
35,6,0.7275284430220328,0.7270855839488324,0.044285907320040785
35,7,0.7275284430220328,0.7280489989978862,-0.05205559758534317
35,8,0.7275284430220328,0.7253127128484564,0.22157301735763468
36,0,0.7489024965003526,0.7445192341533805,0.4383262346972061
36,1,0.7489024965003526,0.7239599328124948,2.4942563687857744
36,2,0.7489024965003526,0.696994727311673,5.1907769188679564
36,3,0.7489024965003526,0.7331747103121035,1.5727786188249104
36,4,0.7489024965003526,0.737521893778125,1.1380602722227517
36,5,0.7489024965003526,0.7727721267572462,-2.3869630256893593
36,6,0.7489024965003526,0.746416403997217,0.2486092503135584
36,7,0.7489024965003526,0.6946656464633993,5.423685003695322
36,8,0.7489024965003526,0.6927694394723698,5.613305702798277
37,0,0.8419797167359183,0.8271722529268437,1.4807463809074606
37,1,0.8419797167359183,0.8315178856888834,1.0461831047034909
37,2,0.8419797167359183,0.8081142362391023,3.3865480496816036
37,3,0.8419797167359183,0.8667618248589324,-2.478210812301407
37,4,0.8419797167359183,0.8493626689592002,-0.7382952223281891
37,5,0.8419797167359183,0.8585082089372852,-1.6528492201366873
37,6,0.8419797167359183,0.8465720818535571,-0.459236511763883
37,7,0.8419797167359183,0.7926023615447483,4.937735519117004
37,8,0.8419797167359183,0.8373364073912152,0.4643309344703139
38,0,0.8266564645113129,0.7791186189022639,4.753784560904906
38,1,0.8266564645113129,0.7959867230047801,3.066974150653279
38,2,0.8266564645113129,0.8306157830600855,-0.3959318548772628
38,3,0.8266564645113129,0.817327466320217,0.9328998191095894
38,4,0.8266564645113129,0.831062496316977,-0.44060318056641234
38,5,0.8266564645113129,0.8395436143988033,-1.2887149887490401
38,6,0.8266564645113129,0.7565841904145144,7.00722740967985
38,7,0.8266564645113129,0.7760408153616098,5.061564914970306
38,8,0.8266564645113129,0.8017012293397239,2.495523517158904
39,0,0.7981826925648832,0.7839894903078837,1.4193202256999493
39,1,0.7981826925648832,0.7645072259941428,3.3675466570740387
39,2,0.7981826925648832,0.8096535504853202,-1.1470857920437005
39,3,0.7981826925648832,0.7462552334052638,5.192745915961938
39,4,0.7981826925648832,0.7448337543539978,5.334893821088538
39,5,0.7981826925648832,0.7993144171469657,-0.11317245820825494
39,6,0.7981826925648832,0.813037519973787,-1.485482740890387
39,7,0.7981826925648832,0.791738266380047,0.6444426184836205
39,8,0.7981826925648832,0.8346674137872921,-3.648472122240898
40,0,0.8115296817609408,0.7663480851874862,4.518159657345455
40,1,0.8115296817609408,0.7789079668641712,3.262171489676957
40,2,0.8115296817609408,0.8339252406923388,-2.2395558931397996
40,3,0.8115296817609408,0.801656938957068,0.9872742803872736
40,4,0.8115296817609408,0.8065698851166667,0.49597966442740393
40,5,0.8115296817609408,0.8116309059813573,-0.010122422041658474
40,6,0.8115296817609408,0.8101803299678845,0.1349351793056286
40,7,0.8115296817609408,0.7668882494527319,4.464143230820882
40,8,0.8115296817609408,0.8190276261259792,-0.7497944365038478
