subject,channel,r,f1_drop_mean,f1_drop_sd
1,0,5,0.04147684294211449,0.014432781364794468
1,1,5,0.0318992558059523,0.007196876422118204
1,2,5,0.020714734095201127,0.00767040956132823
1,3,5,0.07412366217191217,0.005016771431008451
1,4,5,0.011813646319896499,0.007671249583376499
1,5,5,0.10835688534778076,0.01020225801827741
1,6,5,0.04420641135611343,0.0048508603816572035
1,7,5,0.08984898324233766,0.011234500014072078
1,8,5,0.11259218675337232,0.005375206499154582
2,0,5,0.0695897217255795,0.009069436605608603
2,1,5,0.08393357510554131,0.015599508579395936
2,2,5,0.09368353216429304,0.012175186723001642
2,3,5,0.04210547651487093,0.022746978050923482
2,4,5,0.13962686576863775,0.008577114243523984
2,5,5,0.1575913876783638,0.015536347448013096
2,6,5,0.08119608218821435,0.01691385237893835
2,7,5,0.11058564364226227,0.007410312128521432
2,8,5,0.10143600279234352,0.01701373485316352
3,0,5,0.08748314220084337,0.010292358164592156
3,1,5,0.08412438505097783,0.004318950923115189
3,2,5,0.039970657873448,0.010544507766058612
3,3,5,0.10672790000952645,0.015032614754181788
3,4,5,0.17026081365387322,0.009146257168570157
3,5,5,0.08647484317590934,0.005498114966997012
3,6,5,0.027098876750764212,0.006227716865658834
3,7,5,0.1029577078051362,0.01590236519431639
3,8,5,0.09911272193177637,0.011698807624335757
4,0,5,0.09116855551098677,0.013838065517606305
4,1,5,0.0873676517936874,0.010195586817366426
4,2,5,0.09736375280136991,0.012791268492679439
4,3,5,0.06865525832702668,0.008685531316624154
4,4,5,0.1289036331745091,0.014768344219272997
4,5,5,0.1413577528393698,0.0086533332243997
4,6,5,0.04205279097611283,0.009873348955462333
4,7,5,0.12844397198712512,0.021115722422268553
4,8,5,0.11804088229009624,0.01449240256534651
5,0,5,0.06283920106546174,0.01156868113297071
5,1,5,0.05322044527746002,0.014365388440131563
5,2,5,0.04511755982719834,0.012213803087074551
5,3,5,0.02153321105697963,0.014573122918583755
5,4,5,0.08187857916596467,0.013772259834645171
5,5,5,0.0942003453591912,0.005261277919363603
5,6,5,0.03583713872434093,0.0034135231572044403
5,7,5,0.07361612207389381,0.010809613696014828
5,8,5,0.1065142113663788,0.013173051249241157
6,0,5,0.11883340471754382,0.011484162695196311
6,1,5,0.0951964467629565,0.016383124373667908
6,2,5,0.06435668227149612,0.009285908773321855
6,3,5,0.022777162325659184,0.01765599967403143
6,4,5,0.1608060850087663,0.009237391812429689
6,5,5,0.07115464952200423,0.0207799779181189
6,6,5,0.04788811554600121,0.010423618297454596
6,7,5,0.10258460768003319,0.016152183375179582
6,8,5,0.07745623450288985,0.017204759633310356
7,0,5,0.06033744834410393,0.007883442726322307
7,1,5,0.08486282298779332,0.006552316100845786
7,2,5,0.09972714339616492,0.01409355033433218
7,3,5,0.021255241269673243,0.015312052073948918
7,4,5,0.14561606632588475,0.02460731722749095
7,5,5,0.06641302706385561,0.030360957019649748
7,6,5,0.058557083309065325,0.0122922231293569
7,7,5,0.0984582906661775,0.008741970029583053
7,8,5,0.0619539603455012,0.011630358521023941
8,0,5,0.05432422315675116,0.009400365013903362
8,1,5,0.06075958934768846,0.01586260934476427
8,2,5,0.02852760308882314,0.011325421950731804
8,3,5,0.11176731671126885,0.015503143599477593
8,4,5,0.10662123102514993,0.012286426578480211
8,5,5,0.10061894827972111,0.010200364486118104
8,6,5,0.06907458725233721,0.011938193943821868
8,7,5,0.16660623693094498,0.011196320145726673
8,8,5,0.1328215112135638,0.011263185077493305
9,0,5,0.08117852373663739,0.01163147831379018
9,1,5,0.11550658722311628,0.016279702438094464
9,2,5,0.10973720834226515,0.010674576081989708
9,3,5,0.016694535645326258,0.012855383604236673
9,4,5,0.1245378533843197,0.015405232714412161
9,5,5,0.08969235504826019,0.01946077523380948
9,6,5,0.03757571213864956,0.010387668638404544
9,7,5,0.1411114014574156,0.013647093659633779
9,8,5,0.038201687669982574,0.010913678854115087
10,0,5,0.05160462637310894,0.01700101690992722
10,1,5,0.031276800489978426,0.012632412003262395
10,2,5,0.04417279047813834,0.012786042181375102
10,3,5,0.046598541032248364,0.015093575631811669
10,4,5,0.06747795184516081,0.01797312001584933
10,5,5,0.13390344096809642,0.016789537291548525
10,6,5,0.033804275221763255,0.015704148484569875
10,7,5,0.07592266865920008,0.011656996414922157
10,8,5,0.060100694909410945,0.0029984844349276144
11,0,5,0.06572122930479059,0.015681853773533684
11,1,5,0.09979940475836727,0.019087620886051277
11,2,5,0.09444184595772223,0.009315355259028522
11,3,5,0.07810678212228414,0.012992500290235217
11,4,5,0.12597564401097738,0.0074698969258261295
11,5,5,0.0835851758440034,0.01689003792017391
11,6,5,0.029015884678636406,0.008316470250102974
11,7,5,0.12365854192402452,0.012431565893860238
11,8,5,0.09103266189237853,0.014190455317454779
12,0,5,0.06551311807438506,0.01578258647758853
12,1,5,0.12585103660904495,0.00671630414308776
12,2,5,0.13672535581881498,0.008974713941053227
12,3,5,0.08874486618932864,0.006841717694190579
12,4,5,0.07961108283043863,0.017195926965548863
12,5,5,0.10510445588169257,0.008322818700669107
12,6,5,0.047924866457541945,0.015108710581768948
12,7,5,0.11651137481783391,0.007542277054985318
12,8,5,0.12044844316383815,0.016316981612134917
13,0,5,0.11003093909858197,0.01036743789677343
13,1,5,0.08791646535117444,0.015930988948770448
13,2,5,0.06279152585728845,0.01738280209359921
13,3,5,0.05449051474153195,0.01752045372289234
13,4,5,0.17137934202212965,0.011086351292374246
13,5,5,0.1404387396412093,0.012257257098889215
13,6,5,0.0660603707193459,0.006936436088800716
13,7,5,0.10628327798711124,0.007405429843520154
13,8,5,0.09538540135387372,0.012708375930378418
14,0,5,0.06265182187054599,0.010076428115899833
14,1,5,0.09351143398142359,0.007660767248870298
14,2,5,0.061567823805472835,0.012088269054258222
14,3,5,0.09492704075313665,0.012509285027231884
14,4,5,0.11786563190847674,0.004299526945158711
14,5,5,0.11122028917231519,0.016176586386666227
14,6,5,0.028077681216092287,0.008925329872196712
14,7,5,0.11391463271662712,0.011261528235155728
14,8,5,0.1110693067645224,0.011564312816997354
15,0,5,0.07937482724618403,0.011392430548806797
15,1,5,0.0766773177412523,0.010393464090166449
15,2,5,0.10329560830615511,0.010636905653410515
15,3,5,0.03408785971192892,0.008966569939858204
15,4,5,0.11888203465043176,0.02273399169134831
15,5,5,0.07491991246989034,0.007295433983495876
15,6,5,0.06391218440122896,0.018681999246920346
15,7,5,0.08717730462027544,0.01784064981926892
15,8,5,0.07504987705622741,0.014716785451212203
16,0,5,0.09789441577234821,0.015054771202195491
16,1,5,0.06950627418660679,0.005631457080016504
16,2,5,0.05129566614674837,0.004902870361591634
16,3,5,0.03909274642960316,0.013841135281056004
16,4,5,0.10547082519200901,0.011783360624377043
16,5,5,0.10115967995101494,0.012155586203751005
16,6,5,0.03444575970277073,0.013795126149145463
16,7,5,0.11880644823313394,0.010479520877887233
16,8,5,0.11706945323115621,0.01343381591449847
17,0,5,0.1442381251163714,0.006076536261325725
17,1,5,0.06202986652490057,0.016973272905023144
17,2,5,0.09699691180443429,0.01059413561845129
17,3,5,0.043857489878551,0.01506145227244549
17,4,5,0.08364800531136038,0.009617313791656855
17,5,5,0.11687718551445399,0.014448695283469424
17,6,5,0.061653043829430355,0.007616955135235333
17,7,5,0.07957361981471792,0.005881183736353844
17,8,5,0.09247383243372735,0.01965940819117118
18,0,5,0.04970285313178922,0.016764900572857098
18,1,5,0.05135709719202464,0.0037834871812703766
18,2,5,0.05323683483338322,0.010641955165468365
18,3,5,0.11460384753008335,0.010023790754699006
18,4,5,0.07768836141820545,0.008002282441177691
18,5,5,0.09422552746341965,0.015403229614726711
18,6,5,0.09064009040784886,0.009649265584047467
18,7,5,0.14530589175817074,0.013192347443729567
18,8,5,0.06250182348858191,0.008271712458480117
19,0,5,0.07010162920744219,0.007634304303013758
19,1,5,0.07438062530589093,0.00997812460046631
19,2,5,0.06697157184849967,0.018227698235928586
19,3,5,0.07349847906001712,0.00345559352907957
19,4,5,0.13348169855627748,0.015437002355737861
19,5,5,0.06535347783746644,0.014681125626499543
19,6,5,0.029062878114267443,0.0173943371469839
19,7,5,0.11055807763428967,0.009465408408926299
19,8,5,0.10059421796069205,0.0060158140079970045
20,0,5,0.01925333579060349,0.010984871608304967
20,1,5,0.07443095273098102,0.015330900489732308
20,2,5,0.03374426493458447,0.014626831753971004
20,3,5,-0.007588144131053265,0.006761285415750823
20,4,5,0.07727895563220011,0.015336155381007195
20,5,5,0.09427575264862456,0.00520249062892273
20,6,5,0.0014586969945117544,0.0075355185256028995
20,7,5,0.041187367928747574,0.009053555234543587
20,8,5,0.08967011892554617,0.016248115153250683
21,0,5,0.09924512899031321,0.009193057440114836
21,1,5,0.05916177941528391,0.014251468379692368
21,2,5,0.07954006206527983,0.009983683285577645
21,3,5,0.06109605490664287,0.00975262659367516
21,4,5,0.11979235328618092,0.00948679881268858
21,5,5,0.1458128846548569,0.011317314624893632
21,6,5,0.022572007809676765,0.007913326946513897
21,7,5,0.07301580962854086,0.019387560906169034
21,8,5,0.06050067767828693,0.005565410705105292
22,0,5,0.0728342235189654,0.0077051673068767555
22,1,5,0.07045687646454155,0.00982753389967828
22,2,5,0.06747698285171082,0.0059640401207919965
22,3,5,0.07246519365961882,0.009569194596371207
22,4,5,0.13005643672810524,0.01658846954198143
22,5,5,0.0852573629995105,0.015155732186741828
22,6,5,0.05978265548630883,0.011962648663539372
22,7,5,0.1569001806262493,0.007351886258797885
22,8,5,0.11143595460802691,0.00899414582670933
23,0,5,0.15307088174396,0.016325765442792406
23,1,5,0.13280847023069836,0.013109495794503306
23,2,5,0.06942290297863944,0.015775366471655138
23,3,5,0.06810748418539266,0.01095041384026488
23,4,5,0.16714070286783858,0.016810470909443005
23,5,5,0.1193370679464499,0.02275680470232222
23,6,5,0.08412499871634997,0.002225786232694189
23,7,5,0.11920142328113785,0.01752404829522636
23,8,5,0.13900626202937486,0.010128284828197448
24,0,5,0.06418056550162439,0.013635684296201898
24,1,5,0.056404377870200514,0.010530793799781881
24,2,5,0.10103653236631589,0.012140367363676772
24,3,5,0.01837806135202156,0.007245824037996816
24,4,5,0.18051873478165362,0.01322862351097752
24,5,5,0.08346174119912222,0.012522526932003317
24,6,5,0.053286263568283546,0.005429995849996729
24,7,5,0.13196996106957426,0.009965397419934805
24,8,5,0.08243868383713171,0.007184335952935831
25,0,5,0.0993443702394052,0.013733021888725713
25,1,5,0.05744055418943017,0.0029489854267788812
25,2,5,0.061831586740892376,0.01325062755686031
25,3,5,0.08543566666343523,0.01561376686159269
25,4,5,0.15598600789001135,0.017586344116058913
25,5,5,0.0708831900384959,0.018016894742139473
25,6,5,0.016994222258530332,0.0040172110765239605
25,7,5,0.08938000596485603,0.008644967941514672
25,8,5,0.058942965536189475,0.012864595155355743
26,0,5,0.0813167945855513,0.014111004843072662
26,1,5,0.09436706834636119,0.00844883916181956
26,2,5,0.1165612248353679,0.01499506401214764
26,3,5,0.05196811882343806,0.015527192573095238
26,4,5,0.10848257747544954,0.00446466417677706
26,5,5,0.1217207240481429,0.00950683660256371
26,6,5,0.03799774814988179,0.005455441145450472
26,7,5,0.14456333678194233,0.015410675375754935
26,8,5,0.1083620569177141,0.0045109231690258515
27,0,5,0.0353826725017828,0.01312899628155853
27,1,5,0.06277403524814795,0.012301191051363037
27,2,5,0.04262034163338742,0.007918740745701987
27,3,5,0.04242880070595596,0.01158551208067939
27,4,5,0.18885884982846263,0.0035934830546227987
27,5,5,0.1134170315421766,0.01549571027567641
27,6,5,0.08954118939442753,0.005387053901286822
27,7,5,0.12024744269307627,0.013718641254944519
27,8,5,0.1108644542729192,0.019884527174472345
28,0,5,0.07904315060637863,0.009648656078816731
28,1,5,0.04600841926641741,0.007950940190848367
28,2,5,0.04581146204981905,0.0066801983204631075
28,3,5,0.055237995180523414,0.008901544524641317
28,4,5,0.12930258929780994,0.01609015550687658
28,5,5,0.2676643122253705,0.018947941632513732
28,6,5,0.02326612136661623,0.006335701902048952
28,7,5,0.04543191921265277,0.01051754670895065
28,8,5,0.08179577776334371,0.007559474677816622
29,0,5,0.10192632007021693,0.0091159428117546
29,1,5,0.060366478302982765,0.007634868331663961
29,2,5,0.0705481507252996,0.004821174689936879
29,3,5,0.05306931904115923,0.006257327873648142
29,4,5,0.19121228271161997,0.01052579675700265
29,5,5,0.19914633840199245,0.024717346341501998
29,6,5,0.052191475537294904,0.007175762923052754
29,7,5,0.13687798826696196,0.009153188362286813
29,8,5,0.14797932814346879,0.011040137378795395
30,0,5,0.0679416603072259,0.01778375390460111
30,1,5,0.0690140796771838,0.006884700983433468
30,2,5,0.019373558959368452,0.008532775226530504
30,3,5,0.04912464260701497,0.01518790648947359
30,4,5,0.12496235094715376,0.010139274113910465
30,5,5,0.15330240816363128,0.010615112912512737
30,6,5,0.05363843220295261,0.008750204986261724
30,7,5,0.1374620287365545,0.014797071898885118
30,8,5,0.09141441430272848,0.013596520514789366
31,0,5,0.09136154480048994,0.010353133462577822
31,1,5,0.09928283766860782,0.00456186483279555
31,2,5,0.07844366707551631,0.007974792073299194
31,3,5,0.04245708390445069,0.016083752064954156
31,4,5,0.1952632145777978,0.011242051467845732
31,5,5,0.10622692267314707,0.013940940062251684
31,6,5,0.06000620151972462,0.013766065689073754
31,7,5,0.11397410831433856,0.006446519241268095
31,8,5,0.10897288342665472,0.008812846629287545
32,0,5,0.10369008307586858,0.008297887742003428
32,1,5,0.08501321416583874,0.017639992010327673
32,2,5,0.05872714176014502,0.01077211631146001
32,3,5,0.03414504487888577,0.010408562594521492
32,4,5,0.14918456455464948,0.018730234635680316
32,5,5,0.15263023365239206,0.018132538881574047
32,6,5,0.06517215896448032,0.0058418815624682536
32,7,5,0.13247481511830322,0.00912343108092358
32,8,5,0.09812150674276328,0.009265977135472128
33,0,5,0.06767113488760443,0.02339027515912159
33,1,5,0.033147302981648384,0.019417954863751703
33,2,5,0.04923888690300602,0.010679612064579043
33,3,5,0.034175494850409806,0.01193914999671135
33,4,5,0.11097085166209797,0.011410951265679065
33,5,5,0.1139904646528277,0.016820312387828162
33,6,5,0.059337648583350534,0.00966216133809991
33,7,5,0.105715419426852,0.009113911184571876
33,8,5,0.11065255389037479,0.006655185082716111
34,0,5,0.10285678972658838,0.007997598879007793
34,1,5,0.10430018935103705,0.004874486189092945
34,2,5,0.07250754901838197,0.007771556512016005
34,3,5,0.06188853523669267,0.01023447385322717
34,4,5,0.12307030893783169,0.021102526989646948
34,5,5,0.11410042464196349,0.009452632135943636
34,6,5,0.05219001130042748,0.011080297177315152
34,7,5,0.157082014832048,0.01602240781926883
34,8,5,0.12891139527446963,0.010369116816216809
35,0,5,0.08982614110741019,0.006887743667567559
35,1,5,0.06964294051496811,0.012438927207873573
35,2,5,0.04558499827747024,0.013977738478645706
35,3,5,0.060837539010759875,0.008581720472385718
35,4,5,0.06859942708654085,0.008891219229858617
35,5,5,0.17631874854419405,0.014879258422804409
35,6,5,0.016083048991945438,0.005716099576859601
35,7,5,0.1074732203077359,0.007164333816859861
35,8,5,0.046648620702235945,0.010020115316495095
36,0,5,0.006427450697009385,0.011403899458745781
36,1,5,0.02150133557589131,0.00992943987408023
36,2,5,0.03923300612354743,0.012375469178628796
36,3,5,0.0449958529783183,0.014180223960040855
36,4,5,0.12798257278283504,0.011557599984882781
36,5,5,0.07508461258350574,0.005989398209402538
36,6,5,0.045823451852428775,0.012239600088459037
36,7,5,0.11565532308641217,0.01721861782645358
36,8,5,0.08749913920735652,0.007477484457500457
37,0,5,0.060752255111165755,0.009359187333587777
37,1,5,0.05328036460827394,0.014222065365853713
37,2,5,0.08781061102952788,0.013684769351601175
37,3,5,0.00895402530190632,0.007852680878636366
37,4,5,0.13849330695583495,0.013420863083393264
37,5,5,0.08140371584909012,0.009519835379326432
37,6,5,0.01598818449335282,0.004866755856916306
37,7,5,0.12080055444655728,0.006167824961565496
37,8,5,0.0825126770814028,0.011467023309137112
38,0,5,0.06659176483195392,0.01348153284748636
38,1,5,0.09500350282226314,0.015602869409114912
38,2,5,0.06103829782193755,0.007546771774455778
38,3,5,0.055514907802215976,0.014639363850192027
38,4,5,0.10005609205343816,0.021428377793411228
38,5,5,0.11767855106706715,0.01812941825042353
38,6,5,0.09318224954384094,0.016176636615685695
38,7,5,0.09783743786509189,0.0079942216054413
38,8,5,0.08602771301897669,0.0153187442041011
39,0,5,0.07948159546297959,0.01708633511469405
39,1,5,0.06885678885408433,0.0049439276430902875
39,2,5,0.03212203611118782,0.007697889684515935
39,3,5,0.04533433266764231,0.007072228334799072
39,4,5,0.15086323822587602,0.02712572745934076
39,5,5,0.14179964541628487,0.011169027955407999
39,6,5,0.024545971638022857,0.003992387620185294
39,7,5,0.10252915861083971,0.004261360751254625
39,8,5,0.04168178611998452,0.015714026888598836
40,0,5,0.09583299152402998,0.01848175487930843
40,1,5,0.06698190863720359,0.016265475491476212
40,2,5,0.0011577462501263457,0.014413650132702852
40,3,5,0.02452022053683598,0.013874445142673459
40,4,5,0.1573473009916083,0.013988897916659943
40,5,5,0.0503949554143762,0.00492552862719854
40,6,5,0.03734719004307889,0.007115983657318827
40,7,5,0.11500610926535756,0.012890300789150296
40,8,5,0.03244683710979692,0.015835326251088994
