subject,channel,r,f1_drop_mean,f1_drop_sd
1,0,5,0.11329939779060672,0.007004973395354557
1,1,5,0.10722119515122189,0.010638493597090827
1,2,5,0.09943149732958396,0.005056746111612662
1,3,5,0.0705141982929395,0.006507914213612131
1,4,5,0.044317941135930905,0.014132254531607467
1,5,5,0.14306039010319369,0.015467777961261411
1,6,5,0.028819589955017943,0.008871634693397799
1,7,5,0.13658843358837053,0.015614272042970138
1,8,5,0.07717604135417191,0.019439078087304155
2,0,5,0.09119803228596365,0.013897720516475521
2,1,5,0.07809146243294,0.008340911337445639
2,2,5,0.0954894887859629,0.012767613103824302
2,3,5,0.05349182555165131,0.008167612947050772
2,4,5,0.06529752407555012,0.013442015093700025
2,5,5,0.17050647084418977,0.00941728595185576
2,6,5,0.04469027882825458,0.015233560275295892
2,7,5,0.11874040835188322,0.009997891484127509
2,8,5,0.04205693592526187,0.01222315361264712
3,0,5,0.048133560127516996,0.015837219118390967
3,1,5,0.08801559828291527,0.01684661740492932
3,2,5,0.05516791476159919,0.017357352967204778
3,3,5,0.12694908250705947,0.019290016591685874
3,4,5,0.14063062396784906,0.01692193793015598
3,5,5,0.05192636939552699,0.008108829052352025
3,6,5,0.043651417631913804,0.005111950292772215
3,7,5,0.12654394913132125,0.011442962899605426
3,8,5,0.08510031141020262,0.017962809115745614
4,0,5,0.06691945053999551,0.015396682872909823
4,1,5,0.08551652098308844,0.007861853257259752
4,2,5,0.09597395302085972,0.009655426175173235
4,3,5,0.056000689059175615,0.006280405747887932
4,4,5,0.10251835125951095,0.014658737559776612
4,5,5,0.11315687289297645,0.008901633061105007
4,6,5,0.03478413786362615,0.014334068831747286
4,7,5,0.08966914365181333,0.00978477062943778
4,8,5,0.11221740099097925,0.014394348560321579
5,0,5,0.05147849481307587,0.013235952768493396
5,1,5,0.04509528885450935,0.005916963745085234
5,2,5,0.06973442434303348,0.012611515150216796
5,3,5,0.024370111953712283,0.00876009974781126
5,4,5,0.06159648788592979,0.013772390924056892
5,5,5,0.0436986099818226,0.009043959952790242
5,6,5,0.01640226239826963,0.00588882552976645
5,7,5,0.03904564919208138,0.01483077660996315
5,8,5,0.09807187184476238,0.01291825203767984
6,0,5,0.08675392849741329,0.019295344570790313
6,1,5,0.10509951703267509,0.00755756164841966
6,2,5,0.0994244930407026,0.012365069413391227
6,3,5,0.01582257151612554,0.0027742326663933
6,4,5,0.07347403881972374,0.008079667692777712
6,5,5,0.04921985178690347,0.014797868889488837
6,6,5,0.06129060457184563,0.011060475158436991
6,7,5,0.1377664446531431,0.013265394208182561
6,8,5,0.07958945013065669,0.010589256471697906
7,0,5,0.07250265108444806,0.01308203995149398
7,1,5,0.12018939088910563,0.011001907020376693
7,2,5,0.10523744534308985,0.010947001244721224
7,3,5,0.04493348554253622,0.01044629307097289
7,4,5,0.1674513099659297,0.019242548089092204
7,5,5,0.10601365532421751,0.011194105826251593
7,6,5,0.07195994057131713,0.01441501893306135
7,7,5,0.1126351279794233,0.008951087252313392
7,8,5,0.13168562702530384,0.01600260941375141
8,0,5,0.0636510375382934,0.021810776033326575
8,1,5,0.07224227461026052,0.01858457483503799
8,2,5,0.05094705428514061,0.015471156010464969
8,3,5,0.08954829858491357,0.01718695194518194
8,4,5,0.10292161653670431,0.019461367283557112
8,5,5,0.1500751909655628,0.009042636218076841
8,6,5,0.024054861604160194,0.008464582825701
8,7,5,0.11050981558517584,0.013892761319763984
8,8,5,0.09137752803285888,0.008032818279607131
9,0,5,0.06040179942472412,0.011552560281306946
9,1,5,0.07850083014300162,0.00921787616125118
9,2,5,0.10140270878531683,0.013120873229140873
9,3,5,0.04794896493712697,0.005010848492469838
9,4,5,0.09946426199625,0.010024127243200426
9,5,5,0.028475197399238428,0.015155657889732995
9,6,5,0.04864068427919961,0.01006669864528536
9,7,5,0.11696921402687181,0.003276489324553871
9,8,5,0.04328854197696872,0.012955597553625159
10,0,5,0.0874589760998962,0.01577059463988511
10,1,5,0.07746674273737335,0.011652205786177372
10,2,5,0.08709664478124987,0.0050957151954268585
10,3,5,0.07913745973021957,0.013775048883621546
10,4,5,0.07063996895465652,0.011151838503781125
10,5,5,0.0984307325085059,0.016878914455056737
10,6,5,0.01141228391302893,0.013631293780839542
10,7,5,0.08369708033597482,0.005915527281918452
10,8,5,0.07055394960404815,0.00669896465252224
11,0,5,0.10235159946856334,0.018182164338788945
11,1,5,0.09881849015360708,0.010770206728660954
11,2,5,0.11980382538144911,0.008885024612148665
11,3,5,0.09644192754348699,0.005976498841593532
11,4,5,0.13884392237554768,0.017984244321748274
11,5,5,0.05674765476191741,0.011959855496635828
11,6,5,0.03898391581447143,0.005989693367421741
11,7,5,0.13119386037911218,0.012141995000764537
11,8,5,0.10029572716961002,0.011195620670111343
12,0,5,0.08027227596562107,0.007925127079504673
12,1,5,0.09320425605361653,0.020288697770681013
12,2,5,0.12308356033342627,0.015557473121262414
12,3,5,0.12208106571391779,0.011282675207836027
12,4,5,0.09104371458057989,0.007498354495463154
12,5,5,0.05903506792508371,0.011094119069100098
12,6,5,0.06190485062604369,0.006846439056044657
12,7,5,0.12087845214321932,0.016257625053290786
12,8,5,0.09199182297408685,0.007833014449854814
13,0,5,0.05906017058121664,0.008503182716885778
13,1,5,0.05759779564752541,0.00922279500629553
13,2,5,0.05153207088729252,0.005522025964965937
13,3,5,0.037384004499425715,0.01106864963343192
13,4,5,0.06917579233758467,0.0075048529637161574
13,5,5,0.09723186448606855,0.004795078489663231
13,6,5,0.038360859593238004,0.002105229791120032
13,7,5,0.09968660306361983,0.016638679494807622
13,8,5,0.06693608843995322,0.012254289531328528
14,0,5,0.11047541855060201,0.005677584214825583
14,1,5,0.12285246863495898,0.010987568616308209
14,2,5,0.07997977671699792,0.009084236041208959
14,3,5,0.10825371458153524,0.01360154795428925
14,4,5,0.1197656766644715,0.014541316330020058
14,5,5,0.05082310833363217,0.009835260873418745
14,6,5,0.035253797138953935,0.0039623409514932765
14,7,5,0.13632184326638233,0.011935091476228846
14,8,5,0.08926896508895199,0.01596584662767078
15,0,5,0.08861703769739508,0.007744002722189614
15,1,5,0.09067577096617647,0.009471856877376917
15,2,5,0.10346060279817659,0.011109008114018918
15,3,5,0.035511111571316076,0.006557988114750679
15,4,5,0.10580172287702645,0.01742969188176401
15,5,5,0.07309463796255034,0.010629630664428838
15,6,5,0.04980847947727629,0.007681330643815139
15,7,5,0.11014955875153425,0.012024346231569923
15,8,5,0.09932690936679611,0.007276733832439418
16,0,5,0.10690296616739173,0.005360971146109915
16,1,5,0.09140859964287626,0.01404786408879098
16,2,5,0.10823488966528287,0.012441792775879855
16,3,5,0.06430841745987585,0.013091879203511821
16,4,5,0.09228965615293891,0.00466648486226618
16,5,5,0.11917347728900593,0.011534330310334419
16,6,5,0.02653149211518402,0.008381543213146958
16,7,5,0.15123140102740854,0.01660469586700249
16,8,5,0.10906579434270339,0.0028292531552121087
17,0,5,0.19767145923524548,0.012819887895204161
17,1,5,0.09791101673972669,0.010278761290286573
17,2,5,0.12564794899014764,0.007810936902996247
17,3,5,0.07456056565787954,0.011234114103678982
17,4,5,0.15504047099382093,0.012718388113292088
17,5,5,0.10492370233260688,0.011198074626182938
17,6,5,0.06892901414044428,0.005675219618786184
17,7,5,0.11084701633433305,0.012708383021523023
17,8,5,0.12799966954283404,0.017360390060269387
18,0,5,0.06599782769633708,0.008437046208114647
18,1,5,0.037259094716448726,0.014103838387554132
18,2,5,0.09509934569734761,0.01838025298255376
18,3,5,0.11359683319384117,0.010171684939181514
18,4,5,0.0607902350421653,0.0037563696008961517
18,5,5,0.1544940335092719,0.01794144839177333
18,6,5,0.026859364355053893,0.016596845891405528
18,7,5,0.1336218982132103,0.012704168282399574
18,8,5,0.030435300691268253,0.007774885231047181
19,0,5,0.097189973978455,0.011507447267556018
19,1,5,0.084171949714413,0.005424694561404955
19,2,5,0.08905015030446721,0.010547054490705985
19,3,5,0.08132429703158144,0.01096652969237547
19,4,5,0.05125511665554581,0.009003098593650448
19,5,5,0.09304406561616889,0.010405321060930482
19,6,5,0.05893781501847648,0.005087602256407665
19,7,5,0.1344936006207424,0.009614039802639472
19,8,5,0.09902901592631012,0.011576161855826893
20,0,5,0.07089985201068352,0.005157687217746723
20,1,5,0.08410598287761137,0.018635044728337078
20,2,5,0.10191820806807401,0.010759064458512426
20,3,5,0.046462656044407843,0.00916075974906375
20,4,5,0.07081166546991871,0.012730050838820749
20,5,5,0.14815035290563044,0.007018742459628859
20,6,5,0.03546729450045476,0.010592928987592584
20,7,5,0.0815119851787254,0.010464098716322345
20,8,5,0.13006367727296145,0.01800968341871775
21,0,5,0.09671530711390738,0.019216715904650603
21,1,5,0.059305093073339046,0.020026252047853434
21,2,5,0.08123277560764686,0.007726187500957975
21,3,5,0.04648631525411475,0.012416464611396744
21,4,5,0.046914749647691024,0.013163739399624157
21,5,5,0.08324761011306454,0.01169428606523268
21,6,5,0.01923982120934715,0.010435002097268801
21,7,5,0.06049332079764842,0.010984598758143704
21,8,5,0.0597735208766107,0.008880787309461825
22,0,5,0.08233608606641094,0.016922257486951427
22,1,5,0.07174489544907951,0.011353053965096813
22,2,5,0.061039460922016245,0.013809425749689417
22,3,5,0.10254781033558799,0.01181178895166986
22,4,5,0.10419688520515417,0.005940964204439414
22,5,5,0.11632660923650047,0.012261391118989603
22,6,5,0.05287113430576309,0.012165893312958411
22,7,5,0.1553093142996576,0.020433425810567705
22,8,5,0.08780179868191776,0.010085925026593954
23,0,5,0.15173876947710102,0.006699868188514108
23,1,5,0.12230135638231103,0.005503035604705845
23,2,5,0.07976968207269002,0.004821285774413913
23,3,5,0.06168524216374005,0.013331170871612901
23,4,5,0.15083341097577946,0.02330536221005131
23,5,5,0.10416210842053879,0.014302500823276955
23,6,5,0.0924586261141566,0.012041156315383146
23,7,5,0.11013164621571356,0.016443092528788648
23,8,5,0.1015097326829189,0.005813263061837049
24,0,5,0.07840602676600901,0.01164500387884488
24,1,5,0.03633825333089811,0.009398694981698562
24,2,5,0.11131552196150965,0.008766357956730239
24,3,5,0.05399741714620121,0.012247725346738162
24,4,5,0.09124627957075766,0.01514999012137617
24,5,5,0.11184156511662535,0.012132203998451205
24,6,5,0.04529842310411576,0.005979951273496795
24,7,5,0.12826498664954777,0.006420914191738484
24,8,5,0.08632709146780551,0.006696348394033165
25,0,5,0.05607657947173885,0.016553638025872296
25,1,5,0.08953926185901107,0.010784792145122627
25,2,5,0.08023594584963505,0.006832432543386081
25,3,5,0.07976055095539178,0.011783688275658935
25,4,5,0.09509071396605877,0.009264769539706705
25,5,5,0.10245460991020525,0.015202759855271118
25,6,5,0.036634401107438985,0.005968698088432869
25,7,5,0.09607584654703619,0.0035088901368769084
25,8,5,0.057029906229527104,0.007739556637985769
26,0,5,0.08136736034784393,0.0014363186141333614
26,1,5,0.0680148262580171,0.010806597450172763
26,2,5,0.07176171264088445,0.01549899045388029
26,3,5,0.07978400818614821,0.009751191248600341
26,4,5,0.10168895605294703,0.01157315815926261
26,5,5,0.06255623728776905,0.011250907053009719
26,6,5,0.05644153316273646,0.007155926011998202
26,7,5,0.12233423394431639,0.004920115980804968
26,8,5,0.11170531126080682,0.013482940868577731
27,0,5,0.08302835541832736,0.013756690489659289
27,1,5,0.045327642510101726,0.007858073929133335
27,2,5,0.10163447547333307,0.004752589337335765
27,3,5,0.06058762702687792,0.010936768113029223
27,4,5,0.12029969169175617,0.022098325504128043
27,5,5,0.08572878709250231,0.018743324307735825
27,6,5,0.022638158043986036,0.008662673708020945
27,7,5,0.12148596797669153,0.006261517519580129
27,8,5,0.04654391743031143,0.0033917383594266634
28,0,5,0.029144386393893586,0.020467836141732344
28,1,5,0.048426912977683534,0.013028649679031955
28,2,5,0.06589257334386762,0.009318587557279245
28,3,5,0.049727292845186885,0.013264025799351726
28,4,5,0.08929670349368737,0.011244768512849009
28,5,5,0.19009309011189052,0.01184162888347957
28,6,5,0.028843149454481944,0.0074163840863953195
28,7,5,0.06175447509572405,0.011917612488364687
28,8,5,0.11075092453943507,0.012771677724833895
29,0,5,0.0879258488838163,0.02025983546020489
29,1,5,0.07023073281434125,0.014321809368788553
29,2,5,0.07184890928851943,0.007390508057360834
29,3,5,0.04701260564839995,0.011047150392959271
29,4,5,0.1271851186906151,0.012027183192532875
29,5,5,0.12110156898388805,0.016490553791764624
29,6,5,0.03524880707081417,0.01056040503719859
29,7,5,0.1289851204976506,0.0109996538685434
29,8,5,0.10630162590287703,0.010180883057862978
30,0,5,0.0821008521626192,0.01571725543838835
30,1,5,0.062194260827333744,0.005881012295035152
30,2,5,0.04607149153658792,0.019483264493951664
30,3,5,0.055571779024020926,0.016010757378461974
30,4,5,0.042940213912935565,0.0173404523123818
30,5,5,0.14987859518900265,0.012740566329747592
30,6,5,0.03004164985942499,0.008887623305577193
30,7,5,0.1439600041481101,0.00962874467599184
30,8,5,0.10548343076099036,0.01793454386118688
31,0,5,0.07754124180994301,0.011600467933117148
31,1,5,0.12592294463994808,0.011279562192707218
31,2,5,0.11753928731001399,0.005611622455200784
31,3,5,0.08342744586321313,0.011709858320641768
31,4,5,0.12943363673646832,0.02059422789877226
31,5,5,0.08761647066402092,0.012922937477261455
31,6,5,0.0557112058539531,0.010790760034088341
31,7,5,0.11034325326093605,0.009866074138431147
31,8,5,0.15330213701710632,0.006283133579078535
32,0,5,0.1032576836795985,0.011499363878087773
32,1,5,0.08141109915339362,0.005826444805252192
32,2,5,0.08477481895080237,0.01588540769051059
32,3,5,0.06604598429459604,0.004038973103397289
32,4,5,0.12234259304020698,0.012978633103471861
32,5,5,0.1532188881544889,0.012819115797961531
32,6,5,0.05413720438116907,0.011618305885192701
32,7,5,0.10613287203801647,0.010418703691013864
32,8,5,0.06372689284541519,0.01873106555603414
33,0,5,0.10506176099447054,0.010101736209939023
33,1,5,0.06531853425405132,0.011651179358725774
33,2,5,0.08788077966594832,0.00988315136784823
33,3,5,0.05471900022977414,0.011176607816522693
33,4,5,0.08377344964150361,0.01568786981803299
33,5,5,0.1059274497295706,0.008936455960241547
33,6,5,0.0944098811414725,0.01006644956394488
33,7,5,0.08623188016770242,0.005462766569825324
33,8,5,0.04738623401759525,0.016687230544473214
34,0,5,0.08432394679131787,0.012294533504758837
34,1,5,0.07202662008039415,0.012098085007176858
34,2,5,0.05842727591293584,0.009059913094623437
34,3,5,0.05958524006976327,0.007255007693765387
34,4,5,0.08449723939486635,0.00977427588535768
34,5,5,0.0672115046001424,0.013915918188815221
34,6,5,0.039207495450363616,0.007994076832928793
34,7,5,0.11943090469220949,0.01530226097226255
34,8,5,0.0716768353704574,0.013633752245595411
35,0,5,0.09494555864162224,0.01540679394924191
35,1,5,0.036357678841488064,0.009278749295601548
35,2,5,0.039170891329728265,0.0074686456973667645
35,3,5,0.06246034843001609,0.01445194670867887
35,4,5,0.05459424556776784,0.008025369217242166
35,5,5,0.08359263303920939,0.008356130237179763
35,6,5,0.021843814653854387,0.007425753656653263
35,7,5,0.0629595984047289,0.007001825148580099
35,8,5,0.06712427169628069,0.010657983612665742
36,0,5,0.045667318104048046,0.011564975082806031
36,1,5,0.10544986516145241,0.01408906602583999
36,2,5,0.059748655063222286,0.01463961522062187
36,3,5,0.09224783985371113,0.0076370981818222805
36,4,5,0.12380924450844207,0.0075036072503224275
36,5,5,0.09177957303991865,0.007579332339186256
36,6,5,0.052130780317677664,0.013343422021078336
36,7,5,0.13605913333649677,0.017021935024479545
36,8,5,0.07932568645550302,0.009331325110668694
37,0,5,0.06818591391509887,0.006122209110370299
37,1,5,0.06426208850854478,0.025625775737433354
37,2,5,0.12477028640581403,0.022714750559240396
37,3,5,0.03556031516759119,0.006974468268194806
37,4,5,0.12533967947919744,0.01102574917868749
37,5,5,0.1122206587704884,0.01225109175500311
37,6,5,0.04631821580142668,0.014170022465723162
37,7,5,0.12203030285815453,0.0065293071181642395
37,8,5,0.09446952600749962,0.008030063402815887
38,0,5,0.08983750322762629,0.0102868724377583
38,1,5,0.08048833267667259,0.009897857837388526
38,2,5,0.08474980275466007,0.02102940965876846
38,3,5,0.054881312327741,0.007631436931673308
38,4,5,0.12950464456253513,0.014274224715671906
38,5,5,0.08736962869059113,0.023696804704303277
38,6,5,0.05136546138081703,0.01135810781886709
38,7,5,0.0805332446443543,0.01089000461139817
38,8,5,0.08661045168858401,0.011237445234048078
39,0,5,0.07155067119172628,0.020110610139933854
39,1,5,0.056993388117187994,0.008841030020548497
39,2,5,0.05026380550526004,0.009769313511317648
39,3,5,0.09437092226728508,0.02101875569501332
39,4,5,0.11129794909362808,0.00822044573118085
39,5,5,0.14464180970177773,0.010353779118166793
39,6,5,0.0371176382800892,0.009851592808446387
39,7,5,0.10396534658953724,0.011754254827420893
39,8,5,0.037491065371769515,0.013642880149368949
40,0,5,0.06618843466674092,0.022852970752106166
40,1,5,0.06810678751012637,0.015641240022452086
40,2,5,-0.009467084806213211,0.015815353941345835
40,3,5,0.02289879431270636,0.012652739706846992
40,4,5,0.09640667057832661,0.011180576951826249
40,5,5,0.14979287320110687,0.012318283962705035
40,6,5,0.040374599628623,0.012100570832184632
40,7,5,0.11938949668667709,0.009664750291905623
40,8,5,0.06225495242323664,0.014510404069277595
