subject,block,block_width,feature_channel,gate_mean,gate_sd
1,0,32,0,0.40655818581581116,0.1469886153936386
1,0,32,1,0.42246130108833313,0.11731240153312683
1,0,32,2,0.48411816358566284,0.044715218245983124
1,0,32,3,0.6759843826293945,0.07652270048856735
1,0,32,4,0.595612108707428,0.07227447628974915
1,0,32,5,0.47586342692375183,0.11911327391862869
1,0,32,6,0.2766178846359253,0.129783496260643
1,0,32,7,0.5035914182662964,0.11310168355703354
1,0,32,8,0.5839746594429016,0.07817452400922775
1,0,32,9,0.4639326333999634,0.137568399310112
1,0,32,10,0.4598851799964905,0.06439964473247528
1,0,32,11,0.42521774768829346,0.14046040177345276
1,0,32,12,0.3367130756378174,0.08922413736581802
1,0,32,13,0.5880973935127258,0.13928742706775665
1,0,32,14,0.34309250116348267,0.13292913138866425
1,0,32,15,0.5238043069839478,0.09390173852443695
1,0,32,16,0.3933044373989105,0.15617500245571136
1,0,32,17,0.695639967918396,0.130862757563591
1,0,32,18,0.46428894996643066,0.11986260861158371
1,0,32,19,0.395006388425827,0.11232537776231766
1,0,32,20,0.5600547194480896,0.14366404712200165
1,0,32,21,0.6899701952934265,0.16342803835868835
1,0,32,22,0.40611228346824646,0.08096397668123245
1,0,32,23,0.4136660695075989,0.10921217501163483
1,0,32,24,0.4206591248512268,0.08891421556472778
1,0,32,25,0.5073863863945007,0.10693953186273575
1,0,32,26,0.6058825850486755,0.13294780254364014
1,0,32,27,0.4792381525039673,0.07739976793527603
1,0,32,28,0.5002211332321167,0.12375467270612717
1,0,32,29,0.43814244866371155,0.15201658010482788
1,0,32,30,0.6813276410102844,0.10376828908920288
1,0,32,31,0.44474509358406067,0.1409813016653061
1,1,32,0,0.4218270480632782,0.14277629554271698
1,1,32,1,0.3531264364719391,0.07348527759313583
1,1,32,2,0.5259556174278259,0.044829390943050385
1,1,32,3,0.5643882155418396,0.06349605321884155
1,1,32,4,0.6212354302406311,0.08088234812021255
1,1,32,5,0.5642005205154419,0.1028125137090683
1,1,32,6,0.4926263689994812,0.065697081387043
1,1,32,7,0.5733084678649902,0.04088282212615013
1,1,32,8,0.452109694480896,0.12157534062862396
1,1,32,9,0.5609431266784668,0.15343356132507324
1,1,32,10,0.5136783123016357,0.08418932557106018
1,1,32,11,0.4391135275363922,0.04241592437028885
1,1,32,12,0.5356787443161011,0.12625090777873993
1,1,32,13,0.41934868693351746,0.14654669165611267
1,1,32,14,0.5704969167709351,0.10169961303472519
1,1,32,15,0.4851992428302765,0.1369745433330536
1,1,32,16,0.36384549736976624,0.10950294137001038
1,1,32,17,0.5618026852607727,0.09332139045000076
1,1,32,18,0.5729758739471436,0.057528771460056305
1,1,32,19,0.538497805595398,0.12975792586803436
1,1,32,20,0.5340399146080017,0.038143549114465714
1,1,32,21,0.47941088676452637,0.11496154218912125
1,1,32,22,0.4328766167163849,0.1318245530128479
1,1,32,23,0.5146539211273193,0.050401926040649414
1,1,32,24,0.5859740376472473,0.07725288718938828
1,1,32,25,0.5393866300582886,0.06608869880437851
1,1,32,26,0.49739348888397217,0.11756599694490433
1,1,32,27,0.5753048062324524,0.09624164551496506
1,1,32,28,0.44201576709747314,0.12028785049915314
1,1,32,29,0.5712721347808838,0.07250881940126419
1,1,32,30,0.40461960434913635,0.062085364013910294
1,1,32,31,0.5410246849060059,0.07442275434732437
1,2,64,0,0.4821098744869232,0.19689659774303436
1,2,64,1,0.4684223234653473,0.2588096559047699
1,2,64,2,0.43839138746261597,0.32552504539489746
1,2,64,3,0.5933225154876709,0.07069157063961029
1,2,64,4,0.5110040903091431,0.2532218098640442
1,2,64,5,0.5510899424552917,0.17966321110725403
1,2,64,6,0.3515998423099518,0.24808135628700256
1,2,64,7,0.5448974370956421,0.05160997807979584
1,2,64,8,0.5360279083251953,0.23767894506454468
1,2,64,9,0.4951906204223633,0.10972343385219574
1,2,64,10,0.5552444458007812,0.11840890347957611
1,2,64,11,0.49539119005203247,0.12188009172677994
1,2,64,12,0.5759627223014832,0.1345546394586563
1,2,64,13,0.5272819399833679,0.2560490667819977
1,2,64,14,0.3828032910823822,0.30732759833335876
1,2,64,15,0.4180760979652405,0.16184598207473755
1,2,64,16,0.40764376521110535,0.13917042315006256
1,2,64,17,0.47867220640182495,0.2728130519390106
1,2,64,18,0.4013309180736542,0.22388507425785065
1,2,64,19,0.4824656546115875,0.17710883915424347
1,2,64,20,0.4284338057041168,0.12966741621494293
1,2,64,21,0.43449667096138,0.23138920962810516
1,2,64,22,0.5572989583015442,0.1216455027461052
1,2,64,23,0.6801841855049133,0.12227656692266464
1,2,64,24,0.38187867403030396,0.1650606393814087
1,2,64,25,0.5632182955741882,0.25588276982307434
1,2,64,26,0.48578664660453796,0.17933565378189087
1,2,64,27,0.5354632139205933,0.15444612503051758
1,2,64,28,0.5923119783401489,0.13074974715709686
1,2,64,29,0.4453330338001251,0.19023945927619934
1,2,64,30,0.433671236038208,0.1876315325498581
1,2,64,31,0.47516024112701416,0.12429551780223846
1,2,64,32,0.4890347123146057,0.18700602650642395
1,2,64,33,0.5425362586975098,0.07374002784490585
1,2,64,34,0.37788236141204834,0.08281815052032471
1,2,64,35,0.5001937747001648,0.21805821359157562
1,2,64,36,0.5506528615951538,0.16366347670555115
1,2,64,37,0.5685209035873413,0.17563380300998688
1,2,64,38,0.483578622341156,0.14553938806056976
1,2,64,39,0.5037251114845276,0.23853443562984467
1,2,64,40,0.6388055086135864,0.11267649382352829
1,2,64,41,0.3816959857940674,0.21447813510894775
1,2,64,42,0.5287944674491882,0.30803874135017395
1,2,64,43,0.47431468963623047,0.17939001321792603
1,2,64,44,0.4642542600631714,0.1821867972612381
1,2,64,45,0.40232715010643005,0.07957097887992859
1,2,64,46,0.6025567054748535,0.16999629139900208
1,2,64,47,0.4503973126411438,0.16666202247142792
1,2,64,48,0.5104689002037048,0.15732716023921967
1,2,64,49,0.600156843662262,0.12898212671279907
1,2,64,50,0.4654785096645355,0.1558174341917038
1,2,64,51,0.4809841513633728,0.20253312587738037
1,2,64,52,0.49236467480659485,0.18628858029842377
1,2,64,53,0.6661108732223511,0.10707968473434448
1,2,64,54,0.3699757754802704,0.11863359063863754
1,2,64,55,0.4884355068206787,0.1775503158569336
1,2,64,56,0.5955593585968018,0.18274497985839844
1,2,64,57,0.4697999060153961,0.2161412537097931
1,2,64,58,0.6990219354629517,0.16834770143032074
1,2,64,59,0.5978586673736572,0.16583505272865295
1,2,64,60,0.40176430344581604,0.20779438316822052
1,2,64,61,0.40275856852531433,0.0837196484208107
1,2,64,62,0.5473892688751221,0.2769959568977356
1,2,64,63,0.4441337287425995,0.30280938744544983
1,3,64,0,0.3993263244628906,0.13611681759357452
1,3,64,1,0.48942381143569946,0.07627907395362854
1,3,64,2,0.5754573941230774,0.20870034396648407
1,3,64,3,0.602159321308136,0.17910964787006378
1,3,64,4,0.4593900740146637,0.15142570436000824
1,3,64,5,0.5760223865509033,0.10441241413354874
1,3,64,6,0.6921858191490173,0.17029079794883728
1,3,64,7,0.5134066343307495,0.18947744369506836
1,3,64,8,0.5584137439727783,0.17322947084903717
1,3,64,9,0.390919029712677,0.16552917659282684
1,3,64,10,0.6215684413909912,0.0982740968465805
1,3,64,11,0.3696880042552948,0.16451768577098846
1,3,64,12,0.3935437500476837,0.2121918648481369
1,3,64,13,0.5015996694564819,0.22657977044582367
1,3,64,14,0.5826168656349182,0.12351466715335846
1,3,64,15,0.6590240001678467,0.2336875945329666
1,3,64,16,0.694140613079071,0.12477951496839523
1,3,64,17,0.5913193225860596,0.159559428691864
1,3,64,18,0.5003735423088074,0.10213737189769745
1,3,64,19,0.5398542881011963,0.23203222453594208
1,3,64,20,0.35603106021881104,0.08816488832235336
1,3,64,21,0.5508812069892883,0.06310773640871048
1,3,64,22,0.4252595007419586,0.1562935709953308
1,3,64,23,0.5485213398933411,0.11362925171852112
1,3,64,24,0.6928117871284485,0.06421873718500137
1,3,64,25,0.4446609318256378,0.15583392977714539
1,3,64,26,0.5701000094413757,0.18945711851119995
1,3,64,27,0.4122442305088043,0.20864324271678925
1,3,64,28,0.6240109801292419,0.1663564145565033
1,3,64,29,0.25611019134521484,0.23046793043613434
1,3,64,30,0.6969307065010071,0.17777197062969208
1,3,64,31,0.5809786915779114,0.14273574948310852
1,3,64,32,0.41650262475013733,0.12559404969215393
1,3,64,33,0.6431557536125183,0.20117832720279694
1,3,64,34,0.5993699431419373,0.14509107172489166
1,3,64,35,0.5524434447288513,0.1706005334854126
1,3,64,36,0.6457011103630066,0.25183960795402527
1,3,64,37,0.3947112560272217,0.1805126667022705
1,3,64,38,0.4878005385398865,0.17021405696868896
1,3,64,39,0.4671991467475891,0.139183908700943
1,3,64,40,0.6139971613883972,0.12151796370744705
1,3,64,41,0.2950341999530792,0.10665270686149597
1,3,64,42,0.2946265935897827,0.11912897229194641
1,3,64,43,0.4652217626571655,0.07655476033687592
1,3,64,44,0.362804651260376,0.15741656720638275
1,3,64,45,0.6538782119750977,0.10618141293525696
1,3,64,46,0.5950756072998047,0.17196635901927948
1,3,64,47,0.737452507019043,0.07285472750663757
1,3,64,48,0.40352562069892883,0.22477979958057404
1,3,64,49,0.5495836138725281,0.10836602002382278
1,3,64,50,0.43496769666671753,0.08046849817037582
1,3,64,51,0.5694742202758789,0.12569451332092285
1,3,64,52,0.48433244228363037,0.1521264910697937
1,3,64,53,0.47181400656700134,0.04987931624054909
1,3,64,54,0.2864804267883301,0.14599095284938812
1,3,64,55,0.5663583278656006,0.17879705131053925
1,3,64,56,0.4570434093475342,0.22803908586502075
1,3,64,57,0.46899598836898804,0.15061479806900024
1,3,64,58,0.36244821548461914,0.12971048057079315
1,3,64,59,0.3538965582847595,0.15716704726219177
1,3,64,60,0.41080233454704285,0.11472628265619278
1,3,64,61,0.5666909217834473,0.15910454094409943
1,3,64,62,0.40136656165122986,0.20303577184677124
1,3,64,63,0.6070085763931274,0.14850546419620514
1,4,128,0,0.688502848148346,0.13933587074279785
1,4,128,1,0.7293264865875244,0.288143515586853
1,4,128,2,0.6782199144363403,0.27648088335990906
1,4,128,3,0.606879472732544,0.35610273480415344
1,4,128,4,0.5814587473869324,0.20878666639328003
1,4,128,5,0.5387803912162781,0.15781521797180176
1,4,128,6,0.6033069491386414,0.2779199481010437
1,4,128,7,0.6486098766326904,0.25567227602005005
1,4,128,8,0.6065183281898499,0.2349185198545456
1,4,128,9,0.547964870929718,0.29267919063568115
1,4,128,10,0.6057944297790527,0.19489631056785583
1,4,128,11,0.6188690066337585,0.1696748584508896
1,4,128,12,0.3450658321380615,0.22428062558174133
1,4,128,13,0.5113077163696289,0.18843506276607513
1,4,128,14,0.5511887073516846,0.12789465487003326
1,4,128,15,0.644741952419281,0.2746365964412689
1,4,128,16,0.5794968605041504,0.25473201274871826
1,4,128,17,0.471545934677124,0.1811157464981079
1,4,128,18,0.5036664009094238,0.2311711311340332
1,4,128,19,0.549449622631073,0.25102654099464417
1,4,128,20,0.6907280683517456,0.18581707775592804
1,4,128,21,0.628707230091095,0.18088282644748688
1,4,128,22,0.5625159740447998,0.2778804898262024
1,4,128,23,0.428577721118927,0.1583857238292694
1,4,128,24,0.7112647294998169,0.1766512095928192
1,4,128,25,0.46139299869537354,0.24604350328445435
1,4,128,26,0.35525670647621155,0.13873954117298126
1,4,128,27,0.7263768315315247,0.08699288219213486
1,4,128,28,0.36758095026016235,0.21157103776931763
1,4,128,29,0.6615769267082214,0.3363828659057617
1,4,128,30,0.6064819097518921,0.16428716480731964
1,4,128,31,0.7222364544868469,0.17435568571090698
1,4,128,32,0.6004124283790588,0.2641404867172241
1,4,128,33,0.7119978070259094,0.09217045456171036
1,4,128,34,0.6837841272354126,0.28781697154045105
1,4,128,35,0.6076949238777161,0.1889212280511856
1,4,128,36,0.6955333948135376,0.15334655344486237
1,4,128,37,0.6470432281494141,0.32768452167510986
1,4,128,38,0.6516544222831726,0.21914125978946686
1,4,128,39,0.5946459770202637,0.14900782704353333
1,4,128,40,0.6149600148200989,0.2687753438949585
1,4,128,41,0.337085098028183,0.07938115298748016
1,4,128,42,0.4153662323951721,0.2029755562543869
1,4,128,43,0.3187309801578522,0.1597689390182495
1,4,128,44,0.49226588010787964,0.1003582552075386
1,4,128,45,0.7895323634147644,0.1271490454673767
1,4,128,46,0.5500579476356506,0.11572571098804474
1,4,128,47,0.4992592930793762,0.23519366979599
1,4,128,48,0.6015574336051941,0.1847347617149353
1,4,128,49,0.586972713470459,0.3333360552787781
1,4,128,50,0.42776772379875183,0.29857680201530457
1,4,128,51,0.480923056602478,0.11341347545385361
1,4,128,52,0.7329330444335938,0.07967299968004227
1,4,128,53,0.3316614627838135,0.2416049838066101
1,4,128,54,0.6777652502059937,0.22696499526500702
1,4,128,55,0.4557540714740753,0.2422080785036087
1,4,128,56,0.5917018055915833,0.2042175531387329
1,4,128,57,0.6503572463989258,0.2040322721004486
1,4,128,58,0.45984721183776855,0.2544172406196594
1,4,128,59,0.6925826072692871,0.15108047425746918
1,4,128,60,0.5410490036010742,0.11509884893894196
1,4,128,61,0.46181419491767883,0.09710459411144257
1,4,128,62,0.6426773071289062,0.24147339165210724
1,4,128,63,0.4586058259010315,0.27513688802719116
1,4,128,64,0.702212929725647,0.20405299961566925
1,4,128,65,0.7454015612602234,0.1810012310743332
1,4,128,66,0.3547210395336151,0.2583693861961365
1,4,128,67,0.6193303465843201,0.1991218477487564
1,4,128,68,0.5768545866012573,0.1927156150341034
1,4,128,69,0.628859281539917,0.25249895453453064
1,4,128,70,0.5521492958068848,0.19154976308345795
1,4,128,71,0.4919131100177765,0.1484265774488449
1,4,128,72,0.6879451870918274,0.1435229480266571
1,4,128,73,0.33030813932418823,0.2131858915090561
1,4,128,74,0.626822829246521,0.2758026719093323
1,4,128,75,0.5540187358856201,0.17696350812911987
1,4,128,76,0.7050914764404297,0.14692342281341553
1,4,128,77,0.2833746075630188,0.13469241559505463
1,4,128,78,0.6248680949211121,0.13324066996574402
1,4,128,79,0.693623960018158,0.2638905346393585
1,4,128,80,0.46458899974823,0.2678380310535431
1,4,128,81,0.5802252292633057,0.2788305878639221
1,4,128,82,0.5874876976013184,0.20020893216133118
1,4,128,83,0.4358452260494232,0.12489403784275055
1,4,128,84,0.8123823404312134,0.10293662548065186
1,4,128,85,0.6857253909111023,0.1820146143436432
1,4,128,86,0.4833875596523285,0.25697338581085205
1,4,128,87,0.41699641942977905,0.2923920154571533
1,4,128,88,0.7146448493003845,0.25158897042274475
1,4,128,89,0.6297765970230103,0.1301754117012024
1,4,128,90,0.5626357793807983,0.08893131464719772
1,4,128,91,0.23880049586296082,0.11465910077095032
1,4,128,92,0.5515105128288269,0.07921473681926727
1,4,128,93,0.5495639443397522,0.25479722023010254
1,4,128,94,0.31543469429016113,0.20270408689975739
1,4,128,95,0.2804393768310547,0.17719528079032898
1,4,128,96,0.33698439598083496,0.15320979058742523
1,4,128,97,0.5017699599266052,0.19739285111427307
1,4,128,98,0.646381139755249,0.28428298234939575
1,4,128,99,0.6801981329917908,0.27402204275131226
1,4,128,100,0.3444717526435852,0.21279942989349365
1,4,128,101,0.3190942406654358,0.1378672868013382
1,4,128,102,0.6785524487495422,0.16079328954219818
1,4,128,103,0.7363620400428772,0.07973577827215195
1,4,128,104,0.5330934524536133,0.21304094791412354
1,4,128,105,0.6473069787025452,0.17975573241710663
1,4,128,106,0.5348313450813293,0.12956523895263672
1,4,128,107,0.7035626173019409,0.08890243619680405
1,4,128,108,0.5697858929634094,0.2026708722114563
1,4,128,109,0.5882533192634583,0.2753848135471344
1,4,128,110,0.6234073638916016,0.2516114115715027
1,4,128,111,0.3219299018383026,0.17533323168754578
1,4,128,112,0.7117663621902466,0.24537283182144165
1,4,128,113,0.718171238899231,0.10173311084508896
1,4,128,114,0.7196640372276306,0.09668228030204773
1,4,128,115,0.6100019216537476,0.23231571912765503
1,4,128,116,0.6405510902404785,0.1272333562374115
1,4,128,117,0.33507534861564636,0.1893085092306137
1,4,128,118,0.7769440412521362,0.1683526486158371
1,4,128,119,0.5105475783348083,0.24544203281402588
1,4,128,120,0.5341051816940308,0.19176648557186127
1,4,128,121,0.5920018553733826,0.19450514018535614
1,4,128,122,0.5231646299362183,0.2526635527610779
1,4,128,123,0.46292370557785034,0.2621484398841858
1,4,128,124,0.5315962433815002,0.15037284791469574
1,4,128,125,0.37962087988853455,0.22330154478549957
1,4,128,126,0.6416640281677246,0.20591796934604645
1,4,128,127,0.406119704246521,0.10340724140405655
1,5,128,0,0.5673295855522156,0.1847509890794754
1,5,128,1,0.798051655292511,0.0855470523238182
1,5,128,2,0.7602477073669434,0.15846773982048035
1,5,128,3,0.9203470945358276,0.05991470068693161
1,5,128,4,0.6997231245040894,0.2584463655948639
1,5,128,5,0.8473721146583557,0.09964261204004288
1,5,128,6,0.7871090173721313,0.11425186693668365
1,5,128,7,0.49579477310180664,0.27136439085006714
1,5,128,8,0.6445358395576477,0.0921846330165863
1,5,128,9,0.5135173797607422,0.24964720010757446
1,5,128,10,0.7371853590011597,0.12302334606647491
1,5,128,11,0.6789860725402832,0.10671070963144302
1,5,128,12,0.7626369595527649,0.1170634776353836
1,5,128,13,0.5708454251289368,0.19780100882053375
1,5,128,14,0.561356782913208,0.20652635395526886
1,5,128,15,0.8699631094932556,0.07928266376256943
1,5,128,16,0.6966282725334167,0.15165777504444122
1,5,128,17,0.6800044775009155,0.10901208966970444
1,5,128,18,0.4255516231060028,0.24272030591964722
1,5,128,19,0.793242871761322,0.0950816422700882
1,5,128,20,0.8918476700782776,0.06881018728017807
1,5,128,21,0.8330878019332886,0.09869208931922913
1,5,128,22,0.7712071537971497,0.15177872776985168
1,5,128,23,0.6291750073432922,0.13832446932792664
1,5,128,24,0.7214749455451965,0.10735639929771423
1,5,128,25,0.8463048934936523,0.10858560353517532
1,5,128,26,0.7409094572067261,0.18735890090465546
1,5,128,27,0.8532118797302246,0.08492113649845123
1,5,128,28,0.8673033714294434,0.0802341029047966
1,5,128,29,0.6345985531806946,0.12899190187454224
1,5,128,30,0.8250136375427246,0.07253635674715042
1,5,128,31,0.9024513363838196,0.0682050809264183
1,5,128,32,0.793379008769989,0.17902891337871552
1,5,128,33,0.7807518243789673,0.08849930018186569
1,5,128,34,0.48381277918815613,0.30615994334220886
1,5,128,35,0.8934669494628906,0.06999923288822174
1,5,128,36,0.8734203577041626,0.07521913200616837
1,5,128,37,0.8969846963882446,0.061509136110544205
1,5,128,38,0.8149974942207336,0.10017360746860504
1,5,128,39,0.8171049952507019,0.1019362062215805
1,5,128,40,0.8864656090736389,0.07017598301172256
1,5,128,41,0.5407583713531494,0.11223500221967697
1,5,128,42,0.7766169905662537,0.11041101813316345
1,5,128,43,0.6289063096046448,0.16771121323108673
1,5,128,44,0.6829683184623718,0.07943567633628845
1,5,128,45,0.866255521774292,0.08201112598180771
1,5,128,46,0.8199478983879089,0.08333484828472137
1,5,128,47,0.8285083770751953,0.10440733283758163
1,5,128,48,0.6269679665565491,0.14440949261188507
1,5,128,49,0.899278461933136,0.06597242504358292
1,5,128,50,0.5200613737106323,0.28619691729545593
1,5,128,51,0.4796551764011383,0.327533483505249
1,5,128,52,0.835493803024292,0.10978102684020996
1,5,128,53,0.885702908039093,0.07198842614889145
1,5,128,54,0.7424860596656799,0.06415005773305893
1,5,128,55,0.5313268899917603,0.27465158700942993
1,5,128,56,0.7821810841560364,0.14053897559642792
1,5,128,57,0.8601781129837036,0.07131188362836838
1,5,128,58,0.6294367909431458,0.2157931923866272
1,5,128,59,0.754424512386322,0.1722213476896286
1,5,128,60,0.5734356641769409,0.18523426353931427
1,5,128,61,0.7316640615463257,0.15654636919498444
1,5,128,62,0.4238645136356354,0.19604618847370148
1,5,128,63,0.8547902703285217,0.08514150232076645
1,5,128,64,0.8758045434951782,0.0799221321940422
1,5,128,65,0.6998046636581421,0.22772018611431122
1,5,128,66,0.399651437997818,0.29363763332366943
1,5,128,67,0.6073357462882996,0.0775112584233284
1,5,128,68,0.7721866965293884,0.14335320889949799
1,5,128,69,0.8100631237030029,0.09909564256668091
1,5,128,70,0.7735593914985657,0.08749491721391678
1,5,128,71,0.756939172744751,0.11489995568990707
1,5,128,72,0.8776800036430359,0.07527319341897964
1,5,128,73,0.8547657132148743,0.07290797680616379
1,5,128,74,0.6159446239471436,0.2214420884847641
1,5,128,75,0.8600718379020691,0.07736246287822723
1,5,128,76,0.7528805136680603,0.13126981258392334
1,5,128,77,0.9062232971191406,0.07667499035596848
1,5,128,78,0.6810573935508728,0.19913047552108765
1,5,128,79,0.5505020022392273,0.2150651067495346
1,5,128,80,0.7675910592079163,0.16225504875183105
1,5,128,81,0.8170663118362427,0.11171842366456985
1,5,128,82,0.8890529274940491,0.08030659705400467
1,5,128,83,0.7072766423225403,0.17336702346801758
1,5,128,84,0.7556828856468201,0.2183912843465805
1,5,128,85,0.8926510214805603,0.07365947961807251
1,5,128,86,0.8180385231971741,0.07715727388858795
1,5,128,87,0.8147571682929993,0.08185913413763046
1,5,128,88,0.6761549711227417,0.20575185120105743
1,5,128,89,0.8983187675476074,0.07305458188056946
1,5,128,90,0.763761579990387,0.2168225347995758
1,5,128,91,0.8380290865898132,0.09840305894613266
1,5,128,92,0.6597172021865845,0.10543745756149292
1,5,128,93,0.7028326392173767,0.21555449068546295
1,5,128,94,0.7721860408782959,0.1501510590314865
1,5,128,95,0.45793670415878296,0.0729205533862114
1,5,128,96,0.8586040735244751,0.11510485410690308
1,5,128,97,0.801470160484314,0.11716959625482559
1,5,128,98,0.860467255115509,0.07462731003761292
1,5,128,99,0.7135866284370422,0.2506482005119324
1,5,128,100,0.8429870009422302,0.07758961617946625
1,5,128,101,0.8548269271850586,0.08491704612970352
1,5,128,102,0.794160783290863,0.16234180331230164
1,5,128,103,0.8363895416259766,0.11293850094079971
1,5,128,104,0.8754129409790039,0.10030458122491837
1,5,128,105,0.6077607274055481,0.24480317533016205
1,5,128,106,0.5795431137084961,0.2837350070476532
1,5,128,107,0.8240533471107483,0.0798238143324852
1,5,128,108,0.8512447476387024,0.08560308814048767
1,5,128,109,0.915740966796875,0.07061931490898132
1,5,128,110,0.6339123845100403,0.22464603185653687
1,5,128,111,0.7864047288894653,0.10679832100868225
1,5,128,112,0.7662498354911804,0.1522492915391922
1,5,128,113,0.8523722290992737,0.09322652965784073
1,5,128,114,0.6178300380706787,0.13781332969665527
1,5,128,115,0.8716242909431458,0.0759713426232338
1,5,128,116,0.5244702696800232,0.16380536556243896
1,5,128,117,0.7453792095184326,0.15904772281646729
1,5,128,118,0.5612409710884094,0.22606563568115234
1,5,128,119,0.861887514591217,0.10561248660087585
1,5,128,120,0.8360676169395447,0.0703321322798729
1,5,128,121,0.43918055295944214,0.22163045406341553
1,5,128,122,0.4130427837371826,0.30847594141960144
1,5,128,123,0.8034206032752991,0.09000915288925171
1,5,128,124,0.8750700354576111,0.07098675519227982
1,5,128,125,0.6956794261932373,0.14715145528316498
1,5,128,126,0.8776504397392273,0.07660147547721863
1,5,128,127,0.769016683101654,0.17750602960586548
2,0,32,0,0.5415047407150269,0.06486064195632935
2,0,32,1,0.5603967308998108,0.09436174482107162
2,0,32,2,0.5430033206939697,0.08748673647642136
2,0,32,3,0.4972200393676758,0.05300343409180641
2,0,32,4,0.32990482449531555,0.11004577577114105
2,0,32,5,0.4282190501689911,0.0603281632065773
2,0,32,6,0.4411167502403259,0.08917424827814102
2,0,32,7,0.35288354754447937,0.11621267348527908
2,0,32,8,0.5278961658477783,0.07490227371454239
2,0,32,9,0.49646782875061035,0.12906165421009064
2,0,32,10,0.566632091999054,0.05809604004025459
2,0,32,11,0.5996581315994263,0.10094563663005829
2,0,32,12,0.34378066658973694,0.06601542234420776
2,0,32,13,0.46804067492485046,0.05918056517839432
2,0,32,14,0.45997676253318787,0.0729479193687439
2,0,32,15,0.49341487884521484,0.07582017034292221
2,0,32,16,0.6141861081123352,0.04403049871325493
2,0,32,17,0.5411967039108276,0.09659678488969803
2,0,32,18,0.5509584546089172,0.08787012845277786
2,0,32,19,0.42007699608802795,0.06732604652643204
2,0,32,20,0.4489407539367676,0.0947931706905365
2,0,32,21,0.4185955822467804,0.11607514321804047
2,0,32,22,0.5820953845977783,0.07553476840257645
2,0,32,23,0.5210674405097961,0.0753304585814476
2,0,32,24,0.5999627113342285,0.0953049585223198
2,0,32,25,0.41386786103248596,0.06065450236201286
2,0,32,26,0.4361072778701782,0.0772307813167572
2,0,32,27,0.5606353282928467,0.13270609080791473
2,0,32,28,0.5604196190834045,0.10579302906990051
2,0,32,29,0.5205823183059692,0.07272607088088989
2,0,32,30,0.42017272114753723,0.10036150366067886
2,0,32,31,0.3932126760482788,0.046762239187955856
2,1,32,0,0.5647415518760681,0.08226539194583893
2,1,32,1,0.3317621350288391,0.11452401429414749
2,1,32,2,0.5505402088165283,0.06162598356604576
2,1,32,3,0.47947943210601807,0.10923376679420471
2,1,32,4,0.49991899728775024,0.118073970079422
2,1,32,5,0.4672909379005432,0.05556592717766762
2,1,32,6,0.30211177468299866,0.07054975628852844
2,1,32,7,0.6944277286529541,0.06033897399902344
2,1,32,8,0.4021814465522766,0.07073884457349777
2,1,32,9,0.4925859272480011,0.04972240701317787
2,1,32,10,0.36200711131095886,0.06080949306488037
2,1,32,11,0.5698080658912659,0.14098168909549713
2,1,32,12,0.6975998282432556,0.060293346643447876
2,1,32,13,0.4701065123081207,0.11714228242635727
2,1,32,14,0.6704328060150146,0.06329157203435898
2,1,32,15,0.49938300251960754,0.08395802229642868
2,1,32,16,0.5426074266433716,0.09259849041700363
2,1,32,17,0.43006017804145813,0.12612640857696533
2,1,32,18,0.3910359740257263,0.06201305612921715
2,1,32,19,0.5538508296012878,0.12426774203777313
2,1,32,20,0.43291276693344116,0.02587112784385681
2,1,32,21,0.4990061819553375,0.07699359953403473
2,1,32,22,0.5207675099372864,0.13420544564723969
2,1,32,23,0.6320890188217163,0.054843876510858536
2,1,32,24,0.38658055663108826,0.11386286467313766
2,1,32,25,0.5802409648895264,0.11822345107793808
2,1,32,26,0.43199047446250916,0.11379411816596985
2,1,32,27,0.5683713555335999,0.04914842173457146
2,1,32,28,0.43099769949913025,0.0710061714053154
2,1,32,29,0.38664817810058594,0.11116330325603485
2,1,32,30,0.6394930481910706,0.09904167801141739
2,1,32,31,0.49597296118736267,0.030408823862671852
2,2,64,0,0.5050694346427917,0.09949862957000732
2,2,64,1,0.45406392216682434,0.10354891419410706
2,2,64,2,0.586864173412323,0.11958366632461548
2,2,64,3,0.5686772465705872,0.20038048923015594
2,2,64,4,0.6869298219680786,0.10476245731115341
2,2,64,5,0.4547317326068878,0.11589817702770233
2,2,64,6,0.621522843837738,0.12489201128482819
2,2,64,7,0.4287344813346863,0.05761663243174553
2,2,64,8,0.4524562656879425,0.13609002530574799
2,2,64,9,0.631825864315033,0.14311739802360535
2,2,64,10,0.5724859833717346,0.09518991410732269
2,2,64,11,0.5531242489814758,0.10843335837125778
2,2,64,12,0.45010820031166077,0.1341465711593628
2,2,64,13,0.49619153141975403,0.10554175078868866
2,2,64,14,0.5301621556282043,0.16089023649692535
2,2,64,15,0.5087977647781372,0.051841963082551956
2,2,64,16,0.40730801224708557,0.11360354721546173
2,2,64,17,0.625360369682312,0.07787811011075974
2,2,64,18,0.5596478581428528,0.1392042338848114
2,2,64,19,0.6849437355995178,0.08744321018457413
2,2,64,20,0.5380519032478333,0.22804047167301178
2,2,64,21,0.42810070514678955,0.11295434087514877
2,2,64,22,0.5491805672645569,0.1741773635149002
2,2,64,23,0.5510897040367126,0.1426246613264084
2,2,64,24,0.4870811402797699,0.06144895777106285
2,2,64,25,0.45226916670799255,0.12229590862989426
2,2,64,26,0.549660861492157,0.13975530862808228
2,2,64,27,0.42056795954704285,0.0865354910492897
2,2,64,28,0.5416997671127319,0.0825185626745224
2,2,64,29,0.5266442894935608,0.2790428400039673
2,2,64,30,0.4836890399456024,0.11192687600851059
2,2,64,31,0.5176323056221008,0.19702087342739105
2,2,64,32,0.6993642449378967,0.09330619126558304
2,2,64,33,0.4526918828487396,0.22412465512752533
2,2,64,34,0.5245104432106018,0.14584679901599884
2,2,64,35,0.3066061735153198,0.09698233753442764
2,2,64,36,0.5132601261138916,0.18936817348003387
2,2,64,37,0.3888980448246002,0.2012394666671753
2,2,64,38,0.5224760174751282,0.0601719468832016
2,2,64,39,0.3893851637840271,0.12460057437419891
2,2,64,40,0.5501022934913635,0.13215796649456024
2,2,64,41,0.36449679732322693,0.10999055206775665
2,2,64,42,0.45377999544143677,0.1193205788731575
2,2,64,43,0.5516969561576843,0.15514278411865234
2,2,64,44,0.5397222638130188,0.125701442360878
2,2,64,45,0.5082912445068359,0.06653638929128647
2,2,64,46,0.5205848217010498,0.0914442166686058
2,2,64,47,0.4703131914138794,0.06954382359981537
2,2,64,48,0.679862916469574,0.07892744243144989
2,2,64,49,0.5789278745651245,0.1915755271911621
2,2,64,50,0.5319195985794067,0.18988651037216187
2,2,64,51,0.40374118089675903,0.1303464025259018
2,2,64,52,0.4932035505771637,0.1428157091140747
2,2,64,53,0.5753766894340515,0.14599205553531647
2,2,64,54,0.5121822357177734,0.08080875873565674
2,2,64,55,0.46136805415153503,0.21744437515735626
2,2,64,56,0.43812912702560425,0.09926298260688782
2,2,64,57,0.5455732941627502,0.10403590649366379
2,2,64,58,0.4132688641548157,0.11051079630851746
2,2,64,59,0.648110568523407,0.1228637546300888
2,2,64,60,0.5619679689407349,0.10271955281496048
2,2,64,61,0.6238184571266174,0.1510670781135559
2,2,64,62,0.5120570659637451,0.1379430890083313
2,2,64,63,0.5822266936302185,0.10205075889825821
2,3,64,0,0.6077531576156616,0.09417187422513962
2,3,64,1,0.5346343517303467,0.20251090824604034
2,3,64,2,0.5133144855499268,0.13209189474582672
2,3,64,3,0.5494644641876221,0.22973014414310455
2,3,64,4,0.431754469871521,0.22740314900875092
2,3,64,5,0.3765066862106323,0.1166393980383873
2,3,64,6,0.43372929096221924,0.20980553328990936
2,3,64,7,0.31457507610321045,0.1223340779542923
2,3,64,8,0.6849740147590637,0.21598058938980103
2,3,64,9,0.44362032413482666,0.21438612043857574
2,3,64,10,0.38710466027259827,0.19876356422901154
2,3,64,11,0.617206871509552,0.13864679634571075
2,3,64,12,0.4224814176559448,0.1940614879131317
2,3,64,13,0.37528228759765625,0.08304066956043243
2,3,64,14,0.5736269950866699,0.15998783707618713
2,3,64,15,0.37192684412002563,0.1573908030986786
2,3,64,16,0.5248864889144897,0.1329042613506317
2,3,64,17,0.5470755100250244,0.24616533517837524
2,3,64,18,0.34507274627685547,0.1295224130153656
2,3,64,19,0.5235498547554016,0.20419318974018097
2,3,64,20,0.48170205950737,0.16010956466197968
2,3,64,21,0.5400233864784241,0.0984271839261055
2,3,64,22,0.5597397089004517,0.09106438606977463
2,3,64,23,0.5642029047012329,0.06582487374544144
2,3,64,24,0.2593632638454437,0.09668262302875519
2,3,64,25,0.4698812961578369,0.20749637484550476
2,3,64,26,0.4580412209033966,0.11403937637805939
2,3,64,27,0.5050657987594604,0.20247991383075714
2,3,64,28,0.5277515053749084,0.21525153517723083
2,3,64,29,0.6892594695091248,0.17557020485401154
2,3,64,30,0.5070476531982422,0.2625196576118469
2,3,64,31,0.3220500648021698,0.22442981600761414
2,3,64,32,0.5551165342330933,0.1141330748796463
2,3,64,33,0.2959086000919342,0.11560805886983871
2,3,64,34,0.542535662651062,0.15973038971424103
2,3,64,35,0.2729606032371521,0.0895097479224205
2,3,64,36,0.641473114490509,0.09703069925308228
2,3,64,37,0.6148916482925415,0.1431218385696411
2,3,64,38,0.5988697409629822,0.13558045029640198
2,3,64,39,0.7094224095344543,0.10400226712226868
2,3,64,40,0.534628689289093,0.12112951278686523
2,3,64,41,0.26835715770721436,0.07386089861392975
2,3,64,42,0.49372953176498413,0.12700586020946503
2,3,64,43,0.6204638481140137,0.240050807595253
2,3,64,44,0.5965136885643005,0.2322610765695572
2,3,64,45,0.42011430859565735,0.17591732740402222
2,3,64,46,0.5958327651023865,0.15943945944309235
2,3,64,47,0.575827956199646,0.20631101727485657
2,3,64,48,0.40371251106262207,0.09812125563621521
2,3,64,49,0.7700008749961853,0.07442649453878403
2,3,64,50,0.41719505190849304,0.2018425017595291
2,3,64,51,0.5961723923683167,0.07744590938091278
2,3,64,52,0.3815963566303253,0.10221022367477417
2,3,64,53,0.5127852559089661,0.11916349083185196
2,3,64,54,0.3373061716556549,0.0972478836774826
2,3,64,55,0.5820052027702332,0.11136408895254135
2,3,64,56,0.4811154901981354,0.14623989164829254
2,3,64,57,0.4934426546096802,0.1837017834186554
2,3,64,58,0.46879813075065613,0.2218247652053833
2,3,64,59,0.5703803300857544,0.09723860025405884
2,3,64,60,0.4499296247959137,0.11809543520212173
2,3,64,61,0.5169887542724609,0.3571528196334839
2,3,64,62,0.5661124587059021,0.273404985666275
2,3,64,63,0.5006656646728516,0.18220217525959015
2,4,128,0,0.7750961780548096,0.11416549980640411
2,4,128,1,0.5833824276924133,0.1416510045528412
2,4,128,2,0.30606400966644287,0.07453125715255737
2,4,128,3,0.42147940397262573,0.28497937321662903
2,4,128,4,0.3849705755710602,0.23263683915138245
2,4,128,5,0.47285687923431396,0.2680961787700653
2,4,128,6,0.2779194116592407,0.08293028175830841
2,4,128,7,0.6204125285148621,0.27079063653945923
2,4,128,8,0.6375111937522888,0.14579817652702332
2,4,128,9,0.4337550699710846,0.09189283847808838
2,4,128,10,0.6110504865646362,0.2913793921470642
2,4,128,11,0.5141310095787048,0.14607365429401398
2,4,128,12,0.5079439282417297,0.2188226878643036
2,4,128,13,0.5795519351959229,0.14630624651908875
2,4,128,14,0.4080807864665985,0.2790040075778961
2,4,128,15,0.6809235215187073,0.18667685985565186
2,4,128,16,0.5503492951393127,0.20459908246994019
2,4,128,17,0.5897407531738281,0.20195290446281433
2,4,128,18,0.587022066116333,0.16153912246227264
2,4,128,19,0.5859746336936951,0.22752700746059418
2,4,128,20,0.6135448813438416,0.1408304125070572
2,4,128,21,0.3489380180835724,0.12095256894826889
2,4,128,22,0.427670419216156,0.17627567052841187
2,4,128,23,0.4271710515022278,0.1847144216299057
2,4,128,24,0.5946414470672607,0.18691672384738922
2,4,128,25,0.6906810998916626,0.1004553958773613
2,4,128,26,0.7064977884292603,0.11918210238218307
2,4,128,27,0.4952211380004883,0.19501520693302155
2,4,128,28,0.6696667075157166,0.13839218020439148
2,4,128,29,0.6194950342178345,0.2833179235458374
2,4,128,30,0.5700973868370056,0.30582886934280396
2,4,128,31,0.40463027358055115,0.09284118562936783
2,4,128,32,0.4378412365913391,0.2533418536186218
2,4,128,33,0.6380739808082581,0.15373747050762177
2,4,128,34,0.3625617027282715,0.279106467962265
2,4,128,35,0.563930332660675,0.1474241018295288
2,4,128,36,0.6624075770378113,0.10194309800863266
2,4,128,37,0.6462680697441101,0.30785712599754333
2,4,128,38,0.3897802531719208,0.2808800935745239
2,4,128,39,0.4105837345123291,0.18235556781291962
2,4,128,40,0.6221857070922852,0.17009267210960388
2,4,128,41,0.6822177767753601,0.263631671667099
2,4,128,42,0.6528113484382629,0.14159893989562988
2,4,128,43,0.5931475162506104,0.18697263300418854
2,4,128,44,0.6083295345306396,0.16937166452407837
2,4,128,45,0.5521055459976196,0.28311148285865784
2,4,128,46,0.31895196437835693,0.15190772712230682
2,4,128,47,0.4175141751766205,0.30365458130836487
2,4,128,48,0.6364747285842896,0.20162542164325714
2,4,128,49,0.3884884715080261,0.18163861334323883
2,4,128,50,0.5883108377456665,0.1854119598865509
2,4,128,51,0.685975968837738,0.09282858669757843
2,4,128,52,0.38268357515335083,0.2887568175792694
2,4,128,53,0.6405112147331238,0.20595799386501312
2,4,128,54,0.4825804829597473,0.170630544424057
2,4,128,55,0.45738065242767334,0.16678428649902344
2,4,128,56,0.5899048447608948,0.2457299381494522
2,4,128,57,0.6797590255737305,0.11709827929735184
2,4,128,58,0.5764358639717102,0.12675702571868896
2,4,128,59,0.5750755667686462,0.1474786400794983
2,4,128,60,0.3322896957397461,0.18959563970565796
2,4,128,61,0.714291512966156,0.09293225407600403
2,4,128,62,0.5516488552093506,0.2207743227481842
2,4,128,63,0.539344310760498,0.21062502264976501
2,4,128,64,0.6475971937179565,0.21776960790157318
2,4,128,65,0.45101994276046753,0.22118981182575226
2,4,128,66,0.36000770330429077,0.12895750999450684
2,4,128,67,0.7308349013328552,0.10668811202049255
2,4,128,68,0.48751482367515564,0.13305407762527466
2,4,128,69,0.5933595299720764,0.2428268939256668
2,4,128,70,0.6385937333106995,0.15461377799510956
2,4,128,71,0.30192533135414124,0.15177945792675018
2,4,128,72,0.6581084728240967,0.1538189798593521
2,4,128,73,0.5686313509941101,0.14214462041854858
2,4,128,74,0.5868306159973145,0.10136144608259201
2,4,128,75,0.6634290218353271,0.19702249765396118
2,4,128,76,0.2655229866504669,0.15653745830059052
2,4,128,77,0.45737189054489136,0.20331189036369324
2,4,128,78,0.4744209349155426,0.19893667101860046
2,4,128,79,0.5673142671585083,0.2654947340488434
2,4,128,80,0.6144693493843079,0.2304198294878006
2,4,128,81,0.5396997332572937,0.13556145131587982
2,4,128,82,0.3914104402065277,0.21473464369773865
2,4,128,83,0.6207461357116699,0.26922520995140076
2,4,128,84,0.7805119752883911,0.10408038645982742
2,4,128,85,0.5224453210830688,0.16525335609912872
2,4,128,86,0.7021779417991638,0.08555597066879272
2,4,128,87,0.5389536023139954,0.1712740659713745
2,4,128,88,0.6190794706344604,0.0807059034705162
2,4,128,89,0.5138611793518066,0.14136481285095215
2,4,128,90,0.7362391352653503,0.08395379036664963
2,4,128,91,0.7710533142089844,0.08618179708719254
2,4,128,92,0.6946768164634705,0.08718963712453842
2,4,128,93,0.40556812286376953,0.23953203856945038
2,4,128,94,0.6105392575263977,0.1827584058046341
2,4,128,95,0.6196175813674927,0.1396610587835312
2,4,128,96,0.44681668281555176,0.24275492131710052
2,4,128,97,0.5952777862548828,0.2941848635673523
2,4,128,98,0.5182148814201355,0.1324332356452942
2,4,128,99,0.4159259498119354,0.22715120017528534
2,4,128,100,0.6289488077163696,0.33220839500427246
2,4,128,101,0.5779596567153931,0.2702193558216095
2,4,128,102,0.600906491279602,0.10686037689447403
2,4,128,103,0.5331924557685852,0.06914167106151581
2,4,128,104,0.6728832125663757,0.07818850129842758
2,4,128,105,0.6192248463630676,0.15049493312835693
2,4,128,106,0.7278321385383606,0.2507542669773102
2,4,128,107,0.3077152371406555,0.14265193045139313
2,4,128,108,0.6377553343772888,0.2321930229663849
2,4,128,109,0.6294311285018921,0.2161296308040619
2,4,128,110,0.594822883605957,0.3022080361843109
2,4,128,111,0.6623379588127136,0.13572140038013458
2,4,128,112,0.6362940669059753,0.15958565473556519
2,4,128,113,0.36761781573295593,0.1551860272884369
2,4,128,114,0.6076189279556274,0.21097271144390106
2,4,128,115,0.6384245753288269,0.12503132224082947
2,4,128,116,0.3979450464248657,0.08865075558423996
2,4,128,117,0.4792080521583557,0.18693995475769043
2,4,128,118,0.4695028066635132,0.2310231477022171
2,4,128,119,0.7361400127410889,0.09928032010793686
2,4,128,120,0.3836788535118103,0.1237967386841774
2,4,128,121,0.6036031246185303,0.19602741301059723
2,4,128,122,0.45389705896377563,0.19478118419647217
2,4,128,123,0.5960734486579895,0.16380341351032257
2,4,128,124,0.47614333033561707,0.12941402196884155
2,4,128,125,0.6321112513542175,0.12957030534744263
2,4,128,126,0.5884689092636108,0.19189994037151337
2,4,128,127,0.3767133951187134,0.1101863831281662
2,5,128,0,0.6433890461921692,0.1384294629096985
2,5,128,1,0.7740802764892578,0.14038753509521484
2,5,128,2,0.7641791105270386,0.1745762676000595
2,5,128,3,0.5043109059333801,0.2828086018562317
2,5,128,4,0.8306350111961365,0.09203134477138519
2,5,128,5,0.8702869415283203,0.06560379266738892
2,5,128,6,0.5755543112754822,0.18095369637012482
2,5,128,7,0.7373853921890259,0.19133326411247253
2,5,128,8,0.7506845593452454,0.1468563675880432
2,5,128,9,0.7243353724479675,0.27356669306755066
2,5,128,10,0.8178669214248657,0.1698460727930069
2,5,128,11,0.7392614483833313,0.09813698381185532
2,5,128,12,0.8909851312637329,0.0933322012424469
2,5,128,13,0.4206811785697937,0.2018682062625885
2,5,128,14,0.702427327632904,0.27985861897468567
2,5,128,15,0.8224221467971802,0.06500560790300369
2,5,128,16,0.726527214050293,0.23797833919525146
2,5,128,17,0.5760915875434875,0.19213077425956726
2,5,128,18,0.8543527722358704,0.0924222320318222
2,5,128,19,0.7759348750114441,0.2048840969800949
2,5,128,20,0.7460920810699463,0.2368595004081726
2,5,128,21,0.6657252311706543,0.08454415947198868
2,5,128,22,0.6644335985183716,0.22387239336967468
2,5,128,23,0.8425344228744507,0.07035233080387115
2,5,128,24,0.6172226071357727,0.1866772621870041
2,5,128,25,0.7700526118278503,0.23817788064479828
2,5,128,26,0.8822277784347534,0.07671293616294861
2,5,128,27,0.7936756610870361,0.09488838911056519
2,5,128,28,0.5009869337081909,0.2611076533794403
2,5,128,29,0.7727193832397461,0.2167428582906723
2,5,128,30,0.8184973001480103,0.1596556454896927
2,5,128,31,0.8348420262336731,0.13174985349178314
2,5,128,32,0.7064251899719238,0.2927372455596924
2,5,128,33,0.7196808457374573,0.25839224457740784
2,5,128,34,0.8455063104629517,0.06773750483989716
2,5,128,35,0.36118853092193604,0.16611625254154205
2,5,128,36,0.7964279651641846,0.12357375770807266
2,5,128,37,0.7980547547340393,0.17782141268253326
2,5,128,38,0.43134987354278564,0.13774876296520233
2,5,128,39,0.8375471830368042,0.08099766075611115
2,5,128,40,0.6801188588142395,0.09294059872627258
2,5,128,41,0.7806086540222168,0.24018040299415588
2,5,128,42,0.7543759942054749,0.1791977435350418
2,5,128,43,0.5989599227905273,0.1192808672785759
2,5,128,44,0.7248255014419556,0.16052871942520142
2,5,128,45,0.7573717832565308,0.2708989381790161
2,5,128,46,0.6439035534858704,0.22053278982639313
2,5,128,47,0.23318111896514893,0.20844510197639465
2,5,128,48,0.7823753356933594,0.10273026674985886
2,5,128,49,0.3271652162075043,0.21758627891540527
2,5,128,50,0.7616938948631287,0.1745053082704544
2,5,128,51,0.5775750875473022,0.2035011500120163
2,5,128,52,0.3739042282104492,0.23656612634658813
2,5,128,53,0.837314784526825,0.09834279865026474
2,5,128,54,0.6807994842529297,0.17492397129535675
2,5,128,55,0.40941447019577026,0.32824069261550903
2,5,128,56,0.8378053903579712,0.0859701856970787
2,5,128,57,0.7871329188346863,0.11720684170722961
2,5,128,58,0.8026272058486938,0.17433133721351624
2,5,128,59,0.8364315032958984,0.11401645839214325
2,5,128,60,0.5008306503295898,0.31698787212371826
2,5,128,61,0.7478973865509033,0.09928877651691437
2,5,128,62,0.7200392484664917,0.22059042751789093
2,5,128,63,0.7247790694236755,0.27754467725753784
2,5,128,64,0.476339727640152,0.18867377936840057
2,5,128,65,0.39333924651145935,0.18667492270469666
2,5,128,66,0.7536906599998474,0.20521973073482513
2,5,128,67,0.8003314137458801,0.11431717872619629
2,5,128,68,0.7437469959259033,0.16373957693576813
2,5,128,69,0.778052568435669,0.17255143821239471
2,5,128,70,0.7407158017158508,0.17495347559452057
2,5,128,71,0.8075160980224609,0.06311706453561783
2,5,128,72,0.418352335691452,0.20042634010314941
2,5,128,73,0.42729032039642334,0.33022162318229675
2,5,128,74,0.7198569178581238,0.2726762294769287
2,5,128,75,0.6622850894927979,0.11985145509243011
2,5,128,76,0.30182746052742004,0.2953212261199951
2,5,128,77,0.7363109588623047,0.21224841475486755
2,5,128,78,0.7473597526550293,0.15675698220729828
2,5,128,79,0.6870170831680298,0.2642296552658081
2,5,128,80,0.7297351956367493,0.15080556273460388
2,5,128,81,0.7522214651107788,0.11355827003717422
2,5,128,82,0.8763223886489868,0.07564835250377655
2,5,128,83,0.3163164556026459,0.24693645536899567
2,5,128,84,0.6842341423034668,0.14404098689556122
2,5,128,85,0.7818022966384888,0.17279334366321564
2,5,128,86,0.7171100378036499,0.2563583254814148
2,5,128,87,0.7828627824783325,0.21900896728038788
2,5,128,88,0.8293785452842712,0.13836804032325745
2,5,128,89,0.803180456161499,0.19096678495407104
2,5,128,90,0.7625179290771484,0.15667106211185455
2,5,128,91,0.8506488800048828,0.11470519006252289
2,5,128,92,0.8028023838996887,0.14508569240570068
2,5,128,93,0.8349580764770508,0.06196374073624611
2,5,128,94,0.8340104818344116,0.10417845100164413
2,5,128,95,0.3936043381690979,0.303867906332016
2,5,128,96,0.803281843662262,0.08222292363643646
2,5,128,97,0.7313851118087769,0.23586170375347137
2,5,128,98,0.7810115814208984,0.16698093712329865
2,5,128,99,0.7280745506286621,0.2239857017993927
2,5,128,100,0.7979490160942078,0.20433960855007172
2,5,128,101,0.723506510257721,0.17930157482624054
2,5,128,102,0.8109367489814758,0.15731607377529144
2,5,128,103,0.7621126174926758,0.08802161365747452
2,5,128,104,0.7665748000144958,0.2587509751319885
2,5,128,105,0.37004518508911133,0.2700585424900055
2,5,128,106,0.7819674611091614,0.15616127848625183
2,5,128,107,0.7120958566665649,0.22307921946048737
2,5,128,108,0.8341030478477478,0.1340305060148239
2,5,128,109,0.7709648013114929,0.20292730629444122
2,5,128,110,0.733832836151123,0.25440049171447754
2,5,128,111,0.7398103475570679,0.21795444190502167
2,5,128,112,0.5006363391876221,0.25969961285591125
2,5,128,113,0.35496947169303894,0.2993166148662567
2,5,128,114,0.7990252375602722,0.18069764971733093
2,5,128,115,0.6717634201049805,0.26832565665245056
2,5,128,116,0.7300886511802673,0.11611012369394302
2,5,128,117,0.7373399138450623,0.2341315746307373
2,5,128,118,0.5856935977935791,0.1618248075246811
2,5,128,119,0.7892882227897644,0.19798681139945984
2,5,128,120,0.8282074928283691,0.11920683830976486
2,5,128,121,0.7680243849754333,0.09251853078603745
2,5,128,122,0.29408013820648193,0.17253649234771729
2,5,128,123,0.839989423751831,0.12901034951210022
2,5,128,124,0.8208668828010559,0.12582603096961975
2,5,128,125,0.7537758946418762,0.15031017363071442
2,5,128,126,0.7190802693367004,0.28826001286506653
2,5,128,127,0.6476221084594727,0.2618465721607208
3,0,32,0,0.39339184761047363,0.05802164971828461
3,0,32,1,0.42932799458503723,0.0536486841738224
3,0,32,2,0.4938810169696808,0.031730424612760544
3,0,32,3,0.6924099326133728,0.07078280299901962
3,0,32,4,0.5866478085517883,0.06132816895842552
3,0,32,5,0.4175940155982971,0.07905278354883194
3,0,32,6,0.3245057761669159,0.047728054225444794
3,0,32,7,0.5134980082511902,0.07017263025045395
3,0,32,8,0.6064183115959167,0.0553174652159214
3,0,32,9,0.4599751830101013,0.11470922082662582
3,0,32,10,0.5136570930480957,0.015541376546025276
3,0,32,11,0.5032680034637451,0.10463011264801025
3,0,32,12,0.35426709055900574,0.041839201003313065
3,0,32,13,0.5591065287590027,0.033628083765506744
3,0,32,14,0.3905901610851288,0.04682379588484764
3,0,32,15,0.5291569828987122,0.04709003493189812
3,0,32,16,0.447048544883728,0.06201353669166565
3,0,32,17,0.6887451410293579,0.0718621015548706
3,0,32,18,0.4718865156173706,0.04007238522171974
3,0,32,19,0.4426553249359131,0.0795743390917778
3,0,32,20,0.5047525763511658,0.055991701781749725
3,0,32,21,0.644828200340271,0.04877123236656189
3,0,32,22,0.3905038833618164,0.053430020809173584
3,0,32,23,0.3716267943382263,0.05340860038995743
3,0,32,24,0.4269244372844696,0.07482783496379852
3,0,32,25,0.5016067624092102,0.036409202963113785
3,0,32,26,0.5634090304374695,0.11663532257080078
3,0,32,27,0.5346342921257019,0.03371473029255867
3,0,32,28,0.5165767073631287,0.06889941543340683
3,0,32,29,0.5403658151626587,0.08470946550369263
3,0,32,30,0.6661450266838074,0.06606289744377136
3,0,32,31,0.5156959295272827,0.11234556883573532
3,1,32,0,0.5094171762466431,0.02538168616592884
3,1,32,1,0.3781292140483856,0.025750694796442986
3,1,32,2,0.5286576151847839,0.034682951867580414
3,1,32,3,0.5724648237228394,0.05668721720576286
3,1,32,4,0.604395866394043,0.03885433450341225
3,1,32,5,0.5438485741615295,0.07885219156742096
3,1,32,6,0.5449983477592468,0.04324645549058914
3,1,32,7,0.5338061451911926,0.061148833483457565
3,1,32,8,0.5405558347702026,0.02391740120947361
3,1,32,9,0.49174442887306213,0.059147909283638
3,1,32,10,0.49348682165145874,0.0534367635846138
3,1,32,11,0.41566288471221924,0.05236329138278961
3,1,32,12,0.4995964765548706,0.08322694152593613
3,1,32,13,0.4855770468711853,0.04652085900306702
3,1,32,14,0.5487638711929321,0.04125690832734108
3,1,32,15,0.5427641272544861,0.08347705751657486
3,1,32,16,0.3938119113445282,0.057125024497509
3,1,32,17,0.5817522406578064,0.07372056692838669
3,1,32,18,0.5930174589157104,0.012024980038404465
3,1,32,19,0.47764042019844055,0.03470349311828613
3,1,32,20,0.5519280433654785,0.009014507755637169
3,1,32,21,0.43031126260757446,0.03484805300831795
3,1,32,22,0.46468570828437805,0.08763109892606735
3,1,32,23,0.5410779714584351,0.03877969831228256
3,1,32,24,0.5701748728752136,0.050452329218387604
3,1,32,25,0.5397542715072632,0.07307668030261993
3,1,32,26,0.5535510778427124,0.020748790353536606
3,1,32,27,0.5168567299842834,0.01842949353158474
3,1,32,28,0.4676347076892853,0.08222721517086029
3,1,32,29,0.572639524936676,0.05634021386504173
3,1,32,30,0.40238240361213684,0.019541000947356224
3,1,32,31,0.5009032487869263,0.038722578436136246
3,2,64,0,0.5281025171279907,0.18650200963020325
3,2,64,1,0.38969022035598755,0.09625586122274399
3,2,64,2,0.49727344512939453,0.05649741739034653
3,2,64,3,0.5988419055938721,0.07649307698011398
3,2,64,4,0.4840361773967743,0.12076038867235184
3,2,64,5,0.5051987767219543,0.06534414738416672
3,2,64,6,0.4052940905094147,0.14827008545398712
3,2,64,7,0.5545205473899841,0.11965351551771164
3,2,64,8,0.5595029592514038,0.241471067070961
3,2,64,9,0.5051523447036743,0.22594571113586426
3,2,64,10,0.46921253204345703,0.15581096708774567
3,2,64,11,0.5633358359336853,0.06706739962100983
3,2,64,12,0.5586101412773132,0.1253177374601364
3,2,64,13,0.6485914587974548,0.13500477373600006
3,2,64,14,0.30385351181030273,0.13374121487140656
3,2,64,15,0.4706648588180542,0.1765946000814438
3,2,64,16,0.5158094763755798,0.10471099615097046
3,2,64,17,0.465999573469162,0.1409091055393219
3,2,64,18,0.4201432168483734,0.1414802372455597
3,2,64,19,0.482704758644104,0.12309987843036652
3,2,64,20,0.3853539526462555,0.12733981013298035
3,2,64,21,0.3821151554584503,0.16562899947166443
3,2,64,22,0.5419241189956665,0.20583684742450714
3,2,64,23,0.6318346261978149,0.06790339201688766
3,2,64,24,0.4369446635246277,0.08799391239881516
3,2,64,25,0.5513507127761841,0.11935202032327652
3,2,64,26,0.449858695268631,0.2212112993001938
3,2,64,27,0.4592570662498474,0.20021122694015503
3,2,64,28,0.4815537631511688,0.24189704656600952
3,2,64,29,0.49817603826522827,0.07110384851694107
3,2,64,30,0.42136311531066895,0.16577933728694916
3,2,64,31,0.44961968064308167,0.13575337827205658
3,2,64,32,0.5557887554168701,0.08266142755746841
3,2,64,33,0.5751715302467346,0.09018675237894058
3,2,64,34,0.39322009682655334,0.1664597988128662
3,2,64,35,0.5024749040603638,0.20035886764526367
3,2,64,36,0.6406515836715698,0.115587018430233
3,2,64,37,0.5052902698516846,0.0943637266755104
3,2,64,38,0.37818005681037903,0.15021219849586487
3,2,64,39,0.5351436138153076,0.07359722256660461
3,2,64,40,0.5737234950065613,0.11147507280111313
3,2,64,41,0.37113359570503235,0.20032861828804016
3,2,64,42,0.5462014079093933,0.14668330550193787
3,2,64,43,0.53446364402771,0.17231403291225433
3,2,64,44,0.5532165169715881,0.13756272196769714
3,2,64,45,0.4045960307121277,0.193993479013443
3,2,64,46,0.49904870986938477,0.23481611907482147
3,2,64,47,0.35886093974113464,0.06509768217802048
3,2,64,48,0.545845627784729,0.12631355226039886
3,2,64,49,0.5220633745193481,0.18049465119838715
3,2,64,50,0.508091926574707,0.10285279154777527
3,2,64,51,0.5340518355369568,0.11854711920022964
3,2,64,52,0.511928915977478,0.13238146901130676
3,2,64,53,0.5556381940841675,0.11200407147407532
3,2,64,54,0.4810006022453308,0.17179669439792633
3,2,64,55,0.5446074604988098,0.20918375253677368
3,2,64,56,0.5554718375205994,0.08750461786985397
3,2,64,57,0.537464439868927,0.20840801298618317
3,2,64,58,0.7240697741508484,0.08605660498142242
3,2,64,59,0.5809347033500671,0.24095821380615234
3,2,64,60,0.42816075682640076,0.0716455802321434
3,2,64,61,0.4203154146671295,0.1254820078611374
3,2,64,62,0.6320750713348389,0.16715016961097717
3,2,64,63,0.40932366251945496,0.17780746519565582
3,3,64,0,0.560508131980896,0.21228046715259552
3,3,64,1,0.5934706330299377,0.08919300138950348
3,3,64,2,0.6331007480621338,0.11157950013875961
3,3,64,3,0.5964849591255188,0.1478242576122284
3,3,64,4,0.46772319078445435,0.0892367884516716
3,3,64,5,0.46684491634368896,0.0519750602543354
3,3,64,6,0.5467170476913452,0.1442904770374298
3,3,64,7,0.5939763784408569,0.09865330159664154
3,3,64,8,0.6452452540397644,0.31352823972702026
3,3,64,9,0.3798236548900604,0.1087673157453537
3,3,64,10,0.6215094923973083,0.10463272035121918
3,3,64,11,0.27534955739974976,0.18576934933662415
3,3,64,12,0.3356825113296509,0.22426433861255646
3,3,64,13,0.7048490643501282,0.17217396199703217
3,3,64,14,0.4626549184322357,0.17294494807720184
3,3,64,15,0.4974551200866699,0.10265597701072693
3,3,64,16,0.6461652517318726,0.10196147859096527
3,3,64,17,0.6298867464065552,0.24812717735767365
3,3,64,18,0.6247212290763855,0.2042485624551773
3,3,64,19,0.521029531955719,0.2968163788318634
3,3,64,20,0.35916733741760254,0.09557642042636871
3,3,64,21,0.4999573528766632,0.15763668715953827
3,3,64,22,0.4812818467617035,0.08083821833133698
3,3,64,23,0.4199998378753662,0.240354523062706
3,3,64,24,0.7544870972633362,0.1445768028497696
3,3,64,25,0.3477698564529419,0.1611354947090149
3,3,64,26,0.4882104992866516,0.11259884387254715
3,3,64,27,0.3869631588459015,0.1974051147699356
3,3,64,28,0.6556374430656433,0.12615026533603668
3,3,64,29,0.45957791805267334,0.14880721271038055
3,3,64,30,0.5668961405754089,0.17077596485614777
3,3,64,31,0.45447415113449097,0.1577373743057251
3,3,64,32,0.4739624857902527,0.100411556661129
3,3,64,33,0.6619685292243958,0.2539461553096771
3,3,64,34,0.5275816321372986,0.046560484915971756
3,3,64,35,0.5739960670471191,0.15109984576702118
3,3,64,36,0.499968558549881,0.050456129014492035
3,3,64,37,0.24481886625289917,0.1679360568523407
3,3,64,38,0.49387243390083313,0.1315515637397766
3,3,64,39,0.7151060700416565,0.17384693026542664
3,3,64,40,0.4891561269760132,0.07902441918849945
3,3,64,41,0.3649107813835144,0.05930354818701744
3,3,64,42,0.34854382276535034,0.25418540835380554
3,3,64,43,0.6216098666191101,0.04041387513279915
3,3,64,44,0.31772810220718384,0.1332714706659317
3,3,64,45,0.6312024593353271,0.1147540956735611
3,3,64,46,0.6456771492958069,0.21262207627296448
3,3,64,47,0.6497040390968323,0.07729994505643845
3,3,64,48,0.4343377351760864,0.164143905043602
3,3,64,49,0.6004000306129456,0.06164892390370369
3,3,64,50,0.4637492895126343,0.18218019604682922
3,3,64,51,0.3552935719490051,0.2472803145647049
3,3,64,52,0.4098789095878601,0.11723519116640091
3,3,64,53,0.4220294952392578,0.11168263107538223
3,3,64,54,0.3421831727027893,0.11152922362089157
3,3,64,55,0.34966105222702026,0.12392625957727432
3,3,64,56,0.30539560317993164,0.18736334145069122
3,3,64,57,0.2729986011981964,0.17051514983177185
3,3,64,58,0.2786008417606354,0.14315533638000488
3,3,64,59,0.39761587977409363,0.14188112318515778
3,3,64,60,0.39717668294906616,0.10080242902040482
3,3,64,61,0.49701225757598877,0.21830376982688904
3,3,64,62,0.3935733139514923,0.080423504114151
3,3,64,63,0.45844563841819763,0.2634773552417755
3,4,128,0,0.6605867743492126,0.08150258660316467
3,4,128,1,0.6304514408111572,0.21307030320167542
3,4,128,2,0.6183056831359863,0.2538595497608185
3,4,128,3,0.6519473195075989,0.32318422198295593
3,4,128,4,0.6464940309524536,0.12485671788454056
3,4,128,5,0.6272112131118774,0.08795295655727386
3,4,128,6,0.5899943709373474,0.2631794214248657
3,4,128,7,0.6080788969993591,0.21682707965373993
3,4,128,8,0.4731680750846863,0.12282901257276535
3,4,128,9,0.42607033252716064,0.20142443478107452
3,4,128,10,0.5420238971710205,0.10421046614646912
3,4,128,11,0.6098723411560059,0.14023053646087646
3,4,128,12,0.31161046028137207,0.19438186287879944
3,4,128,13,0.6115222573280334,0.17349718511104584
3,4,128,14,0.6006201505661011,0.17321056127548218
3,4,128,15,0.6242679953575134,0.2688751816749573
3,4,128,16,0.611947238445282,0.1780318319797516
3,4,128,17,0.39176779985427856,0.19643749296665192
3,4,128,18,0.549530565738678,0.1105302944779396
3,4,128,19,0.5152410864830017,0.14469480514526367
3,4,128,20,0.5206045508384705,0.15331122279167175
3,4,128,21,0.6214702725410461,0.14499418437480927
3,4,128,22,0.6026600003242493,0.11369802057743073
3,4,128,23,0.4249710142612457,0.09638990461826324
3,4,128,24,0.6705567836761475,0.11527267843484879
3,4,128,25,0.4244442582130432,0.2316051572561264
3,4,128,26,0.2951391935348511,0.13374797999858856
3,4,128,27,0.6666533350944519,0.10080797970294952
3,4,128,28,0.38959363102912903,0.22356483340263367
3,4,128,29,0.4851132929325104,0.17893609404563904
3,4,128,30,0.5984160304069519,0.0893184021115303
3,4,128,31,0.56159508228302,0.10167762637138367
3,4,128,32,0.3831585943698883,0.19801606237888336
3,4,128,33,0.7362058758735657,0.11977865546941757
3,4,128,34,0.6250933408737183,0.3129841089248657
3,4,128,35,0.6159160733222961,0.2779764235019684
3,4,128,36,0.7555609941482544,0.11584006994962692
3,4,128,37,0.6204819083213806,0.21639879047870636
3,4,128,38,0.6090289354324341,0.253003865480423
3,4,128,39,0.6422423720359802,0.1973484754562378
3,4,128,40,0.4417414665222168,0.309518039226532
3,4,128,41,0.4430980086326599,0.06770806759595871
3,4,128,42,0.5296675562858582,0.15278953313827515
3,4,128,43,0.39003893733024597,0.16363348066806793
3,4,128,44,0.43772101402282715,0.061598386615514755
3,4,128,45,0.6969201564788818,0.15911765396595
3,4,128,46,0.6057041883468628,0.10378272831439972
3,4,128,47,0.5640852451324463,0.049276359379291534
3,4,128,48,0.47451940178871155,0.1851441115140915
3,4,128,49,0.6325897574424744,0.33921676874160767
3,4,128,50,0.43102529644966125,0.27590060234069824
3,4,128,51,0.5303625464439392,0.14219579100608826
3,4,128,52,0.4517335295677185,0.12242909520864487
3,4,128,53,0.6281857490539551,0.12805074453353882
3,4,128,54,0.4757164716720581,0.10165318846702576
3,4,128,55,0.6650674343109131,0.07443680614233017
3,4,128,56,0.6102174520492554,0.1976214498281479
3,4,128,57,0.6887414455413818,0.103815957903862
3,4,128,58,0.5952083468437195,0.07429151237010956
3,4,128,59,0.7160253524780273,0.11336496472358704
3,4,128,60,0.5664272904396057,0.11446596682071686
3,4,128,61,0.5924994945526123,0.18579556047916412
3,4,128,62,0.6615166664123535,0.2205563634634018
3,4,128,63,0.548431396484375,0.12160703539848328
3,4,128,64,0.6453746557235718,0.223393514752388
3,4,128,65,0.6950624585151672,0.26343676447868347
3,4,128,66,0.40966007113456726,0.2464223951101303
3,4,128,67,0.4366077482700348,0.25830599665641785
3,4,128,68,0.4984544813632965,0.10475145280361176
3,4,128,69,0.3079310655593872,0.11938248574733734
3,4,128,70,0.36816880106925964,0.1942765861749649
3,4,128,71,0.669053852558136,0.15285255014896393
3,4,128,72,0.6430471539497375,0.12441061437129974
3,4,128,73,0.5509559512138367,0.22653068602085114
3,4,128,74,0.6248847246170044,0.2175072580575943
3,4,128,75,0.4669031798839569,0.10823775082826614
3,4,128,76,0.657326340675354,0.2112852782011032
3,4,128,77,0.4129277169704437,0.0584995299577713
3,4,128,78,0.514843761920929,0.2029585838317871
3,4,128,79,0.3807393014431,0.15415115654468536
3,4,128,80,0.3499849736690521,0.19938205182552338
3,4,128,81,0.6224643588066101,0.17293904721736908
3,4,128,82,0.7346182465553284,0.11981189250946045
3,4,128,83,0.4275590181350708,0.20049449801445007
3,4,128,84,0.6769904494285583,0.1823941171169281
3,4,128,85,0.6755042672157288,0.12305397540330887
3,4,128,86,0.5119245052337646,0.1287868171930313
3,4,128,87,0.37868785858154297,0.2709611654281616
3,4,128,88,0.333886981010437,0.21419399976730347
3,4,128,89,0.49551889300346375,0.16121317446231842
3,4,128,90,0.5380258560180664,0.06637395918369293
3,4,128,91,0.3452564477920532,0.0981869325041771
3,4,128,92,0.37393492460250854,0.14021439850330353
3,4,128,93,0.5806282758712769,0.28290578722953796
3,4,128,94,0.43873995542526245,0.06250815838575363
3,4,128,95,0.25683942437171936,0.1572336107492447
3,4,128,96,0.31541135907173157,0.12964247167110443
3,4,128,97,0.3371162414550781,0.11660049110651016
3,4,128,98,0.6826558113098145,0.21178603172302246
3,4,128,99,0.6394825577735901,0.2805250883102417
3,4,128,100,0.582181453704834,0.07322303205728531
3,4,128,101,0.432278037071228,0.08404815196990967
3,4,128,102,0.6796022057533264,0.09429403394460678
3,4,128,103,0.7410872578620911,0.10854897648096085
3,4,128,104,0.4502221941947937,0.23906373977661133
3,4,128,105,0.6472474932670593,0.12753450870513916
3,4,128,106,0.44434812664985657,0.13383732736110687
3,4,128,107,0.5750292539596558,0.06806939840316772
3,4,128,108,0.6568328142166138,0.2407957911491394
3,4,128,109,0.6678014993667603,0.2466529905796051
3,4,128,110,0.5724375247955322,0.26239460706710815
3,4,128,111,0.4139232337474823,0.13599704205989838
3,4,128,112,0.6705597639083862,0.17196309566497803
3,4,128,113,0.6375270485877991,0.08851524442434311
3,4,128,114,0.6484194397926331,0.10568959265947342
3,4,128,115,0.6414229869842529,0.2086402326822281
3,4,128,116,0.6703411936759949,0.08738105744123459
3,4,128,117,0.3822953402996063,0.08170314878225327
3,4,128,118,0.6885861754417419,0.1057935357093811
3,4,128,119,0.43453821539878845,0.14813028275966644
3,4,128,120,0.5836141705513,0.3255533277988434
3,4,128,121,0.6903185844421387,0.0707622691988945
3,4,128,122,0.37574106454849243,0.09145963937044144
3,4,128,123,0.5822854042053223,0.11090273410081863
3,4,128,124,0.5023705363273621,0.10147286206483841
3,4,128,125,0.5207808613777161,0.15263286232948303
3,4,128,126,0.7090389132499695,0.15824568271636963
3,4,128,127,0.45083490014076233,0.08743564784526825
3,5,128,0,0.41275760531425476,0.058621328324079514
3,5,128,1,0.4122597575187683,0.3099929094314575
3,5,128,2,0.7312048673629761,0.14251567423343658
3,5,128,3,0.8119495511054993,0.1945309042930603
3,5,128,4,0.7340924143791199,0.19718903303146362
3,5,128,5,0.7075549960136414,0.19484834372997284
3,5,128,6,0.5443645119667053,0.08687534928321838
3,5,128,7,0.24198129773139954,0.16877105832099915
3,5,128,8,0.6269784569740295,0.17818376421928406
3,5,128,9,0.295369952917099,0.2018365114927292
3,5,128,10,0.5237879753112793,0.1157938614487648
3,5,128,11,0.5871661305427551,0.10780541598796844
3,5,128,12,0.7285752892494202,0.16757674515247345
3,5,128,13,0.6896299719810486,0.2038222849369049
3,5,128,14,0.4620387554168701,0.14178864657878876
3,5,128,15,0.7907805442810059,0.1394008845090866
3,5,128,16,0.38835078477859497,0.2286868691444397
3,5,128,17,0.6394358277320862,0.10364223271608353
3,5,128,18,0.4210468530654907,0.0576772466301918
3,5,128,19,0.5032835006713867,0.17976468801498413
3,5,128,20,0.8336783647537231,0.10739471763372421
3,5,128,21,0.6898474097251892,0.12136521935462952
3,5,128,22,0.7735431790351868,0.09487776458263397
3,5,128,23,0.4686279296875,0.08731567114591599
3,5,128,24,0.5713774561882019,0.1326189637184143
3,5,128,25,0.7148464918136597,0.20180504024028778
3,5,128,26,0.7230150699615479,0.16482733190059662
3,5,128,27,0.7656670212745667,0.10305700451135635
3,5,128,28,0.7471100091934204,0.13423164188861847
3,5,128,29,0.32037779688835144,0.09693261235952377
3,5,128,30,0.577200710773468,0.06841042637825012
3,5,128,31,0.8022300004959106,0.16280609369277954
3,5,128,32,0.6581257581710815,0.2444673627614975
3,5,128,33,0.6372935771942139,0.21215499937534332
3,5,128,34,0.415388822555542,0.07956153899431229
3,5,128,35,0.7263806462287903,0.2826540768146515
3,5,128,36,0.7895371317863464,0.06818053126335144
3,5,128,37,0.7568390965461731,0.19840410351753235
3,5,128,38,0.7843496799468994,0.09894908219575882
3,5,128,39,0.6452397108078003,0.15131941437721252
3,5,128,40,0.7163726091384888,0.10406451672315598
3,5,128,41,0.6093255877494812,0.14136655628681183
3,5,128,42,0.7300569415092468,0.06863807886838913
3,5,128,43,0.40524885058403015,0.08569808304309845
3,5,128,44,0.4451964497566223,0.0966556966304779
3,5,128,45,0.6638659238815308,0.26152142882347107
3,5,128,46,0.6288022994995117,0.07534398883581161
3,5,128,47,0.7317151427268982,0.07750813663005829
3,5,128,48,0.5838373303413391,0.12883906066417694
3,5,128,49,0.7941452860832214,0.18531715869903564
3,5,128,50,0.37084463238716125,0.24527867138385773
3,5,128,51,0.35262876749038696,0.26881855726242065
3,5,128,52,0.8038725852966309,0.13444525003433228
3,5,128,53,0.7189332246780396,0.05973021313548088
3,5,128,54,0.3224209249019623,0.08197396993637085
3,5,128,55,0.38950762152671814,0.21788419783115387
3,5,128,56,0.5993419885635376,0.27264073491096497
3,5,128,57,0.6872344613075256,0.15023326873779297
3,5,128,58,0.3860991895198822,0.1644672304391861
3,5,128,59,0.5872563123703003,0.2536713182926178
3,5,128,60,0.40094491839408875,0.07570073753595352
3,5,128,61,0.6168040037155151,0.10450834780931473
3,5,128,62,0.48395371437072754,0.10629952698945999
3,5,128,63,0.7383037805557251,0.09810100495815277
3,5,128,64,0.7970707416534424,0.10138411819934845
3,5,128,65,0.6407456994056702,0.1896105855703354
3,5,128,66,0.48489779233932495,0.10937844961881638
3,5,128,67,0.5343224406242371,0.10898976027965546
3,5,128,68,0.760665774345398,0.1611684411764145
3,5,128,69,0.7456335425376892,0.2466881424188614
3,5,128,70,0.5635948777198792,0.11461098492145538
3,5,128,71,0.7550790309906006,0.11930116266012192
3,5,128,72,0.7056466341018677,0.12559714913368225
3,5,128,73,0.6935428977012634,0.10947225242853165
3,5,128,74,0.2541557252407074,0.1859622597694397
3,5,128,75,0.8129582405090332,0.09262213110923767
3,5,128,76,0.6075257658958435,0.1976727545261383
3,5,128,77,0.7668901085853577,0.09932407736778259
3,5,128,78,0.6004065871238708,0.062160149216651917
3,5,128,79,0.4807126224040985,0.06851694732904434
3,5,128,80,0.7872502207756042,0.12761028110980988
3,5,128,81,0.7458725571632385,0.08939202129840851
3,5,128,82,0.8136857748031616,0.09890421479940414
3,5,128,83,0.3746645450592041,0.23889024555683136
3,5,128,84,0.674845814704895,0.2863885164260864
3,5,128,85,0.8126489520072937,0.11944978684186935
3,5,128,86,0.5729096531867981,0.06454870849847794
3,5,128,87,0.6229981184005737,0.08328142017126083
3,5,128,88,0.705379068851471,0.24737878143787384
3,5,128,89,0.679671049118042,0.06555359810590744
3,5,128,90,0.7115487456321716,0.13480570912361145
3,5,128,91,0.7484170198440552,0.14321009814739227
3,5,128,92,0.49955621361732483,0.10923106223344803
3,5,128,93,0.5915676951408386,0.21744976937770844
3,5,128,94,0.6845951676368713,0.26942241191864014
3,5,128,95,0.535082221031189,0.11627058684825897
3,5,128,96,0.7952212691307068,0.2068135142326355
3,5,128,97,0.7132720947265625,0.06850812584161758
3,5,128,98,0.7404751777648926,0.1610027253627777
3,5,128,99,0.6611724495887756,0.3144384026527405
3,5,128,100,0.5173653960227966,0.055935587733983994
3,5,128,101,0.7016528844833374,0.1893395036458969
3,5,128,102,0.6943289637565613,0.20055092871189117
3,5,128,103,0.7756752371788025,0.14085091650485992
3,5,128,104,0.7382601499557495,0.23652951419353485
3,5,128,105,0.6368230581283569,0.05497454106807709
3,5,128,106,0.4531239867210388,0.15327252447605133
3,5,128,107,0.4901160001754761,0.05413416400551796
3,5,128,108,0.8068850040435791,0.12651728093624115
3,5,128,109,0.820083498954773,0.17261652648448944
3,5,128,110,0.3654201328754425,0.07416915893554688
3,5,128,111,0.44915083050727844,0.19319313764572144
3,5,128,112,0.7113297581672668,0.19712938368320465
3,5,128,113,0.7421103715896606,0.09882626682519913
3,5,128,114,0.4310159385204315,0.10621017217636108
3,5,128,115,0.7657082080841064,0.15295030176639557
3,5,128,116,0.5320168733596802,0.11542978137731552
3,5,128,117,0.5141286253929138,0.12963712215423584
3,5,128,118,0.3125264346599579,0.17034801840782166
3,5,128,119,0.7530883550643921,0.21368660032749176
3,5,128,120,0.714654266834259,0.22952787578105927
3,5,128,121,0.3348110318183899,0.2161596417427063
3,5,128,122,0.3717661499977112,0.08291304856538773
3,5,128,123,0.7679490447044373,0.09342534840106964
3,5,128,124,0.7715426087379456,0.07625780254602432
3,5,128,125,0.4384239912033081,0.19284416735172272
3,5,128,126,0.8026466369628906,0.11449627578258514
3,5,128,127,0.6730110049247742,0.2841672897338867
4,0,32,0,0.4702651798725128,0.11401186138391495
4,0,32,1,0.6059065461158752,0.10726256668567657
4,0,32,2,0.28886526823043823,0.0534038320183754
4,0,32,3,0.5092530250549316,0.12887750566005707
4,0,32,4,0.39313507080078125,0.16729328036308289
4,0,32,5,0.47469180822372437,0.10646037012338638
4,0,32,6,0.6323096752166748,0.0673593133687973
4,0,32,7,0.5534123182296753,0.09228363633155823
4,0,32,8,0.32131731510162354,0.10415524244308472
4,0,32,9,0.4954330623149872,0.11438720673322678
4,0,32,10,0.5423919558525085,0.06966368854045868
4,0,32,11,0.4339185059070587,0.12380105257034302
4,0,32,12,0.4197673201560974,0.13111670315265656
4,0,32,13,0.5060890913009644,0.05945352464914322
4,0,32,14,0.6200942993164062,0.09570422768592834
4,0,32,15,0.6005311608314514,0.11727743595838547
4,0,32,16,0.5307931900024414,0.083561971783638
4,0,32,17,0.5265284180641174,0.0894063264131546
4,0,32,18,0.6045225262641907,0.18701834976673126
4,0,32,19,0.4191669225692749,0.10344184935092926
4,0,32,20,0.3480331599712372,0.11208363622426987
4,0,32,21,0.6238930821418762,0.05494106188416481
4,0,32,22,0.47762101888656616,0.1353919357061386
4,0,32,23,0.4952789545059204,0.10690197348594666
4,0,32,24,0.33043453097343445,0.11067529022693634
4,0,32,25,0.5182917714118958,0.07131672650575638
4,0,32,26,0.5192822217941284,0.07705119997262955
4,0,32,27,0.5843950510025024,0.13010427355766296
4,0,32,28,0.4093918800354004,0.08824354410171509
4,0,32,29,0.3870697319507599,0.15263241529464722
4,0,32,30,0.46487975120544434,0.12189464271068573
4,0,32,31,0.4375186860561371,0.10266925394535065
4,1,32,0,0.5323671698570251,0.06592173129320145
4,1,32,1,0.5357668995857239,0.1362553983926773
4,1,32,2,0.48207888007164,0.05546555668115616
4,1,32,3,0.49574801325798035,0.05801955983042717
4,1,32,4,0.43262749910354614,0.10563583672046661
4,1,32,5,0.573336660861969,0.12353973090648651
4,1,32,6,0.6269986629486084,0.10370834171772003
4,1,32,7,0.3467565178871155,0.1178465411067009
4,1,32,8,0.5590965747833252,0.12977935373783112
4,1,32,9,0.544836163520813,0.07816080003976822
4,1,32,10,0.5730969309806824,0.027263570576906204
4,1,32,11,0.5924726724624634,0.09380468726158142
4,1,32,12,0.5228856205940247,0.1314287632703781
4,1,32,13,0.42277002334594727,0.08912919461727142
4,1,32,14,0.48508909344673157,0.06926446408033371
4,1,32,15,0.5428687930107117,0.07121375948190689
4,1,32,16,0.53255695104599,0.08867239207029343
4,1,32,17,0.38434532284736633,0.12604448199272156
4,1,32,18,0.3379468023777008,0.09492598474025726
4,1,32,19,0.4941710829734802,0.09173775464296341
4,1,32,20,0.5025071501731873,0.0244204793125391
4,1,32,21,0.5936393141746521,0.09041862189769745
4,1,32,22,0.6390427350997925,0.10260121524333954
4,1,32,23,0.429125040769577,0.0954269990324974
4,1,32,24,0.6145602464675903,0.11675538867712021
4,1,32,25,0.46757709980010986,0.04982398822903633
4,1,32,26,0.4787019193172455,0.11342775076627731
4,1,32,27,0.6277191042900085,0.031751759350299835
4,1,32,28,0.414189875125885,0.12134529650211334
4,1,32,29,0.5227915048599243,0.1732657551765442
4,1,32,30,0.5110613107681274,0.08864567428827286
4,1,32,31,0.4909597635269165,0.14151670038700104
4,2,64,0,0.5283376574516296,0.18606600165367126
4,2,64,1,0.4919763505458832,0.10568973422050476
4,2,64,2,0.5197101831436157,0.1326606273651123
4,2,64,3,0.6271545886993408,0.17425796389579773
4,2,64,4,0.4296809136867523,0.15871521830558777
4,2,64,5,0.39422547817230225,0.2501775324344635
4,2,64,6,0.45708411931991577,0.058802131563425064
4,2,64,7,0.3373964726924896,0.13280831277370453
4,2,64,8,0.37233367562294006,0.15944869816303253
4,2,64,9,0.318795382976532,0.2433323711156845
4,2,64,10,0.43739160895347595,0.3092334270477295
4,2,64,11,0.5764871835708618,0.04443669691681862
4,2,64,12,0.3432225286960602,0.1707187443971634
4,2,64,13,0.6747680306434631,0.3163813054561615
4,2,64,14,0.517408549785614,0.2123403698205948
4,2,64,15,0.40609636902809143,0.2359108030796051
4,2,64,16,0.3976445496082306,0.1788562834262848
4,2,64,17,0.623803973197937,0.18816101551055908
4,2,64,18,0.5793952941894531,0.1759093850851059
4,2,64,19,0.5480945110321045,0.13928040862083435
4,2,64,20,0.6065384745597839,0.2812938094139099
4,2,64,21,0.7249400615692139,0.10559459775686264
4,2,64,22,0.44108617305755615,0.15411752462387085
4,2,64,23,0.3977196216583252,0.1177939623594284
4,2,64,24,0.4557378888130188,0.36212873458862305
4,2,64,25,0.43674778938293457,0.3719787299633026
4,2,64,26,0.3840484619140625,0.1624232679605484
4,2,64,27,0.44258248805999756,0.11056039482355118
4,2,64,28,0.6129481196403503,0.19644470512866974
4,2,64,29,0.5766770243644714,0.37911471724510193
4,2,64,30,0.3923146724700928,0.18952713906764984
4,2,64,31,0.24359861016273499,0.23340041935443878
4,2,64,32,0.7824068069458008,0.07107650488615036
4,2,64,33,0.4822922348976135,0.199082612991333
4,2,64,34,0.7530343532562256,0.26289936900138855
4,2,64,35,0.6585705280303955,0.07360541820526123
4,2,64,36,0.4373207092285156,0.05767522752285004
4,2,64,37,0.6428696513175964,0.23445603251457214
4,2,64,38,0.6346140503883362,0.20762884616851807
4,2,64,39,0.5272418260574341,0.2197830229997635
4,2,64,40,0.495274156332016,0.1738702803850174
4,2,64,41,0.5074736475944519,0.2937287986278534
4,2,64,42,0.32324206829071045,0.13184858858585358
4,2,64,43,0.500918447971344,0.11783484369516373
4,2,64,44,0.5188713669776917,0.26539328694343567
4,2,64,45,0.4731873571872711,0.2883393168449402
4,2,64,46,0.4746406674385071,0.21634043753147125
4,2,64,47,0.7053995728492737,0.13947878777980804
4,2,64,48,0.5101253986358643,0.15820984542369843
4,2,64,49,0.34335508942604065,0.1308145672082901
4,2,64,50,0.48917558789253235,0.14535757899284363
4,2,64,51,0.5699147582054138,0.21009530127048492
4,2,64,52,0.4282899498939514,0.16915714740753174
4,2,64,53,0.568453311920166,0.17726373672485352
4,2,64,54,0.34146443009376526,0.10203669220209122
4,2,64,55,0.571587860584259,0.2748720049858093
4,2,64,56,0.6806628704071045,0.27919653058052063
4,2,64,57,0.4456418454647064,0.11878345161676407
4,2,64,58,0.7629063129425049,0.10256341844797134
4,2,64,59,0.6225140690803528,0.27372220158576965
4,2,64,60,0.6194919347763062,0.09312774240970612
4,2,64,61,0.4926329553127289,0.1852298378944397
4,2,64,62,0.5129250884056091,0.208966925740242
4,2,64,63,0.6592717170715332,0.08186741918325424
4,3,64,0,0.5378231406211853,0.07444558292627335
4,3,64,1,0.48513278365135193,0.11837064474821091
4,3,64,2,0.5875319242477417,0.06641367822885513
4,3,64,3,0.39019548892974854,0.172045037150383
4,3,64,4,0.49395668506622314,0.16000816226005554
4,3,64,5,0.6626661419868469,0.10106046497821808
4,3,64,6,0.42181506752967834,0.10053648799657822
4,3,64,7,0.46124985814094543,0.12373471260070801
4,3,64,8,0.6246188879013062,0.1756870150566101
4,3,64,9,0.44810062646865845,0.18501950800418854
4,3,64,10,0.541027843952179,0.23051463067531586
4,3,64,11,0.44517993927001953,0.14517340064048767
4,3,64,12,0.5465093851089478,0.24677017331123352
4,3,64,13,0.48636725544929504,0.12417877465486526
4,3,64,14,0.411176860332489,0.1507997065782547
4,3,64,15,0.4781205952167511,0.16750936210155487
4,3,64,16,0.5339170694351196,0.1794736236333847
4,3,64,17,0.5285065770149231,0.12659360468387604
4,3,64,18,0.49143823981285095,0.16754011809825897
4,3,64,19,0.5408885478973389,0.2186761349439621
4,3,64,20,0.502106249332428,0.24370670318603516
4,3,64,21,0.5398515462875366,0.09153200685977936
4,3,64,22,0.4212858974933624,0.23385146260261536
4,3,64,23,0.5624993443489075,0.12773266434669495
4,3,64,24,0.2962772250175476,0.08014186471700668
4,3,64,25,0.3410232961177826,0.12300370633602142
4,3,64,26,0.5245385766029358,0.08961711823940277
4,3,64,27,0.4571170210838318,0.13659444451332092
4,3,64,28,0.5317003130912781,0.0822044163942337
4,3,64,29,0.47680625319480896,0.23378708958625793
4,3,64,30,0.5139676332473755,0.17509733140468597
4,3,64,31,0.4387703239917755,0.13672135770320892
4,3,64,32,0.5379540920257568,0.13002261519432068
4,3,64,33,0.3588557541370392,0.11993936449289322
4,3,64,34,0.5072233080863953,0.24944627285003662
4,3,64,35,0.5021183490753174,0.09274392575025558
4,3,64,36,0.5987645983695984,0.13779087364673615
4,3,64,37,0.5054927468299866,0.21318809688091278
4,3,64,38,0.4419713616371155,0.14797991514205933
4,3,64,39,0.3581753075122833,0.07889140397310257
4,3,64,40,0.5587097406387329,0.21014142036437988
4,3,64,41,0.44280147552490234,0.10445555299520493
4,3,64,42,0.6345807313919067,0.12483234703540802
4,3,64,43,0.570806622505188,0.1716792732477188
4,3,64,44,0.6417229771614075,0.08606528490781784
4,3,64,45,0.4329470992088318,0.0984116792678833
4,3,64,46,0.3183775842189789,0.08607224375009537
4,3,64,47,0.48010972142219543,0.17198775708675385
4,3,64,48,0.4099878966808319,0.20607200264930725
4,3,64,49,0.42153531312942505,0.2063802033662796
4,3,64,50,0.3820887804031372,0.17492693662643433
4,3,64,51,0.5443358421325684,0.07048852741718292
4,3,64,52,0.5644633173942566,0.21413889527320862
4,3,64,53,0.5119239091873169,0.1038428470492363
4,3,64,54,0.6523227095603943,0.11545074731111526
4,3,64,55,0.5133224725723267,0.0793938934803009
4,3,64,56,0.38391968607902527,0.1909130960702896
4,3,64,57,0.6294724345207214,0.15196667611598969
4,3,64,58,0.568827211856842,0.15121100842952728
4,3,64,59,0.647376537322998,0.09481226652860641
4,3,64,60,0.5824318528175354,0.14390666782855988
4,3,64,61,0.4540037512779236,0.15802116692066193
4,3,64,62,0.4986017346382141,0.12285887449979782
4,3,64,63,0.4694732427597046,0.1472795605659485
4,4,128,0,0.6738530993461609,0.14416174590587616
4,4,128,1,0.5792763829231262,0.20296774804592133
4,4,128,2,0.6406461596488953,0.24730463325977325
4,4,128,3,0.3541448712348938,0.07545852661132812
4,4,128,4,0.600786030292511,0.04474062845110893
4,4,128,5,0.641569972038269,0.08561211079359055
4,4,128,6,0.5109090209007263,0.16318292915821075
4,4,128,7,0.8047961592674255,0.09541922062635422
4,4,128,8,0.5054065585136414,0.1038847342133522
4,4,128,9,0.6184108257293701,0.23320254683494568
4,4,128,10,0.6293429136276245,0.1959928572177887
4,4,128,11,0.5078676342964172,0.03592904657125473
4,4,128,12,0.38525331020355225,0.3086477816104889
4,4,128,13,0.4550703167915344,0.16725175082683563
4,4,128,14,0.3564807176589966,0.1794009953737259
4,4,128,15,0.3146052062511444,0.07612112164497375
4,4,128,16,0.6275590062141418,0.2596631348133087
4,4,128,17,0.5658512115478516,0.1473376303911209
4,4,128,18,0.45517197251319885,0.17205290496349335
4,4,128,19,0.706421971321106,0.1868380606174469
4,4,128,20,0.6917193531990051,0.24118372797966003
4,4,128,21,0.7357091307640076,0.10873069614171982
4,4,128,22,0.4268512725830078,0.2733548581600189
4,4,128,23,0.39952877163887024,0.3258971869945526
4,4,128,24,0.6929404139518738,0.19130843877792358
4,4,128,25,0.7816904187202454,0.13279812037944794
4,4,128,26,0.5042027831077576,0.22909356653690338
4,4,128,27,0.4423205554485321,0.11194883286952972
4,4,128,28,0.31216228008270264,0.10821745544672012
4,4,128,29,0.6129188537597656,0.28356844186782837
4,4,128,30,0.5693944096565247,0.17019061744213104
4,4,128,31,0.43142762780189514,0.0610305592417717
4,4,128,32,0.628261387348175,0.10456085950136185
4,4,128,33,0.38245490193367004,0.29316434264183044
4,4,128,34,0.4306655824184418,0.09925717115402222
4,4,128,35,0.6255218982696533,0.3471371531486511
4,4,128,36,0.6185540556907654,0.2948754131793976
4,4,128,37,0.7412823438644409,0.10235700756311417
4,4,128,38,0.611136794090271,0.19470767676830292
4,4,128,39,0.5254111289978027,0.23435571789741516
4,4,128,40,0.7509880065917969,0.09667830914258957
4,4,128,41,0.6496641635894775,0.24284103512763977
4,4,128,42,0.6327239274978638,0.26698166131973267
4,4,128,43,0.7191340327262878,0.06277396529912949
4,4,128,44,0.7864096164703369,0.11036329716444016
4,4,128,45,0.635258674621582,0.3267955780029297
4,4,128,46,0.4602702856063843,0.25311151146888733
4,4,128,47,0.7410522103309631,0.170487180352211
4,4,128,48,0.5291972160339355,0.10824504494667053
4,4,128,49,0.7232282757759094,0.11387898772954941
4,4,128,50,0.41197991371154785,0.27255889773368835
4,4,128,51,0.6216381192207336,0.08707216382026672
4,4,128,52,0.6623967289924622,0.27033531665802
4,4,128,53,0.30635693669319153,0.17720717191696167
4,4,128,54,0.4259294271469116,0.05719130486249924
4,4,128,55,0.5028278231620789,0.19220030307769775
4,4,128,56,0.5353898406028748,0.11973033100366592
4,4,128,57,0.7114614248275757,0.21621203422546387
4,4,128,58,0.7536414265632629,0.14262764155864716
4,4,128,59,0.36801090836524963,0.3343508243560791
4,4,128,60,0.436581552028656,0.14386694133281708
4,4,128,61,0.7596824169158936,0.14417874813079834
4,4,128,62,0.7113130688667297,0.09718974679708481
4,4,128,63,0.5464300513267517,0.3192315101623535
4,4,128,64,0.46947765350341797,0.19348932802677155
4,4,128,65,0.616963803768158,0.3208124339580536
4,4,128,66,0.6595708131790161,0.2106555700302124
4,4,128,67,0.3964862823486328,0.13867032527923584
4,4,128,68,0.38559725880622864,0.27649345993995667
4,4,128,69,0.6617770791053772,0.13341231644153595
4,4,128,70,0.7053886651992798,0.13071966171264648
4,4,128,71,0.552186906337738,0.20833708345890045
4,4,128,72,0.35945531725883484,0.16311699151992798
4,4,128,73,0.6550799608230591,0.22962477803230286
4,4,128,74,0.6085920333862305,0.11722556501626968
4,4,128,75,0.7969644665718079,0.11526753008365631
4,4,128,76,0.5531051754951477,0.12247588485479355
4,4,128,77,0.6725099682807922,0.1909005492925644
4,4,128,78,0.4415457546710968,0.0977955237030983
4,4,128,79,0.597240149974823,0.28327617049217224
4,4,128,80,0.4784255027770996,0.2886662781238556
4,4,128,81,0.5886223316192627,0.2458522617816925
4,4,128,82,0.33111706376075745,0.2377258688211441
4,4,128,83,0.546014666557312,0.18433858454227448
4,4,128,84,0.4058714807033539,0.15415766835212708
4,4,128,85,0.591428279876709,0.2509952187538147
4,4,128,86,0.42770272493362427,0.09153676778078079
4,4,128,87,0.5981152653694153,0.09462831914424896
4,4,128,88,0.49629679322242737,0.22208452224731445
4,4,128,89,0.7128930687904358,0.08674126118421555
4,4,128,90,0.4510045349597931,0.16824939846992493
4,4,128,91,0.43836233019828796,0.0826883465051651
4,4,128,92,0.6068087816238403,0.11630917340517044
4,4,128,93,0.6720616221427917,0.10295963287353516
4,4,128,94,0.7462565302848816,0.09346294403076172
4,4,128,95,0.6114394664764404,0.1651056706905365
4,4,128,96,0.38030925393104553,0.21712729334831238
4,4,128,97,0.7733176350593567,0.12127403914928436
4,4,128,98,0.446800172328949,0.3108956813812256
4,4,128,99,0.6383461356163025,0.22323493659496307
4,4,128,100,0.6217659711837769,0.1858312338590622
4,4,128,101,0.6426277756690979,0.0829632431268692
4,4,128,102,0.5040531158447266,0.08148264139890671
4,4,128,103,0.5064917206764221,0.18943817913532257
4,4,128,104,0.6487390995025635,0.35629042983055115
4,4,128,105,0.646672248840332,0.28122231364250183
4,4,128,106,0.7597394585609436,0.12629397213459015
4,4,128,107,0.3872315585613251,0.25938424468040466
4,4,128,108,0.5877522826194763,0.2616923153400421
4,4,128,109,0.5705218315124512,0.1489316076040268
4,4,128,110,0.5739921927452087,0.07553816586732864
4,4,128,111,0.293350487947464,0.08680368959903717
4,4,128,112,0.6172825694084167,0.12988632917404175
4,4,128,113,0.2968616485595703,0.12208779156208038
4,4,128,114,0.5714671015739441,0.17450346052646637
4,4,128,115,0.7165465950965881,0.1237446665763855
4,4,128,116,0.6585956811904907,0.24757063388824463
4,4,128,117,0.4642522931098938,0.05197613313794136
4,4,128,118,0.6417279839515686,0.07381576299667358
4,4,128,119,0.5888989567756653,0.1733207255601883
4,4,128,120,0.47077056765556335,0.12704335153102875
4,4,128,121,0.35551318526268005,0.2748456299304962
4,4,128,122,0.3628368675708771,0.19931797683238983
4,4,128,123,0.559926450252533,0.1820739060640335
4,4,128,124,0.7326852083206177,0.1476888656616211
4,4,128,125,0.7434011101722717,0.09864406287670135
4,4,128,126,0.4460194408893585,0.08954703062772751
4,4,128,127,0.6282849311828613,0.272139310836792
4,5,128,0,0.5714576244354248,0.20953483879566193
4,5,128,1,0.73093581199646,0.18196751177310944
4,5,128,2,0.7465810179710388,0.15212173759937286
4,5,128,3,0.7969661951065063,0.08128959685564041
4,5,128,4,0.4745875895023346,0.36064407229423523
4,5,128,5,0.7948076128959656,0.1197604387998581
4,5,128,6,0.701084315776825,0.2938470244407654
4,5,128,7,0.8689091801643372,0.06372683495283127
4,5,128,8,0.7806353569030762,0.1358821541070938
4,5,128,9,0.7244471311569214,0.2489902526140213
4,5,128,10,0.5864992737770081,0.3521203398704529
4,5,128,11,0.8326714634895325,0.11545461416244507
4,5,128,12,0.7298024296760559,0.1276600956916809
4,5,128,13,0.8823674917221069,0.0677504763007164
4,5,128,14,0.5902185440063477,0.2765825390815735
4,5,128,15,0.4476121962070465,0.3246995806694031
4,5,128,16,0.7219403386116028,0.21601954102516174
4,5,128,17,0.5248748660087585,0.17014311254024506
4,5,128,18,0.7914711236953735,0.21475516259670258
4,5,128,19,0.8658572435379028,0.06333072483539581
4,5,128,20,0.863998293876648,0.07317139953374863
4,5,128,21,0.7425165176391602,0.21331630647182465
4,5,128,22,0.8346176743507385,0.08011583238840103
4,5,128,23,0.3739411234855652,0.3391004800796509
4,5,128,24,0.374289333820343,0.2562156915664673
4,5,128,25,0.7761427760124207,0.15956845879554749
4,5,128,26,0.5177403688430786,0.2917340099811554
4,5,128,27,0.7429010272026062,0.2737659513950348
4,5,128,28,0.6231077313423157,0.20428508520126343
4,5,128,29,0.7286713123321533,0.23422887921333313
4,5,128,30,0.6800050139427185,0.24239687621593475
4,5,128,31,0.4934636354446411,0.34989219903945923
4,5,128,32,0.7105763554573059,0.1119132786989212
4,5,128,33,0.8658055067062378,0.09723875671625137
4,5,128,34,0.668455958366394,0.2162323147058487
4,5,128,35,0.7673669457435608,0.24178282916545868
4,5,128,36,0.8795120716094971,0.06222746893763542
4,5,128,37,0.7395955920219421,0.15777349472045898
4,5,128,38,0.7461739182472229,0.23317883908748627
4,5,128,39,0.43309706449508667,0.26568838953971863
4,5,128,40,0.43863004446029663,0.25836867094039917
4,5,128,41,0.696195125579834,0.2659643292427063
4,5,128,42,0.6724031567573547,0.25110048055648804
4,5,128,43,0.6268532276153564,0.2196533977985382
4,5,128,44,0.8939434885978699,0.0618920661509037
4,5,128,45,0.8243438601493835,0.15888173878192902
4,5,128,46,0.876748263835907,0.0716206282377243
4,5,128,47,0.7815103530883789,0.09175781905651093
4,5,128,48,0.7570881843566895,0.21218636631965637
4,5,128,49,0.751636803150177,0.23365788161754608
4,5,128,50,0.40258124470710754,0.28232425451278687
4,5,128,51,0.5260897874832153,0.24621424078941345
4,5,128,52,0.850418746471405,0.09735337644815445
4,5,128,53,0.8240896463394165,0.08772308379411697
4,5,128,54,0.6142441034317017,0.27359992265701294
4,5,128,55,0.8371984362602234,0.07324640452861786
4,5,128,56,0.712520956993103,0.25514593720436096
4,5,128,57,0.7189961671829224,0.21345338225364685
4,5,128,58,0.7744312286376953,0.20762480795383453
4,5,128,59,0.40419989824295044,0.29570508003234863
4,5,128,60,0.5059385299682617,0.2632721960544586
4,5,128,61,0.715473473072052,0.1305260956287384
4,5,128,62,0.6579774022102356,0.21308432519435883
4,5,128,63,0.8555012345314026,0.07143259793519974
4,5,128,64,0.8575281500816345,0.070797860622406
4,5,128,65,0.7017346620559692,0.21394498646259308
4,5,128,66,0.768131673336029,0.25943464040756226
4,5,128,67,0.7940419912338257,0.21023966372013092
4,5,128,68,0.7240734100341797,0.1139606237411499
4,5,128,69,0.7791838049888611,0.20157012343406677
4,5,128,70,0.6051111817359924,0.3254360258579254
4,5,128,71,0.8069607019424438,0.15481416881084442
4,5,128,72,0.4409288465976715,0.23308999836444855
4,5,128,73,0.6866868734359741,0.2395559698343277
4,5,128,74,0.8196471929550171,0.10176265239715576
4,5,128,75,0.8826813697814941,0.07498461753129959
4,5,128,76,0.8113983869552612,0.12009208649396896
4,5,128,77,0.4366259276866913,0.23144501447677612
4,5,128,78,0.4310639202594757,0.36144256591796875
4,5,128,79,0.43494343757629395,0.2495628446340561
4,5,128,80,0.4781508445739746,0.31124457716941833
4,5,128,81,0.7406835556030273,0.2563207447528839
4,5,128,82,0.5648457407951355,0.21057407557964325
4,5,128,83,0.8023330569267273,0.12166241556406021
4,5,128,84,0.7809266448020935,0.13522480428218842
4,5,128,85,0.8685442209243774,0.07981600612401962
4,5,128,86,0.4891895353794098,0.32284048199653625
4,5,128,87,0.6771257519721985,0.18081896007061005
4,5,128,88,0.7667059898376465,0.12448268383741379
4,5,128,89,0.8087126016616821,0.22704491019248962
4,5,128,90,0.6651705503463745,0.1843615025281906
4,5,128,91,0.7632763981819153,0.2008427232503891
4,5,128,92,0.38485613465309143,0.30173933506011963
4,5,128,93,0.68724524974823,0.23501965403556824
4,5,128,94,0.793850839138031,0.16665342450141907
4,5,128,95,0.2727866768836975,0.3126102685928345
4,5,128,96,0.4669749438762665,0.38980430364608765
4,5,128,97,0.8486810922622681,0.0836978331208229
4,5,128,98,0.2520061135292053,0.2667749226093292
4,5,128,99,0.7465050220489502,0.27966275811195374
4,5,128,100,0.7764188051223755,0.0682692602276802
4,5,128,101,0.6215749979019165,0.21219120919704437
4,5,128,102,0.8328959345817566,0.13327175378799438
4,5,128,103,0.6415669322013855,0.19310685992240906
4,5,128,104,0.7707270383834839,0.21392516791820526
4,5,128,105,0.8024044632911682,0.19282983243465424
4,5,128,106,0.8566190600395203,0.06505544483661652
4,5,128,107,0.21548645198345184,0.12112247198820114
4,5,128,108,0.7780924439430237,0.15867352485656738
4,5,128,109,0.7066698670387268,0.3032461702823639
4,5,128,110,0.8996871709823608,0.054415903985500336
4,5,128,111,0.459835946559906,0.3698086142539978
4,5,128,112,0.4813001751899719,0.17402474582195282
4,5,128,113,0.4145721197128296,0.19440999627113342
4,5,128,114,0.570379912853241,0.336982786655426
4,5,128,115,0.7578191757202148,0.10518424212932587
4,5,128,116,0.7922353148460388,0.10581610351800919
4,5,128,117,0.46546870470046997,0.24532821774482727
4,5,128,118,0.8493043780326843,0.0806945264339447
4,5,128,119,0.6830101609230042,0.22420790791511536
4,5,128,120,0.743823766708374,0.11132330447435379
4,5,128,121,0.46521642804145813,0.1265708953142166
4,5,128,122,0.817606508731842,0.10829449445009232
4,5,128,123,0.7860925793647766,0.14717361330986023
4,5,128,124,0.6085454821586609,0.2205134779214859
4,5,128,125,0.8646378517150879,0.08368805050849915
4,5,128,126,0.6407730579376221,0.20716790854930878
4,5,128,127,0.7387024760246277,0.2653683125972748
5,0,32,0,0.5497733354568481,0.04036131501197815
5,0,32,1,0.6032046675682068,0.12367023527622223
5,0,32,2,0.5391702651977539,0.07534755021333694
5,0,32,3,0.5126507878303528,0.03617165610194206
5,0,32,4,0.31125006079673767,0.07930980622768402
5,0,32,5,0.4612381160259247,0.040704164654016495
5,0,32,6,0.4562910199165344,0.09251752495765686
5,0,32,7,0.3247602581977844,0.0897776186466217
5,0,32,8,0.5656585097312927,0.12573672831058502
5,0,32,9,0.5306984186172485,0.08440665900707245
5,0,32,10,0.5956618785858154,0.0653153657913208
5,0,32,11,0.6271772384643555,0.12584762275218964
5,0,32,12,0.390481561422348,0.11962557584047318
5,0,32,13,0.5073820352554321,0.06794663518667221
5,0,32,14,0.4949640929698944,0.09120816737413406
5,0,32,15,0.49056240916252136,0.09341421723365784
5,0,32,16,0.6074903011322021,0.039332155138254166
5,0,32,17,0.5268808603286743,0.09310471266508102
5,0,32,18,0.5003072619438171,0.07980891317129135
5,0,32,19,0.4010332524776459,0.08361301571130753
5,0,32,20,0.5201483368873596,0.13438770174980164
5,0,32,21,0.45935505628585815,0.09550949186086655
5,0,32,22,0.5463125705718994,0.14233267307281494
5,0,32,23,0.5392376780509949,0.062276218086481094
5,0,32,24,0.539294421672821,0.07638927549123764
5,0,32,25,0.41583675146102905,0.10228680819272995
5,0,32,26,0.44771572947502136,0.08176907896995544
5,0,32,27,0.5898698568344116,0.09413445740938187
5,0,32,28,0.5625898241996765,0.07792263478040695
5,0,32,29,0.5073052048683167,0.10084012895822525
5,0,32,30,0.4649984836578369,0.04246200993657112
5,0,32,31,0.40330970287323,0.04517541453242302
5,1,32,0,0.553230881690979,0.09231214970350266
5,1,32,1,0.40643444657325745,0.10724540799856186
5,1,32,2,0.6366370916366577,0.08131572604179382
5,1,32,3,0.38189956545829773,0.11815957725048065
5,1,32,4,0.5115253925323486,0.050555549561977386
5,1,32,5,0.43687117099761963,0.10253194719552994
5,1,32,6,0.34021443128585815,0.06321676075458527
5,1,32,7,0.653553307056427,0.10642625391483307
5,1,32,8,0.5010204911231995,0.12543460726737976
5,1,32,9,0.485567569732666,0.12826025485992432
5,1,32,10,0.456722229719162,0.18017315864562988
5,1,32,11,0.6798906922340393,0.09428778290748596
5,1,32,12,0.7297635674476624,0.07840307056903839
5,1,32,13,0.5314825773239136,0.15775902569293976
5,1,32,14,0.7189520001411438,0.09193531423807144
5,1,32,15,0.6083732843399048,0.09060970693826675
5,1,32,16,0.5284491777420044,0.1080288290977478
5,1,32,17,0.4775083661079407,0.13275161385536194
5,1,32,18,0.49207955598831177,0.04027995467185974
5,1,32,19,0.48046576976776123,0.13145089149475098
5,1,32,20,0.37872567772865295,0.08208215236663818
5,1,32,21,0.484266459941864,0.038384243845939636
5,1,32,22,0.46458345651626587,0.0478188581764698
5,1,32,23,0.5702178478240967,0.043203506618738174
5,1,32,24,0.4601207673549652,0.12188999354839325
5,1,32,25,0.5932964086532593,0.1240234524011612
5,1,32,26,0.35528233647346497,0.08083855360746384
5,1,32,27,0.5646814703941345,0.11997354030609131
5,1,32,28,0.365324467420578,0.10077940672636032
5,1,32,29,0.4680512845516205,0.059238117188215256
5,1,32,30,0.5888482332229614,0.11300066858530045
5,1,32,31,0.4899592399597168,0.07673788070678711
5,2,64,0,0.4466592073440552,0.17243219912052155
5,2,64,1,0.4450131356716156,0.1900259554386139
5,2,64,2,0.5790609121322632,0.0595504529774189
5,2,64,3,0.4174104332923889,0.1529632955789566
5,2,64,4,0.6908199787139893,0.12499045580625534
5,2,64,5,0.6148886680603027,0.16898787021636963
5,2,64,6,0.6122986674308777,0.08942758291959763
5,2,64,7,0.5307482481002808,0.244177907705307
5,2,64,8,0.4573043882846832,0.15296117961406708
5,2,64,9,0.4824705719947815,0.13080762326717377
5,2,64,10,0.5125865340232849,0.2597682774066925
5,2,64,11,0.5636021494865417,0.110015869140625
5,2,64,12,0.4743540287017822,0.1360979974269867
5,2,64,13,0.4502536654472351,0.2746957838535309
5,2,64,14,0.6282464265823364,0.16567379236221313
5,2,64,15,0.445575475692749,0.1393752098083496
5,2,64,16,0.4898262619972229,0.24853481352329254
5,2,64,17,0.5583930611610413,0.11499179154634476
5,2,64,18,0.5352623462677002,0.2821425497531891
5,2,64,19,0.7431905269622803,0.09682400524616241
5,2,64,20,0.539234459400177,0.14999529719352722
5,2,64,21,0.40704086422920227,0.11446547508239746
5,2,64,22,0.46229541301727295,0.19205915927886963
5,2,64,23,0.5063275098800659,0.18260954320430756
5,2,64,24,0.6791353225708008,0.1095956414937973
5,2,64,25,0.4337266683578491,0.11167741566896439
5,2,64,26,0.4409029185771942,0.1103646382689476
5,2,64,27,0.4488902688026428,0.17102518677711487
5,2,64,28,0.5387815237045288,0.21742857992649078
5,2,64,29,0.5055991411209106,0.11759928613901138
5,2,64,30,0.45117050409317017,0.18095506727695465
5,2,64,31,0.48862749338150024,0.1464603692293167
5,2,64,32,0.6671930551528931,0.13861490786075592
5,2,64,33,0.45425328612327576,0.07669012993574142
5,2,64,34,0.4605238735675812,0.1167728379368782
5,2,64,35,0.3700316548347473,0.12074469029903412
5,2,64,36,0.6567659378051758,0.1046888455748558
5,2,64,37,0.5104880928993225,0.16402576863765717
5,2,64,38,0.5368450880050659,0.12390684336423874
5,2,64,39,0.36760663986206055,0.11174006760120392
5,2,64,40,0.592250406742096,0.09808969497680664
5,2,64,41,0.4483203887939453,0.16099141538143158
5,2,64,42,0.5315383076667786,0.16078230738639832
5,2,64,43,0.5869557857513428,0.1983473151922226
5,2,64,44,0.5891520977020264,0.14606434106826782
5,2,64,45,0.369551420211792,0.09501811116933823
5,2,64,46,0.5280233025550842,0.19282099604606628
5,2,64,47,0.5127977132797241,0.2974138855934143
5,2,64,48,0.6919068694114685,0.10891629010438919
5,2,64,49,0.5078483819961548,0.2278844714164734
5,2,64,50,0.5458546280860901,0.22042851150035858
5,2,64,51,0.4604037404060364,0.060445114970207214
5,2,64,52,0.4772709012031555,0.18679022789001465
5,2,64,53,0.5528180003166199,0.1139502227306366
5,2,64,54,0.49780669808387756,0.0484401173889637
5,2,64,55,0.48270127177238464,0.2598191797733307
5,2,64,56,0.5716592073440552,0.20386788249015808
5,2,64,57,0.5577862858772278,0.1273043155670166
5,2,64,58,0.49540042877197266,0.24084411561489105
5,2,64,59,0.5477311611175537,0.038443271070718765
5,2,64,60,0.6208082437515259,0.1823395937681198
5,2,64,61,0.5887304544448853,0.25662359595298767
5,2,64,62,0.41513630747795105,0.1269816905260086
5,2,64,63,0.5385202765464783,0.05398030951619148
5,3,64,0,0.4611424207687378,0.12439387291669846
5,3,64,1,0.5729227662086487,0.2966614067554474
5,3,64,2,0.5149520039558411,0.05408454313874245
5,3,64,3,0.5451723337173462,0.10908669233322144
5,3,64,4,0.5662934184074402,0.3115607798099518
5,3,64,5,0.3671358525753021,0.08402450382709503
5,3,64,6,0.5066806077957153,0.12496602535247803
5,3,64,7,0.410052627325058,0.2192506492137909
5,3,64,8,0.6720223426818848,0.2271663248538971
5,3,64,9,0.43597352504730225,0.07563532888889313
5,3,64,10,0.41472578048706055,0.07260750234127045
5,3,64,11,0.41811537742614746,0.20101435482501984
5,3,64,12,0.4439758360385895,0.15155883133411407
5,3,64,13,0.3404960334300995,0.06790514290332794
5,3,64,14,0.5984108448028564,0.08586201816797256
5,3,64,15,0.39117246866226196,0.10544896125793457
5,3,64,16,0.6377546787261963,0.08606445044279099
5,3,64,17,0.4787043333053589,0.16922347247600555
5,3,64,18,0.3875838816165924,0.14672118425369263
5,3,64,19,0.6361979246139526,0.09571263194084167
5,3,64,20,0.5741650462150574,0.20623211562633514
5,3,64,21,0.341360867023468,0.17933069169521332
5,3,64,22,0.47810640931129456,0.06986507773399353
5,3,64,23,0.5220255851745605,0.11249709129333496
5,3,64,24,0.31452322006225586,0.11840421706438065
5,3,64,25,0.590671718120575,0.25176364183425903
5,3,64,26,0.5441197752952576,0.11356624215841293
5,3,64,27,0.6227172613143921,0.13825169205665588
5,3,64,28,0.6496620774269104,0.08319683372974396
5,3,64,29,0.7044454216957092,0.12949319183826447
5,3,64,30,0.5849841833114624,0.1265687644481659
5,3,64,31,0.23248952627182007,0.14612604677677155
5,3,64,32,0.5859718322753906,0.23548395931720734
5,3,64,33,0.34234818816185,0.0728304386138916
5,3,64,34,0.5547725558280945,0.10090944170951843
5,3,64,35,0.31714022159576416,0.0992545634508133
5,3,64,36,0.4566921889781952,0.1733349710702896
5,3,64,37,0.5492892861366272,0.23447595536708832
5,3,64,38,0.48718753457069397,0.14786924421787262
5,3,64,39,0.7515552043914795,0.16409941017627716
5,3,64,40,0.6142834424972534,0.06432265788316727
5,3,64,41,0.36615416407585144,0.13291625678539276
5,3,64,42,0.6623474955558777,0.10104386508464813
5,3,64,43,0.6241936683654785,0.2804165184497833
5,3,64,44,0.4779603183269501,0.1889192909002304
5,3,64,45,0.3311869204044342,0.1534678339958191
5,3,64,46,0.5691041350364685,0.09864703565835953
5,3,64,47,0.4157625734806061,0.1173769161105156
5,3,64,48,0.44005143642425537,0.10622881352901459
5,3,64,49,0.7697619199752808,0.1326868087053299
5,3,64,50,0.4534738063812256,0.14500293135643005
5,3,64,51,0.7239190340042114,0.134955495595932
5,3,64,52,0.5474357008934021,0.16979138553142548
5,3,64,53,0.6140191555023193,0.10323301702737808
5,3,64,54,0.3744351267814636,0.08313822001218796
5,3,64,55,0.26573559641838074,0.17311003804206848
5,3,64,56,0.3788950741291046,0.2215578854084015
5,3,64,57,0.4753108024597168,0.10390322655439377
5,3,64,58,0.31185027956962585,0.20941799879074097
5,3,64,59,0.4249532222747803,0.1695515215396881
5,3,64,60,0.40409645438194275,0.23652638494968414
5,3,64,61,0.6421300768852234,0.26943543553352356
5,3,64,62,0.4473721385002136,0.0905403196811676
5,3,64,63,0.4417884051799774,0.20653796195983887
5,4,128,0,0.6269643902778625,0.07404328882694244
5,4,128,1,0.6575139164924622,0.29343414306640625
5,4,128,2,0.34222105145454407,0.25694942474365234
5,4,128,3,0.43748021125793457,0.35287952423095703
5,4,128,4,0.5920443534851074,0.21664753556251526
5,4,128,5,0.3884560167789459,0.22269587218761444
5,4,128,6,0.4495159983634949,0.2503276467323303
5,4,128,7,0.5891909003257751,0.34681248664855957
5,4,128,8,0.5529705882072449,0.29876694083213806
5,4,128,9,0.5096147656440735,0.18701423704624176
5,4,128,10,0.6739311218261719,0.28534752130508423
5,4,128,11,0.45666125416755676,0.21829427778720856
5,4,128,12,0.6140390038490295,0.24374912679195404
5,4,128,13,0.6551160216331482,0.27759620547294617
5,4,128,14,0.4299097955226898,0.26554641127586365
5,4,128,15,0.6275953054428101,0.33803293108940125
5,4,128,16,0.4585680663585663,0.2060295045375824
5,4,128,17,0.4358496069908142,0.2383859008550644
5,4,128,18,0.7650867104530334,0.09739742428064346
5,4,128,19,0.6386489272117615,0.27801215648651123
5,4,128,20,0.4892335832118988,0.24852794408798218
5,4,128,21,0.34839123487472534,0.2140832543373108
5,4,128,22,0.48646625876426697,0.2547857165336609
5,4,128,23,0.543640673160553,0.308200865983963
5,4,128,24,0.6005394458770752,0.3489122986793518
5,4,128,25,0.7517247796058655,0.08354482799768448
5,4,128,26,0.7505858540534973,0.1288924217224121
5,4,128,27,0.5547400712966919,0.19843243062496185
5,4,128,28,0.4992576539516449,0.26292431354522705
5,4,128,29,0.5143264532089233,0.1935243159532547
5,4,128,30,0.5445125699043274,0.3519405424594879
5,4,128,31,0.5431064963340759,0.12764307856559753
5,4,128,32,0.445804625749588,0.33680206537246704
5,4,128,33,0.5597707033157349,0.3104708790779114
5,4,128,34,0.44387730956077576,0.2580071687698364
5,4,128,35,0.5157252550125122,0.24450348317623138
5,4,128,36,0.5728853940963745,0.15393193066120148
5,4,128,37,0.5408154726028442,0.30850204825401306
5,4,128,38,0.41858863830566406,0.3196415305137634
5,4,128,39,0.4419149160385132,0.25860536098480225
5,4,128,40,0.6087039709091187,0.3335934281349182
5,4,128,41,0.7317568063735962,0.28413307666778564
5,4,128,42,0.6198762655258179,0.20285974442958832
5,4,128,43,0.5690972208976746,0.30372804403305054
5,4,128,44,0.555738091468811,0.19304463267326355
5,4,128,45,0.4996747076511383,0.25229689478874207
5,4,128,46,0.21536022424697876,0.11049138754606247
5,4,128,47,0.4125489890575409,0.2501477003097534
5,4,128,48,0.6177788972854614,0.12701374292373657
5,4,128,49,0.4278333783149719,0.24983255565166473
5,4,128,50,0.5952797532081604,0.22727122902870178
5,4,128,51,0.5448637008666992,0.2706640064716339
5,4,128,52,0.436838299036026,0.2680359184741974
5,4,128,53,0.5369917750358582,0.3591918647289276
5,4,128,54,0.324398934841156,0.22781483829021454
5,4,128,55,0.4707341492176056,0.2620553970336914
5,4,128,56,0.5458914637565613,0.29336825013160706
5,4,128,57,0.7043918967247009,0.16127997636795044
5,4,128,58,0.5969406962394714,0.26007816195487976
5,4,128,59,0.6784171462059021,0.13683323562145233
5,4,128,60,0.3119157552719116,0.0980243906378746
5,4,128,61,0.7495979070663452,0.1435818374156952
5,4,128,62,0.5559146404266357,0.2309507131576538
5,4,128,63,0.7940790057182312,0.14166104793548584
5,4,128,64,0.5960268974304199,0.2594422996044159
5,4,128,65,0.49281907081604004,0.3351736068725586
5,4,128,66,0.3656144142150879,0.2533271014690399
5,4,128,67,0.5679958462715149,0.12634514272212982
5,4,128,68,0.5734508633613586,0.16624680161476135
5,4,128,69,0.6616740822792053,0.3391687273979187
5,4,128,70,0.5151947140693665,0.28425225615501404
5,4,128,71,0.36756792664527893,0.1362035721540451
5,4,128,72,0.5507872104644775,0.2560091018676758
5,4,128,73,0.44206005334854126,0.13338568806648254
5,4,128,74,0.44826218485832214,0.2028779834508896
5,4,128,75,0.5563222169876099,0.17579567432403564
5,4,128,76,0.5322691202163696,0.3173232674598694
5,4,128,77,0.5379316806793213,0.13211116194725037
5,4,128,78,0.40154093503952026,0.14969831705093384
5,4,128,79,0.5225939750671387,0.2831306457519531
5,4,128,80,0.7015828490257263,0.15278036892414093
5,4,128,81,0.6069968938827515,0.27141696214675903
5,4,128,82,0.5652689337730408,0.23596090078353882
5,4,128,83,0.5113903284072876,0.2862097918987274
5,4,128,84,0.7324590086936951,0.14269056916236877
5,4,128,85,0.6018698215484619,0.34218019247055054
5,4,128,86,0.7127023339271545,0.11657159775495529
5,4,128,87,0.5912389159202576,0.32281967997550964
5,4,128,88,0.5084283351898193,0.12061912566423416
5,4,128,89,0.6584111452102661,0.21181869506835938
5,4,128,90,0.4664735198020935,0.2420467734336853
5,4,128,91,0.8664395809173584,0.11203238368034363
5,4,128,92,0.5881571769714355,0.21897171437740326
5,4,128,93,0.4264410734176636,0.21282562613487244
5,4,128,94,0.6797444224357605,0.18829494714736938
5,4,128,95,0.5528143048286438,0.1878424435853958
5,4,128,96,0.4802964925765991,0.2308250069618225
5,4,128,97,0.5511718988418579,0.31062301993370056
5,4,128,98,0.4853741526603699,0.2799021005630493
5,4,128,99,0.37003347277641296,0.30606603622436523
5,4,128,100,0.5907722115516663,0.34049978852272034
5,4,128,101,0.593339204788208,0.3305266499519348
5,4,128,102,0.7639822363853455,0.09949811547994614
5,4,128,103,0.4716094732284546,0.1625497043132782
5,4,128,104,0.7675317525863647,0.12577885389328003
5,4,128,105,0.35437068343162537,0.2830764055252075
5,4,128,106,0.7726689577102661,0.14184503257274628
5,4,128,107,0.4666762351989746,0.23569661378860474
5,4,128,108,0.5891757607460022,0.329153835773468
5,4,128,109,0.804233193397522,0.08594968914985657
5,4,128,110,0.6251064538955688,0.2880121171474457
5,4,128,111,0.6430476307868958,0.32435616850852966
5,4,128,112,0.5695628523826599,0.13309140503406525
5,4,128,113,0.3731175661087036,0.18141776323318481
5,4,128,114,0.5780348777770996,0.27793142199516296
5,4,128,115,0.4854092299938202,0.2662116289138794
5,4,128,116,0.3997424840927124,0.2291283756494522
5,4,128,117,0.4205654561519623,0.3304769694805145
5,4,128,118,0.5380594730377197,0.23824626207351685
5,4,128,119,0.46839702129364014,0.19869472086429596
5,4,128,120,0.4073605239391327,0.19031955301761627
5,4,128,121,0.5557249188423157,0.22155457735061646
5,4,128,122,0.37476587295532227,0.24549396336078644
5,4,128,123,0.6302424669265747,0.3182585537433624
5,4,128,124,0.5087196826934814,0.14284908771514893
5,4,128,125,0.515070915222168,0.20457550883293152
5,4,128,126,0.6216346025466919,0.27211612462997437
5,4,128,127,0.5104835629463196,0.2957393229007721
5,5,128,0,0.5514326095581055,0.12487538903951645
5,5,128,1,0.8335590958595276,0.18059103190898895
5,5,128,2,0.7250317335128784,0.24016542732715607
5,5,128,3,0.5116561651229858,0.22689510881900787
5,5,128,4,0.8038961291313171,0.10596765577793121
5,5,128,5,0.8464129567146301,0.11436938494443893
5,5,128,6,0.6414065957069397,0.12097130715847015
5,5,128,7,0.7977690696716309,0.15959490835666656
5,5,128,8,0.4726826250553131,0.24595245718955994
5,5,128,9,0.7578880190849304,0.20416302978992462
5,5,128,10,0.8230387568473816,0.17360132932662964
5,5,128,11,0.8154536485671997,0.09781438112258911
5,5,128,12,0.8811168074607849,0.10388088971376419
5,5,128,13,0.3548820912837982,0.3075776696205139
5,5,128,14,0.7146519422531128,0.32131507992744446
5,5,128,15,0.6458401679992676,0.19672152400016785
5,5,128,16,0.7103163003921509,0.2007071077823639
5,5,128,17,0.4706000089645386,0.13802769780158997
5,5,128,18,0.6653937101364136,0.18970128893852234
5,5,128,19,0.7481830716133118,0.19572021067142487
5,5,128,20,0.8206926584243774,0.097548708319664
5,5,128,21,0.31883805990219116,0.3202325105667114
5,5,128,22,0.7029995918273926,0.2608058452606201
5,5,128,23,0.8181845545768738,0.10872640460729599
5,5,128,24,0.7485394477844238,0.13656549155712128
5,5,128,25,0.7730823159217834,0.17075428366661072
5,5,128,26,0.8189834356307983,0.12878981232643127
5,5,128,27,0.7646849155426025,0.11667903512716293
5,5,128,28,0.5432943105697632,0.14624284207820892
5,5,128,29,0.7925768494606018,0.2354794442653656
5,5,128,30,0.8336544632911682,0.15651041269302368
5,5,128,31,0.808038592338562,0.10797933489084244
5,5,128,32,0.7616874575614929,0.20893558859825134
5,5,128,33,0.7288878560066223,0.24781470000743866
5,5,128,34,0.7256470322608948,0.18622130155563354
5,5,128,35,0.31509748101234436,0.21990662813186646
5,5,128,36,0.7834096550941467,0.15332289040088654
5,5,128,37,0.8443135619163513,0.1375626176595688
5,5,128,38,0.3035716712474823,0.13104549050331116
5,5,128,39,0.7755414843559265,0.09973509609699249
5,5,128,40,0.4302337169647217,0.25216859579086304
5,5,128,41,0.7787103056907654,0.2745392620563507
5,5,128,42,0.5915275812149048,0.10692433267831802
5,5,128,43,0.37944602966308594,0.17465068399906158
5,5,128,44,0.4472382664680481,0.17291872203350067
5,5,128,45,0.7791481614112854,0.21705950796604156
5,5,128,46,0.4289659857749939,0.12409566342830658
5,5,128,47,0.3721497058868408,0.13814792037010193
5,5,128,48,0.7714518904685974,0.21264347434043884
5,5,128,49,0.3313957750797272,0.28906628489494324
5,5,128,50,0.7852129936218262,0.1303921490907669
5,5,128,51,0.6775532364845276,0.2719544768333435
5,5,128,52,0.3265034556388855,0.2304799109697342
5,5,128,53,0.7449203133583069,0.18041467666625977
5,5,128,54,0.7764865159988403,0.13057826459407806
5,5,128,55,0.34867581725120544,0.3465029001235962
5,5,128,56,0.7062747478485107,0.23559004068374634
5,5,128,57,0.7304292917251587,0.13891027867794037
5,5,128,58,0.7897335290908813,0.22943787276744843
5,5,128,59,0.8027878403663635,0.11968471109867096
5,5,128,60,0.5701392889022827,0.18043336272239685
5,5,128,61,0.7206418514251709,0.14871077239513397
5,5,128,62,0.7996055483818054,0.13207753002643585
5,5,128,63,0.7463189363479614,0.25379040837287903
5,5,128,64,0.6733490824699402,0.22949635982513428
5,5,128,65,0.3898898959159851,0.1579340249300003
5,5,128,66,0.7306739091873169,0.19425737857818604
5,5,128,67,0.7826113104820251,0.21487762033939362
5,5,128,68,0.7904067635536194,0.1677214801311493
5,5,128,69,0.7665009498596191,0.1948457807302475
5,5,128,70,0.765198290348053,0.15707382559776306
5,5,128,71,0.7880761027336121,0.12863098084926605
5,5,128,72,0.4776434600353241,0.20288290083408356
5,5,128,73,0.430771142244339,0.2701914310455322
5,5,128,74,0.7269768714904785,0.2183242291212082
5,5,128,75,0.7034212946891785,0.14466644823551178
5,5,128,76,0.727297306060791,0.08563944697380066
5,5,128,77,0.7714284062385559,0.12881310284137726
5,5,128,78,0.39187806844711304,0.14124302566051483
5,5,128,79,0.689045250415802,0.21636386215686798
5,5,128,80,0.7914457321166992,0.08251188695430756
5,5,128,81,0.754149854183197,0.27950015664100647
5,5,128,82,0.847262442111969,0.11650513112545013
5,5,128,83,0.5634534358978271,0.18886098265647888
5,5,128,84,0.7899868488311768,0.09186150878667831
5,5,128,85,0.674088716506958,0.07248417288064957
5,5,128,86,0.7318341135978699,0.2428950071334839
5,5,128,87,0.7769623398780823,0.2466559112071991
5,5,128,88,0.8261083364486694,0.1753564178943634
5,5,128,89,0.8045178651809692,0.14756840467453003
5,5,128,90,0.7253285050392151,0.1048525795340538
5,5,128,91,0.8427754044532776,0.09295627474784851
5,5,128,92,0.7731035351753235,0.09176693856716156
5,5,128,93,0.4189899265766144,0.295735627412796
5,5,128,94,0.7941666841506958,0.11231344938278198
5,5,128,95,0.5366857647895813,0.24811339378356934
5,5,128,96,0.7640703320503235,0.12813393771648407
5,5,128,97,0.7198625802993774,0.22329822182655334
5,5,128,98,0.46770957112312317,0.21490710973739624
5,5,128,99,0.7097931504249573,0.21300701797008514
5,5,128,100,0.8578785061836243,0.1550258845090866
5,5,128,101,0.761850893497467,0.16672486066818237
5,5,128,102,0.8524690866470337,0.11767670512199402
5,5,128,103,0.5907503366470337,0.13849057257175446
5,5,128,104,0.8118841052055359,0.15812361240386963
5,5,128,105,0.6247944831848145,0.2400200068950653
5,5,128,106,0.7699585556983948,0.18902014195919037
5,5,128,107,0.7817738056182861,0.10422343760728836
5,5,128,108,0.467954158782959,0.1276130974292755
5,5,128,109,0.8251469731330872,0.11710995435714722
5,5,128,110,0.709377646446228,0.23274533450603485
5,5,128,111,0.7736457586288452,0.155238538980484
5,5,128,112,0.7572931051254272,0.12801159918308258
5,5,128,113,0.5029327869415283,0.20050862431526184
5,5,128,114,0.7751343250274658,0.26597586274147034
5,5,128,115,0.6833381056785583,0.24265368282794952
5,5,128,116,0.7213552594184875,0.16912855207920074
5,5,128,117,0.6840003132820129,0.18248802423477173
5,5,128,118,0.7101520895957947,0.17047707736492157
5,5,128,119,0.7490454912185669,0.26821231842041016
5,5,128,120,0.845262348651886,0.11268988251686096
5,5,128,121,0.7585186958312988,0.1468452364206314
5,5,128,122,0.3667052388191223,0.2295801043510437
5,5,128,123,0.8317210674285889,0.18560627102851868
5,5,128,124,0.7506336569786072,0.1553298979997635
5,5,128,125,0.8084750175476074,0.19636844098567963
5,5,128,126,0.7652509212493896,0.19497449696063995
5,5,128,127,0.6711260080337524,0.2082800716161728
6,0,32,0,0.5633731484413147,0.19742552936077118
6,0,32,1,0.5698236227035522,0.0987643152475357
6,0,32,2,0.5662615895271301,0.10018643736839294
6,0,32,3,0.48612046241760254,0.0914878323674202
6,0,32,4,0.45665818452835083,0.193560391664505
6,0,32,5,0.3980354964733124,0.13580043613910675
6,0,32,6,0.587287187576294,0.05091623216867447
6,0,32,7,0.3809439241886139,0.15400494635105133
6,0,32,8,0.459637850522995,0.16992869973182678
6,0,32,9,0.3651723265647888,0.1397935152053833
6,0,32,10,0.5155395865440369,0.13850238919258118
6,0,32,11,0.5584133267402649,0.11479479819536209
6,0,32,12,0.5877665877342224,0.14212045073509216
6,0,32,13,0.35639023780822754,0.1528588980436325
6,0,32,14,0.4772963225841522,0.06685086339712143
6,0,32,15,0.5260468125343323,0.1912318617105484
6,0,32,16,0.4343334436416626,0.16505976021289825
6,0,32,17,0.4134801924228668,0.18264566361904144
6,0,32,18,0.580937385559082,0.029024764895439148
6,0,32,19,0.4295206069946289,0.16421382129192352
6,0,32,20,0.566398024559021,0.09849586337804794
6,0,32,21,0.6163730025291443,0.1409468799829483
6,0,32,22,0.5032253265380859,0.08048944920301437
6,0,32,23,0.37680545449256897,0.09601767361164093
6,0,32,24,0.43101876974105835,0.12720586359500885
6,0,32,25,0.462768018245697,0.13711270689964294
6,0,32,26,0.5284369587898254,0.19294045865535736
6,0,32,27,0.42657673358917236,0.13631018996238708
6,0,32,28,0.5189027786254883,0.14926114678382874
6,0,32,29,0.5851618647575378,0.09846813976764679
6,0,32,30,0.551139771938324,0.14359690248966217
6,0,32,31,0.47430142760276794,0.11448990553617477
6,1,32,0,0.4548419415950775,0.08274660259485245
6,1,32,1,0.5820674896240234,0.05225820094347
6,1,32,2,0.47371163964271545,0.03831964731216431
6,1,32,3,0.5877249836921692,0.07380637526512146
6,1,32,4,0.5691347718238831,0.0670282393693924
6,1,32,5,0.5313783288002014,0.062198203057050705
6,1,32,6,0.5144566297531128,0.156659334897995
6,1,32,7,0.5587629079818726,0.04819019138813019
6,1,32,8,0.5008087158203125,0.05770871415734291
6,1,32,9,0.45578399300575256,0.1147409975528717
6,1,32,10,0.45841002464294434,0.036854226142168045
6,1,32,11,0.41710200905799866,0.03154933080077171
6,1,32,12,0.5431739091873169,0.07441364228725433
6,1,32,13,0.5019669532775879,0.04075257480144501
6,1,32,14,0.5341314673423767,0.03752392530441284
6,1,32,15,0.44110119342803955,0.02083924040198326
6,1,32,16,0.5025358200073242,0.05279422551393509
6,1,32,17,0.4494270384311676,0.05468720570206642
6,1,32,18,0.5387051701545715,0.07575632631778717
6,1,32,19,0.5571185350418091,0.10389723628759384
6,1,32,20,0.5277346968650818,0.04072198271751404
6,1,32,21,0.3875996768474579,0.07324695587158203
6,1,32,22,0.5161459445953369,0.09308168292045593
6,1,32,23,0.4879264533519745,0.04165208712220192
6,1,32,24,0.557903528213501,0.05964631214737892
6,1,32,25,0.42884063720703125,0.053392667323350906
6,1,32,26,0.6228188276290894,0.06378107517957687
6,1,32,27,0.5307064652442932,0.08417860418558121
6,1,32,28,0.5144815444946289,0.08417971432209015
6,1,32,29,0.5585574507713318,0.07397454977035522
6,1,32,30,0.4048217535018921,0.02486223541200161
6,1,32,31,0.5468546748161316,0.06847367435693741
6,2,64,0,0.43649059534072876,0.19220158457756042
6,2,64,1,0.32192444801330566,0.159213587641716
6,2,64,2,0.5508996844291687,0.09426698833703995
6,2,64,3,0.5710098743438721,0.2309069037437439
6,2,64,4,0.3125891089439392,0.11444687098264694
6,2,64,5,0.5356375575065613,0.25440800189971924
6,2,64,6,0.623664379119873,0.1316753774881363
6,2,64,7,0.4919726252555847,0.15001966059207916
6,2,64,8,0.5016074180603027,0.2804426848888397
6,2,64,9,0.5001859664916992,0.22708502411842346
6,2,64,10,0.6491755843162537,0.16180026531219482
6,2,64,11,0.44669342041015625,0.2867046296596527
6,2,64,12,0.5969653725624084,0.11876510083675385
6,2,64,13,0.4970996379852295,0.16715320944786072
6,2,64,14,0.5672775506973267,0.10375623404979706
6,2,64,15,0.500637412071228,0.11973454058170319
6,2,64,16,0.5233659744262695,0.22486519813537598
6,2,64,17,0.49431902170181274,0.22460389137268066
6,2,64,18,0.5653905868530273,0.11569083482027054
6,2,64,19,0.3329726755619049,0.060105100274086
6,2,64,20,0.6330318450927734,0.12825970351696014
6,2,64,21,0.4421687722206116,0.21628437936306
6,2,64,22,0.5443093180656433,0.11695144325494766
6,2,64,23,0.3861357569694519,0.19254805147647858
6,2,64,24,0.5300917625427246,0.1862058937549591
6,2,64,25,0.5208278298377991,0.19500626623630524
6,2,64,26,0.6332514882087708,0.11201844364404678
6,2,64,27,0.7291330695152283,0.1288619339466095
6,2,64,28,0.6103718280792236,0.18435142934322357
6,2,64,29,0.4542778730392456,0.2076519876718521
6,2,64,30,0.3374510109424591,0.17131482064723969
6,2,64,31,0.5594733953475952,0.13193364441394806
6,2,64,32,0.6350763440132141,0.1036963239312172
6,2,64,33,0.4431522488594055,0.17749692499637604
6,2,64,34,0.46985507011413574,0.20614007115364075
6,2,64,35,0.5182524919509888,0.09505332261323929
6,2,64,36,0.5010087490081787,0.2298516035079956
6,2,64,37,0.4441884756088257,0.10298849642276764
6,2,64,38,0.40130019187927246,0.19203780591487885
6,2,64,39,0.49558988213539124,0.1426587998867035
6,2,64,40,0.5741780400276184,0.1689366102218628
6,2,64,41,0.4777989089488983,0.21759185194969177
6,2,64,42,0.5018144845962524,0.20384885370731354
6,2,64,43,0.47139784693717957,0.22304944694042206
6,2,64,44,0.4546809792518616,0.1344318985939026
6,2,64,45,0.35601308941841125,0.2663540244102478
6,2,64,46,0.5714895129203796,0.16792044043540955
6,2,64,47,0.40424439311027527,0.20738841593265533
6,2,64,48,0.6948552131652832,0.1719212681055069
6,2,64,49,0.3521636128425598,0.13992352783679962
6,2,64,50,0.4324684739112854,0.2526935636997223
6,2,64,51,0.4722035229206085,0.1652323603630066
6,2,64,52,0.5248352885246277,0.20749087631702423
6,2,64,53,0.5329524278640747,0.06119122728705406
6,2,64,54,0.5975985527038574,0.1257881224155426
6,2,64,55,0.576744556427002,0.12528227269649506
6,2,64,56,0.5901288390159607,0.1824004054069519
6,2,64,57,0.43020936846733093,0.13544853031635284
6,2,64,58,0.43003126978874207,0.14881324768066406
6,2,64,59,0.5818006992340088,0.205760657787323
6,2,64,60,0.46233460307121277,0.216790571808815
6,2,64,61,0.45494821667671204,0.1516185849905014
6,2,64,62,0.686159610748291,0.23146142065525055
6,2,64,63,0.4847194254398346,0.12503419816493988
6,3,64,0,0.520993709564209,0.2369026392698288
6,3,64,1,0.6637605428695679,0.1312132328748703
6,3,64,2,0.41276732087135315,0.12465795874595642
6,3,64,3,0.7017871141433716,0.09629442542791367
6,3,64,4,0.3950488865375519,0.10301386564970016
6,3,64,5,0.4023965299129486,0.08591907471418381
6,3,64,6,0.6323724985122681,0.10174067318439484
6,3,64,7,0.3152434527873993,0.12619513273239136
6,3,64,8,0.5707957148551941,0.08522318303585052
6,3,64,9,0.3245372772216797,0.13795262575149536
6,3,64,10,0.3125096261501312,0.08143571764230728
6,3,64,11,0.5261518359184265,0.13493874669075012
6,3,64,12,0.45311012864112854,0.20562516152858734
6,3,64,13,0.49196818470954895,0.22436581552028656
6,3,64,14,0.5627667903900146,0.09059474617242813
6,3,64,15,0.5440903306007385,0.22348126769065857
6,3,64,16,0.38538408279418945,0.08359593152999878
6,3,64,17,0.3835098445415497,0.129835307598114
6,3,64,18,0.412299245595932,0.08751367032527924
6,3,64,19,0.4483521282672882,0.19553276896476746
6,3,64,20,0.6963253021240234,0.09652117639780045
6,3,64,21,0.4387608766555786,0.08006022870540619
6,3,64,22,0.40086138248443604,0.09758409857749939
6,3,64,23,0.5724289417266846,0.283266544342041
6,3,64,24,0.46626895666122437,0.13802172243595123
6,3,64,25,0.3450428247451782,0.09410867840051651
6,3,64,26,0.5454404354095459,0.2811574637889862
6,3,64,27,0.5602496266365051,0.21301616728305817
6,3,64,28,0.4359404444694519,0.2750580310821533
6,3,64,29,0.4790306091308594,0.0940546914935112
6,3,64,30,0.6417604088783264,0.10458452254533768
6,3,64,31,0.32250621914863586,0.18676842749118805
6,3,64,32,0.5127338171005249,0.14701901376247406
6,3,64,33,0.4699586033821106,0.17743630707263947
6,3,64,34,0.5760273933410645,0.1644171178340912
6,3,64,35,0.5896201729774475,0.17141321301460266
6,3,64,36,0.6261923313140869,0.08578075468540192
6,3,64,37,0.5800426006317139,0.05877498537302017
6,3,64,38,0.3891493082046509,0.2572405934333801
6,3,64,39,0.47794514894485474,0.14016470313072205
6,3,64,40,0.36074841022491455,0.12669087946414948
6,3,64,41,0.5592572093009949,0.29058316349983215
6,3,64,42,0.36903730034828186,0.1436450332403183
6,3,64,43,0.3629499077796936,0.10517764836549759
6,3,64,44,0.6656333804130554,0.09988836199045181
6,3,64,45,0.5309200882911682,0.3236505091190338
6,3,64,46,0.48801010847091675,0.2151797115802765
6,3,64,47,0.5291969776153564,0.038358598947525024
6,3,64,48,0.556240439414978,0.17936547100543976
6,3,64,49,0.4583660066127777,0.15896445512771606
6,3,64,50,0.6436043977737427,0.11286354809999466
6,3,64,51,0.5515373945236206,0.11709430068731308
6,3,64,52,0.6747015118598938,0.11286789923906326
6,3,64,53,0.4737381935119629,0.22440071403980255
6,3,64,54,0.6351801753044128,0.059873905032873154
6,3,64,55,0.41362956166267395,0.10732816904783249
6,3,64,56,0.5934984087944031,0.06440708786249161
6,3,64,57,0.5274655818939209,0.2499023973941803
6,3,64,58,0.7385216355323792,0.10769006609916687
6,3,64,59,0.47401106357574463,0.15432706475257874
6,3,64,60,0.7646873593330383,0.0890742763876915
6,3,64,61,0.44450679421424866,0.2699015438556671
6,3,64,62,0.5821129679679871,0.0548582561314106
6,3,64,63,0.41804298758506775,0.05351748317480087
6,4,128,0,0.3499529957771301,0.3158232271671295
