subject,channel,alpha,f1,drop_pp
156,0,1.0,0.6346924272072676,0.0
156,0,0.75,0.662358576841278,-2.7666149634010373
156,0,0.5,0.6689844025099816,-3.4291975302713995
156,0,0.25,0.6565948188803339,-2.190239167306629
156,0,0.0,0.6420683314835736,-0.7375904276305967
156,1,1.0,0.6346924272072676,0.0
156,1,0.75,0.6270582992508049,0.7634127956462677
156,1,0.5,0.6114623401008847,2.3230087106382857
156,1,0.25,0.5821249984379788,5.256742876928877
156,1,0.0,0.5297097805130786,10.4982646694189
156,2,1.0,0.6346924272072676,0.0
156,2,0.75,0.6514210265789905,-1.6728599371722885
156,2,0.5,0.6465493860120776,-1.185695880480997
156,2,0.25,0.6056435146831829,2.9048912524084702
156,2,0.0,0.5597673291528036,7.492509805446401
156,3,1.0,0.6346924272072676,0.0
156,3,0.75,0.6338262427471354,0.08661844601322022
156,3,0.5,0.6239476692119166,1.0744757995351017
156,3,0.25,0.6129930862744873,2.1699340932780253
156,3,0.0,0.5956411759366483,3.905125127061926
156,4,1.0,0.6346924272072676,0.0
156,4,0.75,0.6348213772556579,-0.012895004839030832
156,4,0.5,0.6288688001129542,0.5823627094313388
156,4,0.25,0.623117010468267,1.1575416739000643
156,4,0.0,0.6138865740476693,2.0805853159598264
156,5,1.0,0.6346924272072676,0.0
156,5,0.75,0.6183233478828523,1.6369079324415337
156,5,0.5,0.5908951055450311,4.379732166223649
156,5,0.25,0.5542211993671142,8.047122784015336
156,5,0.0,0.4718298780780382,16.28625491292294
156,6,1.0,0.6346924272072676,0.0
156,6,0.75,0.6364557381076154,-0.17633109003477587
156,6,0.5,0.635235443308976,-0.05430161017083712
156,6,0.25,0.6329737916142426,0.17186355930249864
156,6,0.0,0.6335404802594259,0.11519469478417088
185,0,1.0,0.6314753545999505,0.0
185,0,0.75,0.641423181695335,-0.9947827095384443
185,0,0.5,0.6417029349872916,-1.0227580387341062
185,0,0.25,0.6296119191494445,0.18634354505060458
185,0,0.0,0.6183997345118862,1.3075620088064288
185,1,1.0,0.6314753545999505,0.0
185,1,0.75,0.6196551779397751,1.182017666017543
185,1,0.5,0.601146691590988,3.032866300896253
185,1,0.25,0.540580231508762,9.089512309118852
185,1,0.0,0.44530225262896117,18.617310197098934
185,2,1.0,0.6314753545999505,0.0
185,2,0.75,0.624230690579398,0.7244664020552571
185,2,0.5,0.6057879280401726,2.568742655977796
185,2,0.25,0.5687835826632259,6.269177193672459
185,2,0.0,0.518164780191153,11.331057440879755
185,3,1.0,0.6314753545999505,0.0
185,3,0.75,0.6266655775837957,0.4809777016154815
185,3,0.5,0.6179985616669981,1.3476792932952453
185,3,0.25,0.6120899657289862,1.9385388870964304
185,3,0.0,0.6007314082576658,3.0743946342284723
185,4,1.0,0.6314753545999505,0.0
185,4,0.75,0.6237683975440876,0.7706957055862884
185,4,0.5,0.6094010190183556,2.2074335581594884
185,4,0.25,0.5760913211090948,5.538403349085574
185,4,0.0,0.5424794812368128,8.899587336313775
185,5,1.0,0.6314753545999505,0.0
185,5,0.75,0.6488319307343512,-1.735657613440067
185,5,0.5,0.6482222169990399,-1.6746862399089402
185,5,0.25,0.624913000728986,0.6562353870964488
185,5,0.0,0.5472236172996837,8.42517373002668
185,6,1.0,0.6314753545999505,0.0
185,6,0.75,0.6288006803929365,0.26746742070140606
185,6,0.5,0.6213539931718709,1.0121361428079623
185,6,0.25,0.6102059789490983,2.1269375650852185
185,6,0.0,0.598036424866759,3.3438929733191514
186,0,1.0,0.7372770670343533,0.0
186,0,0.75,0.7198290943739336,1.7447972660419642
186,0,0.5,0.6957875442558075,4.148952277854578
186,0,0.25,0.670266114049656,6.701095298469728
186,0,0.0,0.6474896977852099,8.978736924914333
186,1,1.0,0.7372770670343533,0.0
186,1,0.75,0.7401392542243443,-0.28621871899910944
186,1,0.5,0.708224969428472,2.9052097605881233
186,1,0.25,0.603594720209763,13.368234682459024
186,1,0.0,0.4410654341678732,29.621163286648006
186,2,1.0,0.7372770670343533,0.0
186,2,0.75,0.7421487679607063,-0.48717009263530286
186,2,0.5,0.7198809507748124,1.739611625954085
186,2,0.25,0.6669353182756959,7.034174875865739
186,2,0.0,0.6050248572463248,13.225220978802843
186,3,1.0,0.7372770670343533,0.0
186,3,0.75,0.7432071125035666,-0.5930045469213385
186,3,0.5,0.7346479837165973,0.2629083317755909
186,3,0.25,0.7265613731923397,1.071569384201354
186,3,0.0,0.7194402128839196,1.7836854150433679
186,4,1.0,0.7372770670343533,0.0
186,4,0.75,0.724404882074538,1.2872184959815236
186,4,0.5,0.7040987118923046,3.31783551420487
186,4,0.25,0.6709385975687627,6.633846946559052
186,4,0.0,0.6521340578230669,8.514300921128637
186,5,1.0,0.7372770670343533,0.0
186,5,0.75,0.7206746098942538,1.6602457140099447
186,5,0.5,0.664613293174056,7.2663773860297205
186,5,0.25,0.5842393892683387,15.30376777660145
186,5,0.0,0.49283529042546603,24.444177660888723
186,6,1.0,0.7372770670343533,0.0
186,6,0.75,0.7370501326552406,0.022693437911269765
186,6,0.5,0.7357169618503384,0.15601051840148372
186,6,0.25,0.7273174434581018,0.9959623576251464
186,6,0.0,0.7070507554491129,3.022631158524036
188,0,1.0,0.5143165672855797,0.0
188,0,0.75,0.5124140732348852,0.19024940506945365
188,0,0.5,0.5075326341297544,0.6783933155825372
188,0,0.25,0.49804170334211,1.627486394346972
188,0,0.0,0.49091447875954775,2.3402088526031983
188,1,1.0,0.5143165672855797,0.0
188,1,0.75,0.5118198737745236,0.24966935110560806
188,1,0.5,0.5136045934370375,0.07119738485422689
188,1,0.25,0.49813609413958204,1.6180473145997687
188,1,0.0,0.48818698105232816,2.6129586233251567
188,2,1.0,0.5143165672855797,0.0
188,2,0.75,0.5040560351214075,1.026053216417222
188,2,0.5,0.49088099087045733,2.3435576415122394
188,2,0.25,0.4582402092744804,5.607635801109934
188,2,0.0,0.4346474369122222,7.966913037335754
188,3,1.0,0.5143165672855797,0.0
188,3,0.75,0.5074918670681057,0.6824700217474056
188,3,0.5,0.49797408705976437,1.634248022581536
188,3,0.25,0.48965174380454235,2.466482348103738
188,3,0.0,0.47464032052399463,3.96762467615851
188,4,1.0,0.5143165672855797,0.0
188,4,0.75,0.5111155419221127,0.3201025363467003
188,4,0.5,0.5088599437420589,0.5456623543520833
188,4,0.25,0.5161784832949775,-0.18619160093977793
188,4,0.0,0.5085124120615256,0.5804155224054086
188,5,1.0,0.5143165672855797,0.0
188,5,0.75,0.5376142956452424,-2.3297728359662706
188,5,0.5,0.5534637600024536,-3.9147192716873835
188,5,0.25,0.5258096145008414,-1.1493047215261676
188,5,0.0,0.495874790868288,1.8441776417291722
188,6,1.0,0.5143165672855797,0.0
188,6,0.75,0.515812061923234,-0.14954946376543043
188,6,0.5,0.5161809182626241,-0.18643509770444044
188,6,0.25,0.5167594137059774,-0.24428464203977152
188,6,0.0,0.5189013293909293,-0.4584762105349527
189,0,1.0,0.6754912967856267,0.0
189,0,0.75,0.6779345780133503,-0.2443281227723637
189,0,0.5,0.6614685873626143,1.4022709423012425
189,0,0.25,0.6406589747565171,3.4832322029109575
189,0,0.0,0.5966618876844904,7.882940910113634
189,1,1.0,0.6754912967856267,0.0
189,1,0.75,0.6652821332528621,1.0209163532764576
189,1,0.5,0.6401695788667823,3.532171791884442
189,1,0.25,0.5977630047837112,7.772829200191545
189,1,0.0,0.5448236312642218,13.066766552140486
189,2,1.0,0.6754912967856267,0.0
189,2,0.75,0.6814306475667335,-0.5939350781106856
189,2,0.5,0.6660858365070766,0.9405460278550049
189,2,0.25,0.606321355579811,6.916994120581565
189,2,0.0,0.5480392020260899,12.74520947595368
189,3,1.0,0.6754912967856267,0.0
189,3,0.75,0.6740158090232427,0.14754877623840423
189,3,0.5,0.6687637441955862,0.6727552590040542
189,3,0.25,0.6611411407250044,1.4350156060622288
189,3,0.0,0.6480016875133422,2.74896092722845
189,4,1.0,0.6754912967856267,0.0
189,4,0.75,0.6767528415428979,-0.1261544757271249
189,4,0.5,0.6693403890476224,0.6150907738004308
189,4,0.25,0.6561340816431322,1.9357215142494444
189,4,0.0,0.6379680168121881,3.752327997343863
189,5,1.0,0.6754912967856267,0.0
189,5,0.75,0.6669045233703389,0.8586773415287796
189,5,0.5,0.6312101480694359,4.428114871619082
189,5,0.25,0.536746471762969,13.874482502265773
189,5,0.0,0.3977133074981881,27.777798928743856
189,6,1.0,0.6754912967856267,0.0
189,6,0.75,0.6719868062527954,0.3504490532831306
189,6,0.5,0.6736687332882707,0.1822563497355989
189,6,0.25,0.671788161131029,0.3703135654597678
189,6,0.0,0.6577279410990353,1.7763355686591376
190,0,1.0,0.5201576217988031,0.0
190,0,0.75,0.5652203317722215,-4.5062709973418436
190,0,0.5,0.5841997048736505,-6.404208307484738
190,0,0.25,0.5728786492475566,-5.272102744875351
190,0,0.0,0.5369679116235317,-1.6810289824728653
190,1,1.0,0.5201576217988031,0.0
190,1,0.75,0.47075420820203373,4.940341359676936
190,1,0.5,0.408385741807425,11.17718799913781
190,1,0.25,0.3556586538311334,16.44989679676697
190,1,0.0,0.3131074021359811,20.7050219662822
190,2,1.0,0.5201576217988031,0.0
190,2,0.75,0.5244446226505921,-0.42870008517890135
190,2,0.5,0.5103804844770595,0.9777137321743568
190,2,0.25,0.4776238380779764,4.253378372082667
190,2,0.0,0.4426463534075727,7.751126839123041
190,3,1.0,0.5201576217988031,0.0
190,3,0.75,0.53936073180488,-1.9203110006076884
190,3,0.5,0.5439187111330053,-2.376108933420218
190,3,0.25,0.5423326763840238,-2.2175054585220733
190,3,0.0,0.5502039927819515,-3.004637098314844
190,4,1.0,0.5201576217988031,0.0
190,4,0.75,0.5170388865066471,0.3118735292156005
190,4,0.5,0.5142196821869693,0.5937939611833754
190,4,0.25,0.5146860275417975,0.5471594257005608
190,4,0.0,0.5201168674891896,0.00407543096134777
190,5,1.0,0.5201576217988031,0.0
190,5,0.75,0.5339802605938582,-1.3822638795055076
190,5,0.5,0.5269905258447602,-0.6832904045957156
190,5,0.25,0.4941787386991653,2.5978883099637806
190,5,0.0,0.44589480766488876,7.426281413391433
190,6,1.0,0.5201576217988031,0.0
190,6,0.75,0.5351198713542538,-1.4962249555450668
190,6,0.5,0.5414684814810133,-2.131085968221025
190,6,0.25,0.5409599947638158,-2.080237296501275
190,6,0.0,0.5232915619849343,-0.3133940186131223
191,0,1.0,0.5515584610015429,0.0
191,0,0.75,0.5354760765502481,1.608238445129484
191,0,0.5,0.5158714137527047,3.56870472488382
191,0,0.25,0.4762437357848447,7.531472521669825
191,0,0.0,0.4448528731241925,10.67055878773504
191,1,1.0,0.5515584610015429,0.0
191,1,0.75,0.5856432899643698,-3.408482896282683
191,1,0.5,0.5909332098630118,-3.9374748861468856
191,1,0.25,0.5693300787026933,-1.7771617701150322
191,1,0.0,0.5265615075805878,2.4996953420955093
191,2,1.0,0.5515584610015429,0.0
191,2,0.75,0.5382889213576239,1.3269539643919082
191,2,0.5,0.5321066633037883,1.9451797697754625
191,2,0.25,0.5086706488403134,4.28878121612295
191,2,0.0,0.475059692362356,7.649876863918692
191,3,1.0,0.5515584610015429,0.0
191,3,0.75,0.5832438507519506,-3.168538975040769
191,3,0.5,0.5986214928072447,-4.706303180570181
191,3,0.25,0.6024832270367131,-5.0924766035170155
191,3,0.0,0.6061884726143141,-5.4630011612771145
191,4,1.0,0.5515584610015429,0.0
191,4,0.75,0.5602218142786811,-0.8663353277138186
191,4,0.5,0.5640482652767145,-1.2489804275171545
191,4,0.25,0.5562163692444718,-0.46579082429288876
191,4,0.0,0.5275051738620434,2.40532871394995
191,5,1.0,0.5515584610015429,0.0
191,5,0.75,0.5474855305254506,0.40729304760923624
191,5,0.5,0.5235216123155427,2.8036848686000204
191,5,0.25,0.469550123513098,8.200833748844493
191,5,0.0,0.3964275286133598,15.513093238818316
191,6,1.0,0.5515584610015429,0.0
191,6,0.75,0.5488394420627528,0.27190189387901187
191,6,0.5,0.5537473205631583,-0.21888595616154083
191,6,0.25,0.5592910822587976,-0.7732621257254713
191,6,0.0,0.5602743026231193,-0.8715841621576348
192,0,1.0,0.44264942305570576,0.0
192,0,0.75,0.4434493340414333,-0.07999109857275144
192,0,0.5,0.4282734067818399,1.4376016273865866
192,0,0.25,0.39778673684891575,4.4862686206790015
192,0,0.0,0.3751028450435646,6.7546578012141145
192,1,1.0,0.44264942305570576,0.0
192,1,0.75,0.41990517982730746,2.2744243228398298
192,1,0.5,0.3865186513333737,5.613077172233205
192,1,0.25,0.35487057625253005,8.777884680317571
192,1,0.0,0.32903985282201165,11.360957023369412
192,2,1.0,0.44264942305570576,0.0
192,2,0.75,0.430567736007257,1.2081687048448753
192,2,0.5,0.40276920291977947,3.988022013592629
192,2,0.25,0.36555231396873145,7.709710908697431
192,2,0.0,0.33884598056552506,10.38034424901807
192,3,1.0,0.44264942305570576,0.0
192,3,0.75,0.4488525427393255,-0.6203119683619751
192,3,0.5,0.4553017033855,-1.2652280329794263
192,3,0.25,0.4619744364203162,-1.9325013364610455
192,3,0.0,0.45452673457235887,-1.187731151665311
192,4,1.0,0.44264942305570576,0.0
192,4,0.75,0.43509007989707316,0.7559343158632603
192,4,0.5,0.41671379354353266,2.5935629512173097
192,4,0.25,0.410403695975613,3.2245727080092768
192,4,0.0,0.39007913522858306,5.25702878271227
192,5,1.0,0.44264942305570576,0.0
192,5,0.75,0.44971518224927454,-0.7065759193568777
192,5,0.5,0.450792388499767,-0.8142965444061234
192,5,0.25,0.42101526372643605,2.163415932926971
192,5,0.0,0.3826629486349019,5.998647442080385
192,6,1.0,0.44264942305570576,0.0
192,6,0.75,0.45409710548954013,-1.1447682433834372
192,6,0.5,0.46263411985549796,-1.99846967997922
192,6,0.25,0.4584796025538489,-1.5830179498143138
192,6,0.0,0.4487935159199583,-0.6144092864252548
193,0,1.0,0.57118393604022,0.0
193,0,0.75,0.5732708948074894,-0.20869587672693868
193,0,0.5,0.5617575996247226,0.9426336415497394
193,0,0.25,0.5108530284198535,6.033090762036652
193,0,0.0,0.47364288642710994,9.754104961311006
193,1,1.0,0.57118393604022,0.0
193,1,0.75,0.5617850672896405,0.9398868750579492
193,1,0.5,0.5339461235210237,3.7237812519196334
193,1,0.25,0.4979969998269385,7.318693621328149
193,1,0.0,0.44511467679324934,12.606925924697066
193,2,1.0,0.57118393604022,0.0
193,2,0.75,0.5547218930273583,1.6462043012861693
193,2,0.5,0.5361241349579464,3.505980108227358
193,2,0.25,0.5201000355941602,5.108390044605981
193,2,0.0,0.5087898635175503,6.239407252266971
193,3,1.0,0.57118393604022,0.0
193,3,0.75,0.5701622379162081,0.10216981240118717
193,3,0.5,0.5560834059966115,1.510053004360845
193,3,0.25,0.5452230489834693,2.5960887056750703
193,3,0.0,0.5364653540301217,3.4718582010098253
193,4,1.0,0.57118393604022,0.0
193,4,0.75,0.5918699197577002,-2.0685983717480205
193,4,0.5,0.5968167947813936,-2.5632858741173603
193,4,0.25,0.5875974540224498,-1.6413517982229786
193,4,0.0,0.554707580613004,1.6476355427216038
193,5,1.0,0.57118393604022,0.0
193,5,0.75,0.555703863010641,1.548007302957899
193,5,0.5,0.548081841770987,2.310209426923304
193,5,0.25,0.5151050257036341,5.607891033658586
193,5,0.0,0.48197170918309423,8.921222685712577
193,6,1.0,0.57118393604022,0.0
193,6,0.75,0.5595713060699585,1.1612629970261468
193,6,0.5,0.548911663389592,2.2272272650628033
193,6,0.25,0.548449138287807,2.273479775241305
193,6,0.0,0.5482437904254617,2.2940145614758323
194,0,1.0,0.7578688126027822,0.0
194,0,0.75,0.7425421598016563,1.5326652801125884
194,0,0.5,0.7128785991625154,4.499021344026676
194,0,0.25,0.6751083238966441,8.276048870613806
194,0,0.0,0.6533504676143325,10.45183449884497
194,1,1.0,0.7578688126027822,0.0
194,1,0.75,0.7536140171124086,0.4254795490373553
194,1,0.5,0.7481649587918975,0.9703853810884677
194,1,0.25,0.725937037819726,3.19317747830562
194,1,0.0,0.678392695171598,7.947611743118421
194,2,1.0,0.7578688126027822,0.0
194,2,0.75,0.7620203689894447,-0.4151556386662536
194,2,0.5,0.7524464711050369,0.5422341497745231
194,2,0.25,0.7138000306886914,4.40687819140908
194,2,0.0,0.6694955981230138,8.837321447976832
194,3,1.0,0.7578688126027822,0.0
194,3,0.75,0.7518468024641163,0.6022010138665879
194,3,0.5,0.7487038790554019,0.9164933547380238
194,3,0.25,0.7442135258222133,1.365528678056882
194,3,0.0,0.7382303031651469,1.9638509437635232
194,4,1.0,0.7578688126027822,0.0
194,4,0.75,0.7598152439339773,-0.19464313311950976
194,4,0.5,0.755863357581845,0.20054550209371858
194,4,0.25,0.7390098877755531,1.8858924827229062
194,4,0.0,0.6979456047380299,5.992320786475225
194,5,1.0,0.7578688126027822,0.0
194,5,0.75,0.7540696520231603,0.37991605796218186
194,5,0.5,0.7356399944472702,2.222881815551192
194,5,0.25,0.6829365877887785,7.493222481400363
194,5,0.0,0.602335422766741,15.553338983604114
194,6,1.0,0.7578688126027822,0.0
194,6,0.75,0.7589602527885728,-0.10914401857906597
194,6,0.5,0.7617610148884237,-0.3892202285641577
194,6,0.25,0.7562046876672737,0.1664124935508493
194,6,0.0,0.7454703157308281,1.2398496871954046
