subject,block,block_width,feature_channel,gate_mean,gate_sd
156,0,32,0,0.5354287624359131,0.018638933077454567
156,0,32,1,0.4383585453033447,0.06723123788833618
156,0,32,2,0.611334502696991,0.06771627068519592
156,0,32,3,0.43005990982055664,0.04311196878552437
156,0,32,4,0.4377642571926117,0.05045999959111214
156,0,32,5,0.4108980894088745,0.03418244421482086
156,0,32,6,0.48583081364631653,0.015063184313476086
156,0,32,7,0.5663362741470337,0.019148698076605797
156,0,32,8,0.47766920924186707,0.037602748721838
156,0,32,9,0.5201183557510376,0.056106749922037125
156,0,32,10,0.5760177373886108,0.08787085860967636
156,0,32,11,0.5761184096336365,0.04171347618103027
156,0,32,12,0.4937397837638855,0.05441084876656532
156,0,32,13,0.47266027331352234,0.04013630375266075
156,0,32,14,0.38246050477027893,0.055114176124334335
156,0,32,15,0.5862936973571777,0.06964338570833206
156,0,32,16,0.4532325267791748,0.04293561354279518
156,0,32,17,0.5166226625442505,0.0233897902071476
156,0,32,18,0.5262808203697205,0.027158223092556
156,0,32,19,0.4580861032009125,0.05312976613640785
156,0,32,20,0.3390045464038849,0.05506516620516777
156,0,32,21,0.43927568197250366,0.03216322511434555
156,0,32,22,0.3550046384334564,0.03175428509712219
156,0,32,23,0.4358641505241394,0.041589487344026566
156,0,32,24,0.6156249642372131,0.0456966757774353
156,0,32,25,0.5256817936897278,0.061378248035907745
156,0,32,26,0.5997018218040466,0.08253698796033859
156,0,32,27,0.6170628666877747,0.06659568101167679
156,0,32,28,0.6000411510467529,0.0480339489877224
156,0,32,29,0.6338111758232117,0.08337148278951645
156,0,32,30,0.5249892473220825,0.06669004261493683
156,0,32,31,0.49075302481651306,0.044318415224552155
156,1,32,0,0.5889326930046082,0.06972160190343857
156,1,32,1,0.43974733352661133,0.06054047867655754
156,1,32,2,0.5570818781852722,0.024944497272372246
156,1,32,3,0.5784697532653809,0.046871770173311234
156,1,32,4,0.5569992065429688,0.05406961962580681
156,1,32,5,0.5671564936637878,0.057104889303445816
156,1,32,6,0.6555848121643066,0.06446990370750427
156,1,32,7,0.4884508550167084,0.03605233132839203
156,1,32,8,0.6004049181938171,0.06693698465824127
156,1,32,9,0.6154058575630188,0.02368071675300598
156,1,32,10,0.4560927450656891,0.04994227737188339
156,1,32,11,0.4881014823913574,0.027608824893832207
156,1,32,12,0.6393486857414246,0.02838337980210781
156,1,32,13,0.48394522070884705,0.02837461046874523
156,1,32,14,0.5705843567848206,0.046743690967559814
156,1,32,15,0.5862172245979309,0.061049021780490875
156,1,32,16,0.39389002323150635,0.04597720876336098
156,1,32,17,0.5553428530693054,0.04973823204636574
156,1,32,18,0.5835248827934265,0.009398097172379494
156,1,32,19,0.5230821967124939,0.04444897174835205
156,1,32,20,0.512093186378479,0.04495944827795029
156,1,32,21,0.45773518085479736,0.08284623175859451
156,1,32,22,0.43795812129974365,0.0339881107211113
156,1,32,23,0.6257776618003845,0.050367746502161026
156,1,32,24,0.392475962638855,0.057075098156929016
156,1,32,25,0.5127782225608826,0.03530331328511238
156,1,32,26,0.36074891686439514,0.03574595972895622
156,1,32,27,0.3285924196243286,0.05784814804792404
156,1,32,28,0.49777114391326904,0.0670764371752739
156,1,32,29,0.4969339072704315,0.08616286516189575
156,1,32,30,0.46670976281166077,0.04641059413552284
156,1,32,31,0.5642408132553101,0.04358185455203056
156,2,64,0,0.45706772804260254,0.03862665593624115
156,2,64,1,0.510942280292511,0.05137702822685242
156,2,64,2,0.41560518741607666,0.04644104465842247
156,2,64,3,0.5184652209281921,0.07015213370323181
156,2,64,4,0.4129815399646759,0.058011867105960846
156,2,64,5,0.4630906581878662,0.059426382184028625
156,2,64,6,0.531270444393158,0.06228829547762871
156,2,64,7,0.6404176354408264,0.0526956245303154
156,2,64,8,0.4209651052951813,0.055727094411849976
156,2,64,9,0.501484751701355,0.11672186106443405
156,2,64,10,0.5892724990844727,0.04642953351140022
156,2,64,11,0.5735716819763184,0.08431845903396606
156,2,64,12,0.5525814890861511,0.04825710505247116
156,2,64,13,0.47770851850509644,0.0860963985323906
156,2,64,14,0.6702843308448792,0.10042241960763931
156,2,64,15,0.3559229075908661,0.07416406273841858
156,2,64,16,0.41806039214134216,0.07216992974281311
156,2,64,17,0.5812762379646301,0.06368895620107651
156,2,64,18,0.5894970893859863,0.09562835842370987
156,2,64,19,0.41830986738204956,0.04365437477827072
156,2,64,20,0.48514360189437866,0.08369144797325134
156,2,64,21,0.46301037073135376,0.09065453708171844
156,2,64,22,0.4984307587146759,0.08123645186424255
156,2,64,23,0.31958916783332825,0.08112064749002457
156,2,64,24,0.4649897515773773,0.07322988659143448
156,2,64,25,0.48746973276138306,0.08679740875959396
156,2,64,26,0.5828447341918945,0.059951215982437134
156,2,64,27,0.6034864187240601,0.07966046780347824
156,2,64,28,0.5741124749183655,0.07439364492893219
156,2,64,29,0.44637492299079895,0.053785476833581924
156,2,64,30,0.6279916167259216,0.08586359769105911
156,2,64,31,0.5373546481132507,0.05550212413072586
156,2,64,32,0.5458986163139343,0.06893792748451233
156,2,64,33,0.535658597946167,0.06714686751365662
156,2,64,34,0.4682548940181732,0.02783869579434395
156,2,64,35,0.5271902680397034,0.07469268143177032
156,2,64,36,0.4982421100139618,0.04275910556316376
156,2,64,37,0.6138232350349426,0.0780467614531517
156,2,64,38,0.48115989565849304,0.08123781532049179
156,2,64,39,0.5827251672744751,0.05184120312333107
156,2,64,40,0.4827984869480133,0.05501928925514221
156,2,64,41,0.4491458833217621,0.09370462596416473
156,2,64,42,0.47240447998046875,0.07122709602117538
156,2,64,43,0.5387292504310608,0.062239885330200195
156,2,64,44,0.49128031730651855,0.04776092618703842
156,2,64,45,0.5190174579620361,0.04186099022626877
156,2,64,46,0.49459174275398254,0.07801361382007599
156,2,64,47,0.5468326210975647,0.0596180334687233
156,2,64,48,0.49600929021835327,0.09284703433513641
156,2,64,49,0.4635973572731018,0.06326025724411011
156,2,64,50,0.5035070776939392,0.05449780076742172
156,2,64,51,0.43416979908943176,0.048405639827251434
156,2,64,52,0.457148015499115,0.11148231476545334
156,2,64,53,0.5784282684326172,0.06168194115161896
156,2,64,54,0.5394631624221802,0.02453218586742878
156,2,64,55,0.4104899764060974,0.08425948768854141
156,2,64,56,0.45404475927352905,0.060618698596954346
156,2,64,57,0.5019654035568237,0.05467574670910835
156,2,64,58,0.5320387482643127,0.04959230124950409
156,2,64,59,0.6213375329971313,0.07583960145711899
156,2,64,60,0.5587741732597351,0.04239729419350624
156,2,64,61,0.5352823138237,0.05486725643277168
156,2,64,62,0.5393532514572144,0.1052732765674591
156,2,64,63,0.5466858148574829,0.06347571313381195
156,3,64,0,0.4456559717655182,0.05548916384577751
156,3,64,1,0.6343256235122681,0.1336820125579834
156,3,64,2,0.35030144453048706,0.11378754675388336
156,3,64,3,0.470683753490448,0.13117040693759918
156,3,64,4,0.5556980967521667,0.0702625960111618
156,3,64,5,0.4601384103298187,0.12254827469587326
156,3,64,6,0.35916948318481445,0.10880881547927856
156,3,64,7,0.5115393400192261,0.06259056180715561
156,3,64,8,0.5645132660865784,0.11916231364011765
156,3,64,9,0.4980194568634033,0.03813488408923149
156,3,64,10,0.4186495840549469,0.127951517701149
156,3,64,11,0.4412504732608795,0.09394040703773499
156,3,64,12,0.5776373744010925,0.18723566830158234
156,3,64,13,0.5161332488059998,0.033886849880218506
156,3,64,14,0.37233081459999084,0.16479748487472534
156,3,64,15,0.5390927791595459,0.13257518410682678
156,3,64,16,0.4325650632381439,0.031534742563962936
156,3,64,17,0.4858419895172119,0.07252812385559082
156,3,64,18,0.6085308790206909,0.07846590131521225
156,3,64,19,0.44462689757347107,0.04448499530553818
156,3,64,20,0.4277113080024719,0.1425451636314392
156,3,64,21,0.5591253638267517,0.07707087695598602
156,3,64,22,0.5919438600540161,0.11556750535964966
156,3,64,23,0.49390050768852234,0.10637669265270233
156,3,64,24,0.5345942378044128,0.05120890215039253
156,3,64,25,0.5032173991203308,0.08008360117673874
156,3,64,26,0.36895447969436646,0.10997991263866425
156,3,64,27,0.5481429696083069,0.11686284840106964
156,3,64,28,0.6134217381477356,0.16668173670768738
156,3,64,29,0.36199524998664856,0.10459265112876892
156,3,64,30,0.4928267002105713,0.043072156608104706
156,3,64,31,0.6023069620132446,0.09213460236787796
156,3,64,32,0.42991968989372253,0.05137846991419792
156,3,64,33,0.49838021397590637,0.0337141714990139
156,3,64,34,0.5867106914520264,0.02591901272535324
156,3,64,35,0.400339812040329,0.0719715878367424
156,3,64,36,0.46032801270484924,0.047209206968545914
156,3,64,37,0.3551286458969116,0.10844465345144272
156,3,64,38,0.4852175712585449,0.0381421335041523
156,3,64,39,0.545429527759552,0.08151117712259293
156,3,64,40,0.3909930884838104,0.0826820656657219
156,3,64,41,0.4967126250267029,0.03243017569184303
156,3,64,42,0.45373767614364624,0.09888578951358795
156,3,64,43,0.49403440952301025,0.10208361595869064
156,3,64,44,0.4025115668773651,0.11813650280237198
156,3,64,45,0.476555198431015,0.05358864367008209
156,3,64,46,0.3679260313510895,0.057578422129154205
156,3,64,47,0.6144867539405823,0.09699053317308426
156,3,64,48,0.34365516901016235,0.11725087463855743
156,3,64,49,0.44468817114830017,0.12048414349555969
156,3,64,50,0.502963125705719,0.08373209089040756
156,3,64,51,0.4704706370830536,0.057689979672431946
156,3,64,52,0.3695455491542816,0.15417265892028809
156,3,64,53,0.5557549595832825,0.1833912581205368
156,3,64,54,0.5591843128204346,0.11071883887052536
156,3,64,55,0.4603888690471649,0.08492735773324966
156,3,64,56,0.2888040244579315,0.1179770901799202
156,3,64,57,0.5050368309020996,0.08016088604927063
156,3,64,58,0.505414605140686,0.07609784603118896
156,3,64,59,0.5466964840888977,0.10058648139238358
156,3,64,60,0.5887054800987244,0.11649586260318756
156,3,64,61,0.49925675988197327,0.06845096498727798
156,3,64,62,0.6332354545593262,0.035808928310871124
156,3,64,63,0.7007976770401001,0.11749450862407684
156,4,128,0,0.5880491137504578,0.20161135494709015
156,4,128,1,0.46543025970458984,0.08815209567546844
156,4,128,2,0.4685870409011841,0.07613224536180496
156,4,128,3,0.6219744086265564,0.1170264258980751
156,4,128,4,0.49246448278427124,0.165835902094841
156,4,128,5,0.377523273229599,0.0486883707344532
156,4,128,6,0.4555387496948242,0.06938797235488892
156,4,128,7,0.5639914274215698,0.06484369188547134
156,4,128,8,0.5932198762893677,0.08553783595561981
156,4,128,9,0.6093615889549255,0.08079246431589127
156,4,128,10,0.4850166440010071,0.1113143339753151
156,4,128,11,0.5054986476898193,0.10183781385421753
156,4,128,12,0.5918591022491455,0.10090424865484238
156,4,128,13,0.47081369161605835,0.07053353637456894
156,4,128,14,0.5504698753356934,0.12820766866207123
156,4,128,15,0.4475879669189453,0.12149099260568619
156,4,128,16,0.4711427688598633,0.10292050987482071
156,4,128,17,0.6995958685874939,0.15151672065258026
156,4,128,18,0.52659672498703,0.08896918594837189
156,4,128,19,0.6201182007789612,0.06711048632860184
156,4,128,20,0.49975696206092834,0.05501173436641693
156,4,128,21,0.4621134102344513,0.112308569252491
156,4,128,22,0.41331812739372253,0.09690161794424057
156,4,128,23,0.4156484603881836,0.15862223505973816
156,4,128,24,0.5542576909065247,0.11225710809230804
156,4,128,25,0.48768967390060425,0.15052258968353271
156,4,128,26,0.5083942413330078,0.08227699249982834
156,4,128,27,0.46250778436660767,0.1614525318145752
156,4,128,28,0.5721884965896606,0.08732728660106659
156,4,128,29,0.45588910579681396,0.10627046972513199
156,4,128,30,0.5272457599639893,0.07625208050012589
156,4,128,31,0.49122393131256104,0.1500951051712036
156,4,128,32,0.61379474401474,0.13563230633735657
156,4,128,33,0.48183414340019226,0.0993136391043663
156,4,128,34,0.5844305753707886,0.10271469503641129
156,4,128,35,0.5239646434783936,0.08413976430892944
156,4,128,36,0.45176127552986145,0.10519625246524811
156,4,128,37,0.40517163276672363,0.06324751675128937
156,4,128,38,0.6579024791717529,0.03897840529680252
156,4,128,39,0.535183846950531,0.07412320375442505
156,4,128,40,0.5079118013381958,0.12113650888204575
156,4,128,41,0.5738577842712402,0.10878953337669373
156,4,128,42,0.5748516917228699,0.08914931118488312
156,4,128,43,0.4867672324180603,0.09796386957168579
156,4,128,44,0.5481300950050354,0.12039706110954285
156,4,128,45,0.47202667593955994,0.09169173240661621
156,4,128,46,0.6222391128540039,0.06089530512690544
156,4,128,47,0.6898596882820129,0.09973841905593872
156,4,128,48,0.5978878736495972,0.08971120417118073
156,4,128,49,0.5989090800285339,0.14518828690052032
156,4,128,50,0.5025911927223206,0.09199412167072296
156,4,128,51,0.5685158967971802,0.09068610519170761
156,4,128,52,0.5374221801757812,0.09191734343767166
156,4,128,53,0.4994250237941742,0.15013115108013153
156,4,128,54,0.43290194869041443,0.059715352952480316
156,4,128,55,0.5638818144798279,0.08644764125347137
156,4,128,56,0.5404202342033386,0.10926394164562225
156,4,128,57,0.5349425077438354,0.05662092566490173
156,4,128,58,0.4636591672897339,0.11861704289913177
156,4,128,59,0.4927976131439209,0.08174758404493332
156,4,128,60,0.3306156098842621,0.11051270365715027
156,4,128,61,0.37474384903907776,0.07489578425884247
156,4,128,62,0.5570695400238037,0.06956082582473755
156,4,128,63,0.594291627407074,0.13185285031795502
156,4,128,64,0.6281943917274475,0.1996825486421585
156,4,128,65,0.5155985951423645,0.08037123084068298
156,4,128,66,0.3734756112098694,0.1291944682598114
156,4,128,67,0.5439321994781494,0.07339068502187729
156,4,128,68,0.31500086188316345,0.13237112760543823
156,4,128,69,0.5627209544181824,0.17583507299423218
156,4,128,70,0.5330933928489685,0.1085745096206665
156,4,128,71,0.37739264965057373,0.15533529222011566
156,4,128,72,0.5423551797866821,0.06711557507514954
156,4,128,73,0.4605742394924164,0.08849214762449265
156,4,128,74,0.5221850872039795,0.07301690429449081
156,4,128,75,0.41790688037872314,0.12010281533002853
156,4,128,76,0.5596783757209778,0.08144222944974899
156,4,128,77,0.4747452437877655,0.11102955043315887
156,4,128,78,0.5221672058105469,0.0977342501282692
156,4,128,79,0.5889313220977783,0.07186781615018845
156,4,128,80,0.4727485477924347,0.1398952156305313
156,4,128,81,0.6054852604866028,0.0967768207192421
156,4,128,82,0.4615861475467682,0.08409374952316284
156,4,128,83,0.4784698486328125,0.07564245164394379
156,4,128,84,0.4714335501194,0.07500855624675751
156,4,128,85,0.3955111801624298,0.10082045197486877
156,4,128,86,0.558631420135498,0.05300060287117958
156,4,128,87,0.4348165690898895,0.07585605978965759
156,4,128,88,0.4300273060798645,0.11086855083703995
156,4,128,89,0.5058503746986389,0.14605318009853363
156,4,128,90,0.512306809425354,0.17238253355026245
156,4,128,91,0.45457547903060913,0.0937151089310646
156,4,128,92,0.4962228834629059,0.07251549512147903
156,4,128,93,0.40947404503822327,0.04981567710638046
156,4,128,94,0.39111757278442383,0.08877459168434143
156,4,128,95,0.48370954394340515,0.08010197430849075
156,4,128,96,0.6430690884590149,0.10777144134044647
156,4,128,97,0.5329163074493408,0.06770091503858566
156,4,128,98,0.49707233905792236,0.07939072698354721
156,4,128,99,0.5311498045921326,0.09688809514045715
156,4,128,100,0.46946728229522705,0.04961460828781128
156,4,128,101,0.43515312671661377,0.17091844975948334
156,4,128,102,0.5465210676193237,0.13908913731575012
156,4,128,103,0.6585752367973328,0.12430987507104874
156,4,128,104,0.44493567943573,0.06064755097031593
156,4,128,105,0.5802027583122253,0.0766274482011795
156,4,128,106,0.5409942269325256,0.07163508236408234
156,4,128,107,0.5342425107955933,0.09492535889148712
156,4,128,108,0.5343284606933594,0.06423095613718033
156,4,128,109,0.4122837483882904,0.1945808082818985
156,4,128,110,0.49952268600463867,0.08932626247406006
156,4,128,111,0.6245300769805908,0.08879510313272476
156,4,128,112,0.569641649723053,0.13023728132247925
156,4,128,113,0.4442182779312134,0.1056341677904129
156,4,128,114,0.6463486552238464,0.06174718216061592
156,4,128,115,0.37237289547920227,0.0728643536567688
156,4,128,116,0.6190634369850159,0.09218212962150574
156,4,128,117,0.6083492040634155,0.07452307641506195
156,4,128,118,0.5337232947349548,0.07545721530914307
156,4,128,119,0.4844757318496704,0.06194818392395973
156,4,128,120,0.6161088347434998,0.12870731949806213
156,4,128,121,0.4993445873260498,0.14123982191085815
156,4,128,122,0.43946367502212524,0.08073753863573074
156,4,128,123,0.5701408982276917,0.040889278054237366
156,4,128,124,0.5086932182312012,0.11114037036895752
156,4,128,125,0.4718284606933594,0.08853359520435333
156,4,128,126,0.5805433392524719,0.10674974322319031
156,4,128,127,0.6418934464454651,0.18653112649917603
156,5,128,0,0.5949674248695374,0.17468130588531494
156,5,128,1,0.5598535537719727,0.03966512903571129
156,5,128,2,0.6822232604026794,0.14534971117973328
156,5,128,3,0.5759037733078003,0.14316143095493317
156,5,128,4,0.4853052496910095,0.07119055837392807
156,5,128,5,0.4857630133628845,0.07622040063142776
156,5,128,6,0.5934402942657471,0.15840038657188416
156,5,128,7,0.5464214086532593,0.07418213784694672
156,5,128,8,0.4607686698436737,0.027418453246355057
156,5,128,9,0.5667611360549927,0.06132065877318382
156,5,128,10,0.6977795958518982,0.09274599701166153
156,5,128,11,0.5475364923477173,0.0697210282087326
156,5,128,12,0.37173137068748474,0.1260349005460739
156,5,128,13,0.49479636549949646,0.04207365959882736
156,5,128,14,0.5518823266029358,0.12477405369281769
156,5,128,15,0.5515924692153931,0.12500213086605072
156,5,128,16,0.5678902268409729,0.11944016814231873
156,5,128,17,0.5964488983154297,0.1269272416830063
156,5,128,18,0.6420889496803284,0.13583339750766754
156,5,128,19,0.5378949046134949,0.0697634145617485
156,5,128,20,0.6151111125946045,0.12079975754022598
156,5,128,21,0.6297149658203125,0.0437915101647377
156,5,128,22,0.49318787455558777,0.09842284023761749
156,5,128,23,0.41522732377052307,0.11479060351848602
156,5,128,24,0.5570585131645203,0.07218888401985168
156,5,128,25,0.4242173135280609,0.04871087148785591
156,5,128,26,0.5574533343315125,0.08346091955900192
156,5,128,27,0.4022897183895111,0.10465915501117706
156,5,128,28,0.6131470203399658,0.051708295941352844
156,5,128,29,0.5557794570922852,0.1248873770236969
156,5,128,30,0.5101545453071594,0.053433194756507874
156,5,128,31,0.6120501160621643,0.09559505432844162
156,5,128,32,0.6197854280471802,0.13297602534294128
156,5,128,33,0.500046968460083,0.04543472081422806
156,5,128,34,0.5348823666572571,0.07543585449457169
156,5,128,35,0.3947233557701111,0.12711970508098602
156,5,128,36,0.5288282632827759,0.08367782086133957
156,5,128,37,0.4839619994163513,0.0924093946814537
156,5,128,38,0.5579846501350403,0.0730639398097992
156,5,128,39,0.484346866607666,0.0939890667796135
156,5,128,40,0.6104727983474731,0.11482365429401398
156,5,128,41,0.5516958832740784,0.08011692017316818
156,5,128,42,0.5221100449562073,0.05006461963057518
156,5,128,43,0.4818339943885803,0.07787084579467773
156,5,128,44,0.47696512937545776,0.026319844648241997
156,5,128,45,0.5928307771682739,0.1290089339017868
156,5,128,46,0.6116148829460144,0.1530921757221222
156,5,128,47,0.40513530373573303,0.14246219396591187
156,5,128,48,0.601570725440979,0.15012884140014648
156,5,128,49,0.5246198177337646,0.033566586673259735
156,5,128,50,0.5599731802940369,0.09234295040369034
156,5,128,51,0.5394183993339539,0.08481838554143906
156,5,128,52,0.4301784038543701,0.09410591423511505
156,5,128,53,0.6540123820304871,0.1171673908829689
156,5,128,54,0.5620441436767578,0.06445204466581345
156,5,128,55,0.5257680416107178,0.06771687418222427
156,5,128,56,0.558242678642273,0.05830346792936325
156,5,128,57,0.4258083403110504,0.10998685657978058
156,5,128,58,0.4848686456680298,0.07609426975250244
156,5,128,59,0.46972349286079407,0.06786226481199265
156,5,128,60,0.5897347331047058,0.12740840017795563
156,5,128,61,0.44675907492637634,0.03995532542467117
156,5,128,62,0.5422338247299194,0.11573365330696106
156,5,128,63,0.5459458231925964,0.17227870225906372
156,5,128,64,0.5517863035202026,0.12720522284507751
156,5,128,65,0.6496401429176331,0.15515604615211487
156,5,128,66,0.4459655284881592,0.09628304094076157
156,5,128,67,0.5737596750259399,0.0740315318107605
156,5,128,68,0.6332948207855225,0.13620810210704803
156,5,128,69,0.5469180941581726,0.05719523876905441
156,5,128,70,0.42245107889175415,0.07921729981899261
156,5,128,71,0.47705912590026855,0.13044454157352448
156,5,128,72,0.40413880348205566,0.11324403434991837
156,5,128,73,0.5208299160003662,0.08495151996612549
156,5,128,74,0.5582950711250305,0.02768091671168804
156,5,128,75,0.5479299426078796,0.09252207726240158
156,5,128,76,0.4756615161895752,0.04454466700553894
156,5,128,77,0.5561590790748596,0.11558651179075241
156,5,128,78,0.5397125482559204,0.030402494594454765
156,5,128,79,0.4522264897823334,0.06711430102586746
156,5,128,80,0.6172494888305664,0.11187781393527985
156,5,128,81,0.6287171840667725,0.15202364325523376
156,5,128,82,0.5373005867004395,0.08133894205093384
156,5,128,83,0.4563200771808624,0.06793075054883957
156,5,128,84,0.6272615790367126,0.11747676879167557
156,5,128,85,0.5057666301727295,0.06931425631046295
156,5,128,86,0.47173669934272766,0.07542043179273605
156,5,128,87,0.6162113547325134,0.14737771451473236
156,5,128,88,0.5087261199951172,0.08024749159812927
156,5,128,89,0.43195319175720215,0.09867343306541443
156,5,128,90,0.455392986536026,0.03884509950876236
156,5,128,91,0.6362044811248779,0.0677219107747078
156,5,128,92,0.42369601130485535,0.1150747537612915
156,5,128,93,0.48441582918167114,0.07725859433412552
156,5,128,94,0.501731812953949,0.1485190987586975
156,5,128,95,0.510536253452301,0.06285212934017181
156,5,128,96,0.6435065865516663,0.11294300109148026
156,5,128,97,0.5525199770927429,0.04254685342311859
156,5,128,98,0.5096165537834167,0.05511610582470894
156,5,128,99,0.5671191215515137,0.07510627806186676
156,5,128,100,0.5529938340187073,0.0538569875061512
156,5,128,101,0.540209174156189,0.11993158608675003
156,5,128,102,0.5763073563575745,0.1267777532339096
156,5,128,103,0.5975408554077148,0.09637495875358582
156,5,128,104,0.4846448302268982,0.12652191519737244
156,5,128,105,0.44561123847961426,0.06328675895929337
156,5,128,106,0.5120532512664795,0.05049005150794983
156,5,128,107,0.6266590356826782,0.13291995227336884
156,5,128,108,0.552952766418457,0.09664733707904816
156,5,128,109,0.5931273698806763,0.12090002745389938
156,5,128,110,0.5476601123809814,0.04237201064825058
156,5,128,111,0.47576937079429626,0.04696457087993622
156,5,128,112,0.5804671049118042,0.150189608335495
156,5,128,113,0.38724902272224426,0.13160094618797302
156,5,128,114,0.42779743671417236,0.09251243621110916
156,5,128,115,0.655667781829834,0.1331440955400467
156,5,128,116,0.5813091397285461,0.09510714560747147
156,5,128,117,0.6186976432800293,0.13649286329746246
156,5,128,118,0.4845561385154724,0.05568047985434532
156,5,128,119,0.5089191198348999,0.048702672123909
156,5,128,120,0.5705373287200928,0.18458902835845947
156,5,128,121,0.5599666833877563,0.05878178030252457
156,5,128,122,0.48532336950302124,0.05562879890203476
156,5,128,123,0.4770006835460663,0.02675183303654194
156,5,128,124,0.5391267538070679,0.13289186358451843
156,5,128,125,0.5040891170501709,0.06076052412390709
156,5,128,126,0.5874262452125549,0.10924284160137177
156,5,128,127,0.606326162815094,0.13279962539672852
185,0,32,0,0.4891349971294403,0.06601717323064804
185,0,32,1,0.4819354712963104,0.07552171498537064
185,0,32,2,0.44201377034187317,0.08383868634700775
185,0,32,3,0.6834219694137573,0.09270943701267242
185,0,32,4,0.48784810304641724,0.14002694189548492
185,0,32,5,0.4241505563259125,0.07817099243402481
185,0,32,6,0.5747165679931641,0.05401899293065071
185,0,32,7,0.37025782465934753,0.03153960779309273
185,0,32,8,0.5741764307022095,0.07188019156455994
185,0,32,9,0.5213474035263062,0.0756489709019661
185,0,32,10,0.4936549663543701,0.07313365489244461
185,0,32,11,0.443364679813385,0.08726463466882706
185,0,32,12,0.43698588013648987,0.04865805432200432
185,0,32,13,0.45778465270996094,0.0517522431910038
185,0,32,14,0.6640872359275818,0.06800531595945358
185,0,32,15,0.6320562958717346,0.08651673048734665
185,0,32,16,0.5449049472808838,0.08893516659736633
185,0,32,17,0.4668888747692108,0.04510476440191269
185,0,32,18,0.467910498380661,0.043089624494314194
185,0,32,19,0.5330430865287781,0.1354336440563202
185,0,32,20,0.4721216559410095,0.06571228802204132
185,0,32,21,0.626582682132721,0.07638591527938843
185,0,32,22,0.4543502628803253,0.030353933572769165
185,0,32,23,0.5977116823196411,0.09097561240196228
185,0,32,24,0.5129374265670776,0.028271950781345367
185,0,32,25,0.44468072056770325,0.03375459089875221
185,0,32,26,0.5030931234359741,0.055778853595256805
185,0,32,27,0.48363572359085083,0.07276839017868042
185,0,32,28,0.48095330595970154,0.09497496485710144
185,0,32,29,0.5315836668014526,0.12384193390607834
185,0,32,30,0.47500336170196533,0.08847124874591827
185,0,32,31,0.4660258889198303,0.07585572451353073
185,1,32,0,0.4975801110267639,0.12296903133392334
185,1,32,1,0.5105153918266296,0.11107835173606873
185,1,32,2,0.6421948075294495,0.06257187575101852
185,1,32,3,0.5856470465660095,0.046698909252882004
185,1,32,4,0.4599212408065796,0.06475408375263214
185,1,32,5,0.4628842771053314,0.09822650998830795
185,1,32,6,0.38231152296066284,0.04532799497246742
185,1,32,7,0.53044593334198,0.10574463754892349
185,1,32,8,0.4691358804702759,0.069357730448246
185,1,32,9,0.46139955520629883,0.06621728837490082
185,1,32,10,0.46136993169784546,0.09215566515922546
185,1,32,11,0.5668500661849976,0.10072396695613861
185,1,32,12,0.5345653891563416,0.06703206151723862
185,1,32,13,0.3593737781047821,0.07461689412593842
185,1,32,14,0.5880239009857178,0.06291528791189194
185,1,32,15,0.5690239071846008,0.05663866549730301
185,1,32,16,0.5791816115379333,0.0773400142788887
185,1,32,17,0.4528249204158783,0.051924217492341995
185,1,32,18,0.5577122569084167,0.07153904438018799
185,1,32,19,0.4457290768623352,0.10412276536226273
185,1,32,20,0.6000717282295227,0.06673408299684525
185,1,32,21,0.514636218547821,0.047462981194257736
185,1,32,22,0.5013771653175354,0.05798792093992233
185,1,32,23,0.4550324082374573,0.0721096619963646
185,1,32,24,0.5176633596420288,0.08399870991706848
185,1,32,25,0.3759734630584717,0.095245361328125
185,1,32,26,0.6301164031028748,0.06290431320667267
185,1,32,27,0.41794729232788086,0.08351405709981918
185,1,32,28,0.4337024688720703,0.06262733042240143
185,1,32,29,0.4839611351490021,0.09743048995733261
185,1,32,30,0.6123617887496948,0.06987873464822769
185,1,32,31,0.5403812527656555,0.09386079013347626
185,2,64,0,0.5211512446403503,0.13856714963912964
185,2,64,1,0.6634251475334167,0.08130552619695663
185,2,64,2,0.535849928855896,0.11184434592723846
185,2,64,3,0.6819854378700256,0.0881800577044487
185,2,64,4,0.5501010417938232,0.1095581203699112
185,2,64,5,0.50642991065979,0.05419376492500305
185,2,64,6,0.42578235268592834,0.09220072627067566
185,2,64,7,0.40333420038223267,0.07816227525472641
185,2,64,8,0.44916996359825134,0.09075284004211426
185,2,64,9,0.4245801568031311,0.10849616676568985
185,2,64,10,0.4841497838497162,0.11987011879682541
185,2,64,11,0.5278417468070984,0.08453080803155899
185,2,64,12,0.4772769510746002,0.1454000324010849
185,2,64,13,0.486464262008667,0.09032298624515533
185,2,64,14,0.3799718916416168,0.12326647341251373
185,2,64,15,0.4147246181964874,0.07091621309518814
185,2,64,16,0.3234114646911621,0.07856893539428711
185,2,64,17,0.49249696731567383,0.11654268950223923
185,2,64,18,0.6203133463859558,0.08033803850412369
185,2,64,19,0.5602912306785583,0.1623750925064087
185,2,64,20,0.6474897265434265,0.06499213725328445
185,2,64,21,0.4497317671775818,0.04378202557563782
185,2,64,22,0.5045899152755737,0.09980005025863647
185,2,64,23,0.4935148358345032,0.08480800688266754
185,2,64,24,0.6303070783615112,0.0775739848613739
185,2,64,25,0.504573404788971,0.15578706562519073
185,2,64,26,0.3468558192253113,0.11084888875484467
185,2,64,27,0.5899904370307922,0.1214260533452034
185,2,64,28,0.4123733639717102,0.12490326166152954
185,2,64,29,0.44171473383903503,0.08191987872123718
185,2,64,30,0.5238555073738098,0.13547082245349884
185,2,64,31,0.47173115611076355,0.11324530839920044
185,2,64,32,0.523281991481781,0.08428332209587097
185,2,64,33,0.4383370578289032,0.08664863556623459
185,2,64,34,0.5241572856903076,0.09944979101419449
185,2,64,35,0.5129929184913635,0.1045370027422905
185,2,64,36,0.46988826990127563,0.08627387136220932
185,2,64,37,0.45584794878959656,0.08255122601985931
185,2,64,38,0.5634543895721436,0.08041110634803772
185,2,64,39,0.503099262714386,0.1104092001914978
185,2,64,40,0.4717603623867035,0.08774071931838989
185,2,64,41,0.5321498513221741,0.09066306799650192
185,2,64,42,0.46905237436294556,0.13385586440563202
185,2,64,43,0.416068971157074,0.06479044258594513
185,2,64,44,0.5458722114562988,0.07842455059289932
185,2,64,45,0.5858514904975891,0.11630457639694214
185,2,64,46,0.5568496584892273,0.09790239483118057
185,2,64,47,0.4321094751358032,0.15038670599460602
185,2,64,48,0.59212726354599,0.07815978676080704
185,2,64,49,0.5014362335205078,0.0784948542714119
185,2,64,50,0.5857550501823425,0.06373755633831024
185,2,64,51,0.5681812763214111,0.10524701327085495
185,2,64,52,0.5255057215690613,0.13309380412101746
185,2,64,53,0.5056704878807068,0.09872236102819443
185,2,64,54,0.5349754691123962,0.11631021648645401
185,2,64,55,0.3472737967967987,0.08937903493642807
185,2,64,56,0.6472343802452087,0.07047872245311737
185,2,64,57,0.5111590027809143,0.08665210008621216
185,2,64,58,0.5590723752975464,0.09055834263563156
185,2,64,59,0.5687711834907532,0.09918081015348434
185,2,64,60,0.4812794625759125,0.12550228834152222
185,2,64,61,0.4540863633155823,0.12168269604444504
185,2,64,62,0.34055095911026,0.09603902697563171
185,2,64,63,0.5390439033508301,0.11402628570795059
185,3,64,0,0.5765990018844604,0.10797534137964249
185,3,64,1,0.48470339179039,0.08303571492433548
185,3,64,2,0.5605016946792603,0.08182036876678467
185,3,64,3,0.4997180104255676,0.05801143869757652
185,3,64,4,0.4166297912597656,0.053248271346092224
185,3,64,5,0.48812901973724365,0.08111967891454697
185,3,64,6,0.5291500091552734,0.03546150401234627
185,3,64,7,0.6094689965248108,0.09027615189552307
185,3,64,8,0.6142896413803101,0.07987820357084274
185,3,64,9,0.604918360710144,0.13938264548778534
185,3,64,10,0.47901037335395813,0.08371508866548538
185,3,64,11,0.45744869112968445,0.06997957080602646
185,3,64,12,0.5651379823684692,0.11019828915596008
185,3,64,13,0.5543699860572815,0.1030530110001564
185,3,64,14,0.4159684181213379,0.11657657474279404
185,3,64,15,0.500734806060791,0.09428548812866211
185,3,64,16,0.42666685581207275,0.03661511465907097
185,3,64,17,0.42408546805381775,0.09003504365682602
185,3,64,18,0.5751900672912598,0.1252172738313675
185,3,64,19,0.516133725643158,0.044757179915905
185,3,64,20,0.36844682693481445,0.05986594036221504
185,3,64,21,0.6480565071105957,0.04306710511445999
185,3,64,22,0.43662574887275696,0.1007813811302185
185,3,64,23,0.3889201581478119,0.05503561347723007
185,3,64,24,0.5115035176277161,0.07649753987789154
185,3,64,25,0.4740551710128784,0.05707245692610741
185,3,64,26,0.4142644703388214,0.10720445960760117
185,3,64,27,0.4614216983318329,0.10072247684001923
185,3,64,28,0.5401463508605957,0.12444540113210678
185,3,64,29,0.5060462355613708,0.1096751019358635
185,3,64,30,0.5540351867675781,0.0959288626909256
185,3,64,31,0.6266059279441833,0.08454267680644989
185,3,64,32,0.42139574885368347,0.03733094781637192
185,3,64,33,0.5240193605422974,0.09863276779651642
185,3,64,34,0.4724164307117462,0.1255229115486145
185,3,64,35,0.45950937271118164,0.04590649902820587
185,3,64,36,0.4232981503009796,0.10430514067411423
185,3,64,37,0.5532007217407227,0.07439011335372925
185,3,64,38,0.5375499725341797,0.05315452441573143
185,3,64,39,0.5698925852775574,0.06109776347875595
185,3,64,40,0.5157548785209656,0.09237296879291534
185,3,64,41,0.38241034746170044,0.06116877496242523
185,3,64,42,0.45773953199386597,0.07263501733541489
185,3,64,43,0.579876720905304,0.059378571808338165
185,3,64,44,0.5003067851066589,0.05738402530550957
185,3,64,45,0.5044111013412476,0.08632105588912964
185,3,64,46,0.3878851532936096,0.044216640293598175
185,3,64,47,0.6082029342651367,0.05417850986123085
185,3,64,48,0.5501218438148499,0.0634133443236351
185,3,64,49,0.689530611038208,0.08111489564180374
185,3,64,50,0.4614219069480896,0.03651916980743408
185,3,64,51,0.48531395196914673,0.14022980630397797
185,3,64,52,0.3746352195739746,0.0474640391767025
185,3,64,53,0.4727576971054077,0.07093902677297592
185,3,64,54,0.6161766648292542,0.040778376162052155
185,3,64,55,0.5103241801261902,0.08869707584381104
185,3,64,56,0.4626215398311615,0.139690101146698
185,3,64,57,0.6246752142906189,0.04392993450164795
185,3,64,58,0.5137137174606323,0.08117331564426422
185,3,64,59,0.39982369542121887,0.09997948259115219
185,3,64,60,0.5675175786018372,0.05562116950750351
185,3,64,61,0.4605250358581543,0.11881951242685318
185,3,64,62,0.5072997212409973,0.03258952498435974
185,3,64,63,0.5301629900932312,0.08770870417356491
185,4,128,0,0.5647374391555786,0.1351298987865448
185,4,128,1,0.4917382597923279,0.08082760870456696
185,4,128,2,0.52713942527771,0.17413602769374847
185,4,128,3,0.5627485513687134,0.07030491530895233
185,4,128,4,0.563525378704071,0.06676516681909561
185,4,128,5,0.5119847655296326,0.07487211376428604
185,4,128,6,0.3440685272216797,0.11581318080425262
185,4,128,7,0.5014252662658691,0.16318322718143463
185,4,128,8,0.3278108537197113,0.12660610675811768
185,4,128,9,0.5288066864013672,0.15400448441505432
185,4,128,10,0.5326951742172241,0.15330444276332855
185,4,128,11,0.4565824270248413,0.11057060211896896
185,4,128,12,0.427284300327301,0.05186592414975166
185,4,128,13,0.5635402202606201,0.12146074324846268
185,4,128,14,0.5826479196548462,0.10369051247835159
185,4,128,15,0.5314424633979797,0.09469804167747498
185,4,128,16,0.5793592929840088,0.091253861784935
185,4,128,17,0.5897085666656494,0.20316524803638458
185,4,128,18,0.39946573972702026,0.1310196816921234
185,4,128,19,0.6611478328704834,0.1309119164943695
185,4,128,20,0.4761869013309479,0.07420068234205246
185,4,128,21,0.5954387784004211,0.10193026065826416
185,4,128,22,0.4356808662414551,0.08032987266778946
185,4,128,23,0.4642685353755951,0.027196776121854782
185,4,128,24,0.48751920461654663,0.08670103549957275
185,4,128,25,0.5405904650688171,0.05893220752477646
185,4,128,26,0.5618876814842224,0.08262373507022858
185,4,128,27,0.6263397336006165,0.09644275158643723
185,4,128,28,0.42190656065940857,0.058945182710886
185,4,128,29,0.6215344071388245,0.13621211051940918
185,4,128,30,0.5809745788574219,0.1288192868232727
185,4,128,31,0.6400845646858215,0.1639508455991745
185,4,128,32,0.5162258148193359,0.07339925318956375
185,4,128,33,0.36234375834465027,0.12013477087020874
185,4,128,34,0.5963897705078125,0.17261970043182373
185,4,128,35,0.48464974761009216,0.04635756090283394
185,4,128,36,0.5768762826919556,0.12969709932804108
185,4,128,37,0.5808055400848389,0.08316230773925781
185,4,128,38,0.4951436221599579,0.07467316836118698
185,4,128,39,0.5722493529319763,0.09196814149618149
185,4,128,40,0.52360999584198,0.14582963287830353
185,4,128,41,0.5018170475959778,0.09002062678337097
185,4,128,42,0.3996190130710602,0.08067277073860168
185,4,128,43,0.4067680835723877,0.1250271201133728
185,4,128,44,0.5655874013900757,0.0872068926692009
185,4,128,45,0.4128923714160919,0.08545016497373581
185,4,128,46,0.5462899208068848,0.03921447694301605
185,4,128,47,0.6478638052940369,0.12611328065395355
185,4,128,48,0.6011674404144287,0.09690332412719727
185,4,128,49,0.562558650970459,0.13373255729675293
185,4,128,50,0.5292750000953674,0.0687926784157753
185,4,128,51,0.4262184500694275,0.1327897012233734
185,4,128,52,0.5006558895111084,0.11517802625894547
185,4,128,53,0.30073773860931396,0.11269347369670868
185,4,128,54,0.45739686489105225,0.10934152454137802
185,4,128,55,0.47093653678894043,0.09388668835163116
185,4,128,56,0.4218340218067169,0.20247377455234528
185,4,128,57,0.5061003565788269,0.07233472913503647
185,4,128,58,0.5704506039619446,0.12111020088195801
185,4,128,59,0.5932949781417847,0.10333701968193054
185,4,128,60,0.5702882409095764,0.07223749160766602
185,4,128,61,0.5375457406044006,0.1724168211221695
185,4,128,62,0.5422263145446777,0.061895012855529785
185,4,128,63,0.5240262150764465,0.17869780957698822
185,4,128,64,0.5402840375900269,0.20793044567108154
185,4,128,65,0.6709702014923096,0.0814957544207573
185,4,128,66,0.5968527793884277,0.16097813844680786
185,4,128,67,0.6385538578033447,0.08802048116922379
185,4,128,68,0.3147726356983185,0.1374523788690567
185,4,128,69,0.46030181646347046,0.15376566350460052
185,4,128,70,0.4898867905139923,0.07378700375556946
185,4,128,71,0.5184502601623535,0.07663002610206604
185,4,128,72,0.5986504554748535,0.21196520328521729
185,4,128,73,0.6787761449813843,0.12853336334228516
185,4,128,74,0.521771252155304,0.17721882462501526
185,4,128,75,0.505440890789032,0.10027657449245453
185,4,128,76,0.5497099161148071,0.05825337395071983
185,4,128,77,0.6502164006233215,0.16338248550891876
185,4,128,78,0.5208351612091064,0.06722979247570038
185,4,128,79,0.6091642379760742,0.13012725114822388
185,4,128,80,0.5645312666893005,0.13998624682426453
185,4,128,81,0.5204604864120483,0.18054814636707306
185,4,128,82,0.5467966794967651,0.10311109572649002
185,4,128,83,0.5618298649787903,0.1315641850233078
185,4,128,84,0.6159945726394653,0.09413360804319382
185,4,128,85,0.5272929072380066,0.07181541621685028
185,4,128,86,0.5503334403038025,0.09480695426464081
185,4,128,87,0.3949974775314331,0.12607572972774506
185,4,128,88,0.6201578378677368,0.1091003268957138
185,4,128,89,0.6241555213928223,0.11591551452875137
185,4,128,90,0.5422558784484863,0.11410979926586151
185,4,128,91,0.5586884617805481,0.18993285298347473
185,4,128,92,0.4433630108833313,0.128268301486969
185,4,128,93,0.4811733365058899,0.04720420762896538
185,4,128,94,0.5127866268157959,0.07626670598983765
185,4,128,95,0.4331803023815155,0.10487334430217743
185,4,128,96,0.4609796404838562,0.11532606184482574
185,4,128,97,0.594531238079071,0.09074170142412186
185,4,128,98,0.44028905034065247,0.11871127784252167
185,4,128,99,0.6139508485794067,0.04654513671994209
185,4,128,100,0.575802206993103,0.10181091725826263
185,4,128,101,0.564640998840332,0.13912509381771088
185,4,128,102,0.5752775073051453,0.0778934508562088
185,4,128,103,0.4631723165512085,0.1459583193063736
185,4,128,104,0.6497734189033508,0.13051043450832367
185,4,128,105,0.6039669513702393,0.07876197248697281
185,4,128,106,0.6300292015075684,0.10081078857183456
185,4,128,107,0.3526251018047333,0.09941957145929337
185,4,128,108,0.749897837638855,0.10273276269435883
185,4,128,109,0.4790467321872711,0.07152541726827621
185,4,128,110,0.5219826698303223,0.07251240313053131
185,4,128,111,0.5898072719573975,0.16337162256240845
185,4,128,112,0.6018494963645935,0.11059513688087463
185,4,128,113,0.4322645366191864,0.13256113231182098
185,4,128,114,0.5053576827049255,0.16433897614479065
185,4,128,115,0.6660525798797607,0.12813059985637665
185,4,128,116,0.4211581349372864,0.084695965051651
185,4,128,117,0.5545357465744019,0.1238475888967514
185,4,128,118,0.537136971950531,0.08071734756231308
185,4,128,119,0.44422027468681335,0.1286328136920929
185,4,128,120,0.6497876644134521,0.14006999135017395
185,4,128,121,0.4169979393482208,0.1045088991522789
185,4,128,122,0.6662038564682007,0.09348727762699127
185,4,128,123,0.5820703506469727,0.16834932565689087
185,4,128,124,0.4264403283596039,0.14137481153011322
185,4,128,125,0.4717230498790741,0.10706301033496857
185,4,128,126,0.5232848525047302,0.1098349466919899
185,4,128,127,0.5417432188987732,0.15076515078544617
185,5,128,0,0.5644980669021606,0.08031272888183594
185,5,128,1,0.49648579955101013,0.10350514948368073
185,5,128,2,0.5171207189559937,0.06665312498807907
185,5,128,3,0.48879799246788025,0.05940558761358261
185,5,128,4,0.5187661647796631,0.07961332052946091
185,5,128,5,0.43688780069351196,0.0788918286561966
185,5,128,6,0.5352901220321655,0.08375651389360428
185,5,128,7,0.6206896305084229,0.06485236436128616
185,5,128,8,0.38588690757751465,0.10899678617715836
185,5,128,9,0.49666598439216614,0.13162261247634888
185,5,128,10,0.45801034569740295,0.058272525668144226
185,5,128,11,0.4249995946884155,0.10204523056745529
185,5,128,12,0.5075958967208862,0.09152638167142868
185,5,128,13,0.46684134006500244,0.08841802924871445
185,5,128,14,0.5200725793838501,0.0358695462346077
185,5,128,15,0.6295343041419983,0.1126808300614357
185,5,128,16,0.6184986233711243,0.09387832134962082
185,5,128,17,0.5802052617073059,0.06615930050611496
185,5,128,18,0.4462520480155945,0.12498965114355087
185,5,128,19,0.5364373326301575,0.12876440584659576
185,5,128,20,0.4136043190956116,0.0857059434056282
185,5,128,21,0.5317018628120422,0.07374411821365356
185,5,128,22,0.5603778958320618,0.026191076263785362
185,5,128,23,0.5509849190711975,0.09095165878534317
185,5,128,24,0.3568129241466522,0.07192084938287735
185,5,128,25,0.5411170721054077,0.06924807280302048
185,5,128,26,0.6605873107910156,0.14809581637382507
185,5,128,27,0.5743348002433777,0.08656689524650574
185,5,128,28,0.42440280318260193,0.10629209876060486
185,5,128,29,0.5780797600746155,0.04499934986233711
185,5,128,30,0.6028552651405334,0.05494117736816406
185,5,128,31,0.6040350794792175,0.1367873102426529
185,5,128,32,0.5582422018051147,0.11060044914484024
185,5,128,33,0.4318169951438904,0.08190827816724777
185,5,128,34,0.5262486338615417,0.06254913657903671
185,5,128,35,0.5750172734260559,0.1258828043937683
185,5,128,36,0.544041633605957,0.0574030801653862
185,5,128,37,0.47117701172828674,0.08075625449419022
185,5,128,38,0.5855398178100586,0.09815283864736557
185,5,128,39,0.48518532514572144,0.06024705618619919
185,5,128,40,0.41576290130615234,0.08610893785953522
185,5,128,41,0.5716302394866943,0.10152319073677063
185,5,128,42,0.4445289075374603,0.05950729176402092
185,5,128,43,0.534285306930542,0.08405005931854248
185,5,128,44,0.6428859233856201,0.08390600234270096
185,5,128,45,0.5229517817497253,0.07828538119792938
185,5,128,46,0.5386927723884583,0.043654028326272964
185,5,128,47,0.4303746223449707,0.0470883809030056
185,5,128,48,0.6013084650039673,0.16360099613666534
185,5,128,49,0.5734648704528809,0.062038078904151917
185,5,128,50,0.5169255137443542,0.08896319568157196
185,5,128,51,0.5932892560958862,0.08405187726020813
185,5,128,52,0.5125832557678223,0.07325542718172073
185,5,128,53,0.5643421411514282,0.11528512090444565
185,5,128,54,0.5259194374084473,0.09998781979084015
185,5,128,55,0.3746809661388397,0.09539523720741272
185,5,128,56,0.5880398750305176,0.06414684653282166
185,5,128,57,0.5499840974807739,0.11330287903547287
185,5,128,58,0.6598577499389648,0.0868336483836174
185,5,128,59,0.6398321986198425,0.07438991963863373
185,5,128,60,0.6120911240577698,0.15023185312747955
185,5,128,61,0.5369580388069153,0.058053042739629745
185,5,128,62,0.5290703773498535,0.05514908954501152
185,5,128,63,0.49569758772850037,0.09661175310611725
185,5,128,64,0.4425762891769409,0.08782672137022018
185,5,128,65,0.48835667967796326,0.06042487174272537
185,5,128,66,0.48288217186927795,0.06797996908426285
185,5,128,67,0.5401890873908997,0.07814828306436539
185,5,128,68,0.4140130579471588,0.08877759426832199
185,5,128,69,0.475710391998291,0.1259586066007614
185,5,128,70,0.48387545347213745,0.08012457937002182
185,5,128,71,0.4701294004917145,0.08972760289907455
185,5,128,72,0.5368134379386902,0.12975463271141052
185,5,128,73,0.7311762571334839,0.09949517250061035
185,5,128,74,0.5644517540931702,0.05921782925724983
185,5,128,75,0.40025758743286133,0.0594046376645565
185,5,128,76,0.5846624374389648,0.03780068829655647
185,5,128,77,0.5180285573005676,0.10326328873634338
185,5,128,78,0.5510132312774658,0.07170429825782776
185,5,128,79,0.5102462768554688,0.07800621539354324
185,5,128,80,0.46568161249160767,0.07008073478937149
185,5,128,81,0.6534193158149719,0.09901582449674606
185,5,128,82,0.4865497052669525,0.06999028474092484
185,5,128,83,0.5700454115867615,0.06275477260351181
185,5,128,84,0.47706806659698486,0.09793135523796082
185,5,128,85,0.4824039041996002,0.07059748470783234
185,5,128,86,0.49357274174690247,0.08544104546308517
185,5,128,87,0.44417664408683777,0.13538186252117157
185,5,128,88,0.49433985352516174,0.07320061326026917
185,5,128,89,0.5347108244895935,0.0905730202794075
185,5,128,90,0.5815080404281616,0.09045425802469254
185,5,128,91,0.3223936855792999,0.07886731624603271
185,5,128,92,0.5081409811973572,0.0909697487950325
185,5,128,93,0.4478530287742615,0.06301110237836838
185,5,128,94,0.4906977713108063,0.10587602853775024
185,5,128,95,0.5083252787590027,0.10200075805187225
185,5,128,96,0.49489665031433105,0.07142474502325058
185,5,128,97,0.426138311624527,0.12495265156030655
185,5,128,98,0.5460521578788757,0.09723695367574692
185,5,128,99,0.4392073452472687,0.06316367536783218
185,5,128,100,0.4652968943119049,0.06277503818273544
185,5,128,101,0.4944000542163849,0.11837015300989151
185,5,128,102,0.5439385175704956,0.0434214286506176
185,5,128,103,0.5989261269569397,0.09114398807287216
185,5,128,104,0.5968630909919739,0.06567728519439697
185,5,128,105,0.5128585696220398,0.11313009262084961
185,5,128,106,0.542101263999939,0.08239447325468063
185,5,128,107,0.44441333413124084,0.08259326964616776
185,5,128,108,0.587872326374054,0.07767779380083084
185,5,128,109,0.5708773136138916,0.10215265303850174
185,5,128,110,0.5207160115242004,0.08377039432525635
185,5,128,111,0.5962265729904175,0.05010946840047836
185,5,128,112,0.46656131744384766,0.08820595592260361
185,5,128,113,0.38534310460090637,0.10034159570932388
185,5,128,114,0.5411039590835571,0.06075169891119003
185,5,128,115,0.4960178732872009,0.12274258583784103
185,5,128,116,0.5160853862762451,0.0507236085832119
185,5,128,117,0.32851773500442505,0.07539917528629303
185,5,128,118,0.5249975323677063,0.09730137884616852
185,5,128,119,0.5354718565940857,0.05665836110711098
185,5,128,120,0.5480318069458008,0.0721285417675972
185,5,128,121,0.6077203750610352,0.12661288678646088
185,5,128,122,0.5402022004127502,0.057010989636182785
185,5,128,123,0.5579289197921753,0.07958946377038956
185,5,128,124,0.5101642608642578,0.07310071587562561
185,5,128,125,0.3980467617511749,0.05902974680066109
185,5,128,126,0.5099862217903137,0.1293759047985077
185,5,128,127,0.5325992703437805,0.11884045600891113
186,0,32,0,0.5186100602149963,0.092655710875988
186,0,32,1,0.43264028429985046,0.10345180332660675
186,0,32,2,0.5470566153526306,0.09948056191205978
186,0,32,3,0.3948972523212433,0.0735883116722107
186,0,32,4,0.5217207074165344,0.04245002567768097
186,0,32,5,0.5318835377693176,0.04627496376633644
186,0,32,6,0.4205300807952881,0.08004051446914673
186,0,32,7,0.5095244646072388,0.0679335817694664
186,0,32,8,0.5899965167045593,0.039341382682323456
186,0,32,9,0.5258875489234924,0.04851241037249565
186,0,32,10,0.5409455895423889,0.0777159109711647
186,0,32,11,0.4554307758808136,0.06651028245687485
186,0,32,12,0.4822980463504791,0.07490914314985275
186,0,32,13,0.5975492000579834,0.10146940499544144
186,0,32,14,0.5935162305831909,0.06735575199127197
186,0,32,15,0.5536941289901733,0.05338376387953758
186,0,32,16,0.45218175649642944,0.04666301980614662
186,0,32,17,0.6105116605758667,0.06075407564640045
186,0,32,18,0.47048765420913696,0.07712456583976746
186,0,32,19,0.4200962781906128,0.050430964678525925
186,0,32,20,0.6002853512763977,0.07547446340322495
186,0,32,21,0.472215861082077,0.023014012724161148
186,0,32,22,0.39209264516830444,0.039519742131233215
186,0,32,23,0.42442643642425537,0.046701639890670776
186,0,32,24,0.43732187151908875,0.038184359669685364
186,0,32,25,0.32507890462875366,0.05367381498217583
186,0,32,26,0.44664764404296875,0.02486620657145977
186,0,32,27,0.5945456027984619,0.06020492687821388
186,0,32,28,0.5425860285758972,0.0656311959028244
186,0,32,29,0.5948360562324524,0.09172914177179337
186,0,32,30,0.4116685688495636,0.05162035673856735
186,0,32,31,0.5409163236618042,0.0657389909029007
186,1,32,0,0.451412171125412,0.04871591925621033
186,1,32,1,0.45516911149024963,0.08507003635168076
186,1,32,2,0.5120336413383484,0.08838257193565369
186,1,32,3,0.40666332840919495,0.06715564429759979
186,1,32,4,0.4838714003562927,0.08850409090518951
186,1,32,5,0.5418676137924194,0.11348667740821838
186,1,32,6,0.4362271726131439,0.18721812963485718
186,1,32,7,0.3739055395126343,0.08557725697755814
186,1,32,8,0.6063553094863892,0.109297014772892
186,1,32,9,0.6078619360923767,0.08143652975559235
186,1,32,10,0.47323378920555115,0.06722898036241531
186,1,32,11,0.5076608657836914,0.05016952008008957
186,1,32,12,0.5307762026786804,0.07176719605922699
186,1,32,13,0.44315096735954285,0.08371444046497345
186,1,32,14,0.546692967414856,0.0708991214632988
186,1,32,15,0.6526229977607727,0.07265673577785492
186,1,32,16,0.4623725414276123,0.06047266721725464
186,1,32,17,0.42622122168540955,0.1337239295244217
186,1,32,18,0.3978218138217926,0.09384609758853912
186,1,32,19,0.5114394426345825,0.0761471688747406
186,1,32,20,0.594703733921051,0.03785267099738121
186,1,32,21,0.5286727547645569,0.09005369246006012
186,1,32,22,0.3591221272945404,0.10742215812206268
186,1,32,23,0.3796517550945282,0.060112107545137405
186,1,32,24,0.5510315895080566,0.1331832855939865
186,1,32,25,0.3423551619052887,0.1517484039068222
186,1,32,26,0.5251021981239319,0.11647412180900574
186,1,32,27,0.34092697501182556,0.08883357793092728
186,1,32,28,0.45611926913261414,0.11903694272041321
186,1,32,29,0.5134204030036926,0.07073148339986801
186,1,32,30,0.6240613460540771,0.054753378033638
186,1,32,31,0.49279698729515076,0.10500630736351013
186,2,64,0,0.5148722529411316,0.10667982697486877
186,2,64,1,0.4916175901889801,0.07389924675226212
186,2,64,2,0.5576273798942566,0.14354528486728668
186,2,64,3,0.49272865056991577,0.21344494819641113
186,2,64,4,0.5769073963165283,0.13560473918914795
186,2,64,5,0.5490381717681885,0.10941460728645325
186,2,64,6,0.42630159854888916,0.09417562186717987
186,2,64,7,0.6107980012893677,0.0890595018863678
186,2,64,8,0.3876611590385437,0.16086983680725098
186,2,64,9,0.5013182163238525,0.17633134126663208
186,2,64,10,0.34146517515182495,0.1559968888759613
186,2,64,11,0.5204901099205017,0.2309931516647339
186,2,64,12,0.4014153778553009,0.23585425317287445
186,2,64,13,0.45206281542778015,0.16772183775901794
186,2,64,14,0.4112560451030731,0.127573162317276
186,2,64,15,0.333744078874588,0.10810466855764389
186,2,64,16,0.7021957039833069,0.09492963552474976
186,2,64,17,0.44688040018081665,0.08782491832971573
186,2,64,18,0.5084794759750366,0.16613861918449402
186,2,64,19,0.5358062386512756,0.174723282456398
186,2,64,20,0.5155457854270935,0.16946059465408325
186,2,64,21,0.4010213017463684,0.1321481168270111
186,2,64,22,0.3910098969936371,0.09001878648996353
186,2,64,23,0.6537002325057983,0.14597485959529877
186,2,64,24,0.540785551071167,0.14316505193710327
186,2,64,25,0.33080050349235535,0.1170157790184021
186,2,64,26,0.5609956979751587,0.1789773553609848
186,2,64,27,0.4424140453338623,0.2086096554994583
186,2,64,28,0.4754107892513275,0.1961076259613037
186,2,64,29,0.5953336954116821,0.14129948616027832
186,2,64,30,0.4489971399307251,0.19294077157974243
186,2,64,31,0.4828539192676544,0.10076688230037689
186,2,64,32,0.4896473288536072,0.11417293548583984
186,2,64,33,0.4145325720310211,0.06594520807266235
186,2,64,34,0.505221962928772,0.08481130748987198
186,2,64,35,0.5421638488769531,0.19655048847198486
186,2,64,36,0.5079373717308044,0.16999174654483795
186,2,64,37,0.5694518089294434,0.12860679626464844
186,2,64,38,0.6694546341896057,0.09308892488479614
186,2,64,39,0.6179922819137573,0.148492231965065
186,2,64,40,0.49028733372688293,0.18257646262645721
186,2,64,41,0.33895522356033325,0.1744368076324463
186,2,64,42,0.49057525396347046,0.12795929610729218
186,2,64,43,0.428101122379303,0.10164977610111237
186,2,64,44,0.6015797257423401,0.24480414390563965
186,2,64,45,0.686170756816864,0.15817981958389282
186,2,64,46,0.5156579613685608,0.1538247913122177
186,2,64,47,0.6415483355522156,0.10513954609632492
186,2,64,48,0.5993593335151672,0.16167721152305603
186,2,64,49,0.5239598751068115,0.21903273463249207
186,2,64,50,0.5280512571334839,0.1137622520327568
186,2,64,51,0.474250465631485,0.20527587831020355
186,2,64,52,0.5312667489051819,0.2051979899406433
186,2,64,53,0.49454110860824585,0.19741292297840118
186,2,64,54,0.4563569128513336,0.19414690136909485
186,2,64,55,0.6662263870239258,0.10209254920482635
186,2,64,56,0.41870322823524475,0.09270671010017395
186,2,64,57,0.4812687933444977,0.16836173832416534
186,2,64,58,0.6673277020454407,0.10535738617181778
186,2,64,59,0.6614431142807007,0.11907191574573517
186,2,64,60,0.35529157519340515,0.1415758579969406
186,2,64,61,0.3494040369987488,0.16310454905033112
186,2,64,62,0.5318126678466797,0.15292197465896606
186,2,64,63,0.7012596726417542,0.13165025413036346
186,3,64,0,0.35100048780441284,0.19310732185840607
186,3,64,1,0.6373198628425598,0.10285670310258865
186,3,64,2,0.5099897980690002,0.10493242740631104
186,3,64,3,0.3821476995944977,0.13741740584373474
186,3,64,4,0.4971214830875397,0.1924503594636917
186,3,64,5,0.412358820438385,0.11066655069589615
186,3,64,6,0.5712313652038574,0.1831313520669937
186,3,64,7,0.5674071907997131,0.17940375208854675
186,3,64,8,0.6392078399658203,0.19904273748397827
186,3,64,9,0.33548277616500854,0.23946213722229004
186,3,64,10,0.33516350388526917,0.11569161713123322
186,3,64,11,0.5102792382240295,0.27597397565841675
186,3,64,12,0.6768257021903992,0.18614338338375092
186,3,64,13,0.5516669750213623,0.17555922269821167
186,3,64,14,0.46551233530044556,0.16448557376861572
186,3,64,15,0.4721396565437317,0.11006762087345123
186,3,64,16,0.5839250683784485,0.12127915024757385
186,3,64,17,0.4370495676994324,0.09553973376750946
186,3,64,18,0.45640337467193604,0.08645360171794891
186,3,64,19,0.4908306300640106,0.2194739133119583
186,3,64,20,0.5557147860527039,0.11735500395298004
186,3,64,21,0.4092067778110504,0.1294846534729004
186,3,64,22,0.3706575632095337,0.2137337177991867
186,3,64,23,0.5147548317909241,0.10004957765340805
186,3,64,24,0.29442542791366577,0.18797443807125092
186,3,64,25,0.2961197793483734,0.1397738754749298
186,3,64,26,0.5974000096321106,0.10210727155208588
186,3,64,27,0.37853509187698364,0.23696200549602509
186,3,64,28,0.517008364200592,0.16606125235557556
186,3,64,29,0.6495041847229004,0.18571127951145172
186,3,64,30,0.5784690976142883,0.13246354460716248
186,3,64,31,0.36169853806495667,0.06674595922231674
186,3,64,32,0.6381353139877319,0.1492268443107605
186,3,64,33,0.5280085206031799,0.1836451143026352
186,3,64,34,0.5660884976387024,0.10423308610916138
186,3,64,35,0.35519838333129883,0.12980669736862183
186,3,64,36,0.5862219333648682,0.12244246900081635
186,3,64,37,0.46899309754371643,0.13209252059459686
186,3,64,38,0.5779486298561096,0.13438953459262848
186,3,64,39,0.506342887878418,0.16565227508544922
186,3,64,40,0.3907850384712219,0.1360003799200058
186,3,64,41,0.49468934535980225,0.19261111319065094
186,3,64,42,0.43071383237838745,0.16702596843242645
186,3,64,43,0.6303706169128418,0.0837884321808815
186,3,64,44,0.3938160240650177,0.17851218581199646
186,3,64,45,0.37753579020500183,0.10252406448125839
186,3,64,46,0.40071234107017517,0.1493903547525406
186,3,64,47,0.5336484909057617,0.187109112739563
186,3,64,48,0.6461538672447205,0.15641891956329346
186,3,64,49,0.44616082310676575,0.22700618207454681
186,3,64,50,0.41338083148002625,0.08688879758119583
186,3,64,51,0.46896785497665405,0.22342193126678467
186,3,64,52,0.6001880764961243,0.13829150795936584
186,3,64,53,0.5428469777107239,0.24040178954601288
186,3,64,54,0.5598649382591248,0.16878557205200195
186,3,64,55,0.5587300658226013,0.1862642616033554
186,3,64,56,0.5763400793075562,0.05949969217181206
186,3,64,57,0.5676066279411316,0.18888629972934723
186,3,64,58,0.35685938596725464,0.1275222897529602
186,3,64,59,0.43677714467048645,0.08208512514829636
186,3,64,60,0.5036071538925171,0.25946661829948425
186,3,64,61,0.39807236194610596,0.11953440308570862
186,3,64,62,0.5220017433166504,0.25170135498046875
186,3,64,63,0.4287514090538025,0.08556287735700607
186,4,128,0,0.5110088586807251,0.1100592166185379
186,4,128,1,0.6082912683486938,0.14846786856651306
186,4,128,2,0.5604311227798462,0.17642143368721008
186,4,128,3,0.6125001311302185,0.23311468958854675
186,4,128,4,0.6070857048034668,0.22149118781089783
186,4,128,5,0.580417811870575,0.08962651342153549
186,4,128,6,0.2590213119983673,0.1246127337217331
186,4,128,7,0.5572447776794434,0.23729124665260315
186,4,128,8,0.363197922706604,0.14402370154857635
186,4,128,9,0.5978675484657288,0.2645280957221985
186,4,128,10,0.6379897594451904,0.2562698423862457
186,4,128,11,0.6209779977798462,0.19431395828723907
186,4,128,12,0.6372324824333191,0.1570451557636261
186,4,128,13,0.7136432528495789,0.18212772905826569
186,4,128,14,0.474082350730896,0.17544789612293243
186,4,128,15,0.6930449604988098,0.22003212571144104
186,4,128,16,0.33717861771583557,0.13125775754451752
186,4,128,17,0.636541485786438,0.22314919531345367
186,4,128,18,0.4278546869754791,0.16033118963241577
186,4,128,19,0.5769972801208496,0.11384354531764984
186,4,128,20,0.6787638068199158,0.10392223298549652
186,4,128,21,0.6358915567398071,0.1936134397983551
186,4,128,22,0.4992865025997162,0.211399644613266
186,4,128,23,0.5167579650878906,0.11244216561317444
186,4,128,24,0.6248283386230469,0.15805475413799286
186,4,128,25,0.6980751752853394,0.22100070118904114
186,4,128,26,0.3604345917701721,0.1259145736694336
186,4,128,27,0.4867871105670929,0.1731983870267868
186,4,128,28,0.667263925075531,0.1666828989982605
186,4,128,29,0.6543659567832947,0.14182139933109283
186,4,128,30,0.7764437198638916,0.13013292849063873
186,4,128,31,0.6765337586402893,0.12022589892148972
186,4,128,32,0.4755845069885254,0.10643694549798965
186,4,128,33,0.4976462721824646,0.09211467951536179
186,4,128,34,0.4655557870864868,0.17082148790359497
186,4,128,35,0.44182276725769043,0.24241161346435547
186,4,128,36,0.5486004948616028,0.22080908715724945
186,4,128,37,0.6897434592247009,0.1295500099658966
186,4,128,38,0.6098455786705017,0.10952178388834
186,4,128,39,0.37175750732421875,0.15079626441001892
186,4,128,40,0.6480850577354431,0.11978588998317719
186,4,128,41,0.6168181300163269,0.12442904710769653
186,4,128,42,0.6259089708328247,0.1275717169046402
186,4,128,43,0.4375106394290924,0.21004121005535126
186,4,128,44,0.4445909857749939,0.16130571067333221
186,4,128,45,0.4764408469200134,0.1622701734304428
186,4,128,46,0.5193111896514893,0.23673495650291443
186,4,128,47,0.6170969009399414,0.12103748321533203
186,4,128,48,0.4463830888271332,0.25399550795555115
186,4,128,49,0.32273417711257935,0.18536855280399323
186,4,128,50,0.4917132556438446,0.1010873094201088
186,4,128,51,0.38460543751716614,0.1888611763715744
186,4,128,52,0.45268747210502625,0.2597547769546509
186,4,128,53,0.6569321155548096,0.19997532665729523
186,4,128,54,0.6274896264076233,0.2464800775051117
186,4,128,55,0.5714371800422668,0.08616887778043747
186,4,128,56,0.5497385859489441,0.18483731150627136
186,4,128,57,0.6237542629241943,0.18860726058483124
186,4,128,58,0.6250285506248474,0.20675581693649292
186,4,128,59,0.7124435901641846,0.1061033383011818
186,4,128,60,0.6534053683280945,0.09308497607707977
186,4,128,61,0.6867963075637817,0.10033641755580902
186,4,128,62,0.6165096163749695,0.11516810953617096
186,4,128,63,0.36708080768585205,0.12570054829120636
186,4,128,64,0.39662161469459534,0.10720531642436981
186,4,128,65,0.6162125468254089,0.14460857212543488
186,4,128,66,0.7780259847640991,0.11334846168756485
186,4,128,67,0.4575907588005066,0.22118127346038818
186,4,128,68,0.3914591372013092,0.09377306699752808
186,4,128,69,0.5704067945480347,0.10261775553226471
186,4,128,70,0.5306861400604248,0.2413589358329773
186,4,128,71,0.713925302028656,0.13531462848186493
186,4,128,72,0.6624800562858582,0.1706191748380661
186,4,128,73,0.6433933973312378,0.11034516245126724
186,4,128,74,0.5593229532241821,0.09732750803232193
186,4,128,75,0.6678293347358704,0.2927548289299011
186,4,128,76,0.6592217683792114,0.10162164270877838
186,4,128,77,0.6068431735038757,0.11845199018716812
186,4,128,78,0.4328681528568268,0.19698220491409302
186,4,128,79,0.6524643898010254,0.13755053281784058
186,4,128,80,0.7461732625961304,0.11240825057029724
186,4,128,81,0.36752206087112427,0.11053135246038437
186,4,128,82,0.5099714994430542,0.14394164085388184
186,4,128,83,0.48647335171699524,0.08439961075782776
186,4,128,84,0.7079298496246338,0.09144850820302963
186,4,128,85,0.4098842442035675,0.19469724595546722
186,4,128,86,0.3495261073112488,0.17383630573749542
186,4,128,87,0.47748908400535583,0.08238859474658966
186,4,128,88,0.662475049495697,0.1705358475446701
186,4,128,89,0.5667605996131897,0.17451593279838562
186,4,128,90,0.4127829670906067,0.0917079821228981
186,4,128,91,0.7151886224746704,0.1429288685321808
186,4,128,92,0.6294698119163513,0.2648524343967438
186,4,128,93,0.6383013725280762,0.21884781122207642
186,4,128,94,0.4189656674861908,0.21272160112857819
186,4,128,95,0.5183094143867493,0.17155829071998596
186,4,128,96,0.6316832304000854,0.2235928326845169
186,4,128,97,0.7293737530708313,0.14256402850151062
186,4,128,98,0.6503978371620178,0.1452522575855255
186,4,128,99,0.40445664525032043,0.23539380729198456
186,4,128,100,0.4697963297367096,0.16097195446491241
186,4,128,101,0.54615318775177,0.21032580733299255
186,4,128,102,0.7286925315856934,0.13384012877941132
186,4,128,103,0.4016714096069336,0.11613500863313675
186,4,128,104,0.5419111251831055,0.20104233920574188
186,4,128,105,0.5879631042480469,0.16677561402320862
186,4,128,106,0.6520159840583801,0.10260835289955139
186,4,128,107,0.4016740918159485,0.16791102290153503
186,4,128,108,0.6237196326255798,0.15626214444637299
186,4,128,109,0.713504433631897,0.2220054566860199
186,4,128,110,0.6381152272224426,0.1489206701517105
186,4,128,111,0.6711876392364502,0.1627265214920044
186,4,128,112,0.5630066394805908,0.18960516154766083
186,4,128,113,0.4081599712371826,0.09462609142065048
186,4,128,114,0.6961593627929688,0.14805395901203156
186,4,128,115,0.7062954902648926,0.11222311854362488
186,4,128,116,0.653816282749176,0.27823060750961304
186,4,128,117,0.668128252029419,0.16966941952705383
186,4,128,118,0.37191304564476013,0.16386309266090393
186,4,128,119,0.4942513406276703,0.15748998522758484
186,4,128,120,0.7133445143699646,0.20699994266033173
186,4,128,121,0.6319338083267212,0.2588217258453369
186,4,128,122,0.5688175559043884,0.10563573986291885
186,4,128,123,0.40142732858657837,0.17508907616138458
186,4,128,124,0.4124643802642822,0.18010929226875305
186,4,128,125,0.6418789625167847,0.17816586792469025
186,4,128,126,0.43951964378356934,0.242693230509758
186,4,128,127,0.5418775081634521,0.18178881704807281
186,5,128,0,0.5583196878433228,0.0668252632021904
186,5,128,1,0.7547418475151062,0.15286444127559662
186,5,128,2,0.4525018632411957,0.22626237571239471
186,5,128,3,0.42228972911834717,0.17650970816612244
186,5,128,4,0.71479332447052,0.16270478069782257
186,5,128,5,0.3592383563518524,0.14017480611801147
186,5,128,6,0.6194518804550171,0.14859218895435333
186,5,128,7,0.7631253600120544,0.13855710625648499
186,5,128,8,0.7406219840049744,0.10637181997299194
186,5,128,9,0.7902586460113525,0.08376109600067139
186,5,128,10,0.549350917339325,0.22990089654922485
186,5,128,11,0.8582553267478943,0.10059135407209396
186,5,128,12,0.599467396736145,0.29138800501823425
186,5,128,13,0.7805762887001038,0.10293697565793991
186,5,128,14,0.6129628419876099,0.10810676217079163
186,5,128,15,0.7395861148834229,0.12119600176811218
186,5,128,16,0.5108357071876526,0.0831860899925232
186,5,128,17,0.6185076832771301,0.20700229704380035
186,5,128,18,0.39163610339164734,0.1969912201166153
186,5,128,19,0.49816739559173584,0.09554235637187958
186,5,128,20,0.8066315650939941,0.09024444222450256
186,5,128,21,0.6901329755783081,0.09842807054519653
186,5,128,22,0.560699999332428,0.24850261211395264
186,5,128,23,0.558326005935669,0.20854629576206207
186,5,128,24,0.7447081804275513,0.10193236172199249
186,5,128,25,0.6575324535369873,0.12235631793737411
186,5,128,26,0.7812173962593079,0.08977850526571274
186,5,128,27,0.36677342653274536,0.16905125975608826
186,5,128,28,0.6814097166061401,0.24709102511405945
186,5,128,29,0.5814245939254761,0.07038622349500656
186,5,128,30,0.720382809638977,0.11110299080610275
186,5,128,31,0.4514469802379608,0.18921026587486267
186,5,128,32,0.46353375911712646,0.17346833646297455
186,5,128,33,0.8226889371871948,0.10947346687316895
186,5,128,34,0.5049347281455994,0.18795524537563324
186,5,128,35,0.628169059753418,0.308099627494812
186,5,128,36,0.6038737297058105,0.15074695646762848
186,5,128,37,0.7084808945655823,0.15659508109092712
186,5,128,38,0.5700931549072266,0.2478024959564209
186,5,128,39,0.6707465052604675,0.10685272514820099
186,5,128,40,0.7538537979125977,0.1832616627216339
186,5,128,41,0.623388946056366,0.15305550396442413
186,5,128,42,0.6367529630661011,0.2055513858795166
186,5,128,43,0.8033202290534973,0.11407480388879776
186,5,128,44,0.6210088729858398,0.14520449936389923
186,5,128,45,0.7290434241294861,0.14353257417678833
186,5,128,46,0.48145532608032227,0.18673847615718842
186,5,128,47,0.5175448656082153,0.16824506223201752
186,5,128,48,0.8784226775169373,0.08996493369340897
186,5,128,49,0.3745855391025543,0.16537272930145264
186,5,128,50,0.6906555891036987,0.2858308255672455
186,5,128,51,0.6734524965286255,0.10973341017961502
186,5,128,52,0.840120255947113,0.0850759819149971
186,5,128,53,0.6334120035171509,0.11302841454744339
186,5,128,54,0.7812666893005371,0.11302244663238525
186,5,128,55,0.7289947867393494,0.23713244497776031
186,5,128,56,0.6541965007781982,0.1807159036397934
186,5,128,57,0.621822714805603,0.22244374454021454
186,5,128,58,0.7147465348243713,0.18463942408561707
186,5,128,59,0.8898712992668152,0.08391360938549042
186,5,128,60,0.511189341545105,0.1788368970155716
186,5,128,61,0.6116098761558533,0.18052546679973602
186,5,128,62,0.5955238938331604,0.18511967360973358
186,5,128,63,0.651085615158081,0.19658523797988892
186,5,128,64,0.41248819231987,0.19060736894607544
186,5,128,65,0.6235261559486389,0.10885404050350189
186,5,128,66,0.7012525200843811,0.15540587902069092
186,5,128,67,0.698453426361084,0.18936391174793243
186,5,128,68,0.6164271235466003,0.09635249525308609
186,5,128,69,0.4633054733276367,0.19713757932186127
186,5,128,70,0.6731156706809998,0.24145947396755219
186,5,128,71,0.7670892477035522,0.10139112174510956
186,5,128,72,0.6967080235481262,0.10195306688547134
186,5,128,73,0.70273756980896,0.17906829714775085
186,5,128,74,0.5602735280990601,0.12010828405618668
186,5,128,75,0.661992609500885,0.09171354025602341
186,5,128,76,0.6477118134498596,0.1340683102607727
186,5,128,77,0.6986044049263,0.20695728063583374
186,5,128,78,0.6383870244026184,0.19933518767356873
186,5,128,79,0.7965152263641357,0.10767561942338943
186,5,128,80,0.6384009718894958,0.20744439959526062
186,5,128,81,0.5029839277267456,0.17442168295383453
186,5,128,82,0.4999183416366577,0.17711111903190613
186,5,128,83,0.5273087620735168,0.27297863364219666
186,5,128,84,0.5353294014930725,0.18215002119541168
186,5,128,85,0.38053345680236816,0.09610579162836075
186,5,128,86,0.623399019241333,0.19101005792617798
186,5,128,87,0.39150846004486084,0.11251948773860931
186,5,128,88,0.4701080322265625,0.272914320230484
186,5,128,89,0.5735836029052734,0.24878795444965363
186,5,128,90,0.5722172856330872,0.10115323215723038
186,5,128,91,0.4607779383659363,0.20897264778614044
186,5,128,92,0.4553625285625458,0.1643180400133133
186,5,128,93,0.6350151300430298,0.14958053827285767
186,5,128,94,0.6651853919029236,0.08797118812799454
186,5,128,95,0.6337219476699829,0.21507637202739716
186,5,128,96,0.31311488151550293,0.17269521951675415
186,5,128,97,0.5783090591430664,0.08729289472103119
186,5,128,98,0.7592533826828003,0.09704609960317612
186,5,128,99,0.7370581030845642,0.13822688162326813
186,5,128,100,0.5964123010635376,0.19318078458309174
186,5,128,101,0.5515224933624268,0.1921156495809555
186,5,128,102,0.8047442436218262,0.14299359917640686
186,5,128,103,0.6351035237312317,0.17173822224140167
186,5,128,104,0.5443827509880066,0.2006608247756958
186,5,128,105,0.5768796801567078,0.1781350076198578
186,5,128,106,0.6454389691352844,0.21521484851837158
186,5,128,107,0.45329898595809937,0.16014640033245087
186,5,128,108,0.8232945799827576,0.08064925670623779
186,5,128,109,0.5512855052947998,0.15054281055927277
186,5,128,110,0.475542813539505,0.1949472278356552
186,5,128,111,0.4780409634113312,0.2171768844127655
186,5,128,112,0.5252445340156555,0.1963999718427658
186,5,128,113,0.6098864674568176,0.3120329678058624
186,5,128,114,0.5401644706726074,0.2318265438079834
186,5,128,115,0.865725576877594,0.09201553463935852
186,5,128,116,0.6681485772132874,0.21296292543411255
186,5,128,117,0.5741895437240601,0.1493450552225113
186,5,128,118,0.5231184363365173,0.18360260128974915
186,5,128,119,0.7073551416397095,0.10228116065263748
186,5,128,120,0.6932217478752136,0.22930875420570374
186,5,128,121,0.812387228012085,0.12379617989063263
186,5,128,122,0.6264468431472778,0.07081828266382217
186,5,128,123,0.6148792505264282,0.22869905829429626
186,5,128,124,0.38874709606170654,0.09169504791498184
186,5,128,125,0.6473181247711182,0.10929074883460999
186,5,128,126,0.8161163330078125,0.10798279941082001
186,5,128,127,0.6064764261245728,0.19523562490940094
188,0,32,0,0.5107179880142212,0.03568596765398979
188,0,32,1,0.482219398021698,0.02616077847778797
188,0,32,2,0.3861846625804901,0.03876703232526779
188,0,32,3,0.365627259016037,0.028812004253268242
188,0,32,4,0.47094786167144775,0.02625644952058792
188,0,32,5,0.5236498117446899,0.041460905224084854
188,0,32,6,0.39832741022109985,0.019387993961572647
188,0,32,7,0.46301063895225525,0.029972506687045097
188,0,32,8,0.4493928849697113,0.023586945608258247
188,0,32,9,0.4387859106063843,0.021634403616189957
188,0,32,10,0.5151265263557434,0.042968835681676865
188,0,32,11,0.5262913703918457,0.015801439061760902
188,0,32,12,0.5544381141662598,0.05151039734482765
188,0,32,13,0.4719640910625458,0.04911210387945175
188,0,32,14,0.5608093738555908,0.06549686938524246
188,0,32,15,0.5684939622879028,0.047391440719366074
188,0,32,16,0.5077023506164551,0.032248325645923615
188,0,32,17,0.5021317005157471,0.029108308255672455
188,0,32,18,0.5014508366584778,0.03206156566739082
188,0,32,19,0.5184736847877502,0.03310510516166687
188,0,32,20,0.42881104350090027,0.05061819776892662
188,0,32,21,0.4294792711734772,0.030437147244811058
188,0,32,22,0.5461840629577637,0.052810754626989365
188,0,32,23,0.4771312177181244,0.03746509552001953
188,0,32,24,0.6003466248512268,0.027307607233524323
188,0,32,25,0.4996658265590668,0.0496065691113472
188,0,32,26,0.5829223394393921,0.02701297402381897
188,0,32,27,0.5964693427085876,0.037694115191698074
188,0,32,28,0.4122202396392822,0.05298609659075737
188,0,32,29,0.4124802052974701,0.03431954234838486
188,0,32,30,0.39836451411247253,0.039222292602062225
188,0,32,31,0.3820665776729584,0.020610855892300606
188,1,32,0,0.5403004884719849,0.06325802952051163
188,1,32,1,0.591143786907196,0.03273854777216911
188,1,32,2,0.47840067744255066,0.029575511813163757
188,1,32,3,0.35772714018821716,0.042785391211509705
188,1,32,4,0.6034194827079773,0.05152321606874466
188,1,32,5,0.5607062578201294,0.01735704205930233
188,1,32,6,0.39324748516082764,0.023230362683534622
188,1,32,7,0.5562514066696167,0.04188939556479454
188,1,32,8,0.5125337243080139,0.033326636999845505
188,1,32,9,0.5241498351097107,0.046339210122823715
188,1,32,10,0.36891719698905945,0.033839885145425797
188,1,32,11,0.5251303315162659,0.064725361764431
188,1,32,12,0.5310278534889221,0.07093009352684021
188,1,32,13,0.6000224947929382,0.045873720198869705
188,1,32,14,0.4702719449996948,0.03944423794746399
188,1,32,15,0.5652865767478943,0.04834078252315521
188,1,32,16,0.5214954018592834,0.030194612219929695
188,1,32,17,0.4022971987724304,0.046497710049152374
188,1,32,18,0.3934776484966278,0.03929883614182472
188,1,32,19,0.5999839901924133,0.031290192157030106
188,1,32,20,0.43026578426361084,0.03954959660768509
188,1,32,21,0.4551166296005249,0.0418144054710865
188,1,32,22,0.4745236039161682,0.03217020630836487
188,1,32,23,0.41526690125465393,0.027276327833533287
188,1,32,24,0.5421730875968933,0.017970312386751175
188,1,32,25,0.543816864490509,0.05186627060174942
188,1,32,26,0.42060089111328125,0.04569515213370323
188,1,32,27,0.5440129041671753,0.02830413542687893
188,1,32,28,0.4866740107536316,0.05046764016151428
188,1,32,29,0.46724510192871094,0.05391278862953186
188,1,32,30,0.43532952666282654,0.02610297128558159
188,1,32,31,0.5840634703636169,0.04483139514923096
188,2,64,0,0.5021679997444153,0.03442357853055
188,2,64,1,0.5892751812934875,0.06089092046022415
188,2,64,2,0.4553849697113037,0.03911920264363289
188,2,64,3,0.5638116598129272,0.06274104863405228
188,2,64,4,0.5380899310112,0.05717933923006058
188,2,64,5,0.4792183041572571,0.028649283573031425
188,2,64,6,0.45702609419822693,0.042267438024282455
188,2,64,7,0.5587095618247986,0.04700816050171852
188,2,64,8,0.4569018483161926,0.03990212082862854
188,2,64,9,0.45259785652160645,0.0548236146569252
188,2,64,10,0.5204811692237854,0.025246432051062584
188,2,64,11,0.5525404810905457,0.033177800476551056
188,2,64,12,0.48881563544273376,0.045555874705314636
188,2,64,13,0.47086238861083984,0.04143878445029259
188,2,64,14,0.4979715645313263,0.06108357384800911
188,2,64,15,0.5276438593864441,0.07019630074501038
188,2,64,16,0.5859429836273193,0.06888400763273239
188,2,64,17,0.5216123461723328,0.05103971064090729
188,2,64,18,0.4533712565898895,0.03317663073539734
188,2,64,19,0.45534658432006836,0.09470977634191513
188,2,64,20,0.4968118369579315,0.04228843003511429
188,2,64,21,0.4682027995586395,0.03134686499834061
188,2,64,22,0.4540647566318512,0.08008398115634918
188,2,64,23,0.596371591091156,0.07752585411071777
188,2,64,24,0.5134921669960022,0.08126985281705856
188,2,64,25,0.5336193442344666,0.03810182213783264
188,2,64,26,0.44994568824768066,0.041603658348321915
188,2,64,27,0.46078893542289734,0.04738471657037735
188,2,64,28,0.49419084191322327,0.05199398100376129
188,2,64,29,0.4730343520641327,0.08658341318368912
188,2,64,30,0.5500782132148743,0.0810450091958046
188,2,64,31,0.4982951283454895,0.04511426389217377
188,2,64,32,0.5351155996322632,0.08132906258106232
188,2,64,33,0.5044643878936768,0.07188116759061813
188,2,64,34,0.4582240879535675,0.1101260632276535
188,2,64,35,0.45992735028266907,0.037286728620529175
188,2,64,36,0.564113438129425,0.0574839748442173
188,2,64,37,0.5378608703613281,0.04686907306313515
188,2,64,38,0.5674463510513306,0.04772743210196495
188,2,64,39,0.5360770225524902,0.07502630352973938
188,2,64,40,0.5356215834617615,0.04356958717107773
188,2,64,41,0.4992210268974304,0.05813959240913391
188,2,64,42,0.44166839122772217,0.042344141751527786
188,2,64,43,0.4717131555080414,0.05649441108107567
188,2,64,44,0.5589319467544556,0.03605256974697113
188,2,64,45,0.5263690948486328,0.05627216771245003
188,2,64,46,0.42364785075187683,0.04850795120000839
188,2,64,47,0.5104856491088867,0.05520331487059593
188,2,64,48,0.4918896555900574,0.0712500661611557
188,2,64,49,0.5779210329055786,0.03534531220793724
188,2,64,50,0.5926534533500671,0.03768657520413399
188,2,64,51,0.5734257102012634,0.08678238838911057
188,2,64,52,0.43400824069976807,0.06644336134195328
188,2,64,53,0.49583035707473755,0.051359791308641434
188,2,64,54,0.5575332045555115,0.050360746681690216
188,2,64,55,0.529820442199707,0.04352857917547226
188,2,64,56,0.4688078463077545,0.039125554263591766
188,2,64,57,0.45739319920539856,0.03430379182100296
188,2,64,58,0.4528794288635254,0.03808830678462982
188,2,64,59,0.42460915446281433,0.041248444467782974
188,2,64,60,0.5219659805297852,0.051278017461299896
188,2,64,61,0.5226221084594727,0.04035084322094917
188,2,64,62,0.5138876438140869,0.07897131145000458
188,2,64,63,0.5594011545181274,0.07754909992218018
188,3,64,0,0.4874563217163086,0.05345315858721733
188,3,64,1,0.42125576734542847,0.08432343602180481
188,3,64,2,0.5548444986343384,0.08041688799858093
188,3,64,3,0.4680268466472626,0.03630979731678963
188,3,64,4,0.5616812109947205,0.049778152257204056
188,3,64,5,0.610914945602417,0.030824093148112297
188,3,64,6,0.4468320310115814,0.0426173098385334
188,3,64,7,0.5116045475006104,0.050822913646698
188,3,64,8,0.5810856223106384,0.036349669098854065
188,3,64,9,0.44352537393569946,0.051305875182151794
188,3,64,10,0.5311050415039062,0.05261216312646866
188,3,64,11,0.4884936809539795,0.04770250618457794
188,3,64,12,0.5447627305984497,0.07734410464763641
188,3,64,13,0.4924474060535431,0.033674273639917374
188,3,64,14,0.4604625105857849,0.05351974815130234
188,3,64,15,0.5214451551437378,0.037822283804416656
188,3,64,16,0.5266459584236145,0.03266178071498871
188,3,64,17,0.36236023902893066,0.04382684454321861
188,3,64,18,0.5315336585044861,0.05429796501994133
188,3,64,19,0.457427442073822,0.06912250071763992
188,3,64,20,0.3921370208263397,0.11907393485307693
188,3,64,21,0.5326208472251892,0.07248453795909882
188,3,64,22,0.6305234432220459,0.03463907912373543
188,3,64,23,0.4786948263645172,0.04868040233850479
188,3,64,24,0.44162994623184204,0.058641042560338974
188,3,64,25,0.5318605303764343,0.07829761505126953
188,3,64,26,0.5708401799201965,0.05401713028550148
188,3,64,27,0.5675223469734192,0.035753123462200165
188,3,64,28,0.4826471507549286,0.07653722167015076
188,3,64,29,0.5009552240371704,0.05857923626899719
188,3,64,30,0.5999830961227417,0.021281354129314423
188,3,64,31,0.4084627032279968,0.05426629260182381
188,3,64,32,0.4202950596809387,0.0484146885573864
188,3,64,33,0.5501940250396729,0.02886742539703846
188,3,64,34,0.505007803440094,0.12351590394973755
188,3,64,35,0.6117964386940002,0.054619185626506805
188,3,64,36,0.46260419487953186,0.0974300429224968
188,3,64,37,0.455143541097641,0.061267998069524765
188,3,64,38,0.5401934385299683,0.025582648813724518
188,3,64,39,0.5042721033096313,0.048175711184740067
188,3,64,40,0.5771979689598083,0.02517007291316986
188,3,64,41,0.6201533675193787,0.033834777772426605
188,3,64,42,0.5030240416526794,0.017571546137332916
188,3,64,43,0.4872484803199768,0.023563744500279427
188,3,64,44,0.3538500666618347,0.037127070128917694
188,3,64,45,0.4572288691997528,0.06840786337852478
188,3,64,46,0.5163513422012329,0.03965900465846062
188,3,64,47,0.4965038001537323,0.04162426292896271
188,3,64,48,0.4737374782562256,0.06216602772474289
188,3,64,49,0.4976225793361664,0.07090361416339874
188,3,64,50,0.49284741282463074,0.0789523646235466
188,3,64,51,0.40350449085235596,0.03285534679889679
188,3,64,52,0.5523081421852112,0.030943281948566437
188,3,64,53,0.43161097168922424,0.08195312321186066
188,3,64,54,0.5487700700759888,0.04947901517152786
188,3,64,55,0.6375741362571716,0.03209567442536354
188,3,64,56,0.5221250057220459,0.04393253102898598
188,3,64,57,0.3772064447402954,0.035323381423950195
188,3,64,58,0.5094883441925049,0.03549760952591896
188,3,64,59,0.5991594195365906,0.027379564940929413
188,3,64,60,0.4221050441265106,0.06954578310251236
188,3,64,61,0.5576758980751038,0.04246886447072029
188,3,64,62,0.4658294916152954,0.04284752532839775
188,3,64,63,0.5013698935508728,0.012946998700499535
188,4,128,0,0.453443706035614,0.0651264488697052
188,4,128,1,0.6465689539909363,0.054499514400959015
188,4,128,2,0.3715851902961731,0.11356309801340103
188,4,128,3,0.4833335876464844,0.08698958903551102
188,4,128,4,0.3768250346183777,0.07875342667102814
188,4,128,5,0.5655766129493713,0.05019432306289673
188,4,128,6,0.5467662811279297,0.027831682935357094
188,4,128,7,0.5687770843505859,0.042953312397003174
188,4,128,8,0.43766292929649353,0.0658826231956482
188,4,128,9,0.5911271572113037,0.11100835353136063
188,4,128,10,0.4610254764556885,0.11281553655862808
188,4,128,11,0.5397348403930664,0.04840383306145668
188,4,128,12,0.45433732867240906,0.08169268071651459
188,4,128,13,0.5686652660369873,0.0770500972867012
188,4,128,14,0.45137500762939453,0.07049452513456345
188,4,128,15,0.4287901818752289,0.0646614208817482
188,4,128,16,0.5822994112968445,0.061776064336299896
188,4,128,17,0.44280117750167847,0.12881600856781006
188,4,128,18,0.5049775242805481,0.07510994374752045
188,4,128,19,0.578869104385376,0.04312431439757347
188,4,128,20,0.6273208260536194,0.062120117247104645
188,4,128,21,0.5227192640304565,0.10330688953399658
188,4,128,22,0.510066032409668,0.05905387923121452
188,4,128,23,0.4552067220211029,0.05069105699658394
188,4,128,24,0.499734103679657,0.028295448049902916
188,4,128,25,0.5695497393608093,0.05153616890311241
188,4,128,26,0.6393904685974121,0.06177297234535217
188,4,128,27,0.5268799662590027,0.0354781448841095
188,4,128,28,0.6606501936912537,0.10665813088417053
188,4,128,29,0.45521461963653564,0.07070054113864899
188,4,128,30,0.5862026810646057,0.07617846876382828
188,4,128,31,0.3888706862926483,0.07927127182483673
188,4,128,32,0.4695964753627777,0.09544474631547928
188,4,128,33,0.631705641746521,0.0858011245727539
188,4,128,34,0.5670087337493896,0.029601942747831345
188,4,128,35,0.46060219407081604,0.10582052916288376
188,4,128,36,0.6081161499023438,0.12501424551010132
188,4,128,37,0.38051649928092957,0.114056795835495
188,4,128,38,0.6303969025611877,0.09656336158514023
188,4,128,39,0.5291696786880493,0.07931870222091675
188,4,128,40,0.5892582535743713,0.04475657641887665
188,4,128,41,0.37114444375038147,0.0429169125854969
188,4,128,42,0.5672303438186646,0.10702860355377197
188,4,128,43,0.6413875818252563,0.06031592935323715
188,4,128,44,0.5583929419517517,0.1076839342713356
188,4,128,45,0.4203852117061615,0.05645594000816345
188,4,128,46,0.462015837430954,0.045854780822992325
188,4,128,47,0.44686171412467957,0.06672665476799011
188,4,128,48,0.44039279222488403,0.07292746752500534
188,4,128,49,0.4564843475818634,0.0757313072681427
188,4,128,50,0.4416619837284088,0.03899982199072838
188,4,128,51,0.529729425907135,0.055422183126211166
188,4,128,52,0.5211780071258545,0.1211090087890625
188,4,128,53,0.4314066469669342,0.034920647740364075
188,4,128,54,0.4453296959400177,0.045788899064064026
188,4,128,55,0.5823742747306824,0.10314905643463135
188,4,128,56,0.6620191931724548,0.15046539902687073
188,4,128,57,0.5449317097663879,0.023430632427334785
188,4,128,58,0.508357584476471,0.03425729274749756
188,4,128,59,0.4592665731906891,0.07703956961631775
188,4,128,60,0.6635271906852722,0.09381572157144547
188,4,128,61,0.6473985314369202,0.16590335965156555
188,4,128,62,0.5468533635139465,0.06848423182964325
188,4,128,63,0.5680339336395264,0.022807138040661812
188,4,128,64,0.33835580945014954,0.10516589134931564
188,4,128,65,0.554192304611206,0.10992594063282013
188,4,128,66,0.550825297832489,0.05371035635471344
188,4,128,67,0.4477565586566925,0.07444410771131516
188,4,128,68,0.5600683689117432,0.07657527178525925
188,4,128,69,0.4892176389694214,0.12495708465576172
188,4,128,70,0.5789219737052917,0.08120890706777573
188,4,128,71,0.49208277463912964,0.14363788068294525
188,4,128,72,0.6624085903167725,0.10195601731538773
188,4,128,73,0.5239075422286987,0.07436604797840118
188,4,128,74,0.4029734432697296,0.07576708495616913
188,4,128,75,0.5414910316467285,0.056092504411935806
188,4,128,76,0.5654483437538147,0.0692533627152443
188,4,128,77,0.44579577445983887,0.07381121069192886
188,4,128,78,0.4858405888080597,0.05819842964410782
188,4,128,79,0.559096097946167,0.031011762097477913
188,4,128,80,0.6337310075759888,0.09049535542726517
188,4,128,81,0.5357018113136292,0.05689486116170883
188,4,128,82,0.3698486089706421,0.08240679651498795
188,4,128,83,0.6299025416374207,0.0912545770406723
188,4,128,84,0.5667282342910767,0.04325636848807335
188,4,128,85,0.6471924185752869,0.05552227422595024
188,4,128,86,0.5729489922523499,0.04907911270856857
188,4,128,87,0.5504686832427979,0.07962498068809509
188,4,128,88,0.6097529530525208,0.19025692343711853
188,4,128,89,0.47293418645858765,0.12346190959215164
188,4,128,90,0.48789918422698975,0.035610031336545944
188,4,128,91,0.4369499087333679,0.0315726138651371
188,4,128,92,0.6532806158065796,0.17130151391029358
188,4,128,93,0.6305690407752991,0.0862969309091568
188,4,128,94,0.47766995429992676,0.04571766033768654
188,4,128,95,0.45586898922920227,0.07842600345611572
188,4,128,96,0.6131008267402649,0.1017412394285202
188,4,128,97,0.5958424806594849,0.07498861104249954
188,4,128,98,0.5246314406394958,0.046126838773489
188,4,128,99,0.44304168224334717,0.05954987183213234
188,4,128,100,0.6684581637382507,0.1329631805419922
188,4,128,101,0.5474113821983337,0.05912697687745094
188,4,128,102,0.6442394256591797,0.08890239149332047
188,4,128,103,0.30836576223373413,0.10585953295230865
188,4,128,104,0.6637040376663208,0.06964309513568878
188,4,128,105,0.5248769521713257,0.0358249694108963
188,4,128,106,0.602696418762207,0.06001371145248413
188,4,128,107,0.5531688928604126,0.05783427879214287
188,4,128,108,0.4626181125640869,0.08975440263748169
188,4,128,109,0.556989848613739,0.14740420877933502
188,4,128,110,0.4781409800052643,0.05408838763833046
188,4,128,111,0.6627794504165649,0.09328821301460266
188,4,128,112,0.4145818054676056,0.06227520853281021
188,4,128,113,0.5402445793151855,0.08923139423131943
188,4,128,114,0.4950244128704071,0.031556084752082825
188,4,128,115,0.5256189107894897,0.05462328717112541
188,4,128,116,0.6700683832168579,0.09296781569719315
188,4,128,117,0.6126275658607483,0.15132328867912292
188,4,128,118,0.44251346588134766,0.06537222862243652
188,4,128,119,0.48527467250823975,0.05975131690502167
188,4,128,120,0.37231677770614624,0.11619022488594055
188,4,128,121,0.5447425246238708,0.1094609797000885
188,4,128,122,0.37947046756744385,0.06431648135185242
188,4,128,123,0.5691911578178406,0.10055200755596161
188,4,128,124,0.44255003333091736,0.10221932828426361
188,4,128,125,0.41683733463287354,0.09355419129133224
188,4,128,126,0.5949284434318542,0.13949993252754211
188,4,128,127,0.3850080370903015,0.048335108906030655
188,5,128,0,0.43680495023727417,0.09217596054077148
188,5,128,1,0.4635561406612396,0.06782360374927521
188,5,128,2,0.6173660159111023,0.1039552390575409
188,5,128,3,0.5896202325820923,0.10366544872522354
188,5,128,4,0.5009896159172058,0.08863004297018051
188,5,128,5,0.5917648077011108,0.0655294805765152
188,5,128,6,0.45561084151268005,0.07620404660701752
188,5,128,7,0.5971443057060242,0.04511061683297157
188,5,128,8,0.4441155791282654,0.06895977258682251
188,5,128,9,0.4419066905975342,0.053932931274175644
188,5,128,10,0.5357449650764465,0.08752692490816116
188,5,128,11,0.5332974791526794,0.09949974715709686
188,5,128,12,0.5697324872016907,0.07156691700220108
188,5,128,13,0.5350824594497681,0.06029845029115677
188,5,128,14,0.4311444163322449,0.07161632925271988
188,5,128,15,0.5536922216415405,0.039136406034231186
188,5,128,16,0.4372296929359436,0.05139067769050598
188,5,128,17,0.5594707131385803,0.08390003442764282
188,5,128,18,0.5030808448791504,0.06534943729639053
188,5,128,19,0.6135494709014893,0.0689423605799675
188,5,128,20,0.4913560152053833,0.04450897127389908
188,5,128,21,0.5109505653381348,0.03768294304609299
188,5,128,22,0.5029720067977905,0.054978616535663605
188,5,128,23,0.41984960436820984,0.038036033511161804
188,5,128,24,0.4437968134880066,0.06184691563248634
188,5,128,25,0.5597397685050964,0.09184033423662186
188,5,128,26,0.4661175310611725,0.10516680777072906
188,5,128,27,0.497754842042923,0.058764878660440445
188,5,128,28,0.4913042485713959,0.04515015333890915
188,5,128,29,0.5305100083351135,0.05760323628783226
188,5,128,30,0.5453508496284485,0.025171911343932152
188,5,128,31,0.5083571076393127,0.05712522193789482
188,5,128,32,0.5826501250267029,0.031490959227085114
188,5,128,33,0.47433945536613464,0.048568520694971085
188,5,128,34,0.4936380684375763,0.037909671664237976
188,5,128,35,0.4133843183517456,0.030099408701062202
188,5,128,36,0.42060181498527527,0.0320831835269928
188,5,128,37,0.6186901926994324,0.08169026672840118
188,5,128,38,0.49991223216056824,0.04280689358711243
188,5,128,39,0.6138383150100708,0.048294585198163986
188,5,128,40,0.5094616413116455,0.035980742424726486
188,5,128,41,0.4603031873703003,0.023518146947026253
188,5,128,42,0.4915236532688141,0.11664803326129913
188,5,128,43,0.5879343748092651,0.061631325632333755
188,5,128,44,0.6376305222511292,0.08320712298154831
188,5,128,45,0.6243579387664795,0.09660830348730087
188,5,128,46,0.46320641040802,0.041255462914705276
188,5,128,47,0.5464069843292236,0.045579537749290466
188,5,128,48,0.5861587524414062,0.04306918382644653
188,5,128,49,0.5487368106842041,0.11561741679906845
188,5,128,50,0.4847228527069092,0.05899253487586975
188,5,128,51,0.4216580092906952,0.05448734015226364
188,5,128,52,0.4098294973373413,0.15074698626995087
188,5,128,53,0.5627315044403076,0.033786650747060776
188,5,128,54,0.5332823991775513,0.06673386693000793
188,5,128,55,0.6416100859642029,0.05595660209655762
188,5,128,56,0.5751718878746033,0.10440610349178314
188,5,128,57,0.5814968347549438,0.025025036185979843
188,5,128,58,0.5064100027084351,0.08052065968513489
188,5,128,59,0.4273739755153656,0.10129202157258987
188,5,128,60,0.47763577103614807,0.06621356308460236
188,5,128,61,0.42428532242774963,0.05597201734781265
188,5,128,62,0.5495118498802185,0.06511015444993973
188,5,128,63,0.4265221357345581,0.06045374274253845
188,5,128,64,0.5089045763015747,0.10187706351280212
188,5,128,65,0.5128377079963684,0.04278240725398064
188,5,128,66,0.5169466137886047,0.08597542345523834
188,5,128,67,0.5225080251693726,0.03438997641205788
188,5,128,68,0.49329182505607605,0.048435088247060776
188,5,128,69,0.5893988013267517,0.06635217368602753
188,5,128,70,0.5440343618392944,0.055377352982759476
188,5,128,71,0.5675455927848816,0.04758426919579506
188,5,128,72,0.5995079874992371,0.11408671736717224
188,5,128,73,0.4795757234096527,0.03869277983903885
188,5,128,74,0.6022632718086243,0.0566028468310833
188,5,128,75,0.5194401144981384,0.0305055882781744
188,5,128,76,0.5168893337249756,0.04180523380637169
188,5,128,77,0.5484743118286133,0.10637225955724716
188,5,128,78,0.49866485595703125,0.045813724398612976
188,5,128,79,0.5736162066459656,0.03407318890094757
188,5,128,80,0.4824258089065552,0.11654893308877945
188,5,128,81,0.5506828427314758,0.0870174840092659
188,5,128,82,0.4834965467453003,0.02497810311615467
188,5,128,83,0.5732277035713196,0.04496372491121292
188,5,128,84,0.48941728472709656,0.07723526656627655
188,5,128,85,0.625024139881134,0.05551162734627724
188,5,128,86,0.5518047213554382,0.06499571353197098
188,5,128,87,0.3940364718437195,0.06025724485516548
188,5,128,88,0.44735750555992126,0.08670685440301895
188,5,128,89,0.4859517216682434,0.07489369809627533
188,5,128,90,0.5494126677513123,0.08906467258930206
188,5,128,91,0.5786153674125671,0.02321597747504711
188,5,128,92,0.47600728273391724,0.10081924498081207
188,5,128,93,0.41586169600486755,0.06905798614025116
188,5,128,94,0.42974337935447693,0.0519709475338459
188,5,128,95,0.44204071164131165,0.06971663236618042
188,5,128,96,0.5008810758590698,0.07480492442846298
188,5,128,97,0.5176016688346863,0.04497316852211952
188,5,128,98,0.524915337562561,0.072686105966568
188,5,128,99,0.5254527926445007,0.060939110815525055
188,5,128,100,0.580792248249054,0.07787080854177475
188,5,128,101,0.489921897649765,0.08454426378011703
188,5,128,102,0.49683326482772827,0.04291757196187973
188,5,128,103,0.4309890568256378,0.07799898833036423
188,5,128,104,0.6595894694328308,0.09637904167175293
188,5,128,105,0.5235135555267334,0.02963661588728428
188,5,128,106,0.42158380150794983,0.06175059452652931
188,5,128,107,0.5709139108657837,0.020058730617165565
188,5,128,108,0.5095754265785217,0.1027744859457016
188,5,128,109,0.3565320372581482,0.05478041619062424
188,5,128,110,0.5165523886680603,0.061206258833408356
188,5,128,111,0.4898695647716522,0.061328526586294174
188,5,128,112,0.5777506828308105,0.05317332223057747
188,5,128,113,0.5179251432418823,0.1014590933918953
188,5,128,114,0.6140519976615906,0.04556231573224068
188,5,128,115,0.4002622663974762,0.07494687288999557
188,5,128,116,0.6211281418800354,0.06111879646778107
188,5,128,117,0.5872460603713989,0.10336662083864212
188,5,128,118,0.5123440623283386,0.026058975607156754
188,5,128,119,0.5108714699745178,0.03544209152460098
188,5,128,120,0.5391430258750916,0.03848109394311905
188,5,128,121,0.4527060389518738,0.03285788744688034
188,5,128,122,0.4784690737724304,0.07756979763507843
188,5,128,123,0.5700498819351196,0.03485781326889992
188,5,128,124,0.4085404872894287,0.03243502229452133
188,5,128,125,0.6560197472572327,0.06340336799621582
188,5,128,126,0.5086425542831421,0.047371551394462585
188,5,128,127,0.6044341325759888,0.068400539457798
189,0,32,0,0.43445107340812683,0.09625748544931412
189,0,32,1,0.6145267486572266,0.08381160348653793
189,0,32,2,0.5923195481300354,0.04165041819214821
189,0,32,3,0.5328786373138428,0.03667353466153145
189,0,32,4,0.571977972984314,0.07341156899929047
189,0,32,5,0.48520392179489136,0.05312320962548256
189,0,32,6,0.4019565284252167,0.10525070875883102
189,0,32,7,0.4268845021724701,0.031176885589957237
189,0,32,8,0.5078173875808716,0.038326065987348557
189,0,32,9,0.6032545566558838,0.0863848477602005
189,0,32,10,0.6231399178504944,0.06721986085176468
189,0,32,11,0.4620569944381714,0.023083768784999847
189,0,32,12,0.4817734360694885,0.0906725749373436
189,0,32,13,0.40300992131233215,0.039583969861269
189,0,32,14,0.4913029670715332,0.07692620903253555
189,0,32,15,0.5351996421813965,0.09974269568920135
189,0,32,16,0.5108691453933716,0.03893667086958885
189,0,32,17,0.5909762978553772,0.10712465643882751
189,0,32,18,0.364836186170578,0.07007454335689545
189,0,32,19,0.48354145884513855,0.05408070236444473
189,0,32,20,0.574418842792511,0.049564044922590256
189,0,32,21,0.5745152831077576,0.04463838040828705
189,0,32,22,0.5036646723747253,0.02348693646490574
189,0,32,23,0.5328836441040039,0.058690689504146576
189,0,32,24,0.45649391412734985,0.029950479045510292
189,0,32,25,0.5421600937843323,0.0905311107635498
189,0,32,26,0.48897019028663635,0.026908474043011665
189,0,32,27,0.5299437642097473,0.07652444392442703
189,0,32,28,0.4123155176639557,0.1013350859284401
189,0,32,29,0.6469600796699524,0.053873173892498016
189,0,32,30,0.5904653668403625,0.09550745040178299
189,0,32,31,0.5534921884536743,0.1193402111530304
189,1,32,0,0.48247259855270386,0.08295068144798279
189,1,32,1,0.5595428943634033,0.026807324960827827
189,1,32,2,0.6233145594596863,0.06792901456356049
189,1,32,3,0.48423683643341064,0.04390018805861473
189,1,32,4,0.5625638961791992,0.09380118548870087
189,1,32,5,0.5956429839134216,0.08517525345087051
189,1,32,6,0.4492270350456238,0.05834615230560303
189,1,32,7,0.617626428604126,0.06751196831464767
189,1,32,8,0.5649442076683044,0.10967137664556503
189,1,32,9,0.5041089057922363,0.15420080721378326
189,1,32,10,0.544818103313446,0.09531731903553009
189,1,32,11,0.4143638014793396,0.07546472549438477
189,1,32,12,0.4763440787792206,0.052765924483537674
189,1,32,13,0.4315021336078644,0.04647674411535263
189,1,32,14,0.5514360070228577,0.016885438933968544
189,1,32,15,0.4899672567844391,0.04725397378206253
189,1,32,16,0.41552531719207764,0.11320222169160843
189,1,32,17,0.5157036781311035,0.05713372677564621
189,1,32,18,0.5448000431060791,0.10620468109846115
189,1,32,19,0.36280471086502075,0.03795723244547844
189,1,32,20,0.5159772634506226,0.07532869279384613
189,1,32,21,0.48140260577201843,0.05857173353433609
189,1,32,22,0.5637760758399963,0.0881209596991539
189,1,32,23,0.4664731025695801,0.03329089283943176
189,1,32,24,0.5430415272712708,0.07284578680992126
189,1,32,25,0.33632132411003113,0.06868607550859451
189,1,32,26,0.4810771644115448,0.0721912607550621
189,1,32,27,0.5412952303886414,0.12082716822624207
189,1,32,28,0.49427714943885803,0.08436302840709686
189,1,32,29,0.44898226857185364,0.09942194819450378
189,1,32,30,0.5328744053840637,0.11116477102041245
189,1,32,31,0.41968995332717896,0.12592880427837372
189,2,64,0,0.40715697407722473,0.11369160562753677
189,2,64,1,0.49078479409217834,0.08287854492664337
189,2,64,2,0.5542483925819397,0.12278222292661667
189,2,64,3,0.5585169196128845,0.06872976571321487
189,2,64,4,0.7066398859024048,0.12049973011016846
189,2,64,5,0.4918598234653473,0.12050560861825943
189,2,64,6,0.6251020431518555,0.15195883810520172
189,2,64,7,0.43968310952186584,0.08520927280187607
189,2,64,8,0.5325194597244263,0.0973949059844017
189,2,64,9,0.5576489567756653,0.1702798306941986
189,2,64,10,0.5669902563095093,0.10033655166625977
189,2,64,11,0.4989950358867645,0.09758937358856201
189,2,64,12,0.5224893689155579,0.10972484946250916
189,2,64,13,0.44226619601249695,0.11608006060123444
189,2,64,14,0.35596829652786255,0.12511049211025238
189,2,64,15,0.3751576244831085,0.14884744584560394
189,2,64,16,0.4770699441432953,0.09593597054481506
189,2,64,17,0.4705316126346588,0.12624943256378174
189,2,64,18,0.5494450330734253,0.0540449395775795
189,2,64,19,0.5813281536102295,0.051342952996492386
189,2,64,20,0.42039546370506287,0.11517515778541565
189,2,64,21,0.6130455136299133,0.09735815972089767
189,2,64,22,0.3954140543937683,0.03956519067287445
189,2,64,23,0.3680766820907593,0.0925317108631134
189,2,64,24,0.5857914090156555,0.11351142078638077
189,2,64,25,0.6536721587181091,0.08442729711532593
189,2,64,26,0.4973849058151245,0.14318083226680756
189,2,64,27,0.38710108399391174,0.1242486909031868
189,2,64,28,0.660321831703186,0.1741764098405838
189,2,64,29,0.48989516496658325,0.08207467198371887
189,2,64,30,0.5815187692642212,0.1092485785484314
189,2,64,31,0.507665753364563,0.15041948854923248
189,2,64,32,0.436435729265213,0.1109931543469429
189,2,64,33,0.4417469799518585,0.08109280467033386
189,2,64,34,0.5021520853042603,0.09596208482980728
189,2,64,35,0.4828093945980072,0.1566627472639084
189,2,64,36,0.5621790289878845,0.15125612914562225
189,2,64,37,0.4158572554588318,0.19146409630775452
189,2,64,38,0.6136272549629211,0.17969949543476105
189,2,64,39,0.566826343536377,0.0975278690457344
189,2,64,40,0.42944222688674927,0.16526076197624207
189,2,64,41,0.45178931951522827,0.14759589731693268
189,2,64,42,0.5225147008895874,0.1434030830860138
189,2,64,43,0.3447019159793854,0.14104406535625458
189,2,64,44,0.5189905166625977,0.09533166885375977
189,2,64,45,0.4072624146938324,0.09680302441120148
189,2,64,46,0.6067822575569153,0.1617286056280136
189,2,64,47,0.6167884469032288,0.17685414850711823
189,2,64,48,0.5974622368812561,0.10561580210924149
189,2,64,49,0.47019171714782715,0.12680719792842865
189,2,64,50,0.5786726474761963,0.11340280622243881
189,2,64,51,0.5425824522972107,0.14772191643714905
189,2,64,52,0.4999772012233734,0.11668246239423752
189,2,64,53,0.3631477952003479,0.08831334114074707
189,2,64,54,0.5371628403663635,0.12743058800697327
189,2,64,55,0.49397844076156616,0.11873339116573334
189,2,64,56,0.4933885931968689,0.12920597195625305
189,2,64,57,0.6546236276626587,0.1143244132399559
189,2,64,58,0.5416602492332458,0.08609815686941147
189,2,64,59,0.5236390233039856,0.13940347731113434
189,2,64,60,0.6544747948646545,0.06149238720536232
189,2,64,61,0.3923018276691437,0.11341424286365509
189,2,64,62,0.4677845537662506,0.08262359350919724
189,2,64,63,0.42035943269729614,0.13623549044132233
189,3,64,0,0.5931757092475891,0.12678171694278717
189,3,64,1,0.47812995314598083,0.08855272084474564
189,3,64,2,0.4692472219467163,0.09106556326150894
189,3,64,3,0.6005271077156067,0.13893799483776093
189,3,64,4,0.5144256353378296,0.11991656571626663
189,3,64,5,0.4776908755302429,0.20095929503440857
189,3,64,6,0.5690481066703796,0.09383608400821686
189,3,64,7,0.4753273129463196,0.13866126537322998
189,3,64,8,0.5619412064552307,0.1578834503889084
189,3,64,9,0.5479919910430908,0.0740862488746643
189,3,64,10,0.46349525451660156,0.1727481186389923
189,3,64,11,0.43113577365875244,0.05726031959056854
189,3,64,12,0.6153444051742554,0.09949257224798203
189,3,64,13,0.6710417866706848,0.11175663769245148
189,3,64,14,0.5872529149055481,0.14038221538066864
189,3,64,15,0.4718538820743561,0.12043002247810364
189,3,64,16,0.602573573589325,0.0691540539264679
189,3,64,17,0.47145581245422363,0.1038280501961708
189,3,64,18,0.4679339826107025,0.08726679533720016
189,3,64,19,0.5861417055130005,0.11718766391277313
189,3,64,20,0.515098512172699,0.08692681789398193
189,3,64,21,0.43249207735061646,0.11022746562957764
189,3,64,22,0.5105857849121094,0.09358318895101547
189,3,64,23,0.42081743478775024,0.2015930712223053
189,3,64,24,0.4407835900783539,0.06770434230566025
189,3,64,25,0.45040163397789,0.10291101783514023
189,3,64,26,0.35765722393989563,0.11096936464309692
189,3,64,27,0.48766687512397766,0.09555713832378387
189,3,64,28,0.40943050384521484,0.14208759367465973
189,3,64,29,0.3709886968135834,0.16568484902381897
189,3,64,30,0.5948552489280701,0.12032388895750046
189,3,64,31,0.535574197769165,0.1270073503255844
189,3,64,32,0.4944514334201813,0.04943573474884033
189,3,64,33,0.49452540278434753,0.1477927714586258
189,3,64,34,0.3996351361274719,0.09787967801094055
189,3,64,35,0.4583951234817505,0.09163138270378113
189,3,64,36,0.5795627236366272,0.0914321020245552
189,3,64,37,0.5265722870826721,0.09797690808773041
189,3,64,38,0.40487486124038696,0.1283300668001175
189,3,64,39,0.5809316039085388,0.1373518407344818
189,3,64,40,0.474796861410141,0.1758902221918106
189,3,64,41,0.37909582257270813,0.12033835798501968
189,3,64,42,0.48805636167526245,0.20989474654197693
189,3,64,43,0.48841598629951477,0.1396428942680359
189,3,64,44,0.4502686858177185,0.09941911697387695
189,3,64,45,0.5390034317970276,0.11388308554887772
189,3,64,46,0.46149057149887085,0.15659257769584656
189,3,64,47,0.448930025100708,0.20898467302322388
189,3,64,48,0.6161826252937317,0.08423727750778198
189,3,64,49,0.5497093796730042,0.05794015899300575
189,3,64,50,0.4994038939476013,0.16001318395137787
189,3,64,51,0.44437599182128906,0.13629330694675446
189,3,64,52,0.35878610610961914,0.09163136035203934
189,3,64,53,0.45549049973487854,0.10335493087768555
189,3,64,54,0.5766680240631104,0.08580467849969864
189,3,64,55,0.5951864123344421,0.09471843391656876
189,3,64,56,0.5369935631752014,0.16588549315929413
189,3,64,57,0.6070606708526611,0.09974556416273117
189,3,64,58,0.5184853076934814,0.1627717912197113
189,3,64,59,0.46397167444229126,0.20032908022403717
189,3,64,60,0.4988637864589691,0.12743104994297028
189,3,64,61,0.5651503801345825,0.11442681401968002
189,3,64,62,0.4288705885410309,0.1329726278781891
189,3,64,63,0.5662558674812317,0.1797754168510437
189,4,128,0,0.48919224739074707,0.25102075934410095
189,4,128,1,0.5347064137458801,0.2969934344291687
189,4,128,2,0.39375126361846924,0.1163361519575119
189,4,128,3,0.48096978664398193,0.1712937355041504
189,4,128,4,0.6511083245277405,0.19826295971870422
189,4,128,5,0.6810578107833862,0.11088452488183975
189,4,128,6,0.5585685968399048,0.16496986150741577
189,4,128,7,0.3235393464565277,0.1173601895570755
189,4,128,8,0.5365933775901794,0.27471184730529785
189,4,128,9,0.3277774155139923,0.08226548880338669
189,4,128,10,0.6287487149238586,0.07310998439788818
189,4,128,11,0.4938049018383026,0.14175303280353546
189,4,128,12,0.6170278191566467,0.1680585741996765
189,4,128,13,0.6814355850219727,0.11785731464624405
189,4,128,14,0.45226529240608215,0.1364874243736267
189,4,128,15,0.475513219833374,0.11201494932174683
189,4,128,16,0.5422251224517822,0.23961353302001953
189,4,128,17,0.48217394948005676,0.24009969830513
189,4,128,18,0.44931039214134216,0.2497529536485672
189,4,128,19,0.5863965153694153,0.2037813365459442
189,4,128,20,0.5935559868812561,0.10861202329397202
189,4,128,21,0.49437904357910156,0.07000371813774109
189,4,128,22,0.7042577266693115,0.1225527971982956
189,4,128,23,0.5589208006858826,0.22410808503627777
189,4,128,24,0.6313971281051636,0.08292311429977417
189,4,128,25,0.5224044322967529,0.3199382722377777
189,4,128,26,0.5227277874946594,0.16498486697673798
189,4,128,27,0.49322155117988586,0.24412812292575836
189,4,128,28,0.3902361989021301,0.15033768117427826
189,4,128,29,0.5199368000030518,0.16251711547374725
189,4,128,30,0.6018908619880676,0.1581748127937317
189,4,128,31,0.5265522599220276,0.08161269128322601
189,4,128,32,0.6183600425720215,0.18082721531391144
189,4,128,33,0.638972818851471,0.18930433690547943
189,4,128,34,0.47968992590904236,0.25832340121269226
189,4,128,35,0.4366441071033478,0.23866328597068787
189,4,128,36,0.3859115540981293,0.13340573012828827
189,4,128,37,0.6487551927566528,0.13634240627288818
189,4,128,38,0.5380472540855408,0.18375185132026672
189,4,128,39,0.6787083148956299,0.13286715745925903
189,4,128,40,0.40600889921188354,0.22934748232364655
189,4,128,41,0.5099359750747681,0.24898822605609894
189,4,128,42,0.494098037481308,0.1314198076725006
189,4,128,43,0.5233041048049927,0.20967155694961548
189,4,128,44,0.6971092820167542,0.11316417902708054
189,4,128,45,0.4844413101673126,0.17571192979812622
189,4,128,46,0.4748229384422302,0.24297823011875153
189,4,128,47,0.6029044389724731,0.17989125847816467
189,4,128,48,0.6354843974113464,0.14358249306678772
189,4,128,49,0.49047529697418213,0.32452884316444397
189,4,128,50,0.5619938969612122,0.18230964243412018
189,4,128,51,0.5966437458992004,0.11127757281064987
189,4,128,52,0.5592758059501648,0.35191670060157776
189,4,128,53,0.48139846324920654,0.13205310702323914
189,4,128,54,0.40098297595977783,0.1471664309501648
189,4,128,55,0.39978542923927307,0.15119004249572754
189,4,128,56,0.4635491669178009,0.10649808496236801
189,4,128,57,0.4155779778957367,0.17761050164699554
189,4,128,58,0.5112960338592529,0.18183135986328125
189,4,128,59,0.6029956936836243,0.17855550348758698
189,4,128,60,0.5555340051651001,0.3003573715686798
189,4,128,61,0.5021106600761414,0.1148507222533226
189,4,128,62,0.5182735919952393,0.2562541365623474
189,4,128,63,0.5724571943283081,0.24066400527954102
189,4,128,64,0.6538049578666687,0.07891442626714706
189,4,128,65,0.5099161267280579,0.3098326027393341
189,4,128,66,0.7562629580497742,0.09637399762868881
189,4,128,67,0.5276520252227783,0.2071669101715088
189,4,128,68,0.5083486437797546,0.26940879225730896
189,4,128,69,0.2844149172306061,0.14208467304706573
189,4,128,70,0.5007070302963257,0.33095359802246094
189,4,128,71,0.5641945600509644,0.2919692397117615
189,4,128,72,0.4349064826965332,0.19187922775745392
189,4,128,73,0.7096506953239441,0.09273450821638107
189,4,128,74,0.5050775408744812,0.13306374847888947
189,4,128,75,0.523440420627594,0.16225016117095947
189,4,128,76,0.45924991369247437,0.08201753348112106
189,4,128,77,0.4860078692436218,0.24957624077796936
189,4,128,78,0.666537344455719,0.18297003209590912
189,4,128,79,0.7311586141586304,0.10089006274938583
189,4,128,80,0.5323003530502319,0.17212040722370148
189,4,128,81,0.5479485392570496,0.27840498089790344
189,4,128,82,0.4833097755908966,0.21802982687950134
189,4,128,83,0.5611976385116577,0.21942506730556488
189,4,128,84,0.4157903492450714,0.14545798301696777
189,4,128,85,0.5235840678215027,0.25235217809677124
189,4,128,86,0.5637983679771423,0.1429564356803894
189,4,128,87,0.4150691628456116,0.15486258268356323
189,4,128,88,0.5186737775802612,0.17310550808906555
189,4,128,89,0.5493698120117188,0.27311772108078003
189,4,128,90,0.578683078289032,0.20381543040275574
189,4,128,91,0.4983159899711609,0.19763939082622528
189,4,128,92,0.6665061116218567,0.2118450254201889
189,4,128,93,0.4058777689933777,0.22527457773685455
189,4,128,94,0.4022364914417267,0.18587566912174225
189,4,128,95,0.517107367515564,0.19716666638851166
189,4,128,96,0.5730072259902954,0.12559103965759277
189,4,128,97,0.47904258966445923,0.25087374448776245
189,4,128,98,0.5444914102554321,0.15588024258613586
189,4,128,99,0.5503349900245667,0.231662318110466
189,4,128,100,0.576593816280365,0.1830267310142517
189,4,128,101,0.5741659998893738,0.18248049914836884
189,4,128,102,0.3605582118034363,0.1374465525150299
189,4,128,103,0.43282845616340637,0.13346229493618011
189,4,128,104,0.5616158843040466,0.1292489618062973
189,4,128,105,0.8144115209579468,0.08306118845939636
189,4,128,106,0.4656149446964264,0.1704157292842865
189,4,128,107,0.559202253818512,0.15586555004119873
189,4,128,108,0.49117717146873474,0.31030964851379395
189,4,128,109,0.6758535504341125,0.12433959543704987
189,4,128,110,0.7037583589553833,0.10680153220891953
189,4,128,111,0.764171302318573,0.10198679566383362
189,4,128,112,0.6089174747467041,0.09340978413820267
189,4,128,113,0.4143461585044861,0.09186083823442459
189,4,128,114,0.5285477638244629,0.23520538210868835
189,4,128,115,0.5419159531593323,0.2142084538936615
189,4,128,116,0.49080172181129456,0.23291313648223877
189,4,128,117,0.5266026854515076,0.3049767315387726
189,4,128,118,0.5653712749481201,0.23635375499725342
189,4,128,119,0.2898741364479065,0.08253413438796997
189,4,128,120,0.6397198438644409,0.2072557806968689
189,4,128,121,0.6281763911247253,0.13793553411960602
189,4,128,122,0.5946734547615051,0.14620764553546906
189,4,128,123,0.5704912543296814,0.12059485912322998
189,4,128,124,0.37102121114730835,0.19221821427345276
189,4,128,125,0.4854549765586853,0.24895460903644562
189,4,128,126,0.5760374665260315,0.0998716652393341
189,4,128,127,0.606257438659668,0.11448590457439423
189,5,128,0,0.7382806539535522,0.08999138325452805
189,5,128,1,0.7086949348449707,0.12379487603902817
189,5,128,2,0.5232962965965271,0.08242395520210266
189,5,128,3,0.5820275545120239,0.14521090686321259
189,5,128,4,0.7078285813331604,0.11072725802659988
189,5,128,5,0.6136462092399597,0.10972126573324203
189,5,128,6,0.6524261236190796,0.0541650727391243
189,5,128,7,0.7660332322120667,0.12460384517908096
189,5,128,8,0.8338475823402405,0.08466847240924835
189,5,128,9,0.5835445523262024,0.1406390517950058
189,5,128,10,0.414374977350235,0.08218914270401001
189,5,128,11,0.5414945483207703,0.10600534826517105
189,5,128,12,0.7898025512695312,0.14025112986564636
189,5,128,13,0.6220448613166809,0.09754383563995361
189,5,128,14,0.6839308142662048,0.126531720161438
189,5,128,15,0.5526131987571716,0.164489284157753
189,5,128,16,0.6322755813598633,0.15814261138439178
189,5,128,17,0.6181253790855408,0.13539691269397736
189,5,128,18,0.5370346903800964,0.18212175369262695
189,5,128,19,0.6308851838111877,0.19376195967197418
189,5,128,20,0.5079480409622192,0.04090272635221481
189,5,128,21,0.7616767287254333,0.09217085689306259
189,5,128,22,0.6138636469841003,0.17246860265731812
189,5,128,23,0.7200157642364502,0.12894362211227417
189,5,128,24,0.617446780204773,0.12169500440359116
189,5,128,25,0.6856424808502197,0.11460372060537338
189,5,128,26,0.6281195282936096,0.19645057618618011
189,5,128,27,0.6941778063774109,0.15150479972362518
189,5,128,28,0.4156358540058136,0.08884820342063904
189,5,128,29,0.7631791234016418,0.10937676578760147
189,5,128,30,0.6439773440361023,0.2714431583881378
189,5,128,31,0.6446695923805237,0.07596448808908463
189,5,128,32,0.6638678908348083,0.06344366818666458
189,5,128,33,0.680849015712738,0.09387227892875671
189,5,128,34,0.7524439096450806,0.13392400741577148
189,5,128,35,0.6182090640068054,0.14961984753608704
189,5,128,36,0.7055325508117676,0.09801418334245682
189,5,128,37,0.46841809153556824,0.20517465472221375
189,5,128,38,0.4549877345561981,0.15864646434783936
189,5,128,39,0.5940401554107666,0.11214852333068848
189,5,128,40,0.39876458048820496,0.2786230146884918
189,5,128,41,0.6824737191200256,0.13192720711231232
189,5,128,42,0.5022097229957581,0.1985711008310318
189,5,128,43,0.551257848739624,0.15108536183834076
189,5,128,44,0.7843557596206665,0.11221350729465485
189,5,128,45,0.7382912635803223,0.12207820266485214
189,5,128,46,0.6027897000312805,0.1297025978565216
189,5,128,47,0.6002596616744995,0.1930612474679947
189,5,128,48,0.5759743452072144,0.12975268065929413
189,5,128,49,0.7965194582939148,0.11342589557170868
189,5,128,50,0.6309608221054077,0.09007296711206436
189,5,128,51,0.7303091287612915,0.13021720945835114
189,5,128,52,0.7698774933815002,0.1392870843410492
189,5,128,53,0.6520172953605652,0.10937181115150452
189,5,128,54,0.5910904407501221,0.20802979171276093
189,5,128,55,0.5998272895812988,0.18131203949451447
189,5,128,56,0.6042107343673706,0.13913187384605408
189,5,128,57,0.6232041120529175,0.13316529989242554
189,5,128,58,0.5939027070999146,0.15004517138004303
189,5,128,59,0.7599266767501831,0.13109587132930756
189,5,128,60,0.784700334072113,0.08777432888746262
189,5,128,61,0.6605439782142639,0.1545560508966446
189,5,128,62,0.7200717329978943,0.10582076013088226
189,5,128,63,0.6765577793121338,0.14694546163082123
189,5,128,64,0.6742322444915771,0.07134635746479034
189,5,128,65,0.479646772146225,0.15315745770931244
189,5,128,66,0.7234764099121094,0.10861239582300186
189,5,128,67,0.6909381747245789,0.07715535908937454
189,5,128,68,0.4915894567966461,0.21330302953720093
189,5,128,69,0.4895666837692261,0.05406002700328827
189,5,128,70,0.5787459015846252,0.22549360990524292
189,5,128,71,0.7911084294319153,0.10489249974489212
189,5,128,72,0.6122305393218994,0.13665416836738586
189,5,128,73,0.7037843465805054,0.22091689705848694
189,5,128,74,0.7404563426971436,0.14655275642871857
189,5,128,75,0.7553825378417969,0.10389687865972519
189,5,128,76,0.42500731348991394,0.10937289893627167
189,5,128,77,0.69074946641922,0.09845874458551407
189,5,128,78,0.6223853230476379,0.20027944445610046
189,5,128,79,0.6208822727203369,0.12782633304595947
189,5,128,80,0.6904621720314026,0.0814051702618599
189,5,128,81,0.48930567502975464,0.1923062950372696
189,5,128,82,0.7669879794120789,0.14387908577919006
189,5,128,83,0.6980962157249451,0.1117478460073471
189,5,128,84,0.5983492136001587,0.13156598806381226
189,5,128,85,0.5995673537254333,0.15252019464969635
189,5,128,86,0.6331321597099304,0.17901024222373962
189,5,128,87,0.7033698558807373,0.24586647748947144
189,5,128,88,0.509371280670166,0.17919296026229858
189,5,128,89,0.6296814680099487,0.13962216675281525
189,5,128,90,0.6281160116195679,0.15421000123023987
189,5,128,91,0.5154023170471191,0.19332076609134674
189,5,128,92,0.5916181206703186,0.14275600016117096
189,5,128,93,0.5359761118888855,0.13334493339061737
189,5,128,94,0.5913841128349304,0.12083066999912262
189,5,128,95,0.5701170563697815,0.22398720681667328
189,5,128,96,0.6695675849914551,0.20335866510868073
189,5,128,97,0.5078281164169312,0.10997188836336136
189,5,128,98,0.5629528164863586,0.16462956368923187
189,5,128,99,0.4778784215450287,0.07444927096366882
189,5,128,100,0.5240746140480042,0.22544564306735992
189,5,128,101,0.7527353763580322,0.10384651273488998
189,5,128,102,0.6034349203109741,0.10675333440303802
189,5,128,103,0.6612944602966309,0.16933229565620422
189,5,128,104,0.6017470955848694,0.164822056889534
189,5,128,105,0.7624499797821045,0.11195733398199081
189,5,128,106,0.4541931450366974,0.16781815886497498
189,5,128,107,0.4882346987724304,0.13027435541152954
189,5,128,108,0.6013772487640381,0.09548206627368927
189,5,128,109,0.6093900203704834,0.16705374419689178
189,5,128,110,0.6622389554977417,0.15269209444522858
189,5,128,111,0.44923895597457886,0.18079128861427307
189,5,128,112,0.47940367460250854,0.13050352036952972
189,5,128,113,0.4665265679359436,0.1327590048313141
189,5,128,114,0.6398704648017883,0.07665228098630905
189,5,128,115,0.6264041662216187,0.10634567588567734
189,5,128,116,0.6740965843200684,0.11798432469367981
189,5,128,117,0.6982350945472717,0.11627700179815292
189,5,128,118,0.5756020545959473,0.17729005217552185
189,5,128,119,0.5127070546150208,0.21353411674499512
189,5,128,120,0.6977566480636597,0.09754016250371933
189,5,128,121,0.6930096745491028,0.06383609771728516
189,5,128,122,0.7310987114906311,0.11954424530267715
189,5,128,123,0.4328290522098541,0.12603740394115448
189,5,128,124,0.5938142538070679,0.13197852671146393
189,5,128,125,0.6031808257102966,0.22156962752342224
189,5,128,126,0.6017934083938599,0.1141681894659996
189,5,128,127,0.7013203501701355,0.14105822145938873
190,0,32,0,0.34612706303596497,0.07050636410713196
190,0,32,1,0.5574707388877869,0.07099029421806335
190,0,32,2,0.4445314109325409,0.09956515580415726
190,0,32,3,0.49926525354385376,0.10147354751825333
190,0,32,4,0.460569828748703,0.11247780919075012
190,0,32,5,0.687768280506134,0.0638166144490242
190,0,32,6,0.4625971019268036,0.08085542172193527
190,0,32,7,0.43802499771118164,0.05063604190945625
190,0,32,8,0.3946484327316284,0.09504716843366623
190,0,32,9,0.3708052337169647,0.06294723600149155
190,0,32,10,0.5519405007362366,0.031506214290857315
190,0,32,11,0.627615749835968,0.05775276571512222
190,0,32,12,0.5832893252372742,0.02369157411158085
190,0,32,13,0.417006254196167,0.0567801408469677
190,0,32,14,0.42594870924949646,0.06935913115739822
190,0,32,15,0.5576485395431519,0.031248388811945915
190,0,32,16,0.33832409977912903,0.07360096275806427
190,0,32,17,0.6180428266525269,0.049451734870672226
190,0,32,18,0.591995894908905,0.11084068566560745
190,0,32,19,0.5049328804016113,0.08766809105873108
190,0,32,20,0.46328890323638916,0.05353714898228645
190,0,32,21,0.4709877669811249,0.07451324909925461
190,0,32,22,0.5929009318351746,0.0773644745349884
190,0,32,23,0.48292046785354614,0.11829482018947601
190,0,32,24,0.4960581958293915,0.07528605312108994
190,0,32,25,0.5616997480392456,0.07568762451410294
190,0,32,26,0.4507611095905304,0.07063170522451401
190,0,32,27,0.4534786343574524,0.10268620401620865
190,0,32,28,0.4390563666820526,0.05583294853568077
190,0,32,29,0.3556579649448395,0.09887824207544327
190,0,32,30,0.4244075119495392,0.1003386378288269
190,0,32,31,0.40871578454971313,0.06631223857402802
190,1,32,0,0.5119279623031616,0.10629814863204956
190,1,32,1,0.4752042591571808,0.09737210720777512
190,1,32,2,0.5770899653434753,0.06329982727766037
190,1,32,3,0.33408552408218384,0.07751934975385666
190,1,32,4,0.5772280097007751,0.047226693481206894
190,1,32,5,0.4445182979106903,0.048449497669935226
190,1,32,6,0.5375117659568787,0.10383840650320053
190,1,32,7,0.3531104624271393,0.11751968413591385
190,1,32,8,0.37332215905189514,0.07160022109746933
190,1,32,9,0.449847012758255,0.1604471355676651
190,1,32,10,0.5401365756988525,0.10113546997308731
190,1,32,11,0.4591531753540039,0.07006678730249405
190,1,32,12,0.6188998222351074,0.08569448441267014
190,1,32,13,0.4179927408695221,0.1475926637649536
190,1,32,14,0.40589040517807007,0.1373559534549713
190,1,32,15,0.5387128591537476,0.09196402132511139
190,1,32,16,0.38856109976768494,0.12885335087776184
190,1,32,17,0.4302888810634613,0.043076854199171066
190,1,32,18,0.3491020202636719,0.09272012114524841
190,1,32,19,0.4826686680316925,0.10629723221063614
190,1,32,20,0.4963257908821106,0.12016080319881439
190,1,32,21,0.5342881083488464,0.09722381085157394
190,1,32,22,0.5596835017204285,0.08293140679597855
190,1,32,23,0.5997562408447266,0.04586982727050781
190,1,32,24,0.44404977560043335,0.09995172917842865
190,1,32,25,0.6538079380989075,0.05697918310761452
190,1,32,26,0.5896196961402893,0.1391206979751587
190,1,32,27,0.3500559329986572,0.06257373094558716
190,1,32,28,0.6213094592094421,0.08337142318487167
190,1,32,29,0.4987582862377167,0.10216781497001648
190,1,32,30,0.385638028383255,0.031595852226018906
190,1,32,31,0.5228684544563293,0.06851667165756226
190,2,64,0,0.566850483417511,0.20782315731048584
190,2,64,1,0.27296119928359985,0.11228850483894348
190,2,64,2,0.5954180955886841,0.09428498893976212
190,2,64,3,0.5103839635848999,0.06386406719684601
190,2,64,4,0.5356079936027527,0.15055888891220093
190,2,64,5,0.3397531509399414,0.1017368957400322
190,2,64,6,0.6106189489364624,0.08698026835918427
190,2,64,7,0.5286595225334167,0.13750524818897247
190,2,64,8,0.4446541666984558,0.11332493275403976
190,2,64,9,0.3806694746017456,0.12659354507923126
190,2,64,10,0.46843889355659485,0.08527091890573502
190,2,64,11,0.5933557152748108,0.12167788296937943
190,2,64,12,0.5756083726882935,0.14112818241119385
190,2,64,13,0.5342197418212891,0.08758518844842911
190,2,64,14,0.5918251276016235,0.0847250446677208
190,2,64,15,0.5907151103019714,0.12734392285346985
190,2,64,16,0.4497894048690796,0.0865805521607399
190,2,64,17,0.44612759351730347,0.10572649538516998
190,2,64,18,0.5323674082756042,0.1308634877204895
190,2,64,19,0.6949714422225952,0.10644666105508804
190,2,64,20,0.5091688632965088,0.16210901737213135
190,2,64,21,0.36454784870147705,0.13415205478668213
190,2,64,22,0.6877296566963196,0.05625889450311661
190,2,64,23,0.5240445733070374,0.1469823271036148
