subject,block,block_width,feature_channel,gate_mean,gate_sd
156,0,32,0,0.494087278842926,0.11233194172382355
156,0,32,1,0.5088761448860168,0.08009029924869537
156,0,32,2,0.6248312592506409,0.09166181832551956
156,0,32,3,0.3543689548969269,0.15261490643024445
156,0,32,4,0.429330974817276,0.08545298129320145
156,0,32,5,0.4558509588241577,0.05436079949140549
156,0,32,6,0.5516073107719421,0.06166112422943115
156,0,32,7,0.608992874622345,0.07120616734027863
156,0,32,8,0.5084406137466431,0.03535989299416542
156,0,32,9,0.363910049200058,0.07019560784101486
156,0,32,10,0.29835042357444763,0.12010932713747025
156,0,32,11,0.4497995376586914,0.13438807427883148
156,0,32,12,0.4951571822166443,0.04749808833003044
156,0,32,13,0.32548895478248596,0.11099395155906677
156,0,32,14,0.5870962738990784,0.11496754735708237
156,0,32,15,0.5973829627037048,0.11849560588598251
156,0,32,16,0.4405337870121002,0.05754641816020012
156,0,32,17,0.47067582607269287,0.12075840681791306
156,0,32,18,0.6050077080726624,0.05777382105588913
156,0,32,19,0.4513930082321167,0.05939605459570885
156,0,32,20,0.5697336792945862,0.04142811521887779
156,0,32,21,0.510648250579834,0.09003251791000366
156,0,32,22,0.3984746038913727,0.13572156429290771
156,0,32,23,0.3363878130912781,0.11557451635599136
156,0,32,24,0.3803974986076355,0.05531647428870201
156,0,32,25,0.48328688740730286,0.04976334050297737
156,0,32,26,0.49366846680641174,0.09234302490949631
156,0,32,27,0.5027002692222595,0.016502071171998978
156,0,32,28,0.34470176696777344,0.11151082813739777
156,0,32,29,0.4812374413013458,0.1383713334798813
156,0,32,30,0.5021579265594482,0.14727827906608582
156,0,32,31,0.528852105140686,0.0785127580165863
156,1,32,0,0.4887577295303345,0.09452889114618301
156,1,32,1,0.3976650536060333,0.06936907768249512
156,1,32,2,0.38825955986976624,0.0783371552824974
156,1,32,3,0.3533767759799957,0.0791705846786499
156,1,32,4,0.38616394996643066,0.0947965756058693
156,1,32,5,0.4111262261867523,0.07209086418151855
156,1,32,6,0.4671228229999542,0.05987671762704849
156,1,32,7,0.48579463362693787,0.0458325520157814
156,1,32,8,0.509529173374176,0.025532564148306847
156,1,32,9,0.6410616636276245,0.09600815176963806
156,1,32,10,0.6423068046569824,0.09681300073862076
156,1,32,11,0.5114879012107849,0.03195038065314293
156,1,32,12,0.4170948266983032,0.01966608501970768
156,1,32,13,0.5723443627357483,0.12281454354524612
156,1,32,14,0.4939523935317993,0.10794628411531448
156,1,32,15,0.5244708061218262,0.05180150642991066
156,1,32,16,0.6672638058662415,0.10168418288230896
156,1,32,17,0.46565374732017517,0.03609546646475792
156,1,32,18,0.3256820738315582,0.09713202714920044
156,1,32,19,0.6116241812705994,0.03490995615720749
156,1,32,20,0.5130602717399597,0.0825711265206337
156,1,32,21,0.5615181922912598,0.08106915652751923
156,1,32,22,0.528728187084198,0.06360718607902527
156,1,32,23,0.646278977394104,0.06885924935340881
156,1,32,24,0.5873485803604126,0.02859196625649929
156,1,32,25,0.5286620855331421,0.08083546161651611
156,1,32,26,0.47828441858291626,0.10014012455940247
156,1,32,27,0.4118998944759369,0.08477553725242615
156,1,32,28,0.41035133600234985,0.044366504997015
156,1,32,29,0.38791653513908386,0.06685592979192734
156,1,32,30,0.5108920335769653,0.04691801965236664
156,1,32,31,0.45411738753318787,0.08888226747512817
156,2,64,0,0.49685540795326233,0.20453806221485138
156,2,64,1,0.5031219124794006,0.10175997763872147
156,2,64,2,0.4589065909385681,0.1672450751066208
156,2,64,3,0.43654170632362366,0.024910636246204376
156,2,64,4,0.4371946156024933,0.18577925860881805
156,2,64,5,0.5747086405754089,0.22485964000225067
156,2,64,6,0.4361594617366791,0.07547899335622787
156,2,64,7,0.48296064138412476,0.09303057938814163
156,2,64,8,0.45920851826667786,0.1479884535074234
156,2,64,9,0.3993317484855652,0.12970249354839325
156,2,64,10,0.5054726004600525,0.09291909635066986
156,2,64,11,0.42872074246406555,0.11787309497594833
156,2,64,12,0.4254913032054901,0.08852624148130417
156,2,64,13,0.4429088830947876,0.21880757808685303
156,2,64,14,0.4639740288257599,0.11482486873865128
156,2,64,15,0.6128334999084473,0.11562971025705338
156,2,64,16,0.34187474846839905,0.172836571931839
156,2,64,17,0.56744784116745,0.21353961527347565
156,2,64,18,0.5354688763618469,0.10268258303403854
156,2,64,19,0.5703743696212769,0.18187034130096436
156,2,64,20,0.3658992052078247,0.1920647770166397
156,2,64,21,0.38043326139450073,0.13699747622013092
156,2,64,22,0.43172428011894226,0.12075506895780563
156,2,64,23,0.6177162528038025,0.06785494089126587
156,2,64,24,0.4221620261669159,0.11301127821207047
156,2,64,25,0.6214844584465027,0.08008912205696106
156,2,64,26,0.5924740433692932,0.18604081869125366
156,2,64,27,0.4322737157344818,0.09329245239496231
156,2,64,28,0.6575108170509338,0.13524700701236725
156,2,64,29,0.5201951265335083,0.10508446395397186
156,2,64,30,0.4915179908275604,0.09559009224176407
156,2,64,31,0.45236897468566895,0.13755512237548828
156,2,64,32,0.4726617932319641,0.15628035366535187
156,2,64,33,0.5459052324295044,0.1451634019613266
156,2,64,34,0.6079710721969604,0.04178056865930557
156,2,64,35,0.3865385949611664,0.06671098619699478
156,2,64,36,0.4872985780239105,0.11714627593755722
156,2,64,37,0.4162687063217163,0.19110462069511414
156,2,64,38,0.46457406878471375,0.20196302235126495
156,2,64,39,0.32192596793174744,0.0951998382806778
156,2,64,40,0.5034688115119934,0.17484886944293976
156,2,64,41,0.4392511546611786,0.054669011384248734
156,2,64,42,0.4546135365962982,0.1764761060476303
156,2,64,43,0.3977343738079071,0.10509899258613586
156,2,64,44,0.5892889499664307,0.09237805753946304
156,2,64,45,0.5801902413368225,0.07269621640443802
156,2,64,46,0.45767301321029663,0.14556598663330078
156,2,64,47,0.3937450647354126,0.10231275856494904
156,2,64,48,0.5070635676383972,0.23724085092544556
156,2,64,49,0.5281187891960144,0.07841210812330246
156,2,64,50,0.4611561596393585,0.18059982359409332
156,2,64,51,0.47612547874450684,0.1960621029138565
156,2,64,52,0.3618648052215576,0.09875951707363129
156,2,64,53,0.545465350151062,0.1199389323592186
156,2,64,54,0.40828409790992737,0.17949241399765015
156,2,64,55,0.5473729968070984,0.2541494369506836
156,2,64,56,0.37781479954719543,0.07965479791164398
156,2,64,57,0.4285454750061035,0.07326889038085938
156,2,64,58,0.34712615609169006,0.18325644731521606
156,2,64,59,0.5351262092590332,0.20277905464172363
156,2,64,60,0.42783060669898987,0.15017980337142944
156,2,64,61,0.38237783312797546,0.05019949749112129
156,2,64,62,0.49710676074028015,0.11722207069396973
156,2,64,63,0.4839833974838257,0.1700916439294815
156,3,64,0,0.38501912355422974,0.13584838807582855
156,3,64,1,0.6190176010131836,0.13216635584831238
156,3,64,2,0.5278478264808655,0.22182787954807281
156,3,64,3,0.5547010898590088,0.12759968638420105
156,3,64,4,0.6808157563209534,0.14413215219974518
156,3,64,5,0.5272123217582703,0.20737989246845245
156,3,64,6,0.4921616017818451,0.17645199596881866
156,3,64,7,0.49279120564460754,0.03595033288002014
156,3,64,8,0.3493301272392273,0.09537053108215332
156,3,64,9,0.49989888072013855,0.19265757501125336
156,3,64,10,0.4486551880836487,0.23249515891075134
156,3,64,11,0.4515848755836487,0.24500210583209991
156,3,64,12,0.4562216103076935,0.049124449491500854
156,3,64,13,0.5040299296379089,0.17150700092315674
156,3,64,14,0.5774044394493103,0.1726892739534378
156,3,64,15,0.4458272457122803,0.1878434121608734
156,3,64,16,0.5464589595794678,0.16452108323574066
156,3,64,17,0.4217343032360077,0.19014987349510193
156,3,64,18,0.6122124791145325,0.0790579691529274
156,3,64,19,0.5701887011528015,0.11899404227733612
156,3,64,20,0.5341883897781372,0.07570363581180573
156,3,64,21,0.5022892355918884,0.24177879095077515
156,3,64,22,0.41038262844085693,0.08493150025606155
156,3,64,23,0.4717543423175812,0.19300274550914764
156,3,64,24,0.48507699370384216,0.10528142005205154
156,3,64,25,0.3024247884750366,0.13015489280223846
156,3,64,26,0.3843943476676941,0.08114080131053925
156,3,64,27,0.49682360887527466,0.11479924619197845
156,3,64,28,0.713180422782898,0.13053500652313232
156,3,64,29,0.48901528120040894,0.18003399670124054
156,3,64,30,0.3061521053314209,0.10287528485059738
156,3,64,31,0.4959692060947418,0.06486180424690247
156,3,64,32,0.5916596055030823,0.06241768226027489
156,3,64,33,0.3326583802700043,0.09048349410295486
156,3,64,34,0.6601584553718567,0.11161869019269943
156,3,64,35,0.5965465307235718,0.10390345007181168
156,3,64,36,0.34223008155822754,0.1081709936261177
156,3,64,37,0.427603155374527,0.11409856379032135
156,3,64,38,0.5643694996833801,0.14921876788139343
156,3,64,39,0.5172690153121948,0.12645618617534637
156,3,64,40,0.42499470710754395,0.17159247398376465
156,3,64,41,0.4443931579589844,0.18260036408901215
156,3,64,42,0.39465972781181335,0.13493414223194122
156,3,64,43,0.49047961831092834,0.06743808090686798
156,3,64,44,0.5419800281524658,0.08754345029592514
156,3,64,45,0.46856454014778137,0.16926756501197815
156,3,64,46,0.3042282164096832,0.12924134731292725
156,3,64,47,0.42563596367836,0.075897715985775
156,3,64,48,0.5123654007911682,0.09350857883691788
156,3,64,49,0.5925347805023193,0.06996114552021027
156,3,64,50,0.40035101771354675,0.14725551009178162
156,3,64,51,0.5055595636367798,0.1638077050447464
156,3,64,52,0.5196285247802734,0.07043878734111786
156,3,64,53,0.42021045088768005,0.1269611418247223
156,3,64,54,0.3938654363155365,0.10769154131412506
156,3,64,55,0.502296507358551,0.08836085349321365
156,3,64,56,0.3304653465747833,0.09030464291572571
156,3,64,57,0.5113000273704529,0.07791123539209366
156,3,64,58,0.2566267251968384,0.13307955861091614
156,3,64,59,0.544670581817627,0.11070936918258667
156,3,64,60,0.604096531867981,0.05352664366364479
156,3,64,61,0.5847538113594055,0.06697001308202744
156,3,64,62,0.5240166187286377,0.1214982196688652
156,3,64,63,0.5068092346191406,0.1674840897321701
156,4,128,0,0.38641759753227234,0.2345406711101532
156,4,128,1,0.5587431788444519,0.18654046952724457
156,4,128,2,0.5745148062705994,0.14586132764816284
156,4,128,3,0.6134569644927979,0.12050574272871017
156,4,128,4,0.5111468434333801,0.1954357624053955
156,4,128,5,0.7145970463752747,0.11011917889118195
156,4,128,6,0.45749029517173767,0.14075373113155365
156,4,128,7,0.6401991248130798,0.16959503293037415
156,4,128,8,0.4214814007282257,0.21310964226722717
156,4,128,9,0.5164927840232849,0.08195629715919495
156,4,128,10,0.5172291398048401,0.12663710117340088
156,4,128,11,0.4207075238227844,0.15500600636005402
156,4,128,12,0.5317657589912415,0.1741010546684265
156,4,128,13,0.3941558301448822,0.11727917194366455
156,4,128,14,0.5786468982696533,0.1718955785036087
156,4,128,15,0.4314419627189636,0.14272761344909668
156,4,128,16,0.5681853890419006,0.12936334311962128
156,4,128,17,0.4556441903114319,0.15234996378421783
156,4,128,18,0.47841691970825195,0.13582035899162292
156,4,128,19,0.46516019105911255,0.17669960856437683
156,4,128,20,0.5109226703643799,0.1994081735610962
156,4,128,21,0.463858425617218,0.16157397627830505
156,4,128,22,0.42994943261146545,0.1224672868847847
156,4,128,23,0.30192795395851135,0.13996440172195435
156,4,128,24,0.5407708287239075,0.09000694751739502
156,4,128,25,0.38540321588516235,0.11540666222572327
156,4,128,26,0.5948339104652405,0.07752753049135208
156,4,128,27,0.5615083575248718,0.19413168728351593
156,4,128,28,0.30830416083335876,0.13083887100219727
156,4,128,29,0.5037741661071777,0.22600476443767548
156,4,128,30,0.5960890650749207,0.25583669543266296
156,4,128,31,0.7204486727714539,0.10542464256286621
156,4,128,32,0.5925939679145813,0.250221312046051
156,4,128,33,0.5384272933006287,0.13157790899276733
156,4,128,34,0.5160747766494751,0.22418735921382904
156,4,128,35,0.5323206186294556,0.09216087311506271
156,4,128,36,0.5054773688316345,0.10805291682481766
156,4,128,37,0.6017276644706726,0.22076603770256042
156,4,128,38,0.47175291180610657,0.1335044950246811
156,4,128,39,0.7166159749031067,0.1599365621805191
156,4,128,40,0.5494444966316223,0.21238364279270172
156,4,128,41,0.5468474626541138,0.1629224717617035
156,4,128,42,0.5215706825256348,0.18133196234703064
156,4,128,43,0.5815314650535583,0.14031220972537994
156,4,128,44,0.601692795753479,0.14330951869487762
156,4,128,45,0.6331881284713745,0.2376624345779419
156,4,128,46,0.39974865317344666,0.08224900811910629
156,4,128,47,0.6603922247886658,0.2571966350078583
156,4,128,48,0.6620702743530273,0.12068101763725281
156,4,128,49,0.48227137327194214,0.21974137425422668
156,4,128,50,0.5119513869285583,0.09837228804826736
156,4,128,51,0.5084863305091858,0.15812735259532928
156,4,128,52,0.5934687852859497,0.24276196956634521
156,4,128,53,0.560975968837738,0.19957314431667328
156,4,128,54,0.4287163019180298,0.1409265100955963
156,4,128,55,0.5377835631370544,0.1720382124185562
156,4,128,56,0.5721871256828308,0.1289188116788864
156,4,128,57,0.41233089566230774,0.11397339403629303
156,4,128,58,0.3620501756668091,0.16049930453300476
156,4,128,59,0.27970361709594727,0.13889920711517334
156,4,128,60,0.5781923532485962,0.20129302144050598
156,4,128,61,0.662679135799408,0.12445181608200073
156,4,128,62,0.49009478092193604,0.1310276836156845
156,4,128,63,0.4425387978553772,0.11176249384880066
156,4,128,64,0.537527859210968,0.10915175825357437
156,4,128,65,0.6880577206611633,0.17107419669628143
156,4,128,66,0.49099233746528625,0.14218223094940186
156,4,128,67,0.5723369121551514,0.15859630703926086
156,4,128,68,0.77564537525177,0.12210723012685776
156,4,128,69,0.46277421712875366,0.18487116694450378
156,4,128,70,0.6314394474029541,0.11853198707103729
156,4,128,71,0.5446130633354187,0.18762750923633575
156,4,128,72,0.5799602270126343,0.179695263504982
156,4,128,73,0.4714348018169403,0.1854897141456604
156,4,128,74,0.5658472180366516,0.16745445132255554
156,4,128,75,0.552129864692688,0.16477583348751068
156,4,128,76,0.5305514335632324,0.1300872564315796
156,4,128,77,0.37266862392425537,0.1013549193739891
156,4,128,78,0.7266162633895874,0.08865359425544739
156,4,128,79,0.5175048112869263,0.1007043719291687
156,4,128,80,0.35468482971191406,0.12293078005313873
156,4,128,81,0.4522317945957184,0.2152043730020523
156,4,128,82,0.5800783038139343,0.1262483298778534
156,4,128,83,0.5183282494544983,0.23765607178211212
156,4,128,84,0.522337794303894,0.16324883699417114
156,4,128,85,0.561492383480072,0.0899001955986023
156,4,128,86,0.43876147270202637,0.18807920813560486
156,4,128,87,0.5449431538581848,0.2711374759674072
156,4,128,88,0.6163195967674255,0.23385518789291382
156,4,128,89,0.428741455078125,0.2606188952922821
156,4,128,90,0.5125182867050171,0.17420552670955658
156,4,128,91,0.5853670835494995,0.2309931069612503
156,4,128,92,0.6084408164024353,0.14583928883075714
156,4,128,93,0.3672618269920349,0.09393314272165298
156,4,128,94,0.5409019589424133,0.13221852481365204
156,4,128,95,0.6581248641014099,0.1607842892408371
156,4,128,96,0.4645546078681946,0.21554434299468994
156,4,128,97,0.551536500453949,0.23108355700969696
156,4,128,98,0.5600888133049011,0.17048130929470062
156,4,128,99,0.4410669505596161,0.14441002905368805
156,4,128,100,0.7353776097297668,0.08395229279994965
156,4,128,101,0.6182697415351868,0.14622528851032257
156,4,128,102,0.6104082465171814,0.19433237612247467
156,4,128,103,0.48954758048057556,0.12291709333658218
156,4,128,104,0.4237521290779114,0.2034716159105301
156,4,128,105,0.5814403295516968,0.1269831657409668
156,4,128,106,0.4641961455345154,0.17870506644248962
156,4,128,107,0.3087407052516937,0.17450125515460968
156,4,128,108,0.5304871201515198,0.1819501370191574
156,4,128,109,0.6325514912605286,0.09007780253887177
156,4,128,110,0.41468819975852966,0.13464152812957764
156,4,128,111,0.40482980012893677,0.1956571340560913
156,4,128,112,0.47316864132881165,0.1621098667383194
156,4,128,113,0.6083153486251831,0.15591144561767578
156,4,128,114,0.5735888481140137,0.12090978771448135
156,4,128,115,0.5379589200019836,0.16449995338916779
156,4,128,116,0.4160885512828827,0.0970039963722229
156,4,128,117,0.5982628464698792,0.07455283403396606
156,4,128,118,0.7208518981933594,0.14618639647960663
156,4,128,119,0.4344572424888611,0.0922807976603508
156,4,128,120,0.5771520137786865,0.15286533534526825
156,4,128,121,0.5990774631500244,0.23437434434890747
156,4,128,122,0.6025553345680237,0.11962810903787613
156,4,128,123,0.5813496708869934,0.12096789479255676
156,4,128,124,0.5912185907363892,0.2263091504573822
156,4,128,125,0.47210872173309326,0.21719464659690857
156,4,128,126,0.517289936542511,0.28331422805786133
156,4,128,127,0.5620676875114441,0.2414451539516449
156,5,128,0,0.5759103298187256,0.21157780289649963
156,5,128,1,0.716646671295166,0.17615337669849396
156,5,128,2,0.6223785877227783,0.09970387816429138
156,5,128,3,0.7308037281036377,0.10108720511198044
156,5,128,4,0.5737828612327576,0.2048812210559845
156,5,128,5,0.5006890892982483,0.15892931818962097
156,5,128,6,0.5324137806892395,0.13613852858543396
156,5,128,7,0.6584243774414062,0.17022950947284698
156,5,128,8,0.5431119203567505,0.21314413845539093
156,5,128,9,0.5071881413459778,0.19810132682323456
156,5,128,10,0.64850914478302,0.07815874367952347
156,5,128,11,0.6554383635520935,0.10844792425632477
156,5,128,12,0.6593106985092163,0.08615215867757797
156,5,128,13,0.4747103154659271,0.12839600443840027
156,5,128,14,0.6004812121391296,0.16825169324874878
156,5,128,15,0.5484882593154907,0.10545729845762253
156,5,128,16,0.40233126282691956,0.1439906507730484
156,5,128,17,0.5026233196258545,0.14346027374267578
156,5,128,18,0.535598635673523,0.13465912640094757
156,5,128,19,0.5347670912742615,0.1754932999610901
156,5,128,20,0.4418773055076599,0.07539672404527664
156,5,128,21,0.6817694306373596,0.09976506233215332
156,5,128,22,0.6248309016227722,0.20973250269889832
156,5,128,23,0.3979703485965729,0.14974172413349152
156,5,128,24,0.5827986001968384,0.09609521180391312
156,5,128,25,0.6192415952682495,0.18725140392780304
156,5,128,26,0.7550750970840454,0.09217390418052673
156,5,128,27,0.6199204325675964,0.0643313005566597
156,5,128,28,0.5878928303718567,0.032688211649656296
156,5,128,29,0.5340815782546997,0.10096196830272675
156,5,128,30,0.6395642757415771,0.090874083340168
156,5,128,31,0.8039203882217407,0.08179210871458054
156,5,128,32,0.6260287761688232,0.16505897045135498
156,5,128,33,0.5716075897216797,0.15961013734340668
156,5,128,34,0.6993656158447266,0.11118117719888687
156,5,128,35,0.5593237280845642,0.13700145483016968
156,5,128,36,0.4978376030921936,0.17838972806930542
156,5,128,37,0.7488489151000977,0.12098125368356705
156,5,128,38,0.5271657705307007,0.23824991285800934
156,5,128,39,0.4470962882041931,0.18939335644245148
156,5,128,40,0.5121042132377625,0.0638764277100563
156,5,128,41,0.5429465174674988,0.16377243399620056
156,5,128,42,0.5391073822975159,0.26897063851356506
156,5,128,43,0.7578604817390442,0.0941678062081337
156,5,128,44,0.5052332282066345,0.16488654911518097
156,5,128,45,0.7167117595672607,0.16814151406288147
156,5,128,46,0.647700309753418,0.08092653006315231
156,5,128,47,0.6105660200119019,0.08417227864265442
156,5,128,48,0.6236814856529236,0.05356384068727493
156,5,128,49,0.7136253714561462,0.1425943821668625
156,5,128,50,0.5162960290908813,0.24108333885669708
156,5,128,51,0.610227108001709,0.22657151520252228
156,5,128,52,0.529202938079834,0.2784388065338135
156,5,128,53,0.7349987626075745,0.11868076026439667
156,5,128,54,0.48412737250328064,0.1975729912519455
156,5,128,55,0.4715142548084259,0.11485068500041962
156,5,128,56,0.58610600233078,0.22339412569999695
156,5,128,57,0.6136667728424072,0.16316497325897217
156,5,128,58,0.5240001678466797,0.05519862845540047
156,5,128,59,0.4813964068889618,0.12851183116436005
156,5,128,60,0.6352416276931763,0.13731840252876282
156,5,128,61,0.5328736901283264,0.26061609387397766
156,5,128,62,0.7560721039772034,0.11328308284282684
156,5,128,63,0.5388790369033813,0.21372537314891815
156,5,128,64,0.5463488101959229,0.22910109162330627
156,5,128,65,0.5783491134643555,0.11751983314752579
156,5,128,66,0.6507340669631958,0.16631555557250977
156,5,128,67,0.7013379335403442,0.11874660104513168
156,5,128,68,0.6097183227539062,0.22726252675056458
156,5,128,69,0.5604979395866394,0.13076843321323395
156,5,128,70,0.5746604204177856,0.2239341288805008
156,5,128,71,0.37301105260849,0.18208187818527222
156,5,128,72,0.6961199045181274,0.15943917632102966
156,5,128,73,0.4742105007171631,0.08641240745782852
156,5,128,74,0.5486249327659607,0.0659300908446312
156,5,128,75,0.5868414044380188,0.12283296138048172
156,5,128,76,0.5300087332725525,0.14391081035137177
156,5,128,77,0.38644856214523315,0.17596830427646637
156,5,128,78,0.7065152525901794,0.10780610144138336
156,5,128,79,0.43306419253349304,0.11136486381292343
156,5,128,80,0.6226919293403625,0.22272230684757233
156,5,128,81,0.581182599067688,0.12614218890666962
156,5,128,82,0.7365663647651672,0.06871245056390762
156,5,128,83,0.616131603717804,0.10850398987531662
156,5,128,84,0.5374124646186829,0.07901724427938461
156,5,128,85,0.6534372568130493,0.04526557773351669
156,5,128,86,0.6637351512908936,0.17351216077804565
156,5,128,87,0.6597005128860474,0.16754718124866486
156,5,128,88,0.6543189287185669,0.11872799694538116
156,5,128,89,0.663185179233551,0.07181764394044876
156,5,128,90,0.5673220753669739,0.2521798610687256
156,5,128,91,0.6120525598526001,0.23076093196868896
156,5,128,92,0.4486381709575653,0.10348586738109589
156,5,128,93,0.5621564984321594,0.06283703446388245
156,5,128,94,0.5472189784049988,0.15485025942325592
156,5,128,95,0.37083402276039124,0.1523829698562622
156,5,128,96,0.559947669506073,0.12473051995038986
156,5,128,97,0.6957783102989197,0.1251993626356125
156,5,128,98,0.500138521194458,0.13608846068382263
156,5,128,99,0.688048243522644,0.1434444636106491
156,5,128,100,0.5537006258964539,0.0892379879951477
156,5,128,101,0.6073163747787476,0.12096431851387024
156,5,128,102,0.7581678032875061,0.14130806922912598
156,5,128,103,0.5656019449234009,0.10252498090267181
156,5,128,104,0.5435464382171631,0.09761888533830643
156,5,128,105,0.6627340316772461,0.08382168412208557
156,5,128,106,0.5776675939559937,0.2098625749349594
156,5,128,107,0.6505252718925476,0.1503499448299408
156,5,128,108,0.465207576751709,0.19340594112873077
156,5,128,109,0.6403189897537231,0.12070824950933456
156,5,128,110,0.574991762638092,0.14396901428699493
156,5,128,111,0.6898423433303833,0.07458873093128204
156,5,128,112,0.56244295835495,0.15000246465206146
156,5,128,113,0.7429312467575073,0.061094190925359726
156,5,128,114,0.6728629469871521,0.14135797321796417
156,5,128,115,0.5000833868980408,0.15965081751346588
156,5,128,116,0.5706106424331665,0.16451212763786316
156,5,128,117,0.595826268196106,0.1398206204175949
156,5,128,118,0.7072930932044983,0.15580974519252777
156,5,128,119,0.49476149678230286,0.1967853605747223
156,5,128,120,0.49043044447898865,0.09673246741294861
156,5,128,121,0.7009751796722412,0.20424702763557434
156,5,128,122,0.6031773686408997,0.11036623269319534
156,5,128,123,0.6275837421417236,0.12915785610675812
156,5,128,124,0.6049043536186218,0.223749577999115
156,5,128,125,0.5450159311294556,0.18480291962623596
156,5,128,126,0.6519094705581665,0.20795445144176483
156,5,128,127,0.515376627445221,0.2809882164001465
185,0,32,0,0.45889753103256226,0.17811983823776245
185,0,32,1,0.3366565704345703,0.11487499624490738
185,0,32,2,0.3951079547405243,0.1502646505832672
185,0,32,3,0.450461208820343,0.07839906215667725
185,0,32,4,0.5853555202484131,0.06368990987539291
185,0,32,5,0.4841834306716919,0.07406891137361526
185,0,32,6,0.37759336829185486,0.11472202837467194
185,0,32,7,0.3779527544975281,0.08857133239507675
185,0,32,8,0.3437137007713318,0.08664572238922119
185,0,32,9,0.5192708373069763,0.07663609087467194
185,0,32,10,0.3579823970794678,0.09903384000062943
185,0,32,11,0.45607420802116394,0.16186530888080597
185,0,32,12,0.588480532169342,0.18468040227890015
185,0,32,13,0.48907703161239624,0.16576191782951355
185,0,32,14,0.5145919322967529,0.10523315519094467
185,0,32,15,0.4977683126926422,0.19270731508731842
185,0,32,16,0.5194666981697083,0.16919013857841492
185,0,32,17,0.3135550618171692,0.0654127448797226
185,0,32,18,0.3445964455604553,0.06566944718360901
185,0,32,19,0.45805346965789795,0.0505993478000164
185,0,32,20,0.5061458945274353,0.04730140045285225
185,0,32,21,0.5296897888183594,0.16056282818317413
185,0,32,22,0.5631862878799438,0.09132514894008636
185,0,32,23,0.545933723449707,0.06864327192306519
185,0,32,24,0.4824441373348236,0.18253879249095917
185,0,32,25,0.6748741865158081,0.07363718748092651
185,0,32,26,0.45293283462524414,0.19632969796657562
185,0,32,27,0.5502662658691406,0.13987836241722107
185,0,32,28,0.5315704345703125,0.17069217562675476
185,0,32,29,0.346953809261322,0.10953658074140549
185,0,32,30,0.33852526545524597,0.04929715767502785
185,0,32,31,0.5528481006622314,0.09674668312072754
185,1,32,0,0.5077604055404663,0.08611200749874115
185,1,32,1,0.4372405707836151,0.11182711273431778
185,1,32,2,0.5150249600410461,0.09216707199811935
185,1,32,3,0.35179874300956726,0.08904793113470078
185,1,32,4,0.4054509401321411,0.09771879017353058
185,1,32,5,0.466124951839447,0.1379302442073822
185,1,32,6,0.600031316280365,0.08163228631019592
185,1,32,7,0.44412875175476074,0.06273168325424194
185,1,32,8,0.4893397390842438,0.10219024866819382
185,1,32,9,0.6147857904434204,0.08534332364797592
185,1,32,10,0.5151678919792175,0.09161346405744553
185,1,32,11,0.5125659108161926,0.07487809658050537
185,1,32,12,0.5006657242774963,0.07539460808038712
185,1,32,13,0.45374393463134766,0.12099436670541763
185,1,32,14,0.36384084820747375,0.07949450612068176
185,1,32,15,0.46842101216316223,0.05846405774354935
185,1,32,16,0.4474703073501587,0.04220312833786011
185,1,32,17,0.47096744179725647,0.11981045454740524
185,1,32,18,0.4632992148399353,0.051688164472579956
185,1,32,19,0.5696601867675781,0.1135421022772789
185,1,32,20,0.318979948759079,0.10094664245843887
185,1,32,21,0.6315405964851379,0.13792598247528076
185,1,32,22,0.6279077529907227,0.0372297540307045
185,1,32,23,0.4458058476448059,0.15381364524364471
185,1,32,24,0.5097087025642395,0.06296107918024063
185,1,32,25,0.3620140850543976,0.10434548556804657
185,1,32,26,0.5702989101409912,0.07878056168556213
185,1,32,27,0.4539967179298401,0.08901488780975342
185,1,32,28,0.48916834592819214,0.03901451826095581
185,1,32,29,0.5859478116035461,0.12397544831037521
185,1,32,30,0.5460289716720581,0.06228649988770485
185,1,32,31,0.49070388078689575,0.07309753447771072
185,2,64,0,0.47868508100509644,0.19530676305294037
185,2,64,1,0.2785436511039734,0.10908432304859161
185,2,64,2,0.5712664723396301,0.2530480921268463
185,2,64,3,0.542395293712616,0.07237906008958817
185,2,64,4,0.5055761933326721,0.2366623729467392
185,2,64,5,0.5003398060798645,0.19510367512702942
185,2,64,6,0.6381934881210327,0.1252429336309433
185,2,64,7,0.5628684759140015,0.26050394773483276
185,2,64,8,0.39215826988220215,0.1947634220123291
185,2,64,9,0.4316451847553253,0.22370567917823792
185,2,64,10,0.5599604845046997,0.2732844054698944
185,2,64,11,0.5545219779014587,0.24145285785198212
185,2,64,12,0.42355456948280334,0.1414056271314621
185,2,64,13,0.3170500695705414,0.12116751074790955
185,2,64,14,0.6468394994735718,0.09303372353315353
185,2,64,15,0.3995208740234375,0.06642808020114899
185,2,64,16,0.565237283706665,0.14932817220687866
185,2,64,17,0.5491248369216919,0.07295519858598709
185,2,64,18,0.6028807163238525,0.25825390219688416
185,2,64,19,0.6977028250694275,0.14816372096538544
185,2,64,20,0.5444851517677307,0.13419488072395325
185,2,64,21,0.3664170503616333,0.09316223859786987
185,2,64,22,0.4724498689174652,0.21248027682304382
185,2,64,23,0.46547821164131165,0.2464255839586258
185,2,64,24,0.5117813944816589,0.08272010833024979
185,2,64,25,0.3733258545398712,0.1618717759847641
185,2,64,26,0.46076658368110657,0.1191452294588089
185,2,64,27,0.4827533960342407,0.1656108796596527
185,2,64,28,0.49758851528167725,0.13070203363895416
185,2,64,29,0.6563296318054199,0.20009078085422516
185,2,64,30,0.4766663908958435,0.27075275778770447
185,2,64,31,0.4399138391017914,0.2197086215019226
185,2,64,32,0.5484059453010559,0.233229860663414
185,2,64,33,0.7519457340240479,0.10354819893836975
185,2,64,34,0.3330536484718323,0.104369156062603
185,2,64,35,0.4512954354286194,0.1387501358985901
185,2,64,36,0.4291907250881195,0.19480489194393158
185,2,64,37,0.5313877463340759,0.23434337973594666
185,2,64,38,0.6323519945144653,0.09407197684049606
185,2,64,39,0.4453737139701843,0.19607649743556976
185,2,64,40,0.43757379055023193,0.14547646045684814
185,2,64,41,0.38883140683174133,0.2351330816745758
185,2,64,42,0.42579296231269836,0.11341200023889542
185,2,64,43,0.47893932461738586,0.1827201545238495
185,2,64,44,0.3614119589328766,0.0930250734090805
185,2,64,45,0.4851531386375427,0.1395939290523529
185,2,64,46,0.3965846002101898,0.11708297580480576
185,2,64,47,0.5651975274085999,0.15633569657802582
185,2,64,48,0.5202683806419373,0.13661199808120728
185,2,64,49,0.5545186400413513,0.16388969123363495
185,2,64,50,0.36825621128082275,0.12369890511035919
185,2,64,51,0.6587380170822144,0.13071309030056
185,2,64,52,0.45163214206695557,0.16527236998081207
185,2,64,53,0.5831002593040466,0.19780375063419342
185,2,64,54,0.44666174054145813,0.20758678019046783
185,2,64,55,0.6591534614562988,0.16171418130397797
185,2,64,56,0.422776997089386,0.22836796939373016
185,2,64,57,0.5975630879402161,0.10697143524885178
185,2,64,58,0.4311918318271637,0.23812665045261383
185,2,64,59,0.29576873779296875,0.09187120199203491
185,2,64,60,0.6548440456390381,0.140375018119812
185,2,64,61,0.5923029184341431,0.14764991402626038
185,2,64,62,0.3873891532421112,0.16033950448036194
185,2,64,63,0.4121018946170807,0.18465328216552734
185,3,64,0,0.3854658007621765,0.20698022842407227
185,3,64,1,0.3924539089202881,0.22198233008384705
185,3,64,2,0.41811463236808777,0.18857666850090027
185,3,64,3,0.535428524017334,0.12333324551582336
185,3,64,4,0.3879409730434418,0.1440773606300354
185,3,64,5,0.4727495610713959,0.13006554543972015
185,3,64,6,0.32953453063964844,0.08692687749862671
185,3,64,7,0.2942647337913513,0.12807656824588776
185,3,64,8,0.402030348777771,0.14722411334514618
185,3,64,9,0.41181084513664246,0.1758415848016739
185,3,64,10,0.5403081178665161,0.1422971785068512
185,3,64,11,0.365003377199173,0.16685883700847626
185,3,64,12,0.3646078109741211,0.11718551814556122
185,3,64,13,0.49141260981559753,0.18952935934066772
185,3,64,14,0.45956477522850037,0.17557743191719055
185,3,64,15,0.4650314450263977,0.17486774921417236
185,3,64,16,0.4731060266494751,0.20228800177574158
185,3,64,17,0.48915326595306396,0.16166245937347412
185,3,64,18,0.3989848494529724,0.16982628405094147
185,3,64,19,0.6285363435745239,0.12017033249139786
185,3,64,20,0.6178799867630005,0.06381746381521225
185,3,64,21,0.36684346199035645,0.06743019819259644
185,3,64,22,0.5057497620582581,0.18702825903892517
185,3,64,23,0.45276734232902527,0.08594164997339249
185,3,64,24,0.41664472222328186,0.15534037351608276
185,3,64,25,0.4182720184326172,0.2078019380569458
185,3,64,26,0.5048921704292297,0.047554437071084976
185,3,64,27,0.5432375073432922,0.06539179384708405
185,3,64,28,0.28859803080558777,0.08104275166988373
185,3,64,29,0.5304849743843079,0.318706750869751
185,3,64,30,0.5556327104568481,0.12284713238477707
185,3,64,31,0.6212726831436157,0.15898770093917847
185,3,64,32,0.48131439089775085,0.1297239065170288
185,3,64,33,0.600212574005127,0.2606699466705322
185,3,64,34,0.43787553906440735,0.14542660117149353
185,3,64,35,0.5612140893936157,0.14793889224529266
185,3,64,36,0.5358375310897827,0.1685134917497635
185,3,64,37,0.39256879687309265,0.1556461900472641
185,3,64,38,0.5921090245246887,0.16178084909915924
185,3,64,39,0.3825837969779968,0.17996469140052795
185,3,64,40,0.5216218829154968,0.13229063153266907
185,3,64,41,0.4690970778465271,0.2461605966091156
185,3,64,42,0.5710770487785339,0.11748170852661133
185,3,64,43,0.3385189473628998,0.10967709124088287
185,3,64,44,0.4973626434803009,0.15889345109462738
185,3,64,45,0.6654564738273621,0.1395256072282791
185,3,64,46,0.5677809715270996,0.08882413804531097
185,3,64,47,0.5063003897666931,0.16319990158081055
185,3,64,48,0.6838454604148865,0.15075655281543732
185,3,64,49,0.46407386660575867,0.11881223320960999
185,3,64,50,0.4492076337337494,0.25816619396209717
185,3,64,51,0.39772751927375793,0.11508197337388992
185,3,64,52,0.4274596869945526,0.08113456517457962
185,3,64,53,0.5508461594581604,0.30950111150741577
185,3,64,54,0.42511695623397827,0.2971458435058594
185,3,64,55,0.4926310181617737,0.13360942900180817
185,3,64,56,0.4088989198207855,0.13299399614334106
185,3,64,57,0.46723732352256775,0.1085018441081047
185,3,64,58,0.6421800255775452,0.11643420159816742
185,3,64,59,0.427868127822876,0.1328689306974411
185,3,64,60,0.7038158178329468,0.09808001667261124
185,3,64,61,0.3558019995689392,0.10460439324378967
185,3,64,62,0.389087051153183,0.2130243182182312
185,3,64,63,0.4571828246116638,0.09456414729356766
185,4,128,0,0.4578416347503662,0.09409025311470032
185,4,128,1,0.5500953793525696,0.07427410036325455
185,4,128,2,0.4407491385936737,0.09907891601324081
185,4,128,3,0.5813558101654053,0.11553636193275452
185,4,128,4,0.6514626145362854,0.12577278912067413
185,4,128,5,0.7355794906616211,0.10535649955272675
185,4,128,6,0.7886515259742737,0.11036177724599838
185,4,128,7,0.6198682188987732,0.2567635178565979
185,4,128,8,0.5614596605300903,0.1356239914894104
185,4,128,9,0.6566603183746338,0.10648117959499359
185,4,128,10,0.5273501873016357,0.2021295726299286
185,4,128,11,0.6939045190811157,0.08319536596536636
185,4,128,12,0.4939842224121094,0.22436635196208954
185,4,128,13,0.5842821002006531,0.19384042918682098
185,4,128,14,0.5398641228675842,0.17093002796173096
185,4,128,15,0.4035657048225403,0.24639268219470978
185,4,128,16,0.4718396067619324,0.24516668915748596
185,4,128,17,0.49255603551864624,0.19812749326229095
185,4,128,18,0.5266803503036499,0.27319079637527466
185,4,128,19,0.7079907655715942,0.15716922283172607
185,4,128,20,0.4758400022983551,0.16039352118968964
185,4,128,21,0.4800526201725006,0.2906944751739502
185,4,128,22,0.42875874042510986,0.209134042263031
185,4,128,23,0.6773852109909058,0.13367201387882233
185,4,128,24,0.6349539160728455,0.12274990230798721
185,4,128,25,0.49764642119407654,0.2647393047809601
185,4,128,26,0.4756487309932709,0.17184530198574066
185,4,128,27,0.49289289116859436,0.16016525030136108
185,4,128,28,0.4550243318080902,0.17460502684116364
185,4,128,29,0.7528824210166931,0.13686153292655945
185,4,128,30,0.38787174224853516,0.1251850426197052
185,4,128,31,0.5204476118087769,0.33299869298934937
185,4,128,32,0.37887609004974365,0.09692457318305969
185,4,128,33,0.5641334652900696,0.10084083676338196
185,4,128,34,0.698701024055481,0.13432705402374268
185,4,128,35,0.6477275490760803,0.1738371104001999
185,4,128,36,0.6681309342384338,0.18973495066165924
185,4,128,37,0.5225107073783875,0.12977400422096252
185,4,128,38,0.509196937084198,0.29499202966690063
185,4,128,39,0.6344359517097473,0.25918450951576233
185,4,128,40,0.6970965266227722,0.16047033667564392
185,4,128,41,0.546671986579895,0.16658435761928558
185,4,128,42,0.655461311340332,0.14686845242977142
185,4,128,43,0.5506318807601929,0.17806239426136017
185,4,128,44,0.43286049365997314,0.22398629784584045
185,4,128,45,0.6445969939231873,0.14151374995708466
185,4,128,46,0.5272437334060669,0.12476285547018051
185,4,128,47,0.43333834409713745,0.22040250897407532
185,4,128,48,0.39891543984413147,0.14484058320522308
185,4,128,49,0.5154006481170654,0.08616869151592255
185,4,128,50,0.6943235397338867,0.13925547897815704
185,4,128,51,0.6121184825897217,0.2316756546497345
185,4,128,52,0.5167436599731445,0.181921124458313
185,4,128,53,0.4004112482070923,0.17744573950767517
185,4,128,54,0.6204648613929749,0.11045730859041214
185,4,128,55,0.5949901938438416,0.1386508047580719
185,4,128,56,0.49685776233673096,0.2644116282463074
185,4,128,57,0.6913573145866394,0.09341619163751602
185,4,128,58,0.4663672149181366,0.24615567922592163
185,4,128,59,0.5371443629264832,0.09245462715625763
185,4,128,60,0.6383152008056641,0.1501355916261673
185,4,128,61,0.3936769962310791,0.1586301624774933
185,4,128,62,0.5275620818138123,0.2925998270511627
185,4,128,63,0.5921315550804138,0.29400667548179626
185,4,128,64,0.5557384490966797,0.18008258938789368
185,4,128,65,0.496986985206604,0.23583349585533142
185,4,128,66,0.5364642143249512,0.30005061626434326
185,4,128,67,0.5961694121360779,0.24434998631477356
185,4,128,68,0.5133495330810547,0.17034633457660675
185,4,128,69,0.5291419625282288,0.274426132440567
185,4,128,70,0.4239116907119751,0.24128352105617523
185,4,128,71,0.41398394107818604,0.28230562806129456
185,4,128,72,0.48054465651512146,0.2805613875389099
185,4,128,73,0.4575445353984833,0.2108469307422638
185,4,128,74,0.5836953520774841,0.21005204319953918
185,4,128,75,0.6247933506965637,0.23950065672397614
185,4,128,76,0.4684394299983978,0.20396246016025543
185,4,128,77,0.38523024320602417,0.207126647233963
185,4,128,78,0.5265072584152222,0.06131116300821304
185,4,128,79,0.6748923659324646,0.14824646711349487
185,4,128,80,0.683115541934967,0.08519858866930008
185,4,128,81,0.7170372605323792,0.11407855898141861
185,4,128,82,0.4384081959724426,0.21017050743103027
185,4,128,83,0.6537131071090698,0.18950489163398743
185,4,128,84,0.45260193943977356,0.17567239701747894
185,4,128,85,0.5070657134056091,0.2500542998313904
185,4,128,86,0.5355315804481506,0.2509649395942688
185,4,128,87,0.5360469222068787,0.22999203205108643
185,4,128,88,0.5454456210136414,0.2680859863758087
185,4,128,89,0.5581579804420471,0.08089885115623474
185,4,128,90,0.5472754240036011,0.18828228116035461
185,4,128,91,0.4950670003890991,0.2906837463378906
185,4,128,92,0.5855261087417603,0.2777916491031647
185,4,128,93,0.7383657097816467,0.08836997300386429
185,4,128,94,0.4712570011615753,0.2106005996465683
185,4,128,95,0.6177285313606262,0.07575073838233948
185,4,128,96,0.5444543957710266,0.26273444294929504
185,4,128,97,0.4977830648422241,0.16077084839344025
185,4,128,98,0.5934269428253174,0.22462062537670135
185,4,128,99,0.6723873019218445,0.11230693012475967
185,4,128,100,0.6152387857437134,0.15362410247325897
185,4,128,101,0.5538561940193176,0.20729286968708038
185,4,128,102,0.49522367119789124,0.23316144943237305
185,4,128,103,0.5224813222885132,0.06732214987277985
185,4,128,104,0.49839267134666443,0.18695275485515594
185,4,128,105,0.5141189694404602,0.2765152156352997
185,4,128,106,0.4441390931606293,0.17162688076496124
185,4,128,107,0.4759196937084198,0.17622756958007812
185,4,128,108,0.5116348266601562,0.1836823970079422
185,4,128,109,0.5118887424468994,0.2822663187980652
185,4,128,110,0.36460134387016296,0.13152998685836792
185,4,128,111,0.6385781168937683,0.20493856072425842
185,4,128,112,0.6180036067962646,0.1418166160583496
185,4,128,113,0.5177666544914246,0.22518160939216614
185,4,128,114,0.6568271517753601,0.12910546362400055
185,4,128,115,0.5735373497009277,0.2755993902683258
185,4,128,116,0.5452921390533447,0.2898537218570709
185,4,128,117,0.49529901146888733,0.25477445125579834
185,4,128,118,0.5249087810516357,0.17897583544254303
185,4,128,119,0.5939605832099915,0.12217291444540024
185,4,128,120,0.6170351505279541,0.20987392961978912
185,4,128,121,0.6433577537536621,0.17859385907649994
185,4,128,122,0.3990970253944397,0.1413111388683319
185,4,128,123,0.5379819273948669,0.0983603373169899
185,4,128,124,0.6902129650115967,0.12889410555362701
185,4,128,125,0.4716440737247467,0.16263319551944733
185,4,128,126,0.5067132711410522,0.25017085671424866
185,4,128,127,0.6149353981018066,0.08490680903196335
185,5,128,0,0.7005844116210938,0.07098565995693207
185,5,128,1,0.6427042484283447,0.22107701003551483
185,5,128,2,0.8320967555046082,0.0896754190325737
185,5,128,3,0.7854649424552917,0.10634464770555496
185,5,128,4,0.6736289262771606,0.25368914008140564
185,5,128,5,0.6964386701583862,0.09404017776250839
185,5,128,6,0.4714290499687195,0.288566529750824
185,5,128,7,0.864579975605011,0.08740637451410294
185,5,128,8,0.7235527038574219,0.26381003856658936
185,5,128,9,0.5196830034255981,0.2162732034921646
185,5,128,10,0.315822571516037,0.10886986553668976
185,5,128,11,0.6474006175994873,0.13164842128753662
185,5,128,12,0.487517774105072,0.11990342289209366
185,5,128,13,0.7463687062263489,0.1392606794834137
185,5,128,14,0.44727030396461487,0.25138694047927856
185,5,128,15,0.8046177625656128,0.10381776094436646
185,5,128,16,0.7198299765586853,0.14432884752750397
185,5,128,17,0.3724134564399719,0.3037187159061432
185,5,128,18,0.7300674319267273,0.15185782313346863
185,5,128,19,0.7439007759094238,0.26926353573799133
185,5,128,20,0.6892470121383667,0.11662061512470245
185,5,128,21,0.7845250964164734,0.10982093214988708
185,5,128,22,0.35981589555740356,0.24346217513084412
185,5,128,23,0.5563957095146179,0.18750616908073425
185,5,128,24,0.7663900256156921,0.14200377464294434
185,5,128,25,0.6857515573501587,0.2736653983592987
185,5,128,26,0.7346906661987305,0.17965349555015564
185,5,128,27,0.7221413254737854,0.18113234639167786
185,5,128,28,0.4886277914047241,0.24580304324626923
185,5,128,29,0.8250982165336609,0.11577598750591278
185,5,128,30,0.5190995335578918,0.11412779986858368
185,5,128,31,0.6453279852867126,0.11388225853443146
185,5,128,32,0.7627500891685486,0.21169571578502655
185,5,128,33,0.5728015303611755,0.11311636865139008
185,5,128,34,0.8128880262374878,0.1122320145368576
185,5,128,35,0.7313973903656006,0.19722741842269897
185,5,128,36,0.7820841670036316,0.16894416511058807
185,5,128,37,0.47952190041542053,0.15376606583595276
185,5,128,38,0.697481632232666,0.17746376991271973
185,5,128,39,0.4855201840400696,0.24179717898368835
185,5,128,40,0.7193310260772705,0.2696530520915985
185,5,128,41,0.3894098997116089,0.09810921549797058
185,5,128,42,0.7500722408294678,0.1791238784790039
185,5,128,43,0.7062039375305176,0.1748434454202652
185,5,128,44,0.7675090432167053,0.15028679370880127
185,5,128,45,0.7053253650665283,0.2458944469690323
185,5,128,46,0.47572508454322815,0.2908560335636139
185,5,128,47,0.6132874488830566,0.17721307277679443
185,5,128,48,0.396102637052536,0.1884857416152954
185,5,128,49,0.6917129158973694,0.2707196772098541
185,5,128,50,0.7438662648200989,0.237212136387825
185,5,128,51,0.5269483327865601,0.22709497809410095
185,5,128,52,0.648579478263855,0.1378762274980545
185,5,128,53,0.5177289843559265,0.23839174211025238
185,5,128,54,0.3122350871562958,0.1312863975763321
185,5,128,55,0.7182953953742981,0.22939433157444
185,5,128,56,0.4962722659111023,0.19077317416667938
185,5,128,57,0.6786036491394043,0.1662246733903885
185,5,128,58,0.4892084300518036,0.13115902245044708
185,5,128,59,0.5847361087799072,0.1906307339668274
185,5,128,60,0.4948691129684448,0.23906195163726807
185,5,128,61,0.4618551433086395,0.2811793088912964
185,5,128,62,0.7230958342552185,0.2289549559354782
185,5,128,63,0.5800892114639282,0.3179474174976349
185,5,128,64,0.6053507924079895,0.1319115310907364
185,5,128,65,0.6346544027328491,0.12455456703901291
185,5,128,66,0.5404224395751953,0.2999841868877411
185,5,128,67,0.8181732892990112,0.10699208080768585
185,5,128,68,0.4775278866291046,0.18157963454723358
185,5,128,69,0.3650899827480316,0.24962447583675385
185,5,128,70,0.840724527835846,0.10493848472833633
185,5,128,71,0.6179729700088501,0.21438375115394592
185,5,128,72,0.6797013878822327,0.16209270060062408
185,5,128,73,0.5271986126899719,0.176844984292984
185,5,128,74,0.3668971359729767,0.31082186102867126
185,5,128,75,0.7225543260574341,0.22730515897274017
185,5,128,76,0.6551529765129089,0.18964128196239471
185,5,128,77,0.8358992338180542,0.1415506899356842
185,5,128,78,0.7427989840507507,0.2027878761291504
185,5,128,79,0.5693846344947815,0.10250375419855118
185,5,128,80,0.5605372190475464,0.17175830900669098
185,5,128,81,0.8464030623435974,0.10669045150279999
185,5,128,82,0.7552927732467651,0.2832242548465729
185,5,128,83,0.8557831645011902,0.09922847896814346
185,5,128,84,0.8039252758026123,0.12460367381572723
185,5,128,85,0.5089452266693115,0.24792025983333588
185,5,128,86,0.31597578525543213,0.2048456072807312
185,5,128,87,0.45612385869026184,0.26214802265167236
185,5,128,88,0.861987292766571,0.10763277858495712
185,5,128,89,0.6272532343864441,0.3106561005115509
185,5,128,90,0.5686272382736206,0.1670541614294052
185,5,128,91,0.8764353394508362,0.09150359779596329
185,5,128,92,0.8080466985702515,0.08680680394172668
185,5,128,93,0.49066224694252014,0.26371023058891296
185,5,128,94,0.47963324189186096,0.2708401381969452
185,5,128,95,0.8272746801376343,0.09449887275695801
185,5,128,96,0.7622225880622864,0.13508176803588867
185,5,128,97,0.7499282360076904,0.20074178278446198
185,5,128,98,0.8543221950531006,0.09266950935125351
185,5,128,99,0.8583229184150696,0.10647440701723099
185,5,128,100,0.5833900570869446,0.1977272927761078
185,5,128,101,0.5824959874153137,0.1332639753818512
185,5,128,102,0.4979088008403778,0.25115934014320374
185,5,128,103,0.7035608291625977,0.1598314344882965
185,5,128,104,0.6418494582176208,0.1504703313112259
185,5,128,105,0.744316041469574,0.2446567565202713
185,5,128,106,0.48747092485427856,0.26986873149871826
185,5,128,107,0.6725566983222961,0.19973443448543549
185,5,128,108,0.5655670166015625,0.22191643714904785
185,5,128,109,0.6570097208023071,0.3137255311012268
185,5,128,110,0.7510016560554504,0.12783120572566986
185,5,128,111,0.7908954620361328,0.1329963207244873
185,5,128,112,0.7834389805793762,0.12057087570428848
185,5,128,113,0.7598759531974792,0.09686090052127838
185,5,128,114,0.7545045614242554,0.12378443777561188
185,5,128,115,0.6092357635498047,0.28121861815452576
185,5,128,116,0.862676203250885,0.08807719498872757
185,5,128,117,0.6323538422584534,0.2694680988788605
185,5,128,118,0.5174421072006226,0.1611950397491455
185,5,128,119,0.550616443157196,0.21753065288066864
185,5,128,120,0.8556504845619202,0.09891816973686218
185,5,128,121,0.7585949301719666,0.11762216687202454
185,5,128,122,0.39363980293273926,0.3171409070491791
185,5,128,123,0.7607198357582092,0.10455875098705292
185,5,128,124,0.725274920463562,0.18645182251930237
185,5,128,125,0.6214663982391357,0.1925181895494461
185,5,128,126,0.7929656505584717,0.1253850758075714
185,5,128,127,0.6953479647636414,0.22149528563022614
186,0,32,0,0.5466621518135071,0.06954370439052582
186,0,32,1,0.5845690965652466,0.07313662022352219
186,0,32,2,0.4828948676586151,0.0334746353328228
186,0,32,3,0.5362169742584229,0.03235713019967079
186,0,32,4,0.45025691390037537,0.04622345417737961
186,0,32,5,0.5431455373764038,0.03278721123933792
186,0,32,6,0.5092617273330688,0.09770563244819641
186,0,32,7,0.5314891338348389,0.03779070824384689
186,0,32,8,0.424848347902298,0.027621638029813766
186,0,32,9,0.5898038744926453,0.06280003488063812
186,0,32,10,0.4578310251235962,0.08705959469079971
186,0,32,11,0.43426600098609924,0.06831876188516617
186,0,32,12,0.6049205660820007,0.04652518406510353
186,0,32,13,0.3866417109966278,0.06818486750125885
186,0,32,14,0.5175063014030457,0.02915218658745289
186,0,32,15,0.3616936206817627,0.029690545052289963
186,0,32,16,0.3865152895450592,0.022979481145739555
186,0,32,17,0.5393847823143005,0.031471431255340576
186,0,32,18,0.5232037901878357,0.0718415230512619
186,0,32,19,0.519400954246521,0.08484021574258804
186,0,32,20,0.48301634192466736,0.03231187164783478
186,0,32,21,0.5279744267463684,0.049077071249485016
186,0,32,22,0.640021026134491,0.03643128275871277
186,0,32,23,0.5680717825889587,0.07479735463857651
186,0,32,24,0.39518362283706665,0.09649495780467987
186,0,32,25,0.5220879316329956,0.03487890586256981
186,0,32,26,0.5507094264030457,0.08669500797986984
186,0,32,27,0.4794349670410156,0.08817949146032333
186,0,32,28,0.5120480060577393,0.04608805850148201
186,0,32,29,0.6266204118728638,0.0642789676785469
186,0,32,30,0.5385840535163879,0.08936046063899994
186,0,32,31,0.3996559679508209,0.09947660565376282
186,1,32,0,0.6468011736869812,0.07923682779073715
186,1,32,1,0.4663650691509247,0.04173159599304199
186,1,32,2,0.4917386770248413,0.030781039968132973
186,1,32,3,0.5677116513252258,0.07102694362401962
186,1,32,4,0.5380735397338867,0.04060109704732895
186,1,32,5,0.5311488509178162,0.0715622752904892
186,1,32,6,0.5828179717063904,0.09111020714044571
186,1,32,7,0.5150995254516602,0.06613647937774658
186,1,32,8,0.47284168004989624,0.06809355318546295
186,1,32,9,0.456601083278656,0.07616452872753143
186,1,32,10,0.38668254017829895,0.04099981486797333
186,1,32,11,0.4757092297077179,0.050679076462984085
186,1,32,12,0.5257696509361267,0.05525555834174156
186,1,32,13,0.5009251832962036,0.06735683977603912
186,1,32,14,0.47233301401138306,0.05649092048406601
186,1,32,15,0.4147161841392517,0.07988635450601578
186,1,32,16,0.41539159417152405,0.0454750657081604
186,1,32,17,0.5889797806739807,0.045872028917074203
186,1,32,18,0.555539608001709,0.056959472596645355
186,1,32,19,0.4774937927722931,0.05936472862958908
186,1,32,20,0.48380911350250244,0.06409165263175964
186,1,32,21,0.33176785707473755,0.07044808566570282
186,1,32,22,0.6253810524940491,0.07744517177343369
186,1,32,23,0.49247103929519653,0.05673915147781372
186,1,32,24,0.4990294873714447,0.06572164595127106
186,1,32,25,0.627785325050354,0.1280352771282196
186,1,32,26,0.4111986756324768,0.08121859282255173
186,1,32,27,0.3960244953632355,0.043251242488622665
186,1,32,28,0.608049213886261,0.060285914689302444
186,1,32,29,0.45427775382995605,0.062302347272634506
186,1,32,30,0.3795939087867737,0.07915138453245163
186,1,32,31,0.44505953788757324,0.07039419561624527
186,2,64,0,0.43963342905044556,0.03850880265235901
186,2,64,1,0.5070136189460754,0.038169145584106445
186,2,64,2,0.3843463361263275,0.10797170549631119
186,2,64,3,0.5379005074501038,0.04291103780269623
186,2,64,4,0.526910126209259,0.09734676033258438
186,2,64,5,0.467657208442688,0.04640785977244377
186,2,64,6,0.4657764434814453,0.08262015134096146
186,2,64,7,0.5256304144859314,0.04428453370928764
186,2,64,8,0.5494053363800049,0.03753819689154625
186,2,64,9,0.46347737312316895,0.06153702735900879
186,2,64,10,0.47771453857421875,0.043355949223041534
186,2,64,11,0.5360531806945801,0.06617797911167145
186,2,64,12,0.44767555594444275,0.075315460562706
186,2,64,13,0.5647667646408081,0.05788108706474304
186,2,64,14,0.3869772255420685,0.05742642655968666
186,2,64,15,0.46802881360054016,0.05392032489180565
186,2,64,16,0.3364883065223694,0.05687304586172104
186,2,64,17,0.5028076171875,0.054080311208963394
186,2,64,18,0.46877729892730713,0.0828307494521141
186,2,64,19,0.519463837146759,0.038623981177806854
186,2,64,20,0.4947759807109833,0.046403925865888596
186,2,64,21,0.5324086546897888,0.03875768557190895
186,2,64,22,0.5559707880020142,0.08179349452257156
186,2,64,23,0.5031993389129639,0.08367890119552612
186,2,64,24,0.5471975803375244,0.036346435546875
186,2,64,25,0.5810369253158569,0.0395548939704895
186,2,64,26,0.5435817837715149,0.06244552880525589
186,2,64,27,0.4436799883842468,0.07131905853748322
186,2,64,28,0.453016459941864,0.10286173969507217
186,2,64,29,0.49420902132987976,0.07722185552120209
186,2,64,30,0.6438325047492981,0.04979630932211876
186,2,64,31,0.5105720162391663,0.026050137355923653
186,2,64,32,0.41688457131385803,0.09739401191473007
186,2,64,33,0.5649273991584778,0.05323199927806854
186,2,64,34,0.4710187315940857,0.05597097426652908
186,2,64,35,0.529047966003418,0.05032294616103172
186,2,64,36,0.5070288181304932,0.07826364040374756
186,2,64,37,0.42767348885536194,0.044403012841939926
186,2,64,38,0.6036129593849182,0.05811071768403053
186,2,64,39,0.4228605031967163,0.050701890140771866
186,2,64,40,0.4434460699558258,0.05816647410392761
186,2,64,41,0.566452145576477,0.0482272244989872
186,2,64,42,0.3830969035625458,0.059569571167230606
186,2,64,43,0.45872464776039124,0.06819914281368256
186,2,64,44,0.5690757632255554,0.06061949580907822
186,2,64,45,0.3729103207588196,0.04789241775870323
186,2,64,46,0.5342947244644165,0.023762034252285957
186,2,64,47,0.5865472555160522,0.022005347535014153
186,2,64,48,0.665472686290741,0.06552969664335251
186,2,64,49,0.42034995555877686,0.07213758677244186
186,2,64,50,0.6025449633598328,0.05416368693113327
186,2,64,51,0.46688780188560486,0.05449376627802849
186,2,64,52,0.4695126712322235,0.07403482496738434
186,2,64,53,0.6282783150672913,0.03171171993017197
186,2,64,54,0.4414471387863159,0.08656460791826248
186,2,64,55,0.5041027069091797,0.04605787247419357
186,2,64,56,0.44759097695350647,0.06433698534965515
186,2,64,57,0.468758225440979,0.07658563554286957
186,2,64,58,0.5450608730316162,0.13346025347709656
186,2,64,59,0.47978290915489197,0.06865935772657394
186,2,64,60,0.5171682834625244,0.05736669525504112
186,2,64,61,0.5940701365470886,0.08813288807868958
186,2,64,62,0.6163290143013,0.09494659304618835
186,2,64,63,0.39497873187065125,0.07643251866102219
186,3,64,0,0.3648682236671448,0.13574081659317017
186,3,64,1,0.586144745349884,0.08202607929706573
186,3,64,2,0.3692675232887268,0.09811032563447952
186,3,64,3,0.4845619201660156,0.10528145730495453
186,3,64,4,0.4634473919868469,0.0994332879781723
186,3,64,5,0.6013976335525513,0.07364247739315033
186,3,64,6,0.4540790319442749,0.07733727991580963
186,3,64,7,0.5258676409721375,0.10900897532701492
186,3,64,8,0.5675005912780762,0.10396286100149155
186,3,64,9,0.5769044160842896,0.08479186147451401
186,3,64,10,0.5454453825950623,0.07998976856470108
186,3,64,11,0.47379377484321594,0.07982269674539566
186,3,64,12,0.48281118273735046,0.05307145416736603
186,3,64,13,0.46304306387901306,0.045286040753126144
186,3,64,14,0.5563405752182007,0.03430140018463135
186,3,64,15,0.6243523359298706,0.05415240675210953
186,3,64,16,0.4797642230987549,0.020582783967256546
186,3,64,17,0.4263102114200592,0.07116002589464188
186,3,64,18,0.6004968881607056,0.04054178670048714
186,3,64,19,0.5297967791557312,0.08768820017576218
186,3,64,20,0.473442405462265,0.07301653176546097
186,3,64,21,0.46138453483581543,0.07840502262115479
186,3,64,22,0.6067336201667786,0.06662383675575256
186,3,64,23,0.5464127063751221,0.06738364696502686
186,3,64,24,0.585713803768158,0.040207792073488235
186,3,64,25,0.39584171772003174,0.05958404392004013
186,3,64,26,0.41135072708129883,0.09697644412517548
186,3,64,27,0.47488996386528015,0.04662667587399483
186,3,64,28,0.6228722929954529,0.09797391295433044
186,3,64,29,0.42819902300834656,0.10933267325162888
186,3,64,30,0.4856046736240387,0.060373347252607346
186,3,64,31,0.5183802247047424,0.06226769834756851
186,3,64,32,0.5367386341094971,0.14404766261577606
186,3,64,33,0.48373228311538696,0.17626303434371948
186,3,64,34,0.496529757976532,0.060433484613895416
186,3,64,35,0.5503230690956116,0.07097803056240082
186,3,64,36,0.4603509306907654,0.06007269024848938
186,3,64,37,0.5853807926177979,0.06193380430340767
186,3,64,38,0.4869767725467682,0.062265969812870026
186,3,64,39,0.5639809370040894,0.09720472246408463
186,3,64,40,0.6520235538482666,0.1344822496175766
186,3,64,41,0.5222642421722412,0.11102976649999619
186,3,64,42,0.45311474800109863,0.08063023537397385
186,3,64,43,0.3911116123199463,0.18332210183143616
186,3,64,44,0.5060491561889648,0.05326366424560547
186,3,64,45,0.4105111062526703,0.07958602905273438
186,3,64,46,0.48334673047065735,0.11146961897611618
186,3,64,47,0.4909152686595917,0.06623590737581253
186,3,64,48,0.41474226117134094,0.15313783288002014
186,3,64,49,0.5235971212387085,0.10242752730846405
186,3,64,50,0.5324259996414185,0.08559971302747726
186,3,64,51,0.48981863260269165,0.09065447747707367
186,3,64,52,0.4674778878688812,0.11733829230070114
186,3,64,53,0.5379553437232971,0.10573187470436096
186,3,64,54,0.36136794090270996,0.1109105572104454
186,3,64,55,0.5333248972892761,0.05311807245016098
186,3,64,56,0.37292417883872986,0.1242397353053093
186,3,64,57,0.4316011369228363,0.04817865043878555
186,3,64,58,0.43906718492507935,0.1402127742767334
186,3,64,59,0.35304078459739685,0.08700574934482574
186,3,64,60,0.45801013708114624,0.07059795409440994
186,3,64,61,0.4225763976573944,0.03753795102238655
186,3,64,62,0.5062065720558167,0.050368621945381165
186,3,64,63,0.5448547601699829,0.13873837888240814
186,4,128,0,0.5524700284004211,0.13118353486061096
186,4,128,1,0.438018262386322,0.14926867187023163
186,4,128,2,0.6955859661102295,0.14322714507579803
186,4,128,3,0.534870982170105,0.1801295131444931
186,4,128,4,0.5954979658126831,0.16342894732952118
186,4,128,5,0.49276915192604065,0.09806831181049347
186,4,128,6,0.5380386114120483,0.13443540036678314
186,4,128,7,0.6626566052436829,0.1840454787015915
186,4,128,8,0.5319489240646362,0.0998472347855568
186,4,128,9,0.46941885352134705,0.08122023940086365
186,4,128,10,0.5579337477684021,0.18465274572372437
186,4,128,11,0.39308059215545654,0.17472609877586365
186,4,128,12,0.688782274723053,0.2072284072637558
186,4,128,13,0.5467175841331482,0.04436708241701126
186,4,128,14,0.5541484951972961,0.1072305217385292
186,4,128,15,0.5684899091720581,0.1423824429512024
186,4,128,16,0.5128483176231384,0.05831276997923851
186,4,128,17,0.35317933559417725,0.16238154470920563
186,4,128,18,0.5298483967781067,0.16868537664413452
186,4,128,19,0.6076069474220276,0.12069130688905716
186,4,128,20,0.5188825130462646,0.2071131318807602
186,4,128,21,0.2705623507499695,0.10431525856256485
186,4,128,22,0.5545932650566101,0.0840064287185669
186,4,128,23,0.5361562371253967,0.22996589541435242
186,4,128,24,0.5564945340156555,0.1662285327911377
186,4,128,25,0.6899113655090332,0.17010918259620667
186,4,128,26,0.33066362142562866,0.15997444093227386
186,4,128,27,0.5507381558418274,0.19628560543060303
186,4,128,28,0.4570521116256714,0.21248920261859894
186,4,128,29,0.4645901322364807,0.2230524867773056
186,4,128,30,0.4799335300922394,0.16145652532577515
186,4,128,31,0.5603657364845276,0.06745883077383041
186,4,128,32,0.5682315826416016,0.19071146845817566
186,4,128,33,0.42290911078453064,0.17866307497024536
186,4,128,34,0.49582499265670776,0.16945190727710724
186,4,128,35,0.510902464389801,0.2389671802520752
186,4,128,36,0.5960506796836853,0.18363912403583527
186,4,128,37,0.5461280941963196,0.12286542356014252
186,4,128,38,0.6267803907394409,0.2644863724708557
186,4,128,39,0.5813249349594116,0.12818555533885956
186,4,128,40,0.5460137128829956,0.11588753759860992
186,4,128,41,0.6017200350761414,0.19701336324214935
186,4,128,42,0.4828043580055237,0.09670884907245636
186,4,128,43,0.4315207004547119,0.11887253075838089
186,4,128,44,0.41763564944267273,0.15970495343208313
186,4,128,45,0.5535998344421387,0.13578833639621735
186,4,128,46,0.4911414384841919,0.1703731268644333
186,4,128,47,0.6146557331085205,0.08346893638372421
186,4,128,48,0.39064502716064453,0.14651638269424438
186,4,128,49,0.3556209206581116,0.1694236546754837
186,4,128,50,0.5407102108001709,0.06812938302755356
186,4,128,51,0.6195880770683289,0.21582284569740295
186,4,128,52,0.5121886134147644,0.23794783651828766
186,4,128,53,0.4896739423274994,0.14247757196426392
186,4,128,54,0.45603662729263306,0.18124666810035706
186,4,128,55,0.6033546924591064,0.13913196325302124
186,4,128,56,0.6413488388061523,0.1087426096200943
186,4,128,57,0.37494349479675293,0.24726372957229614
186,4,128,58,0.5581265091896057,0.09174368530511856
186,4,128,59,0.6231185793876648,0.26428693532943726
186,4,128,60,0.5823908448219299,0.07140609622001648
186,4,128,61,0.4626936912536621,0.23441177606582642
186,4,128,62,0.43162044882774353,0.13274410367012024
186,4,128,63,0.6553086042404175,0.16594140231609344
186,4,128,64,0.7444198131561279,0.10892648249864578
186,4,128,65,0.3494725823402405,0.15751580893993378
186,4,128,66,0.4051367938518524,0.21423745155334473
186,4,128,67,0.7303339242935181,0.1131235882639885
186,4,128,68,0.3740849494934082,0.12804706394672394
186,4,128,69,0.45116546750068665,0.1820753812789917
186,4,128,70,0.5950168967247009,0.2906893789768219
186,4,128,71,0.555790901184082,0.1289890855550766
186,4,128,72,0.3594096601009369,0.2068985253572464
186,4,128,73,0.4553634524345398,0.11015444248914719
186,4,128,74,0.4036088287830353,0.0859604999423027
186,4,128,75,0.6355792284011841,0.20498336851596832
186,4,128,76,0.6182364821434021,0.2273949831724167
186,4,128,77,0.4995366930961609,0.10920927673578262
186,4,128,78,0.44536134600639343,0.16202569007873535
186,4,128,79,0.7014632225036621,0.10119038820266724
186,4,128,80,0.5473068952560425,0.2572125494480133
186,4,128,81,0.35895106196403503,0.07615472376346588
186,4,128,82,0.4617914855480194,0.11289770156145096
186,4,128,83,0.5281406044960022,0.12492600083351135
186,4,128,84,0.5605303049087524,0.15646575391292572
186,4,128,85,0.5871486663818359,0.09613994508981705
186,4,128,86,0.5972322225570679,0.08772198855876923
186,4,128,87,0.47822558879852295,0.14307145774364471
186,4,128,88,0.7022493481636047,0.12389617413282394
186,4,128,89,0.5640364289283752,0.1854168176651001
186,4,128,90,0.5571780204772949,0.20678256452083588
186,4,128,91,0.48351654410362244,0.1946258395910263
186,4,128,92,0.5550506114959717,0.12275329232215881
186,4,128,93,0.474161833524704,0.18201668560504913
186,4,128,94,0.507365345954895,0.10579366981983185
186,4,128,95,0.5578435659408569,0.1604834645986557
186,4,128,96,0.5684468150138855,0.18395599722862244
186,4,128,97,0.5925536751747131,0.15792866051197052
186,4,128,98,0.49970743060112,0.1031566634774208
186,4,128,99,0.46964049339294434,0.06155339628458023
186,4,128,100,0.45033714175224304,0.13075336813926697
186,4,128,101,0.4786964952945709,0.257845401763916
186,4,128,102,0.41158923506736755,0.15397846698760986
186,4,128,103,0.5123690962791443,0.09994324296712875
186,4,128,104,0.49376291036605835,0.15833032131195068
186,4,128,105,0.5242742300033569,0.19532126188278198
186,4,128,106,0.41454339027404785,0.10942418873310089
186,4,128,107,0.5455036759376526,0.20628929138183594
186,4,128,108,0.6006174683570862,0.21840128302574158
186,4,128,109,0.5063288807868958,0.07069534063339233
186,4,128,110,0.6924874782562256,0.15493319928646088
186,4,128,111,0.5637032389640808,0.14648988842964172
186,4,128,112,0.3189394772052765,0.11226820945739746
186,4,128,113,0.6666988730430603,0.1323367953300476
186,4,128,114,0.4409004747867584,0.10915768146514893
186,4,128,115,0.6284136176109314,0.09886856377124786
186,4,128,116,0.4784192144870758,0.16232150793075562
186,4,128,117,0.6559360027313232,0.15747947990894318
186,4,128,118,0.5573793649673462,0.16879527270793915
186,4,128,119,0.5167285203933716,0.07229351997375488
186,4,128,120,0.6752750873565674,0.17522332072257996
186,4,128,121,0.40422603487968445,0.09757447987794876
186,4,128,122,0.5328738689422607,0.10340289771556854
186,4,128,123,0.5420738458633423,0.07520988583564758
186,4,128,124,0.6474738121032715,0.12674540281295776
186,4,128,125,0.5406586527824402,0.19413864612579346
186,4,128,126,0.5573060512542725,0.1836424469947815
186,4,128,127,0.3922334611415863,0.1311671882867813
186,5,128,0,0.5420969128608704,0.1729028820991516
186,5,128,1,0.4159674644470215,0.13750654458999634
186,5,128,2,0.5298172831535339,0.15933865308761597
186,5,128,3,0.5210747718811035,0.2682018578052521
186,5,128,4,0.3393346071243286,0.09820383042097092
186,5,128,5,0.4777575135231018,0.09337913990020752
186,5,128,6,0.3622312843799591,0.15675845742225647
186,5,128,7,0.6159965395927429,0.10425812751054764
186,5,128,8,0.5556437373161316,0.09960929304361343
186,5,128,9,0.44998493790626526,0.15858377516269684
186,5,128,10,0.4519708752632141,0.22488215565681458
186,5,128,11,0.6249361038208008,0.19903746247291565
186,5,128,12,0.6043365597724915,0.187966451048851
186,5,128,13,0.4331653416156769,0.13304121792316437
186,5,128,14,0.45320308208465576,0.23401029407978058
186,5,128,15,0.5801495909690857,0.14537934958934784
186,5,128,16,0.5813641548156738,0.22319316864013672
186,5,128,17,0.5881423354148865,0.24004967510700226
186,5,128,18,0.45833733677864075,0.23383750021457672
186,5,128,19,0.5305130481719971,0.15479178726673126
186,5,128,20,0.4630883038043976,0.22929970920085907
186,5,128,21,0.5581667423248291,0.06255187839269638
186,5,128,22,0.5099121332168579,0.07802364230155945
186,5,128,23,0.46373915672302246,0.1320151835680008
186,5,128,24,0.6754125952720642,0.14947609603405
186,5,128,25,0.5863423943519592,0.06156626716256142
186,5,128,26,0.5328746438026428,0.06295523792505264
186,5,128,27,0.5804319977760315,0.1330065280199051
186,5,128,28,0.5743901133537292,0.16829654574394226
186,5,128,29,0.3968305289745331,0.09356945008039474
186,5,128,30,0.49486982822418213,0.10743437707424164
186,5,128,31,0.7090519666671753,0.12768077850341797
186,5,128,32,0.65251624584198,0.13651996850967407
186,5,128,33,0.43775224685668945,0.18813154101371765
186,5,128,34,0.5725825428962708,0.09550481289625168
186,5,128,35,0.5118186473846436,0.07326845079660416
186,5,128,36,0.6785580515861511,0.1893225908279419
186,5,128,37,0.4238787293434143,0.0611494705080986
186,5,128,38,0.6195474863052368,0.09039263427257538
186,5,128,39,0.49309107661247253,0.09900597482919693
186,5,128,40,0.6637076139450073,0.09407279640436172
186,5,128,41,0.5814775228500366,0.10725857317447662
186,5,128,42,0.31644386053085327,0.08827949315309525
186,5,128,43,0.5266237854957581,0.1806560605764389
186,5,128,44,0.5240506529808044,0.10213584452867508
186,5,128,45,0.4626903533935547,0.15219223499298096
186,5,128,46,0.5492045879364014,0.15044434368610382
186,5,128,47,0.6391518712043762,0.0909695029258728
186,5,128,48,0.5539000034332275,0.11064084619283676
186,5,128,49,0.5750315189361572,0.16879235208034515
186,5,128,50,0.5365533828735352,0.08732359111309052
186,5,128,51,0.5131151080131531,0.27251145243644714
186,5,128,52,0.5694605112075806,0.22588106989860535
186,5,128,53,0.6341055035591125,0.12628981471061707
186,5,128,54,0.6393647789955139,0.18811902403831482
186,5,128,55,0.5902574062347412,0.06046169623732567
186,5,128,56,0.6398646235466003,0.20118582248687744
186,5,128,57,0.39409610629081726,0.22482897341251373
186,5,128,58,0.41558489203453064,0.05491774156689644
186,5,128,59,0.5060256123542786,0.13654188811779022
186,5,128,60,0.45186176896095276,0.04927625134587288
186,5,128,61,0.6290079355239868,0.15429939329624176
186,5,128,62,0.5440608859062195,0.1380728781223297
186,5,128,63,0.554966926574707,0.13809490203857422
186,5,128,64,0.5030148029327393,0.09021543711423874
186,5,128,65,0.6473416686058044,0.07012620568275452
186,5,128,66,0.6268312931060791,0.08634721487760544
186,5,128,67,0.6083996295928955,0.15141211450099945
186,5,128,68,0.6212551593780518,0.05799449607729912
186,5,128,69,0.6068010926246643,0.15914781391620636
186,5,128,70,0.5081259608268738,0.20361940562725067
186,5,128,71,0.6385216116905212,0.11449191719293594
186,5,128,72,0.33323290944099426,0.09218230843544006
186,5,128,73,0.6662951707839966,0.11347272247076035
186,5,128,74,0.5160874724388123,0.1614997684955597
186,5,128,75,0.5740811228752136,0.1463489830493927
186,5,128,76,0.5480575561523438,0.11967006325721741
186,5,128,77,0.5755450129508972,0.18123820424079895
186,5,128,78,0.7474969029426575,0.08725906908512115
186,5,128,79,0.6993504762649536,0.07448110729455948
186,5,128,80,0.6575082540512085,0.11440817266702652
186,5,128,81,0.44656574726104736,0.10395509004592896
186,5,128,82,0.4573724865913391,0.15999957919120789
186,5,128,83,0.5574703216552734,0.22259880602359772
186,5,128,84,0.635331392288208,0.13650722801685333
186,5,128,85,0.5390409827232361,0.180427685379982
186,5,128,86,0.553195059299469,0.13489781320095062
186,5,128,87,0.5319286584854126,0.15651044249534607
186,5,128,88,0.5337216258049011,0.21499115228652954
186,5,128,89,0.580362856388092,0.1010139063000679
186,5,128,90,0.48788124322891235,0.12662675976753235
186,5,128,91,0.5746675729751587,0.13163475692272186
186,5,128,92,0.5356787443161011,0.20460262894630432
186,5,128,93,0.47311559319496155,0.13196024298667908
186,5,128,94,0.6154940724372864,0.09202168136835098
186,5,128,95,0.6363381743431091,0.09270457923412323
186,5,128,96,0.5756183862686157,0.05757245793938637
186,5,128,97,0.5520163178443909,0.24385057389736176
186,5,128,98,0.4259142279624939,0.07653981447219849
186,5,128,99,0.5619162321090698,0.09603971987962723
186,5,128,100,0.6653656959533691,0.09879224002361298
186,5,128,101,0.44142043590545654,0.11681466549634933
186,5,128,102,0.5323156118392944,0.1668889969587326
186,5,128,103,0.5213942527770996,0.12388568371534348
186,5,128,104,0.5423744916915894,0.11064863950014114
186,5,128,105,0.5200247168540955,0.08323277533054352
186,5,128,106,0.603604257106781,0.0723956748843193
186,5,128,107,0.649496853351593,0.1337215006351471
186,5,128,108,0.4373554587364197,0.07354489713907242
186,5,128,109,0.6666159629821777,0.14243924617767334
186,5,128,110,0.5525262355804443,0.15007218718528748
186,5,128,111,0.4872908890247345,0.18955983221530914
186,5,128,112,0.5166241526603699,0.14852382242679596
186,5,128,113,0.6567853689193726,0.12969030439853668
186,5,128,114,0.5937197804450989,0.19566892087459564
186,5,128,115,0.437124639749527,0.22368013858795166
186,5,128,116,0.6790151000022888,0.11415793001651764
186,5,128,117,0.7312213778495789,0.1667182743549347
186,5,128,118,0.5617827773094177,0.11957655102014542
186,5,128,119,0.7233976125717163,0.10672179609537125
186,5,128,120,0.41186943650245667,0.2503202557563782
186,5,128,121,0.5145058035850525,0.07839048653841019
186,5,128,122,0.6446461081504822,0.15187996625900269
186,5,128,123,0.5588645339012146,0.11299455165863037
186,5,128,124,0.600217342376709,0.113381028175354
186,5,128,125,0.5248742699623108,0.1840634047985077
186,5,128,126,0.5329182744026184,0.07909947633743286
186,5,128,127,0.6429101228713989,0.11783609539270401
188,0,32,0,0.4057539105415344,0.06296341121196747
188,0,32,1,0.6710085868835449,0.09322964400053024
188,0,32,2,0.6627852320671082,0.07863040268421173
188,0,32,3,0.596554696559906,0.06937731057405472
188,0,32,4,0.4207201302051544,0.07370880246162415
188,0,32,5,0.6122009754180908,0.08988426625728607
188,0,32,6,0.4847753345966339,0.1290334016084671
188,0,32,7,0.40889617800712585,0.07392410933971405
188,0,32,8,0.5416991114616394,0.09729775041341782
188,0,32,9,0.4284529685974121,0.05085106939077377
188,0,32,10,0.536720871925354,0.10201966762542725
188,0,32,11,0.43690022826194763,0.0881885439157486
188,0,32,12,0.5961619019508362,0.0700140967965126
188,0,32,13,0.42948484420776367,0.04888641834259033
188,0,32,14,0.42184141278266907,0.06871064752340317
188,0,32,15,0.43647921085357666,0.056582219898700714
188,0,32,16,0.5040311813354492,0.09086330235004425
188,0,32,17,0.3521842360496521,0.0812596008181572
188,0,32,18,0.47384485602378845,0.04342839866876602
188,0,32,19,0.49661561846733093,0.07230887562036514
188,0,32,20,0.5670948624610901,0.1478724628686905
188,0,32,21,0.48456045985221863,0.055477965623140335
188,0,32,22,0.5065005421638489,0.05098650977015495
188,0,32,23,0.5251820087432861,0.07065536826848984
188,0,32,24,0.45637452602386475,0.061309874057769775
188,0,32,25,0.3772778809070587,0.10083424299955368
188,0,32,26,0.43428459763526917,0.05690142884850502
188,0,32,27,0.44458678364753723,0.03829234093427658
188,0,32,28,0.5490601062774658,0.06926361471414566
188,0,32,29,0.45680028200149536,0.07431142777204514
188,0,32,30,0.4910692274570465,0.10485830157995224
188,0,32,31,0.4101656675338745,0.04993327707052231
188,1,32,0,0.49756383895874023,0.07016860693693161
188,1,32,1,0.4855080544948578,0.0805801972746849
188,1,32,2,0.5039657950401306,0.07595113664865494
188,1,32,3,0.5884198546409607,0.12239617109298706
188,1,32,4,0.36544451117515564,0.056720633059740067
188,1,32,5,0.5128162503242493,0.09147486835718155
188,1,32,6,0.46629583835601807,0.08228971064090729
188,1,32,7,0.573861837387085,0.04994286224246025
188,1,32,8,0.5652109384536743,0.030526723712682724
188,1,32,9,0.4477291703224182,0.03636148199439049
188,1,32,10,0.41799426078796387,0.051908910274505615
188,1,32,11,0.3762757182121277,0.08678875863552094
188,1,32,12,0.3882201015949249,0.10931684821844101
188,1,32,13,0.5859658122062683,0.07901374250650406
188,1,32,14,0.3974502980709076,0.12058047950267792
188,1,32,15,0.5641502141952515,0.1035044863820076
188,1,32,16,0.43991443514823914,0.07320494204759598
188,1,32,17,0.6050553917884827,0.10574076324701309
188,1,32,18,0.6163716316223145,0.09082779288291931
188,1,32,19,0.5488513708114624,0.12822023034095764
188,1,32,20,0.6735796332359314,0.09056475013494492
188,1,32,21,0.536372184753418,0.05480784550309181
188,1,32,22,0.47920212149620056,0.08921437710523605
188,1,32,23,0.46521544456481934,0.07387539744377136
188,1,32,24,0.46117159724235535,0.04550768435001373
188,1,32,25,0.66399747133255,0.06643775850534439
188,1,32,26,0.4740035831928253,0.0747464969754219
188,1,32,27,0.4838367700576782,0.06840064376592636
188,1,32,28,0.4444892704486847,0.10018932074308395
188,1,32,29,0.5279048085212708,0.073588527739048
188,1,32,30,0.46077167987823486,0.049702733755111694
188,1,32,31,0.4256328046321869,0.08352404087781906
188,2,64,0,0.49910029768943787,0.16901995241641998
188,2,64,1,0.6493526101112366,0.08931741118431091
188,2,64,2,0.4534875750541687,0.043570809066295624
188,2,64,3,0.4722084701061249,0.16543328762054443
188,2,64,4,0.5781261324882507,0.13016235828399658
188,2,64,5,0.37864890694618225,0.10848889499902725
188,2,64,6,0.5297149419784546,0.17897750437259674
188,2,64,7,0.6120222806930542,0.0844186544418335
188,2,64,8,0.397148072719574,0.07945681363344193
188,2,64,9,0.6882556080818176,0.06139396131038666
188,2,64,10,0.5203673243522644,0.11723022162914276
188,2,64,11,0.4083997905254364,0.09772813320159912
188,2,64,12,0.5365356206893921,0.18304263055324554
188,2,64,13,0.5120006799697876,0.16317495703697205
188,2,64,14,0.4252515435218811,0.09538420289754868
188,2,64,15,0.6041885614395142,0.1154690608382225
188,2,64,16,0.46490663290023804,0.04668915271759033
188,2,64,17,0.3409380614757538,0.07238052785396576
188,2,64,18,0.561100959777832,0.10626890510320663
188,2,64,19,0.43765485286712646,0.054566387087106705
188,2,64,20,0.46205762028694153,0.23323413729667664
188,2,64,21,0.47673389315605164,0.04198132082819939
188,2,64,22,0.5531657934188843,0.09756089746952057
188,2,64,23,0.616520881652832,0.20982861518859863
188,2,64,24,0.5914472341537476,0.13231050968170166
188,2,64,25,0.4176037013530731,0.19926422834396362
188,2,64,26,0.475879967212677,0.0767579972743988
188,2,64,27,0.3920074999332428,0.08320781588554382
188,2,64,28,0.36618277430534363,0.2253941148519516
188,2,64,29,0.3765071928501129,0.2124161571264267
188,2,64,30,0.5061980485916138,0.20427069067955017
188,2,64,31,0.5362414121627808,0.1701774001121521
188,2,64,32,0.5450776219367981,0.10295338928699493
188,2,64,33,0.5489549040794373,0.17784146964550018
188,2,64,34,0.47420209646224976,0.1396678239107132
188,2,64,35,0.44554170966148376,0.10468339920043945
188,2,64,36,0.6209964156150818,0.12155736237764359
188,2,64,37,0.657752275466919,0.10044067353010178
188,2,64,38,0.4457511007785797,0.0789862722158432
188,2,64,39,0.4184456467628479,0.09451576322317123
188,2,64,40,0.4723126292228699,0.12017012387514114
188,2,64,41,0.7107084393501282,0.1237359419465065
188,2,64,42,0.45131009817123413,0.16756181418895721
188,2,64,43,0.41572943329811096,0.12200631946325302
188,2,64,44,0.6385291814804077,0.08903151005506516
188,2,64,45,0.33123499155044556,0.09583436697721481
188,2,64,46,0.3983374238014221,0.1394769847393036
188,2,64,47,0.42224112153053284,0.212293341755867
188,2,64,48,0.47053781151771545,0.15776818990707397
188,2,64,49,0.6887803077697754,0.08965007215738297
188,2,64,50,0.25867176055908203,0.08789795637130737
188,2,64,51,0.4357520043849945,0.058694276958703995
188,2,64,52,0.4555443227291107,0.07883065938949585
188,2,64,53,0.45261457562446594,0.11382069438695908
188,2,64,54,0.44687017798423767,0.24906297028064728
188,2,64,55,0.6269413232803345,0.2553820013999939
188,2,64,56,0.39021778106689453,0.2363012135028839
188,2,64,57,0.6088382601737976,0.07953791320323944
188,2,64,58,0.5219394564628601,0.17035764455795288
188,2,64,59,0.6586008071899414,0.1541847586631775
188,2,64,60,0.5136427283287048,0.1948746144771576
188,2,64,61,0.43658381700515747,0.07227698713541031
188,2,64,62,0.49197089672088623,0.14099769294261932
188,2,64,63,0.4901702105998993,0.19125351309776306
188,3,64,0,0.455288827419281,0.09311266243457794
188,3,64,1,0.6104351282119751,0.03544701635837555
188,3,64,2,0.42390990257263184,0.07122128456830978
188,3,64,3,0.6982927918434143,0.06552498787641525
188,3,64,4,0.38987621665000916,0.0672210305929184
188,3,64,5,0.5284243226051331,0.06544008105993271
188,3,64,6,0.6440690755844116,0.03739749267697334
188,3,64,7,0.46198803186416626,0.08971971273422241
188,3,64,8,0.5341493487358093,0.062112536281347275
188,3,64,9,0.37252798676490784,0.02941504307091236
188,3,64,10,0.4203760325908661,0.07342448830604553
188,3,64,11,0.29700174927711487,0.10012929886579514
188,3,64,12,0.48619019985198975,0.09866342693567276
188,3,64,13,0.4363752603530884,0.06700494140386581
188,3,64,14,0.4862939119338989,0.08814438432455063
188,3,64,15,0.4113107919692993,0.08542657643556595
188,3,64,16,0.509200930595398,0.06254269927740097
188,3,64,17,0.5653125047683716,0.07866034656763077
188,3,64,18,0.6080387234687805,0.054776791483163834
188,3,64,19,0.4496085047721863,0.06878744065761566
188,3,64,20,0.5395120978355408,0.0540398545563221
188,3,64,21,0.4513145089149475,0.08185373991727829
188,3,64,22,0.5030567049980164,0.11454423516988754
188,3,64,23,0.5698448419570923,0.10512705892324448
188,3,64,24,0.5915125012397766,0.07230094075202942
188,3,64,25,0.4334951639175415,0.031067341566085815
188,3,64,26,0.5117144584655762,0.06635377556085587
188,3,64,27,0.4255010783672333,0.06655803322792053
188,3,64,28,0.42688480019569397,0.042441800236701965
188,3,64,29,0.4306843876838684,0.051894526928663254
188,3,64,30,0.4427507221698761,0.0731370747089386
188,3,64,31,0.48106634616851807,0.03629296272993088
188,3,64,32,0.5503529906272888,0.09147410094738007
188,3,64,33,0.4819982051849365,0.09760896861553192
188,3,64,34,0.5701556205749512,0.05652548745274544
188,3,64,35,0.5688165426254272,0.02504643239080906
188,3,64,36,0.5296308398246765,0.05672316998243332
188,3,64,37,0.39139318466186523,0.0738191083073616
188,3,64,38,0.4622284471988678,0.06798659265041351
188,3,64,39,0.5104885697364807,0.08905025571584702
188,3,64,40,0.5767830610275269,0.0364537388086319
188,3,64,41,0.41946661472320557,0.041777413338422775
188,3,64,42,0.5456699728965759,0.06527213752269745
188,3,64,43,0.40039098262786865,0.053294770419597626
188,3,64,44,0.4688160717487335,0.037372343242168427
188,3,64,45,0.5530732870101929,0.0952540785074234
188,3,64,46,0.5186816453933716,0.08277510106563568
188,3,64,47,0.5395680069923401,0.06910832971334457
188,3,64,48,0.4580620229244232,0.08030987530946732
188,3,64,49,0.5774403214454651,0.11022358387708664
188,3,64,50,0.5991789698600769,0.11492836475372314
188,3,64,51,0.5424575805664062,0.08683858066797256
188,3,64,52,0.5136255621910095,0.06994697451591492
188,3,64,53,0.5623499155044556,0.08243799209594727
188,3,64,54,0.4341745972633362,0.08528637140989304
188,3,64,55,0.3891006410121918,0.09525403380393982
188,3,64,56,0.39075174927711487,0.02967282384634018
188,3,64,57,0.4428768455982208,0.09546413272619247
188,3,64,58,0.4092681407928467,0.055460236966609955
188,3,64,59,0.5604891777038574,0.03974270075559616
188,3,64,60,0.47976237535476685,0.05748028680682182
188,3,64,61,0.5154299736022949,0.05263630673289299
188,3,64,62,0.45538023114204407,0.07187653332948685
188,3,64,63,0.5598970651626587,0.06674551963806152
188,4,128,0,0.49782484769821167,0.22800303995609283
188,4,128,1,0.4949244558811188,0.21964707970619202
188,4,128,2,0.48686617612838745,0.15795262157917023
188,4,128,3,0.5813456773757935,0.16810347139835358
188,4,128,4,0.4404868185520172,0.08360901474952698
188,4,128,5,0.5647579431533813,0.26842308044433594
188,4,128,6,0.5677716732025146,0.17077767848968506
188,4,128,7,0.5162087678909302,0.15266667306423187
188,4,128,8,0.6625875234603882,0.08816385269165039
188,4,128,9,0.6552497148513794,0.23805007338523865
188,4,128,10,0.6055710315704346,0.09144596010446548
188,4,128,11,0.5609241724014282,0.10420896857976913
188,4,128,12,0.5080162882804871,0.05826864019036293
188,4,128,13,0.4998168349266052,0.1458636224269867
188,4,128,14,0.6439126133918762,0.16321039199829102
188,4,128,15,0.5893093943595886,0.30621376633644104
188,4,128,16,0.7152687311172485,0.09341718256473541
188,4,128,17,0.4595637023448944,0.17212219536304474
188,4,128,18,0.45229074358940125,0.23913991451263428
188,4,128,19,0.5794133543968201,0.06582219153642654
188,4,128,20,0.4525337517261505,0.21968157589435577
188,4,128,21,0.5907396078109741,0.13412217795848846
188,4,128,22,0.4979693293571472,0.22120115160942078
188,4,128,23,0.5324865579605103,0.21153254806995392
188,4,128,24,0.5665634274482727,0.17737625539302826
188,4,128,25,0.631270706653595,0.13976167142391205
188,4,128,26,0.3010214567184448,0.08512092381715775
188,4,128,27,0.4644835293292999,0.16610048711299896
188,4,128,28,0.5298268795013428,0.12214785069227219
188,4,128,29,0.37951138615608215,0.08910314738750458
188,4,128,30,0.6176230907440186,0.18270426988601685
188,4,128,31,0.5461307168006897,0.12481077760457993
188,4,128,32,0.41114023327827454,0.17707069218158722
188,4,128,33,0.5865515470504761,0.06869040429592133
188,4,128,34,0.38750115036964417,0.09862785041332245
188,4,128,35,0.5191016793251038,0.17049472033977509
188,4,128,36,0.6230800747871399,0.19989363849163055
188,4,128,37,0.4918350875377655,0.25322425365448
188,4,128,38,0.4966060221195221,0.2685639560222626
188,4,128,39,0.42153602838516235,0.2155693769454956
188,4,128,40,0.5274144411087036,0.18521612882614136
188,4,128,41,0.5908457040786743,0.23207072913646698
188,4,128,42,0.6028688549995422,0.18685059249401093
188,4,128,43,0.6303784251213074,0.17970550060272217
188,4,128,44,0.5571191310882568,0.06588348001241684
188,4,128,45,0.5823206901550293,0.19945313036441803
188,4,128,46,0.44822195172309875,0.19698075950145721
188,4,128,47,0.49948617815971375,0.12487642467021942
188,4,128,48,0.6076310873031616,0.2006809264421463
188,4,128,49,0.3615638315677643,0.07445356994867325
188,4,128,50,0.4706750810146332,0.17620223760604858
188,4,128,51,0.48518162965774536,0.1760173738002777
188,4,128,52,0.49382084608078003,0.18571418523788452
188,4,128,53,0.4367605745792389,0.170853853225708
188,4,128,54,0.6406427621841431,0.19410260021686554
188,4,128,55,0.3479873836040497,0.19728538393974304
188,4,128,56,0.589672863483429,0.1700686812400818
188,4,128,57,0.5225861668586731,0.22880566120147705
188,4,128,58,0.5815789103507996,0.16293485462665558
188,4,128,59,0.4896146357059479,0.21863557398319244
188,4,128,60,0.5592836737632751,0.16389203071594238
188,4,128,61,0.4672318398952484,0.19849462807178497
188,4,128,62,0.49198117852211,0.1952477991580963
188,4,128,63,0.39032208919525146,0.12598374485969543
188,4,128,64,0.6959511041641235,0.14966638386249542
188,4,128,65,0.5287704467773438,0.2394760698080063
188,4,128,66,0.6808744072914124,0.19651754200458527
188,4,128,67,0.475704550743103,0.17761078476905823
188,4,128,68,0.674738347530365,0.1542201042175293
188,4,128,69,0.5606645345687866,0.15419729053974152
188,4,128,70,0.6637415289878845,0.17840120196342468
188,4,128,71,0.4404248893260956,0.18625213205814362
188,4,128,72,0.6332331299781799,0.24640963971614838
188,4,128,73,0.6447374820709229,0.08141512423753738
188,4,128,74,0.49158626794815063,0.1834760159254074
188,4,128,75,0.4013257324695587,0.1116972342133522
188,4,128,76,0.554129421710968,0.2521136701107025
188,4,128,77,0.46231773495674133,0.18357299268245697
188,4,128,78,0.4912382960319519,0.21183881163597107
188,4,128,79,0.5661788582801819,0.17505252361297607
188,4,128,80,0.4178948402404785,0.06176559254527092
188,4,128,81,0.5140973329544067,0.13244876265525818
188,4,128,82,0.6576703786849976,0.14534124732017517
188,4,128,83,0.5547491312026978,0.11863076686859131
188,4,128,84,0.332509309053421,0.12525928020477295
188,4,128,85,0.6561359167098999,0.2781692445278168
188,4,128,86,0.46662068367004395,0.20842748880386353
188,4,128,87,0.6712103486061096,0.11127752810716629
188,4,128,88,0.4343480169773102,0.1158774271607399
188,4,128,89,0.4083477854728699,0.1456398218870163
188,4,128,90,0.7861384749412537,0.09073782712221146
188,4,128,91,0.640203595161438,0.16394105553627014
188,4,128,92,0.6265984177589417,0.08037205040454865
188,4,128,93,0.5679365992546082,0.2196875661611557
188,4,128,94,0.6256545782089233,0.08789429068565369
188,4,128,95,0.6305474638938904,0.1096692606806755
188,4,128,96,0.44945287704467773,0.22624889016151428
188,4,128,97,0.5512446165084839,0.13885429501533508
188,4,128,98,0.3349030315876007,0.16025859117507935
188,4,128,99,0.567291259765625,0.0771719366312027
188,4,128,100,0.4072401523590088,0.09178470820188522
188,4,128,101,0.46320435404777527,0.15095241367816925
188,4,128,102,0.655813992023468,0.12206773459911346
188,4,128,103,0.48400983214378357,0.08142973482608795
188,4,128,104,0.3825128972530365,0.1530572921037674
188,4,128,105,0.5610628128051758,0.1256461888551712
188,4,128,106,0.3274634778499603,0.11916186660528183
188,4,128,107,0.33580687642097473,0.13006967306137085
188,4,128,108,0.42267242074012756,0.22456620633602142
188,4,128,109,0.4600173532962799,0.10297057777643204
188,4,128,110,0.6035027503967285,0.1664951890707016
188,4,128,111,0.5826064944267273,0.212895929813385
188,4,128,112,0.45691195130348206,0.08817622065544128
188,4,128,113,0.7964536547660828,0.09543680399656296
188,4,128,114,0.5291463136672974,0.19585451483726501
188,4,128,115,0.5728591680526733,0.23441344499588013
188,4,128,116,0.463868111371994,0.21765244007110596
188,4,128,117,0.590621829032898,0.13621100783348083
188,4,128,118,0.5144466161727905,0.26950332522392273
188,4,128,119,0.42322593927383423,0.10811210423707962
188,4,128,120,0.649641752243042,0.17996235191822052
188,4,128,121,0.5576536059379578,0.12085413187742233
188,4,128,122,0.6960629224777222,0.08772653341293335
188,4,128,123,0.47679221630096436,0.16002781689167023
188,4,128,124,0.4558451771736145,0.24399812519550323
188,4,128,125,0.565802812576294,0.19889649748802185
188,4,128,126,0.6693095564842224,0.1561712771654129
188,4,128,127,0.524273157119751,0.11341191083192825
188,5,128,0,0.7123340964317322,0.06947476416826248
188,5,128,1,0.5900990962982178,0.08980400115251541
188,5,128,2,0.4787854552268982,0.14564982056617737
188,5,128,3,0.6425650119781494,0.10810212045907974
188,5,128,4,0.6051521897315979,0.09932881593704224
188,5,128,5,0.5834405422210693,0.13717353343963623
188,5,128,6,0.41121232509613037,0.08433286845684052
188,5,128,7,0.46317628026008606,0.18328534066677094
188,5,128,8,0.4799478352069855,0.021779466420412064
188,5,128,9,0.5327967405319214,0.05498816817998886
188,5,128,10,0.4099964201450348,0.1306886374950409
188,5,128,11,0.34120893478393555,0.06926229596138
188,5,128,12,0.4924183785915375,0.07461146265268326
188,5,128,13,0.6468556523323059,0.10631038248538971
188,5,128,14,0.6246322989463806,0.08864329755306244
188,5,128,15,0.6107493042945862,0.12315376847982407
188,5,128,16,0.6218861937522888,0.06138891354203224
188,5,128,17,0.6689660549163818,0.11403661966323853
188,5,128,18,0.4085104465484619,0.1382645219564438
188,5,128,19,0.5710851550102234,0.21186533570289612
188,5,128,20,0.5401225090026855,0.15995977818965912
188,5,128,21,0.5047550201416016,0.1963014304637909
188,5,128,22,0.5906552076339722,0.09956644475460052
188,5,128,23,0.6429141163825989,0.16212764382362366
188,5,128,24,0.5084601044654846,0.08862347900867462
188,5,128,25,0.6217149496078491,0.11784258484840393
188,5,128,26,0.3450120687484741,0.06644028425216675
188,5,128,27,0.6015791893005371,0.06070186197757721
188,5,128,28,0.4406100809574127,0.05662594735622406
188,5,128,29,0.5697207450866699,0.07691451162099838
188,5,128,30,0.7022702693939209,0.1343960165977478
188,5,128,31,0.7006644606590271,0.10164561122655869
188,5,128,32,0.6804454922676086,0.1097133681178093
188,5,128,33,0.643711268901825,0.1502782255411148
188,5,128,34,0.6787916421890259,0.09464437514543533
188,5,128,35,0.5671327710151672,0.09519634395837784
188,5,128,36,0.6426035165786743,0.11344937980175018
188,5,128,37,0.6652706861495972,0.07988295704126358
188,5,128,38,0.6548529267311096,0.09712826460599899
188,5,128,39,0.4865013659000397,0.07236401736736298
188,5,128,40,0.45703619718551636,0.2004237025976181
188,5,128,41,0.6371027827262878,0.20803916454315186
188,5,128,42,0.49479201436042786,0.18252411484718323
188,5,128,43,0.611090362071991,0.11405049264431
188,5,128,44,0.6402270197868347,0.18812058866024017
188,5,128,45,0.4254912734031677,0.11878082156181335
188,5,128,46,0.6116325259208679,0.06671547889709473
188,5,128,47,0.4631648063659668,0.0881250873208046
188,5,128,48,0.5830278396606445,0.24680764973163605
188,5,128,49,0.5906277894973755,0.08281214535236359
188,5,128,50,0.45816323161125183,0.10856829583644867
188,5,128,51,0.6140958666801453,0.11223678290843964
188,5,128,52,0.5684292316436768,0.06168990582227707
188,5,128,53,0.6320082545280457,0.11910638958215714
188,5,128,54,0.6649683713912964,0.21766427159309387
188,5,128,55,0.6484483480453491,0.09189210087060928
188,5,128,56,0.39174357056617737,0.06338335573673248
188,5,128,57,0.5790350437164307,0.16692641377449036
188,5,128,58,0.42497432231903076,0.10215971618890762
188,5,128,59,0.6008156538009644,0.13262911140918732
188,5,128,60,0.459882527589798,0.049577925354242325
188,5,128,61,0.6530319452285767,0.0634889006614685
188,5,128,62,0.4987887144088745,0.10104403644800186
188,5,128,63,0.47152411937713623,0.17988701164722443
188,5,128,64,0.5204036831855774,0.17349442839622498
188,5,128,65,0.633191704750061,0.06095843017101288
188,5,128,66,0.6419007182121277,0.21614189445972443
188,5,128,67,0.526529848575592,0.041517339646816254
188,5,128,68,0.6811208724975586,0.1038392186164856
188,5,128,69,0.5239391326904297,0.07141963392496109
188,5,128,70,0.5585614442825317,0.1429135501384735
188,5,128,71,0.5213183164596558,0.09095516800880432
188,5,128,72,0.6317233443260193,0.20634442567825317
188,5,128,73,0.5547381043434143,0.08734658360481262
188,5,128,74,0.6794805526733398,0.11057117581367493
188,5,128,75,0.5464416146278381,0.07190582901239395
188,5,128,76,0.6234463453292847,0.16420234739780426
188,5,128,77,0.48132801055908203,0.08997324109077454
188,5,128,78,0.5202394723892212,0.09561002254486084
188,5,128,79,0.6686516404151917,0.05887302756309509
188,5,128,80,0.6461071372032166,0.12226209044456482
188,5,128,81,0.5973300933837891,0.16764642298221588
188,5,128,82,0.5628933906555176,0.06919483095407486
188,5,128,83,0.5870588421821594,0.08875953406095505
188,5,128,84,0.5777237415313721,0.07240153849124908
188,5,128,85,0.7389590740203857,0.10826364159584045
188,5,128,86,0.47044625878334045,0.06667447835206985
188,5,128,87,0.4134536385536194,0.11981108784675598
188,5,128,88,0.5058915615081787,0.0762411579489708
188,5,128,89,0.5140939354896545,0.06583718955516815
188,5,128,90,0.6379175782203674,0.0595281645655632
188,5,128,91,0.6941311359405518,0.089248426258564
188,5,128,92,0.49742335081100464,0.07365519553422928
188,5,128,93,0.4304478168487549,0.23430338501930237
188,5,128,94,0.5471506118774414,0.11944330483675003
188,5,128,95,0.5474065542221069,0.13356103003025055
188,5,128,96,0.4234505295753479,0.15101394057273865
188,5,128,97,0.5718380212783813,0.08581224828958511
188,5,128,98,0.38504186272621155,0.20688983798027039
188,5,128,99,0.5718538761138916,0.15057983994483948
188,5,128,100,0.6561252474784851,0.13459822535514832
188,5,128,101,0.5151165723800659,0.19504286348819733
188,5,128,102,0.5703576803207397,0.06219960004091263
188,5,128,103,0.5704555511474609,0.05556460842490196
188,5,128,104,0.49655312299728394,0.15657679736614227
188,5,128,105,0.6425459980964661,0.08553486317396164
188,5,128,106,0.5736282467842102,0.08336646854877472
188,5,128,107,0.7133791446685791,0.1392991989850998
188,5,128,108,0.635248601436615,0.20614513754844666
188,5,128,109,0.514914870262146,0.09140148758888245
188,5,128,110,0.39287304878234863,0.1627768874168396
188,5,128,111,0.5538503527641296,0.08634737133979797
188,5,128,112,0.6289967894554138,0.17552286386489868
188,5,128,113,0.68639075756073,0.14048777520656586
188,5,128,114,0.6492182612419128,0.17555618286132812
188,5,128,115,0.5721290111541748,0.15303373336791992
188,5,128,116,0.414127379655838,0.1138715073466301
188,5,128,117,0.6441527009010315,0.1364346146583557
188,5,128,118,0.6345240473747253,0.09378251433372498
188,5,128,119,0.5755066275596619,0.11035122722387314
188,5,128,120,0.3430895209312439,0.16777287423610687
188,5,128,121,0.5535929799079895,0.054806262254714966
188,5,128,122,0.680115282535553,0.15911850333213806
188,5,128,123,0.5804849863052368,0.09117057919502258
188,5,128,124,0.6374812126159668,0.10685746371746063
188,5,128,125,0.6447467803955078,0.05818556994199753
188,5,128,126,0.5981758236885071,0.1332595944404602
188,5,128,127,0.6509911417961121,0.12089122086763382
189,0,32,0,0.4819177985191345,0.08764173835515976
189,0,32,1,0.5315026044845581,0.10209344327449799
189,0,32,2,0.42366451025009155,0.06672412157058716
189,0,32,3,0.4356979727745056,0.0789223313331604
189,0,32,4,0.6174760460853577,0.06413813680410385
189,0,32,5,0.3872266113758087,0.11160332709550858
189,0,32,6,0.42322972416877747,0.06451278924942017
189,0,32,7,0.6029914021492004,0.08737477660179138
189,0,32,8,0.3657805323600769,0.08278772979974747
189,0,32,9,0.5069376826286316,0.05558182671666145
189,0,32,10,0.5395397543907166,0.13325828313827515
189,0,32,11,0.4621412754058838,0.0942947268486023
189,0,32,12,0.36656177043914795,0.05611574649810791
189,0,32,13,0.4004824757575989,0.09539197385311127
189,0,32,14,0.4382437765598297,0.04532916471362114
189,0,32,15,0.3733038604259491,0.09779565781354904
189,0,32,16,0.42126160860061646,0.08388835936784744
189,0,32,17,0.5181987285614014,0.22355687618255615
189,0,32,18,0.4846993088722229,0.12179786711931229
189,0,32,19,0.3273046314716339,0.048777297139167786
189,0,32,20,0.4026724696159363,0.07531113922595978
189,0,32,21,0.473256915807724,0.0928928405046463
189,0,32,22,0.44232964515686035,0.11286560446023941
189,0,32,23,0.44355446100234985,0.1005815714597702
189,0,32,24,0.439929336309433,0.05795275792479515
189,0,32,25,0.4966091215610504,0.1239035353064537
189,0,32,26,0.5703007578849792,0.08104980736970901
189,0,32,27,0.6837072968482971,0.09437686204910278
189,0,32,28,0.4254933297634125,0.1333034336566925
189,0,32,29,0.7129439115524292,0.07829208672046661
189,0,32,30,0.5568843483924866,0.17804618179798126
189,0,32,31,0.5539653301239014,0.06912531703710556
189,1,32,0,0.4494745433330536,0.09870442748069763
189,1,32,1,0.5087524056434631,0.07985250651836395
189,1,32,2,0.42389976978302,0.061856336891651154
189,1,32,3,0.5479896664619446,0.043971724808216095
189,1,32,4,0.48117753863334656,0.06450174003839493
189,1,32,5,0.5165905356407166,0.030823832377791405
189,1,32,6,0.5716057419776917,0.08299627155065536
189,1,32,7,0.47439783811569214,0.029498381540179253
189,1,32,8,0.5149837732315063,0.10541370511054993
189,1,32,9,0.5397038459777832,0.06876301765441895
189,1,32,10,0.4928349256515503,0.0536491796374321
189,1,32,11,0.47197261452674866,0.07356546074151993
189,1,32,12,0.41981399059295654,0.07453504204750061
189,1,32,13,0.5604932904243469,0.049903735518455505
189,1,32,14,0.5037427544593811,0.087345190346241
189,1,32,15,0.45253023505210876,0.062268808484077454
189,1,32,16,0.5337607860565186,0.08342469483613968
189,1,32,17,0.5444419980049133,0.09123348444700241
189,1,32,18,0.4392773509025574,0.030630262568593025
189,1,32,19,0.5374831557273865,0.05988995358347893
189,1,32,20,0.5469687581062317,0.06427738070487976
189,1,32,21,0.45862194895744324,0.044568758457899094
189,1,32,22,0.5325888991355896,0.06368240714073181
189,1,32,23,0.4426060914993286,0.03338860347867012
189,1,32,24,0.5451331734657288,0.02418508380651474
189,1,32,25,0.4689107835292816,0.08737032860517502
189,1,32,26,0.600913405418396,0.040569957345724106
189,1,32,27,0.6290157437324524,0.032328709959983826
189,1,32,28,0.3651248514652252,0.054509103298187256
189,1,32,29,0.6181609034538269,0.02958654798567295
189,1,32,30,0.4089295268058777,0.042790576815605164
189,1,32,31,0.4409695565700531,0.04856465011835098
189,2,64,0,0.5224066972732544,0.06932535767555237
189,2,64,1,0.48217377066612244,0.08400382101535797
189,2,64,2,0.4147582948207855,0.12018116563558578
189,2,64,3,0.4743030369281769,0.17967289686203003
189,2,64,4,0.3688013553619385,0.06273604929447174
189,2,64,5,0.6236015558242798,0.09198558330535889
189,2,64,6,0.4402318000793457,0.11559322476387024
189,2,64,7,0.540690004825592,0.19559751451015472
189,2,64,8,0.6625150442123413,0.06480447202920914
189,2,64,9,0.4201347827911377,0.07231400161981583
189,2,64,10,0.48941051959991455,0.05349241569638252
189,2,64,11,0.4802447259426117,0.06200328841805458
189,2,64,12,0.36651208996772766,0.066037617623806
189,2,64,13,0.5125027298927307,0.10714681446552277
189,2,64,14,0.6086748242378235,0.09292478859424591
189,2,64,15,0.3772484064102173,0.07535888254642487
189,2,64,16,0.4934958219528198,0.14966443181037903
189,2,64,17,0.4246090054512024,0.09745994955301285
189,2,64,18,0.40431204438209534,0.1120777279138565
189,2,64,19,0.623936116695404,0.08867344260215759
189,2,64,20,0.5326811671257019,0.2588895559310913
189,2,64,21,0.501937210559845,0.12419849634170532
189,2,64,22,0.5173941850662231,0.11998692154884338
189,2,64,23,0.5107057690620422,0.1034373864531517
189,2,64,24,0.4945746958255768,0.20574407279491425
189,2,64,25,0.6392096281051636,0.09474950283765793
189,2,64,26,0.3596782982349396,0.1271137148141861
189,2,64,27,0.4793860614299774,0.09611053764820099
189,2,64,28,0.5911048054695129,0.13984952867031097
189,2,64,29,0.5046202540397644,0.19391678273677826
189,2,64,30,0.4330587685108185,0.09892547875642776
189,2,64,31,0.5679526329040527,0.07558845728635788
189,2,64,32,0.609725296497345,0.11819881200790405
189,2,64,33,0.4239766597747803,0.0845494493842125
189,2,64,34,0.4260927140712738,0.122191421687603
189,2,64,35,0.6610888838768005,0.07587049156427383
189,2,64,36,0.5953021049499512,0.19462524354457855
189,2,64,37,0.428985595703125,0.06384765356779099
189,2,64,38,0.3896336257457733,0.14451055228710175
189,2,64,39,0.48007121682167053,0.17487213015556335
189,2,64,40,0.5231047868728638,0.1195467934012413
189,2,64,41,0.39571717381477356,0.12006466835737228
189,2,64,42,0.6336458325386047,0.09247627854347229
189,2,64,43,0.5350658297538757,0.16746677458286285
189,2,64,44,0.38853931427001953,0.2017180323600769
189,2,64,45,0.3975023329257965,0.09778547286987305
189,2,64,46,0.6130930781364441,0.06957532465457916
189,2,64,47,0.36917462944984436,0.11757064610719681
189,2,64,48,0.49581724405288696,0.21874623000621796
189,2,64,49,0.3768048882484436,0.1320769041776657
189,2,64,50,0.5889238119125366,0.14110739529132843
189,2,64,51,0.5687146782875061,0.13707596063613892
189,2,64,52,0.43866804242134094,0.13869062066078186
189,2,64,53,0.6014205813407898,0.09375578165054321
189,2,64,54,0.5021849274635315,0.16543035209178925
189,2,64,55,0.5195659399032593,0.1639244109392166
189,2,64,56,0.5806788206100464,0.10320626944303513
189,2,64,57,0.6444191336631775,0.09736689180135727
189,2,64,58,0.5481036305427551,0.20223797857761383
189,2,64,59,0.3755020201206207,0.13624629378318787
189,2,64,60,0.4941060245037079,0.051077768206596375
189,2,64,61,0.5102967023849487,0.12446880340576172
189,2,64,62,0.4706200361251831,0.15426993370056152
189,2,64,63,0.6362391710281372,0.08408413827419281
189,3,64,0,0.45744311809539795,0.08186724781990051
189,3,64,1,0.45484083890914917,0.08091887831687927
189,3,64,2,0.392355740070343,0.1225903183221817
189,3,64,3,0.3992127776145935,0.15322953462600708
189,3,64,4,0.49188417196273804,0.13003958761692047
189,3,64,5,0.6117197275161743,0.08993846923112869
189,3,64,6,0.4229798913002014,0.13266029953956604
189,3,64,7,0.5281577110290527,0.10798055678606033
189,3,64,8,0.3613734841346741,0.1037764772772789
189,3,64,9,0.34270572662353516,0.098023921251297
189,3,64,10,0.42854830622673035,0.11729677766561508
189,3,64,11,0.5503317713737488,0.07081802189350128
189,3,64,12,0.431075781583786,0.10765069723129272
189,3,64,13,0.5275095105171204,0.07361665368080139
189,3,64,14,0.4097178280353546,0.09690003097057343
189,3,64,15,0.4588440954685211,0.04064960777759552
189,3,64,16,0.4550423324108124,0.06909333914518356
189,3,64,17,0.5285097360610962,0.07767852395772934
189,3,64,18,0.4153375029563904,0.11157482862472534
189,3,64,19,0.5855329632759094,0.08268877118825912
189,3,64,20,0.569497287273407,0.10352519899606705
189,3,64,21,0.4794057607650757,0.0539570078253746
189,3,64,22,0.6114876866340637,0.16580480337142944
189,3,64,23,0.5456196665763855,0.059764109551906586
189,3,64,24,0.5515110492706299,0.038890689611434937
189,3,64,25,0.504791796207428,0.07996212691068649
189,3,64,26,0.3945513963699341,0.10391975194215775
189,3,64,27,0.3522985577583313,0.11054334044456482
189,3,64,28,0.5153185129165649,0.08877669274806976
189,3,64,29,0.503605842590332,0.09107965975999832
189,3,64,30,0.35866937041282654,0.1296200007200241
189,3,64,31,0.405245304107666,0.05108648166060448
189,3,64,32,0.5602403879165649,0.07689642161130905
189,3,64,33,0.4945819079875946,0.11315397918224335
189,3,64,34,0.5497463941574097,0.17245127260684967
189,3,64,35,0.5632171034812927,0.1162920594215393
189,3,64,36,0.3510757088661194,0.05195622518658638
189,3,64,37,0.5153260827064514,0.09463373571634293
189,3,64,38,0.5346857309341431,0.041700445115566254
189,3,64,39,0.46806636452674866,0.06807862967252731
189,3,64,40,0.4643354117870331,0.11608293652534485
189,3,64,41,0.4766235053539276,0.07321342080831528
189,3,64,42,0.5014578700065613,0.0376223623752594
189,3,64,43,0.32531610131263733,0.13540413975715637
189,3,64,44,0.49801525473594666,0.11615564674139023
189,3,64,45,0.4495790898799896,0.15450164675712585
189,3,64,46,0.4894009828567505,0.14200393855571747
189,3,64,47,0.6474916934967041,0.09588281810283661
189,3,64,48,0.6161195039749146,0.10344433784484863
189,3,64,49,0.5203904509544373,0.10411576181650162
189,3,64,50,0.6266271471977234,0.12374059110879898
189,3,64,51,0.5499764084815979,0.09864632785320282
189,3,64,52,0.5052634477615356,0.07957860082387924
189,3,64,53,0.40032848715782166,0.034970030188560486
189,3,64,54,0.4770972430706024,0.02704908698797226
189,3,64,55,0.5436416864395142,0.1033530980348587
189,3,64,56,0.46855628490448,0.13724660873413086
189,3,64,57,0.488599568605423,0.0834830179810524
189,3,64,58,0.39204180240631104,0.09748552739620209
189,3,64,59,0.4633432626724243,0.11167871206998825
189,3,64,60,0.5206385850906372,0.0975053459405899
189,3,64,61,0.5701302289962769,0.10368932038545609
189,3,64,62,0.5619992017745972,0.06689288467168808
189,3,64,63,0.43944618105888367,0.15698742866516113
189,4,128,0,0.42251577973365784,0.1678624004125595
189,4,128,1,0.49900367856025696,0.10449863225221634
189,4,128,2,0.6403269171714783,0.1440921276807785
189,4,128,3,0.5143553614616394,0.10555075109004974
189,4,128,4,0.4397178590297699,0.09546516090631485
189,4,128,5,0.4505274295806885,0.11792217195034027
189,4,128,6,0.5102317929267883,0.17282353341579437
189,4,128,7,0.6531375050544739,0.10970228165388107
189,4,128,8,0.5626172423362732,0.14582817256450653
189,4,128,9,0.6302683353424072,0.235191211104393
189,4,128,10,0.5109633803367615,0.19153328239917755
189,4,128,11,0.5181567668914795,0.08889839053153992
189,4,128,12,0.4588490426540375,0.12470313906669617
189,4,128,13,0.5313876867294312,0.20177190005779266
189,4,128,14,0.5253247022628784,0.10957429558038712
189,4,128,15,0.5795221924781799,0.14929364621639252
189,4,128,16,0.3780117630958557,0.16338564455509186
189,4,128,17,0.5064808130264282,0.20560291409492493
189,4,128,18,0.5533033013343811,0.14844399690628052
189,4,128,19,0.5576700568199158,0.15590205788612366
189,4,128,20,0.5698010921478271,0.11005889624357224
189,4,128,21,0.44295522570610046,0.08877325803041458
189,4,128,22,0.3771194815635681,0.13320820033550262
189,4,128,23,0.5986423492431641,0.1464330404996872
189,4,128,24,0.5963366031646729,0.0663226991891861
189,4,128,25,0.49777111411094666,0.18668867647647858
189,4,128,26,0.4967893362045288,0.0872030034661293
189,4,128,27,0.5870833396911621,0.1757202297449112
189,4,128,28,0.4278695583343506,0.14491775631904602
189,4,128,29,0.5603724122047424,0.18623678386211395
189,4,128,30,0.6185364723205566,0.08603052794933319
189,4,128,31,0.5232448577880859,0.23255369067192078
189,4,128,32,0.44920530915260315,0.16458547115325928
189,4,128,33,0.4413797855377197,0.11465208232402802
189,4,128,34,0.4450015425682068,0.16597621142864227
189,4,128,35,0.46904686093330383,0.09407658874988556
189,4,128,36,0.517548680305481,0.2798464894294739
189,4,128,37,0.524871289730072,0.12466255575418472
189,4,128,38,0.38766181468963623,0.14332491159439087
189,4,128,39,0.45710790157318115,0.08508957177400589
189,4,128,40,0.49396756291389465,0.1719663292169571
189,4,128,41,0.6114024519920349,0.1986318826675415
189,4,128,42,0.6193409562110901,0.15384046733379364
189,4,128,43,0.5998114943504333,0.19810344278812408
189,4,128,44,0.628532350063324,0.13445216417312622
189,4,128,45,0.510985255241394,0.16351653635501862
189,4,128,46,0.5684770941734314,0.08699271082878113
189,4,128,47,0.5707709789276123,0.13867990672588348
189,4,128,48,0.4715568721294403,0.20687109231948853
189,4,128,49,0.6166207790374756,0.1394684910774231
189,4,128,50,0.40196681022644043,0.13188639283180237
189,4,128,51,0.4978816509246826,0.16626867651939392
189,4,128,52,0.562002956867218,0.18570128083229065
189,4,128,53,0.49600234627723694,0.10100236535072327
189,4,128,54,0.4414706230163574,0.13378290832042694
189,4,128,55,0.41888847947120667,0.1348133534193039
189,4,128,56,0.6224482655525208,0.18834489583969116
189,4,128,57,0.6346030831336975,0.1243109181523323
189,4,128,58,0.5555705428123474,0.24765999615192413
189,4,128,59,0.47521257400512695,0.16051793098449707
189,4,128,60,0.5797545909881592,0.12952709197998047
189,4,128,61,0.530653178691864,0.23036465048789978
189,4,128,62,0.4382026791572571,0.12915320694446564
189,4,128,63,0.5283758044242859,0.14292766153812408
189,4,128,64,0.40296798944473267,0.09106678515672684
189,4,128,65,0.6669958829879761,0.1612464189529419
189,4,128,66,0.4892399311065674,0.11266367137432098
189,4,128,67,0.49396950006484985,0.08770500123500824
189,4,128,68,0.5265152454376221,0.1659134328365326
189,4,128,69,0.6092378497123718,0.11758336424827576
189,4,128,70,0.4121784567832947,0.16713586449623108
189,4,128,71,0.4155617952346802,0.11030636727809906
189,4,128,72,0.6734006404876709,0.113310307264328
189,4,128,73,0.5104444622993469,0.08807898312807083
189,4,128,74,0.4634988307952881,0.17141737043857574
189,4,128,75,0.46914762258529663,0.12887343764305115
189,4,128,76,0.5111252069473267,0.20179356634616852
189,4,128,77,0.35120689868927,0.12019234150648117
189,4,128,78,0.47950479388237,0.11993806809186935
189,4,128,79,0.37835848331451416,0.16745541989803314
189,4,128,80,0.61250239610672,0.057270754128694534
189,4,128,81,0.5943994522094727,0.16356870532035828
189,4,128,82,0.5455095171928406,0.16263873875141144
189,4,128,83,0.4893108904361725,0.19435006380081177
189,4,128,84,0.5441775321960449,0.24395085871219635
189,4,128,85,0.5524208545684814,0.2559081017971039
189,4,128,86,0.4698379635810852,0.20177766680717468
189,4,128,87,0.41204413771629333,0.21130897104740143
189,4,128,88,0.45906537771224976,0.25290465354919434
189,4,128,89,0.4655410647392273,0.16273963451385498
189,4,128,90,0.5205679535865784,0.23585522174835205
189,4,128,91,0.5297999382019043,0.21839463710784912
189,4,128,92,0.39217469096183777,0.10494884848594666
189,4,128,93,0.5660525560379028,0.10138192772865295
189,4,128,94,0.6458805799484253,0.10271444916725159
189,4,128,95,0.5746103525161743,0.10548616945743561
189,4,128,96,0.5051605701446533,0.23475949466228485
189,4,128,97,0.4794674217700958,0.14558298885822296
189,4,128,98,0.7013499140739441,0.10956840962171555
189,4,128,99,0.6203619241714478,0.12410219758749008
189,4,128,100,0.6240028142929077,0.08837392926216125
189,4,128,101,0.5700070858001709,0.1932053118944168
189,4,128,102,0.5709432363510132,0.16944032907485962
189,4,128,103,0.47436487674713135,0.19921359419822693
189,4,128,104,0.4362044930458069,0.13761068880558014
189,4,128,105,0.5818775296211243,0.12028726935386658
189,4,128,106,0.44484466314315796,0.08308865129947662
189,4,128,107,0.4644278883934021,0.17431238293647766
189,4,128,108,0.5818228721618652,0.082886703312397
189,4,128,109,0.4771081805229187,0.1387704312801361
189,4,128,110,0.42508170008659363,0.1324215680360794
189,4,128,111,0.3921057879924774,0.15657909214496613
189,4,128,112,0.4690999388694763,0.12238012254238129
189,4,128,113,0.529248058795929,0.0785197988152504
189,4,128,114,0.6208805441856384,0.1977642923593521
189,4,128,115,0.6178953647613525,0.13372597098350525
189,4,128,116,0.6472451686859131,0.1765063852071762
189,4,128,117,0.4709644913673401,0.23915643990039825
189,4,128,118,0.5034760236740112,0.09050298482179642
189,4,128,119,0.49904146790504456,0.2379414439201355
189,4,128,120,0.4926010072231293,0.14853180944919586
189,4,128,121,0.5306639075279236,0.13021320104599
189,4,128,122,0.5118396878242493,0.14481985569000244
189,4,128,123,0.5741751194000244,0.1778024286031723
189,4,128,124,0.45487281680107117,0.096033476293087
189,4,128,125,0.6025310754776001,0.10561976581811905
189,4,128,126,0.41865217685699463,0.10541791468858719
189,4,128,127,0.4369698166847229,0.19754980504512787
189,5,128,0,0.5789603590965271,0.09568534046411514
189,5,128,1,0.5884599089622498,0.07704969495534897
189,5,128,2,0.6246110200881958,0.12481223046779633
189,5,128,3,0.6123082637786865,0.10183870047330856
189,5,128,4,0.6288039088249207,0.11697012186050415
189,5,128,5,0.5234531164169312,0.04137076064944267
189,5,128,6,0.4022016227245331,0.05997805297374725
189,5,128,7,0.6012232899665833,0.16316841542720795
189,5,128,8,0.5850697755813599,0.02785131335258484
189,5,128,9,0.4571889042854309,0.11612467467784882
189,5,128,10,0.3948734700679779,0.0928705707192421
189,5,128,11,0.37154608964920044,0.11327248066663742
189,5,128,12,0.5838369131088257,0.12423866987228394
189,5,128,13,0.6435449123382568,0.14558343589305878
189,5,128,14,0.5816903114318848,0.1343189775943756
189,5,128,15,0.4405992031097412,0.10658720880746841
189,5,128,16,0.5589197278022766,0.1174829974770546
189,5,128,17,0.5347082018852234,0.04851757362484932
189,5,128,18,0.5525517463684082,0.05967649817466736
189,5,128,19,0.6051475405693054,0.09214887022972107
189,5,128,20,0.6503048539161682,0.1304975301027298
189,5,128,21,0.561276376247406,0.11504460126161575
189,5,128,22,0.6650890707969666,0.09283959120512009
189,5,128,23,0.42275407910346985,0.11729643493890762
189,5,128,24,0.4314959645271301,0.06173558160662651
189,5,128,25,0.3927769064903259,0.1286313235759735
189,5,128,26,0.5457643270492554,0.09184850007295609
189,5,128,27,0.41039779782295227,0.06263503432273865
189,5,128,28,0.32569828629493713,0.15444758534431458
189,5,128,29,0.571574330329895,0.13234055042266846
189,5,128,30,0.6314038634300232,0.09282826632261276
189,5,128,31,0.6436802744865417,0.1619713306427002
189,5,128,32,0.6318560838699341,0.12373585253953934
189,5,128,33,0.43045565485954285,0.15305423736572266
189,5,128,34,0.4539324939250946,0.09819488227367401
189,5,128,35,0.5072546601295471,0.04255108907818794
189,5,128,36,0.690906822681427,0.1536947637796402
189,5,128,37,0.6519302129745483,0.17583243548870087
189,5,128,38,0.4261707365512848,0.13180853426456451
189,5,128,39,0.5149520039558411,0.06171828508377075
189,5,128,40,0.4210347533226013,0.15616799890995026
189,5,128,41,0.5221084952354431,0.08545561879873276
189,5,128,42,0.6167793273925781,0.13493534922599792
189,5,128,43,0.5946542024612427,0.07528181374073029
189,5,128,44,0.5572452545166016,0.11932740360498428
189,5,128,45,0.5511932969093323,0.06737779825925827
189,5,128,46,0.4098132848739624,0.10047530382871628
189,5,128,47,0.35546189546585083,0.13034039735794067
189,5,128,48,0.5615757703781128,0.13524892926216125
189,5,128,49,0.40928685665130615,0.14263515174388885
189,5,128,50,0.4270218014717102,0.1792016476392746
189,5,128,51,0.4462103843688965,0.16041725873947144
189,5,128,52,0.5877693891525269,0.10384030640125275
189,5,128,53,0.6310992240905762,0.11905369907617569
189,5,128,54,0.5770241618156433,0.11256987601518631
189,5,128,55,0.497114896774292,0.09666276723146439
189,5,128,56,0.6444907188415527,0.1533908247947693
189,5,128,57,0.46461570262908936,0.08257754147052765
189,5,128,58,0.6799135804176331,0.15029431879520416
189,5,128,59,0.5546056628227234,0.10338054597377777
189,5,128,60,0.646689772605896,0.16353756189346313
189,5,128,61,0.558724045753479,0.14081747829914093
189,5,128,62,0.551857590675354,0.07543458789587021
189,5,128,63,0.5068553686141968,0.11429247260093689
189,5,128,64,0.5155591368675232,0.11634720116853714
189,5,128,65,0.6182349324226379,0.11400853097438812
189,5,128,66,0.477688193321228,0.05837257578969002
189,5,128,67,0.5659582018852234,0.09323843568563461
189,5,128,68,0.6249839067459106,0.11881602555513382
189,5,128,69,0.470640629529953,0.1316816806793213
189,5,128,70,0.5556250214576721,0.12025030702352524
189,5,128,71,0.631435215473175,0.09664849191904068
189,5,128,72,0.5669620633125305,0.13996650278568268
189,5,128,73,0.5244077444076538,0.09692133963108063
189,5,128,74,0.5603150725364685,0.03965187817811966
189,5,128,75,0.45198512077331543,0.05087984725832939
189,5,128,76,0.5599969625473022,0.15076316893100739
189,5,128,77,0.4578142464160919,0.11094070225954056
189,5,128,78,0.6801132559776306,0.11971770226955414
189,5,128,79,0.47515544295310974,0.15451879799365997
189,5,128,80,0.4130496084690094,0.11239861696958542
189,5,128,81,0.3934117555618286,0.16989748179912567
189,5,128,82,0.5118016600608826,0.10009454190731049
189,5,128,83,0.6705424785614014,0.12355340272188187
189,5,128,84,0.5514241456985474,0.06846129149198532
189,5,128,85,0.6021109223365784,0.16150496900081635
189,5,128,86,0.4432363212108612,0.10010233521461487
189,5,128,87,0.3741428554058075,0.11704082041978836
189,5,128,88,0.5372040867805481,0.07604924589395523
189,5,128,89,0.5911557674407959,0.07068610191345215
189,5,128,90,0.6380963325500488,0.11800289899110794
189,5,128,91,0.5316898822784424,0.07819421589374542
189,5,128,92,0.5219593048095703,0.05499552562832832
189,5,128,93,0.5504884123802185,0.05730805546045303
189,5,128,94,0.4958963692188263,0.0468246191740036
189,5,128,95,0.42889219522476196,0.14114391803741455
189,5,128,96,0.6087996363639832,0.1500828117132187
189,5,128,97,0.44746384024620056,0.10531589388847351
189,5,128,98,0.5359274744987488,0.08987410366535187
189,5,128,99,0.652101993560791,0.10813311487436295
189,5,128,100,0.5742037892341614,0.09439020603895187
189,5,128,101,0.6074982285499573,0.05603766068816185
189,5,128,102,0.6388126015663147,0.13348501920700073
189,5,128,103,0.43026524782180786,0.16618956625461578
189,5,128,104,0.5916128754615784,0.11291208118200302
189,5,128,105,0.4759761691093445,0.04103552922606468
189,5,128,106,0.4856545925140381,0.14052516222000122
189,5,128,107,0.4920412003993988,0.06332263350486755
189,5,128,108,0.5205335021018982,0.10348770022392273
189,5,128,109,0.6413109302520752,0.12863129377365112
189,5,128,110,0.6182113289833069,0.05193131044507027
189,5,128,111,0.4808169901371002,0.11982399225234985
189,5,128,112,0.459838330745697,0.11674730479717255
189,5,128,113,0.5412886738777161,0.0802161693572998
189,5,128,114,0.6389272212982178,0.15688475966453552
189,5,128,115,0.3645734488964081,0.1285412609577179
189,5,128,116,0.6781712770462036,0.11301343888044357
189,5,128,117,0.5608027577400208,0.12832249701023102
189,5,128,118,0.608820915222168,0.12685105204582214
189,5,128,119,0.5999674201011658,0.14013634622097015
189,5,128,120,0.32108062505722046,0.11843596398830414
189,5,128,121,0.6367003917694092,0.09293914586305618
189,5,128,122,0.6407638788223267,0.157235249876976
189,5,128,123,0.4041627049446106,0.14819076657295227
189,5,128,124,0.6078621745109558,0.07902412861585617
189,5,128,125,0.5422127842903137,0.12947039306163788
189,5,128,126,0.49183061718940735,0.10806857794523239
189,5,128,127,0.660075306892395,0.1579795777797699
190,0,32,0,0.6349524259567261,0.086446613073349
190,0,32,1,0.45971646904945374,0.07650263607501984
190,0,32,2,0.5811305046081543,0.04974443465471268
190,0,32,3,0.5027775764465332,0.12582245469093323
190,0,32,4,0.4966675639152527,0.12362024933099747
190,0,32,5,0.4956479072570801,0.08960558474063873
190,0,32,6,0.5180560946464539,0.1141073927283287
190,0,32,7,0.39101651310920715,0.036380261182785034
190,0,32,8,0.4226338267326355,0.09128883481025696
190,0,32,9,0.45621806383132935,0.0721057653427124
190,0,32,10,0.5238170027732849,0.07663518190383911
190,0,32,11,0.38682523369789124,0.05187342315912247
190,0,32,12,0.4680847227573395,0.13249747455120087
190,0,32,13,0.5548399686813354,0.05522526800632477
190,0,32,14,0.416163831949234,0.10582800954580307
190,0,32,15,0.4362626075744629,0.08907871693372726
190,0,32,16,0.47640135884284973,0.09225921332836151
190,0,32,17,0.4685327708721161,0.12253972887992859
190,0,32,18,0.4766601026058197,0.14228485524654388
190,0,32,19,0.44964274764060974,0.11175628751516342
190,0,32,20,0.5221619606018066,0.07760724425315857
190,0,32,21,0.3675042390823364,0.06229157745838165
190,0,32,22,0.5367899537086487,0.12444492429494858
190,0,32,23,0.3488501012325287,0.08307811617851257
190,0,32,24,0.33388060331344604,0.08129249513149261
190,0,32,25,0.4076951742172241,0.07173675298690796
190,0,32,26,0.46692633628845215,0.040072616189718246
190,0,32,27,0.5199796557426453,0.05195573344826698
190,0,32,28,0.6230181455612183,0.10882458090782166
190,0,32,29,0.4806238114833832,0.022864019498229027
190,0,32,30,0.4680570960044861,0.08434907346963882
190,0,32,31,0.4414852261543274,0.12399203330278397
190,1,32,0,0.5625952482223511,0.07106674462556839
190,1,32,1,0.5502601861953735,0.0422280989587307
190,1,32,2,0.45028141140937805,0.151767760515213
190,1,32,3,0.48624035716056824,0.08483884483575821
190,1,32,4,0.39247003197669983,0.14770935475826263
190,1,32,5,0.4036354720592499,0.05112132802605629
190,1,32,6,0.5153538584709167,0.10677648335695267
190,1,32,7,0.4366447627544403,0.1618361920118332
190,1,32,8,0.4015805125236511,0.05503159016370773
190,1,32,9,0.39222437143325806,0.18909016251564026
190,1,32,10,0.46385133266448975,0.05212380364537239
190,1,32,11,0.5686925053596497,0.09500518441200256
190,1,32,12,0.7116761207580566,0.1500866711139679
190,1,32,13,0.3690031170845032,0.11281188577413559
190,1,32,14,0.48472243547439575,0.11656084656715393
190,1,32,15,0.610465407371521,0.11652440577745438
190,1,32,16,0.5774107575416565,0.11751162260770798
190,1,32,17,0.554499089717865,0.08981479704380035
190,1,32,18,0.5941057205200195,0.12170270085334778
190,1,32,19,0.5642913579940796,0.10935970395803452
190,1,32,20,0.37503284215927124,0.10392703115940094
190,1,32,21,0.46610331535339355,0.08388518542051315
190,1,32,22,0.5582319498062134,0.13359472155570984
190,1,32,23,0.5511860251426697,0.1509728729724884
190,1,32,24,0.5208736658096313,0.11084814369678497
190,1,32,25,0.5424671173095703,0.07746373862028122
190,1,32,26,0.4384205639362335,0.17828507721424103
190,1,32,27,0.5698258876800537,0.15274764597415924
190,1,32,28,0.5380781888961792,0.07350411266088486
190,1,32,29,0.36144790053367615,0.13515198230743408
190,1,32,30,0.5498521327972412,0.0793960690498352
190,1,32,31,0.45363306999206543,0.10595747828483582
190,2,64,0,0.5982002019882202,0.08944883942604065
190,2,64,1,0.4694923460483551,0.10321512073278427
190,2,64,2,0.38109317421913147,0.11976654082536697
190,2,64,3,0.610672652721405,0.10705640912055969
190,2,64,4,0.3926388621330261,0.14574120938777924
190,2,64,5,0.48881328105926514,0.1743394285440445
190,2,64,6,0.5477141737937927,0.12491264939308167
190,2,64,7,0.6383437514305115,0.15129604935646057
190,2,64,8,0.4526349604129791,0.11395522207021713
190,2,64,9,0.6450412273406982,0.1263887733221054
190,2,64,10,0.40081489086151123,0.14731137454509735
190,2,64,11,0.42462262511253357,0.09961890429258347
190,2,64,12,0.4863044023513794,0.10681304335594177
190,2,64,13,0.457517147064209,0.17799676954746246
190,2,64,14,0.577534019947052,0.11191000044345856
190,2,64,15,0.5417576432228088,0.1574023962020874
190,2,64,16,0.3831630349159241,0.1054321750998497
190,2,64,17,0.49873754382133484,0.10387351363897324
190,2,64,18,0.409487247467041,0.09495226293802261
190,2,64,19,0.478433221578598,0.08644940704107285
190,2,64,20,0.5463424921035767,0.07037213444709778
190,2,64,21,0.5859326124191284,0.18794652819633484
190,2,64,22,0.4630981385707855,0.1751604527235031
190,2,64,23,0.5527328848838806,0.07907499372959137
190,2,64,24,0.545945405960083,0.1592661291360855
190,2,64,25,0.46301957964897156,0.06461765617132187
190,2,64,26,0.5390157103538513,0.16312742233276367
