subject,channel,alpha,f1,drop_pp
156,0,1.0,0.722547150699529,0.0
156,0,0.75,0.7356312016784567,-1.308405097892773
156,0,0.5,0.7411481821402983,-1.86010314407693
156,0,0.25,0.7236961476589843,-0.11489969594552507
156,0,0.0,0.7091068217992501,1.3440328900278908
156,1,1.0,0.722547150699529,0.0
156,1,0.75,0.7130047975005473,0.9542353198981668
156,1,0.5,0.7007348007211592,2.1812349978369783
156,1,0.25,0.6838784491964336,3.8668701503095426
156,1,0.0,0.6622218886194055,6.0325262080123565
156,2,1.0,0.722547150699529,0.0
156,2,0.75,0.7307544748404049,-0.8207324140875882
156,2,0.5,0.7187189893941719,0.3828161305357125
156,2,0.25,0.6941786022416776,2.8368548457851417
156,2,0.0,0.6681610165801157,5.438613411941329
156,3,1.0,0.722547150699529,0.0
156,3,0.75,0.722152323187213,0.03948275123160094
156,3,0.5,0.717737768691971,0.4809382007557983
156,3,0.25,0.710696720493525,1.185043020600407
156,3,0.0,0.7015758914348778,2.0971259264651265
156,4,1.0,0.722547150699529,0.0
156,4,0.75,0.7267197159926467,-0.4172565293117714
156,4,0.5,0.7182678824924437,0.42792682070853516
156,4,0.25,0.7070816305818517,1.5465520117677323
156,4,0.0,0.6884094375248827,3.413771317464631
156,5,1.0,0.722547150699529,0.0
156,5,0.75,0.7098379313092575,1.2709219390271476
156,5,0.5,0.6920695342924502,3.04776164070788
156,5,0.25,0.6605941914641856,6.1952959235343386
156,5,0.0,0.6233777985759607,9.916935212356837
156,6,1.0,0.722547150699529,0.0
156,6,0.75,0.7186665354721803,0.3880615227348727
156,6,0.5,0.7190632439465288,0.34839067530002543
156,6,0.25,0.7166676148153841,0.5879535884144915
156,6,0.0,0.7117108840284552,1.0836266671073846
185,0,1.0,0.6138177592771428,0.0
185,0,0.75,0.612845207836038,0.0972551441104752
185,0,0.5,0.6103267240499122,0.3491035227230599
185,0,0.25,0.5988744923929175,1.4943266884225315
185,0,0.0,0.5929973817458314,2.0820377531311385
185,1,1.0,0.6138177592771428,0.0
185,1,0.75,0.6410201070663866,-2.7202347789243797
185,1,0.5,0.6540658239480492,-4.024806467090647
185,1,0.25,0.6560724381793142,-4.225467890217138
185,1,0.0,0.6395539925795402,-2.573623330239738
185,2,1.0,0.6138177592771428,0.0
185,2,0.75,0.6090539043479213,0.47638549292214893
185,2,0.5,0.5975152098703806,1.6302549406762123
185,2,0.25,0.576295421825954,3.7522337451188825
185,2,0.0,0.562646731145317,5.117102813182573
185,3,1.0,0.6138177592771428,0.0
185,3,0.75,0.6152772472582793,-0.1459487981136487
185,3,0.5,0.6144696070841449,-0.0651847807002115
185,3,0.25,0.6113120584522369,0.25057008249058654
185,3,0.0,0.6012178093383098,1.2599949938832955
185,4,1.0,0.6138177592771428,0.0
185,4,0.75,0.6097136119065453,0.41041473705974996
185,4,0.5,0.5971043041771695,1.671345509997324
185,4,0.25,0.5861855846217688,2.763217465537393
185,4,0.0,0.5702059552143471,4.361180406279564
185,5,1.0,0.6138177592771428,0.0
185,5,0.75,0.6191642204108709,-0.5346461133728164
185,5,0.5,0.6103466210629739,0.34711382141688896
185,5,0.25,0.5814434586200297,3.237430065711311
185,5,0.0,0.5264808857254435,8.733687355169927
185,6,1.0,0.6138177592771428,0.0
185,6,0.75,0.6175646920265668,-0.3746932749424059
185,6,0.5,0.6159245871102241,-0.21068278330813595
185,6,0.25,0.6018276619991194,1.199009727802336
185,6,0.0,0.5933714168817301,2.0446342395412653
186,0,1.0,0.7712157452417988,0.0
186,0,0.75,0.7584413623188433,1.2774382922955518
186,0,0.5,0.736161744744243,3.5054000497555804
186,0,0.25,0.6973864522230444,7.382929301875441
186,0,0.0,0.6795194184002367,9.169632684156214
186,1,1.0,0.7712157452417988,0.0
186,1,0.75,0.7714793921648428,-0.026364692304403636
186,1,0.5,0.7670115726610296,0.42041725807692165
186,1,0.25,0.7547257177252418,1.6490027516557038
186,1,0.0,0.7285562753054299,4.265946993636893
186,2,1.0,0.7712157452417988,0.0
186,2,0.75,0.7694150292729993,0.18007159687994934
186,2,0.5,0.7545251254523981,1.6690619789400674
186,2,0.25,0.7438834688563171,2.7332276385481746
186,2,0.0,0.7319827648999653,3.9232980341833534
186,3,1.0,0.7712157452417988,0.0
186,3,0.75,0.7743064511958261,-0.3090705954027273
186,3,0.5,0.7677738260547415,0.3441919187057274
186,3,0.25,0.7621862699273545,0.9029475314444313
186,3,0.0,0.7555622725237313,1.5653472718067496
186,4,1.0,0.7712157452417988,0.0
186,4,0.75,0.7668323818031241,0.43833634386747367
186,4,0.5,0.7540705955959803,1.714514964581848
186,4,0.25,0.7345583880528697,3.665735718892915
186,4,0.0,0.7151151590269288,5.610058621487002
186,5,1.0,0.7712157452417988,0.0
186,5,0.75,0.7628469848149935,0.8368760426805344
186,5,0.5,0.7416559506123559,2.9559794629442915
186,5,0.25,0.6994521554800394,7.176358976175945
186,5,0.0,0.6666048197139445,10.461092552785434
186,6,1.0,0.7712157452417988,0.0
186,6,0.75,0.7750982039909128,-0.38824587491139706
186,6,0.5,0.7750365586329038,-0.382081339110496
186,6,0.25,0.774902978517386,-0.3687233275587176
186,6,0.0,0.7735873680547709,-0.23716228129720962
188,0,1.0,0.6296363541046444,0.0
188,0,0.75,0.6071110128014223,2.2525341303222035
188,0,0.5,0.5879123077187296,4.172404638591476
188,0,0.25,0.5647376426619495,6.489871144269488
188,0,0.0,0.5481000929404246,8.153626116421975
188,1,1.0,0.6296363541046444,0.0
188,1,0.75,0.6274341991691312,0.2202154935513123
188,1,0.5,0.6181017285833205,1.1534625521323894
188,1,0.25,0.6076412657206102,2.199508838403419
188,1,0.0,0.59319174083668,3.644461326796433
188,2,1.0,0.6296363541046444,0.0
188,2,0.75,0.6307312756142375,-0.10949215095931164
188,2,0.5,0.6132937399920703,1.6342614112574094
188,2,0.25,0.5900985042628801,3.9537849841764228
188,2,0.0,0.5766342550597641,5.300209904488029
188,3,1.0,0.6296363541046444,0.0
188,3,0.75,0.6150143377195191,1.462201638512528
188,3,0.5,0.6055361019740908,2.4100252130553557
188,3,0.25,0.5905371430634339,3.90992110412105
188,3,0.0,0.5791887660903604,5.0447588014283955
188,4,1.0,0.6296363541046444,0.0
188,4,0.75,0.6243482583733567,0.5288095731287634
188,4,0.5,0.6201310175333096,0.9505336571334788
188,4,0.25,0.6107767390900123,1.885961501463207
188,4,0.0,0.5966503142710529,3.2986039833591496
188,5,1.0,0.6296363541046444,0.0
188,5,0.75,0.630239296806662,-0.06029427020176614
188,5,0.5,0.6321498820800455,-0.2513527975401164
188,5,0.25,0.6063925420087226,2.3243812095921745
188,5,0.0,0.5829513500052526,4.66850040993918
188,6,1.0,0.6296363541046444,0.0
188,6,0.75,0.6283444982558761,0.12918558487682308
188,6,0.5,0.6232453852610276,0.6390968843616784
188,6,0.25,0.6219622385156617,0.7674115588982677
188,6,0.0,0.6174621102408628,1.217424386378152
189,0,1.0,0.6263316952574649,0.0
189,0,0.75,0.6254835076909591,0.08481875665058425
189,0,0.5,0.6171613764139801,0.9170318843484848
189,0,0.25,0.6042893996844427,2.2042295573022175
189,0,0.0,0.5903862014669125,3.594549379055245
189,1,1.0,0.6263316952574649,0.0
189,1,0.75,0.6272726726857057,-0.09409774282408412
189,1,0.5,0.622381847268276,0.39498479891889593
189,1,0.25,0.5957792678806034,3.055242737686148
189,1,0.0,0.563171104346867,6.316059091059789
189,2,1.0,0.6263316952574649,0.0
189,2,0.75,0.6376701548652148,-1.133845960774993
189,2,0.5,0.6478511427523808,-2.1519447494915855
189,2,0.25,0.6364162255596727,-1.0084530302207795
189,2,0.0,0.620708334958483,0.5623360298981916
189,3,1.0,0.6263316952574649,0.0
189,3,0.75,0.6305306453381325,-0.41989500806676183
189,3,0.5,0.6313900916517987,-0.5058396394333808
189,3,0.25,0.6199408054229487,0.6390889834516189
189,3,0.0,0.6014211864192928,2.491050883817214
189,4,1.0,0.6263316952574649,0.0
189,4,0.75,0.6306266883627168,-0.4294993105251943
189,4,0.5,0.6275008485619988,-0.1169153304533932
189,4,0.25,0.6218266091279506,0.45050861295142797
189,4,0.0,0.597175192898282,2.915650235918288
189,5,1.0,0.6263316952574649,0.0
189,5,0.75,0.634436266045135,-0.8104570787670129
189,5,0.5,0.6248557608938385,0.14759343636263633
189,5,0.25,0.5919407745718396,3.4390920685625326
189,5,0.0,0.5352713774952425,9.106031776222245
189,6,1.0,0.6263316952574649,0.0
189,6,0.75,0.6512391796897948,-2.490748443232993
189,6,0.5,0.6748373538303151,-4.850565857285016
189,6,0.25,0.6907482850326687,-6.441658977520381
189,6,0.0,0.6960404300513391,-6.970873479387418
190,0,1.0,0.62315220318838,0.0
190,0,0.75,0.6335436021902188,-1.039139900183872
190,0,0.5,0.6139044822513978,0.9247720936982229
190,0,0.25,0.5534559384573062,6.9696264731073825
190,0,0.0,0.5211966029191714,10.19556002692087
190,1,1.0,0.62315220318838,0.0
190,1,0.75,0.6194737610272458,0.3678442161134221
190,1,0.5,0.6064843000270427,1.6667903161337372
190,1,0.25,0.5895899400902369,3.356226309814314
190,1,0.0,0.5629153458629895,6.023685732539052
190,2,1.0,0.62315220318838,0.0
190,2,0.75,0.6143200642507612,0.8832138937618805
190,2,0.5,0.5864995125314661,3.66526906569139
190,2,0.25,0.5561807262878782,6.697147690050187
190,2,0.0,0.5336146555064101,8.953754768196998
190,3,1.0,0.62315220318838,0.0
190,3,0.75,0.6296263819133662,-0.6474178724986124
190,3,0.5,0.6282565730994735,-0.510436991109342
190,3,0.25,0.5972369620478648,2.5915241140515244
190,3,0.0,0.5564114090745267,6.674079411385336
190,4,1.0,0.62315220318838,0.0
190,4,0.75,0.6266939372319645,-0.3541734043584488
190,4,0.5,0.620417148388482,0.27350547998979957
190,4,0.25,0.5975313147576892,2.562088843069088
190,4,0.0,0.5647764966800327,5.837570650834733
190,5,1.0,0.62315220318838,0.0
190,5,0.75,0.6312821682507109,-0.812996506233088
190,5,0.5,0.61357028190065,0.9581921287730055
190,5,0.25,0.5882809028547841,3.487130033359598
190,5,0.0,0.5670838302508278,5.606837293755229
190,6,1.0,0.62315220318838,0.0
190,6,0.75,0.6349447221152782,-1.1792518926898143
190,6,0.5,0.6378212501085887,-1.466904692020865
190,6,0.25,0.6362807441417572,-1.3128540953377121
190,6,0.0,0.6238483808529478,-0.06961776645677542
191,0,1.0,0.6685662487333348,0.0
191,0,0.75,0.6672859313975512,0.12803173357835984
191,0,0.5,0.6475310818005652,2.1035166932769633
191,0,0.25,0.604141551165565,6.442469756776981
191,0,0.0,0.573083672204609,9.548257652872582
191,1,1.0,0.6685662487333348,0.0
191,1,0.75,0.6639683513995254,0.4597897333809442
191,1,0.5,0.652204615028859,1.6361633704475853
191,1,0.25,0.632270240080979,3.6296008652355827
191,1,0.0,0.5745437469561445,9.40225017771903
191,2,1.0,0.6685662487333348,0.0
191,2,0.75,0.6740952043214915,-0.5528955588156692
191,2,0.5,0.6768131410791988,-0.8246892345863954
191,2,0.25,0.657319794265465,1.124645446786976
191,2,0.0,0.6332746559596925,3.5291592773642355
191,3,1.0,0.6685662487333348,0.0
191,3,0.75,0.6823799998185665,-1.381375108523164
191,3,0.5,0.6902737398781824,-2.17074911448476
191,3,0.25,0.697618158573148,-2.9051909839813206
191,3,0.0,0.704034312490922,-3.5468063757587154
191,4,1.0,0.6685662487333348,0.0
191,4,0.75,0.671167497560508,-0.2601248827173164
191,4,0.5,0.6660821996135186,0.24840491198162562
191,4,0.25,0.6597226551220147,0.8843593611320144
191,4,0.0,0.6530310799156238,1.5535168817710998
191,5,1.0,0.6685662487333348,0.0
191,5,0.75,0.6531635691827988,1.540267955053598
191,5,0.5,0.6410072350275134,2.7559013705821367
191,5,0.25,0.6031727247049345,6.539352402840026
191,5,0.0,0.5682358513854053,10.033039734792947
191,6,1.0,0.6685662487333348,0.0
191,6,0.75,0.6765706288438378,-0.8004380110502973
191,6,0.5,0.6759835821562172,-0.7417333422882422
191,6,0.25,0.669329914784512,-0.07636660511771698
191,6,0.0,0.6627265111145666,0.5839737618768215
192,0,1.0,0.4573196406660862,0.0
192,0,0.75,0.46889138713084044,-1.157174646475423
192,0,0.5,0.4631152354256263,-0.5795594759540112
192,0,0.25,0.4447774288829931,1.2542211783093116
192,0,0.0,0.44561488117773107,1.1704759488355143
192,1,1.0,0.4573196406660862,0.0
192,1,0.75,0.45827960252151473,-0.0959961855428515
192,1,0.5,0.4527241980463856,0.45954426197006293
192,1,0.25,0.43938253079564826,1.793710987043795
192,1,0.0,0.4309360546195079,2.638358604657831
192,2,1.0,0.4573196406660862,0.0
192,2,0.75,0.45189974602565,0.541989464043624
192,2,0.5,0.4373707981949415,1.99488424711447
192,2,0.25,0.42640741244063185,3.0912228225454363
192,2,0.0,0.41715167396884173,4.016796669724449
192,3,1.0,0.4573196406660862,0.0
192,3,0.75,0.4561241434445844,0.11954972215018067
192,3,0.5,0.4546975275217756,0.26221131443106005
192,3,0.25,0.4564212295129254,0.08984111531608052
192,3,0.0,0.4545976259838567,0.272201468222949
192,4,1.0,0.4573196406660862,0.0
192,4,0.75,0.4547845299605413,0.25351107055449074
192,4,0.5,0.4432916221097269,1.4028018556359323
192,4,0.25,0.43092909514970557,2.639054551638065
192,4,0.0,0.411256312123241,4.606332854284522
192,5,1.0,0.4573196406660862,0.0
192,5,0.75,0.45440838603151407,0.2911254634572147
192,5,0.5,0.45451681279434775,0.2802827871738467
192,5,0.25,0.44859508318615554,0.8724557479930672
192,5,0.0,0.44549817805429526,1.1821462611790956
192,6,1.0,0.4573196406660862,0.0
192,6,0.75,0.4545221856953552,0.2797454970731028
192,6,0.5,0.45524435724038137,0.20752834257048436
192,6,0.25,0.4507483395014717,0.6571301164614518
192,6,0.0,0.44921401069124545,0.8105629974840767
193,0,1.0,0.5807450361164636,0.0
193,0,0.75,0.5658947032437973,1.4850332872666239
193,0,0.5,0.5331235404779746,4.762149563848894
193,0,0.25,0.48614661638725665,9.45984197292069
193,0,0.0,0.4692984956436074,11.144654047285613
193,1,1.0,0.5807450361164636,0.0
193,1,0.75,0.5677469512827752,1.2998084833688361
193,1,0.5,0.5517391236199287,2.9005912496534836
193,1,0.25,0.5285646973242971,5.218033879216644
193,1,0.0,0.5110034158672908,6.974162024917274
193,2,1.0,0.5807450361164636,0.0
193,2,0.75,0.5735362984990777,0.720873761738583
193,2,0.5,0.5583411536170948,2.2403882499368755
193,2,0.25,0.5472291179611775,3.3515918155286095
193,2,0.0,0.5342732327728124,4.647180334365119
193,3,1.0,0.5807450361164636,0.0
193,3,0.75,0.5950123308996969,-1.4267294783233297
193,3,0.5,0.5924043682638471,-1.1659332147383572
193,3,0.25,0.5815378863695337,-0.07928502530701875
193,3,0.0,0.5635439314840777,1.7201104632385888
193,4,1.0,0.5807450361164636,0.0
193,4,0.75,0.6013756637626071,-2.063062764614354
193,4,0.5,0.6221668068547779,-4.142177073831432
193,4,0.25,0.6458154176839156,-6.507038156745204
193,4,0.0,0.6440010010913401,-6.325596497487651
193,5,1.0,0.5807450361164636,0.0
193,5,0.75,0.5670020560334067,1.3742980083056855
193,5,0.5,0.5467706183817571,3.397441773470644
193,5,0.25,0.5300430533305921,5.070198278587146
193,5,0.0,0.5277437001224647,5.3001335993998815
193,6,1.0,0.5807450361164636,0.0
193,6,0.75,0.585545727520306,-0.48006914038424275
193,6,0.5,0.5889597254817598,-0.8214689365296235
193,6,0.25,0.5823668550141471,-0.16218188976835357
193,6,0.0,0.5850731856893054,-0.43281495728418884
194,0,1.0,0.7053495031898666,0.0
194,0,0.75,0.704201781234852,0.11477219550145579
194,0,0.5,0.6919091860828355,1.3440317107031086
194,0,0.25,0.6534581040056189,5.189139918424768
194,0,0.0,0.644483400321344,6.086610286852256
194,1,1.0,0.7053495031898666,0.0
194,1,0.75,0.7160838607671025,-1.0734357577235953
194,1,0.5,0.7180666573845752,-1.2717154194708646
194,1,0.25,0.699913633355761,0.54358698341056
194,1,0.0,0.6757696099196305,2.9579893270236024
194,2,1.0,0.7053495031898666,0.0
194,2,0.75,0.7120397412642329,-0.6690238074366306
194,2,0.5,0.7137900767494,-0.8440573559533426
194,2,0.25,0.7004667873458745,0.4882715843992025
194,2,0.0,0.6691263632227011,3.622313996716542
194,3,1.0,0.7053495031898666,0.0
194,3,0.75,0.7024307055151247,0.2918797674741902
194,3,0.5,0.6980313800739953,0.7318123115871211
194,3,0.25,0.6849242612304227,2.042524195944384
194,3,0.0,0.6756089366577961,2.9740566532070467
194,4,1.0,0.7053495031898666,0.0
194,4,0.75,0.7107672989125899,-0.5417795722723384
194,4,0.5,0.7138884422867241,-0.8538939096857545
194,4,0.25,0.7033151958000268,0.20343073898397845
194,4,0.0,0.6813004499173972,2.404905327246931
194,5,1.0,0.7053495031898666,0.0
194,5,0.75,0.6984511016892854,0.6898401500581186
194,5,0.5,0.6824080686950688,2.2941434494797797
194,5,0.25,0.6565684185937817,4.878108459608487
194,5,0.0,0.631628183790921,7.372131939894555
194,6,1.0,0.7053495031898666,0.0
194,6,0.75,0.7220333294214046,-1.668382623153808
194,6,0.5,0.7307040020584469,-2.535449886858032
194,6,0.25,0.7346837728666356,-2.9334269676769
194,6,0.0,0.7392052943651729,-3.385579117530635
