subject,block,block_width,feature_channel,gate_mean,gate_sd
156,0,32,0,0.47042301297187805,0.06785150617361069
156,0,32,1,0.46041420102119446,0.15943872928619385
156,0,32,2,0.6638358235359192,0.10355424880981445
156,0,32,3,0.3304821252822876,0.14551092684268951
156,0,32,4,0.49380528926849365,0.1030786857008934
156,0,32,5,0.4613223075866699,0.08159350603818893
156,0,32,6,0.4879630506038666,0.09690649062395096
156,0,32,7,0.5938968658447266,0.15983164310455322
156,0,32,8,0.4255519211292267,0.10221650451421738
156,0,32,9,0.4012499451637268,0.09063051640987396
156,0,32,10,0.2781878113746643,0.13170230388641357
156,0,32,11,0.41790157556533813,0.15394581854343414
156,0,32,12,0.5512239336967468,0.09247852116823196
156,0,32,13,0.30737632513046265,0.10713331401348114
156,0,32,14,0.5843837261199951,0.12365223467350006
156,0,32,15,0.6445124745368958,0.1330157369375229
156,0,32,16,0.5575704574584961,0.07603185623884201
156,0,32,17,0.4440135955810547,0.20354700088500977
156,0,32,18,0.5864455699920654,0.024905791506171227
156,0,32,19,0.3534325957298279,0.14264021813869476
156,0,32,20,0.5561031699180603,0.052548687905073166
156,0,32,21,0.46446090936660767,0.07642553001642227
156,0,32,22,0.3762246370315552,0.13199838995933533
156,0,32,23,0.3332931399345398,0.08768065273761749
156,0,32,24,0.37087440490722656,0.07869057357311249
156,0,32,25,0.4398898780345917,0.059558045119047165
156,0,32,26,0.5073365569114685,0.13385038077831268
156,0,32,27,0.542646050453186,0.07800144702196121
156,0,32,28,0.3226688802242279,0.11538130789995193
156,0,32,29,0.48636263608932495,0.11594006419181824
156,0,32,30,0.4393778145313263,0.09235025942325592
156,0,32,31,0.5303653478622437,0.151998370885849
156,1,32,0,0.5596206188201904,0.06522612273693085
156,1,32,1,0.44615480303764343,0.03752024471759796
156,1,32,2,0.44109266996383667,0.0345744714140892
156,1,32,3,0.3821691870689392,0.07559208571910858
156,1,32,4,0.3706967830657959,0.0846790298819542
156,1,32,5,0.427928626537323,0.08241018652915955
156,1,32,6,0.42591026425361633,0.039360009133815765
156,1,32,7,0.4446771740913391,0.0774335190653801
156,1,32,8,0.517706036567688,0.08401279896497726
156,1,32,9,0.6103313565254211,0.09298750013113022
156,1,32,10,0.6053467392921448,0.11681731045246124
156,1,32,11,0.5028931498527527,0.04436388611793518
156,1,32,12,0.42137956619262695,0.014007562771439552
156,1,32,13,0.541694700717926,0.11010473966598511
156,1,32,14,0.48263996839523315,0.11312941461801529
156,1,32,15,0.49012401700019836,0.03731705993413925
156,1,32,16,0.6466672420501709,0.1064993366599083
156,1,32,17,0.488788902759552,0.10317900031805038
156,1,32,18,0.3611670732498169,0.08893408626317978
156,1,32,19,0.6051599383354187,0.06714088469743729
156,1,32,20,0.5534025430679321,0.04290320724248886
156,1,32,21,0.5501368045806885,0.05446093901991844
156,1,32,22,0.5451032519340515,0.04634656757116318
156,1,32,23,0.6407209038734436,0.09040110558271408
156,1,32,24,0.5940805673599243,0.02553618513047695
156,1,32,25,0.5348877906799316,0.08921480923891068
156,1,32,26,0.43031442165374756,0.0726301446557045
156,1,32,27,0.36680981516838074,0.07170774787664413
156,1,32,28,0.3977220952510834,0.09733056277036667
156,1,32,29,0.39466360211372375,0.06308801472187042
156,1,32,30,0.5049333572387695,0.018068209290504456
156,1,32,31,0.42122891545295715,0.07757192850112915
156,2,64,0,0.5407297611236572,0.21568894386291504
156,2,64,1,0.485419362783432,0.14918099343776703
156,2,64,2,0.43950265645980835,0.1648251712322235
156,2,64,3,0.5306540131568909,0.05455268919467926
156,2,64,4,0.3807946741580963,0.14639133214950562
156,2,64,5,0.5995620489120483,0.24091657996177673
156,2,64,6,0.40854376554489136,0.10755033046007156
156,2,64,7,0.4866237938404083,0.09813784807920456
156,2,64,8,0.37863868474960327,0.18647116422653198
156,2,64,9,0.3915863037109375,0.15800882875919342
156,2,64,10,0.47147589921951294,0.17353340983390808
156,2,64,11,0.523925244808197,0.14168106019496918
156,2,64,12,0.3393738567829132,0.11118923127651215
156,2,64,13,0.4078127145767212,0.24164481461048126
156,2,64,14,0.47614145278930664,0.12989988923072815
156,2,64,15,0.5885441899299622,0.09633982181549072
156,2,64,16,0.4689905345439911,0.31017252802848816
156,2,64,17,0.5096874833106995,0.23305685818195343
156,2,64,18,0.5045633316040039,0.19849196076393127
156,2,64,19,0.49249714612960815,0.18328863382339478
156,2,64,20,0.41262292861938477,0.2006947249174118
156,2,64,21,0.3264528810977936,0.16452205181121826
156,2,64,22,0.4714057445526123,0.07990027219057083
156,2,64,23,0.6447576880455017,0.1721329540014267
156,2,64,24,0.3419179618358612,0.11767517775297165
156,2,64,25,0.5921241641044617,0.15558932721614838
156,2,64,26,0.5281034111976624,0.237684965133667
156,2,64,27,0.4432393014431,0.0866055116057396
156,2,64,28,0.6866573095321655,0.1553095430135727
156,2,64,29,0.42353659868240356,0.12468119710683823
156,2,64,30,0.43486204743385315,0.1339101493358612
156,2,64,31,0.39500588178634644,0.23366127908229828
156,2,64,32,0.5492202043533325,0.1921202391386032
156,2,64,33,0.41645652055740356,0.20357602834701538
156,2,64,34,0.5675740838050842,0.10396671295166016
156,2,64,35,0.4007304608821869,0.12212266027927399
156,2,64,36,0.44902536273002625,0.22653283178806305
156,2,64,37,0.2740827202796936,0.11960654705762863
156,2,64,38,0.5302499532699585,0.14378446340560913
156,2,64,39,0.3771585524082184,0.19170378148555756
156,2,64,40,0.5546145439147949,0.15405136346817017
156,2,64,41,0.5085429549217224,0.15395765006542206
156,2,64,42,0.45971986651420593,0.13668414950370789
156,2,64,43,0.33900490403175354,0.10998659580945969
156,2,64,44,0.5881845355033875,0.17288576066493988
156,2,64,45,0.5343648195266724,0.0639464259147644
156,2,64,46,0.4582141637802124,0.11035110056400299
156,2,64,47,0.43941962718963623,0.17773199081420898
156,2,64,48,0.4205155372619629,0.2287723571062088
156,2,64,49,0.47895577549934387,0.11128361523151398
156,2,64,50,0.37899523973464966,0.12849977612495422
156,2,64,51,0.4410398006439209,0.20880357921123505
156,2,64,52,0.39359575510025024,0.17417630553245544
156,2,64,53,0.525908887386322,0.14645066857337952
156,2,64,54,0.4984028935432434,0.2650340497493744
156,2,64,55,0.46485117077827454,0.2505654990673065
156,2,64,56,0.41606050729751587,0.055515989661216736
156,2,64,57,0.4513711631298065,0.12082233279943466
156,2,64,58,0.41518622636795044,0.2703567147254944
156,2,64,59,0.4939344823360443,0.18414919078350067
156,2,64,60,0.47913113236427307,0.16553911566734314
156,2,64,61,0.3022429943084717,0.08831298351287842
156,2,64,62,0.46440762281417847,0.1508331447839737
156,2,64,63,0.4933011531829834,0.16783985495567322
156,3,64,0,0.41774967312812805,0.13694734871387482
156,3,64,1,0.5668039917945862,0.07380976527929306
156,3,64,2,0.5463881492614746,0.27967292070388794
156,3,64,3,0.45302748680114746,0.04795244708657265
156,3,64,4,0.5067604184150696,0.16117781400680542
156,3,64,5,0.5051397681236267,0.25447115302085876
156,3,64,6,0.48020139336586,0.22576090693473816
156,3,64,7,0.46867337822914124,0.0800057053565979
156,3,64,8,0.4101729989051819,0.04635072126984596
156,3,64,9,0.4938875436782837,0.2222249060869217
156,3,64,10,0.4377131760120392,0.21680814027786255
156,3,64,11,0.41412898898124695,0.22479210793972015
156,3,64,12,0.4703812599182129,0.11681275069713593
156,3,64,13,0.5247011780738831,0.15622714161872864
156,3,64,14,0.5592976212501526,0.12298019975423813
156,3,64,15,0.48169514536857605,0.21619994938373566
156,3,64,16,0.4996849596500397,0.24962447583675385
156,3,64,17,0.5137681365013123,0.1770816147327423
156,3,64,18,0.5387576818466187,0.13136927783489227
156,3,64,19,0.6349304914474487,0.12977005541324615
156,3,64,20,0.5525743365287781,0.11752468347549438
156,3,64,21,0.5070751309394836,0.26817888021469116
156,3,64,22,0.4988059103488922,0.08335257321596146
156,3,64,23,0.48857003450393677,0.228984072804451
156,3,64,24,0.4685775339603424,0.1469547003507614
156,3,64,25,0.39825135469436646,0.07282019406557083
156,3,64,26,0.47087788581848145,0.20938202738761902
156,3,64,27,0.4063500165939331,0.1003834456205368
156,3,64,28,0.6957088112831116,0.08875688910484314
156,3,64,29,0.46631920337677,0.15565957129001617
156,3,64,30,0.2875668704509735,0.10943351686000824
156,3,64,31,0.5115664005279541,0.05648364499211311
156,3,64,32,0.5989367961883545,0.11552134156227112
156,3,64,33,0.30086997151374817,0.0862608328461647
156,3,64,34,0.6049812436103821,0.11851950734853745
156,3,64,35,0.5407687425613403,0.08490308374166489
156,3,64,36,0.3458457589149475,0.091331347823143
156,3,64,37,0.46818748116493225,0.1483042985200882
156,3,64,38,0.5036517381668091,0.22088252007961273
156,3,64,39,0.4584615230560303,0.1288602352142334
156,3,64,40,0.3465789556503296,0.15227484703063965
156,3,64,41,0.4322303235530853,0.11337460577487946
156,3,64,42,0.4375762343406677,0.06679738312959671
156,3,64,43,0.45914793014526367,0.09730641543865204
156,3,64,44,0.542648196220398,0.10417000204324722
156,3,64,45,0.52545166015625,0.1891152411699295
156,3,64,46,0.2961745858192444,0.11151552200317383
156,3,64,47,0.5333840847015381,0.1817251592874527
156,3,64,48,0.4847642481327057,0.09984635561704636
156,3,64,49,0.5184791088104248,0.12289708852767944
156,3,64,50,0.3684801757335663,0.09974493086338043
156,3,64,51,0.4659781754016876,0.10964810103178024
156,3,64,52,0.3486425280570984,0.11922182142734528
156,3,64,53,0.40463417768478394,0.09254801273345947
156,3,64,54,0.3953004479408264,0.11294101178646088
156,3,64,55,0.44644129276275635,0.06853387504816055
156,3,64,56,0.34977784752845764,0.1315436214208603
156,3,64,57,0.5299133062362671,0.08537851274013519
156,3,64,58,0.30955636501312256,0.12260988354682922
156,3,64,59,0.5158660411834717,0.12422072142362595
156,3,64,60,0.5986204147338867,0.10057292878627777
156,3,64,61,0.6065562963485718,0.11553928256034851
156,3,64,62,0.5026222467422485,0.16120487451553345
156,3,64,63,0.47284212708473206,0.17845307290554047
156,4,128,0,0.3788062036037445,0.23048865795135498
156,4,128,1,0.45097851753234863,0.08710338920354843
156,4,128,2,0.6406514644622803,0.13483400642871857
156,4,128,3,0.645418643951416,0.14567779004573822
156,4,128,4,0.5346257090568542,0.23007482290267944
156,4,128,5,0.676845908164978,0.09806754440069199
156,4,128,6,0.45947107672691345,0.07968921959400177
156,4,128,7,0.7070673108100891,0.19639945030212402
156,4,128,8,0.3550027012825012,0.19819901883602142
156,4,128,9,0.5997015833854675,0.11002925038337708
156,4,128,10,0.5194545984268188,0.21224716305732727
156,4,128,11,0.32164815068244934,0.08790147304534912
156,4,128,12,0.4907834231853485,0.18271513283252716
156,4,128,13,0.38393738865852356,0.2117937058210373
156,4,128,14,0.6656680703163147,0.1907016634941101
156,4,128,15,0.3478948175907135,0.18963481485843658
156,4,128,16,0.6583830714225769,0.1445857733488083
156,4,128,17,0.4199346601963043,0.16824229061603546
156,4,128,18,0.6022656559944153,0.25105470418930054
156,4,128,19,0.3332664370536804,0.2542627155780792
156,4,128,20,0.37084507942199707,0.27409347891807556
156,4,128,21,0.35965344309806824,0.224861741065979
156,4,128,22,0.28850048780441284,0.18005697429180145
156,4,128,23,0.22366958856582642,0.1452169418334961
156,4,128,24,0.45986661314964294,0.16541820764541626
156,4,128,25,0.3328076899051666,0.19975298643112183
156,4,128,26,0.6664813756942749,0.12153104692697525
156,4,128,27,0.5771332383155823,0.18240725994110107
156,4,128,28,0.3104349374771118,0.12933588027954102
156,4,128,29,0.3490612208843231,0.21853040158748627
156,4,128,30,0.6667455434799194,0.2585635185241699
156,4,128,31,0.654471218585968,0.16225919127464294
156,4,128,32,0.4495028257369995,0.24462614953517914
156,4,128,33,0.3999306559562683,0.16579082608222961
156,4,128,34,0.5568168759346008,0.16451556980609894
156,4,128,35,0.5292173624038696,0.16488340497016907
156,4,128,36,0.3973006308078766,0.09237658977508545
156,4,128,37,0.6787695288658142,0.23924703896045685
156,4,128,38,0.5440372824668884,0.11722567677497864
156,4,128,39,0.7766655087471008,0.1737705022096634
156,4,128,40,0.5778795480728149,0.1035042405128479
156,4,128,41,0.4742586016654968,0.16327615082263947
156,4,128,42,0.5626747608184814,0.23108918964862823
156,4,128,43,0.5076953172683716,0.20090872049331665
156,4,128,44,0.5212060213088989,0.21243685483932495
156,4,128,45,0.6453182101249695,0.26562002301216125
156,4,128,46,0.3324348032474518,0.09574329107999802
156,4,128,47,0.658360481262207,0.27051272988319397
156,4,128,48,0.6314415335655212,0.13821345567703247
156,4,128,49,0.49385154247283936,0.2251846045255661
156,4,128,50,0.5271862149238586,0.12949560582637787
156,4,128,51,0.5241233110427856,0.1687420904636383
156,4,128,52,0.6350577473640442,0.26609981060028076
156,4,128,53,0.6547743082046509,0.24381427466869354
156,4,128,54,0.33079421520233154,0.15815432369709015
156,4,128,55,0.4184803068637848,0.24036765098571777
156,4,128,56,0.501325786113739,0.14827308058738708
156,4,128,57,0.39856961369514465,0.12797987461090088
156,4,128,58,0.3550468683242798,0.21469010412693024
156,4,128,59,0.24365964531898499,0.18142949044704437
156,4,128,60,0.5966151356697083,0.13649874925613403
156,4,128,61,0.4606613218784332,0.14211024343967438
156,4,128,62,0.3919195532798767,0.11671100556850433
156,4,128,63,0.3497050106525421,0.1675906479358673
156,4,128,64,0.5641237497329712,0.17356331646442413
156,4,128,65,0.7136685848236084,0.22090262174606323
156,4,128,66,0.5109214186668396,0.18328088521957397
156,4,128,67,0.6271839141845703,0.1778901070356369
156,4,128,68,0.7873669266700745,0.17396719753742218
156,4,128,69,0.6579091548919678,0.20460307598114014
156,4,128,70,0.7206382751464844,0.1054997444152832
156,4,128,71,0.568411111831665,0.23644520342350006
156,4,128,72,0.5992235541343689,0.12410646677017212
156,4,128,73,0.30913233757019043,0.16243769228458405
156,4,128,74,0.6649624109268188,0.21543926000595093
156,4,128,75,0.4880468249320984,0.15694275498390198
156,4,128,76,0.5411091446876526,0.18698514997959137
156,4,128,77,0.5336304903030396,0.17261365056037903
156,4,128,78,0.7135459780693054,0.19153624773025513
156,4,128,79,0.6793641448020935,0.08586610853672028
156,4,128,80,0.38261279463768005,0.07268120348453522
156,4,128,81,0.415793240070343,0.0972350612282753
156,4,128,82,0.5850733518600464,0.1654430478811264
156,4,128,83,0.34586822986602783,0.26468610763549805
156,4,128,84,0.6113288402557373,0.18255706131458282
156,4,128,85,0.432598739862442,0.13567259907722473
156,4,128,86,0.6438913941383362,0.17167772352695465
156,4,128,87,0.5850389003753662,0.32408586144447327
156,4,128,88,0.6898902654647827,0.23860789835453033
156,4,128,89,0.3686586320400238,0.2175050973892212
156,4,128,90,0.46852684020996094,0.12767747044563293
156,4,128,91,0.6447640657424927,0.24568571150302887
156,4,128,92,0.5146226286888123,0.12284239381551743
156,4,128,93,0.3774014711380005,0.08130983263254166
156,4,128,94,0.665677547454834,0.2101151943206787
156,4,128,95,0.6939394474029541,0.256759375333786
156,4,128,96,0.3897373378276825,0.2712889611721039
156,4,128,97,0.5075973272323608,0.08169300854206085
156,4,128,98,0.7155419588088989,0.1981177181005478
156,4,128,99,0.5318456888198853,0.14991244673728943
156,4,128,100,0.6900975108146667,0.09898404031991959
156,4,128,101,0.6842865347862244,0.2167598456144333
156,4,128,102,0.6546686291694641,0.244350403547287
156,4,128,103,0.5151582360267639,0.07797974348068237
156,4,128,104,0.37277328968048096,0.1713348776102066
156,4,128,105,0.4952709674835205,0.09881433844566345
156,4,128,106,0.49929800629615784,0.16406674683094025
156,4,128,107,0.33580148220062256,0.17234322428703308
156,4,128,108,0.5742306113243103,0.2447303682565689
156,4,128,109,0.6394708752632141,0.10400836914777756
156,4,128,110,0.3913288712501526,0.089598149061203
156,4,128,111,0.33578526973724365,0.2362833321094513
156,4,128,112,0.43961670994758606,0.2514430582523346
156,4,128,113,0.6345442533493042,0.07478603720664978
156,4,128,114,0.5666464567184448,0.07924489676952362
156,4,128,115,0.6333773136138916,0.08205027133226395
156,4,128,116,0.4908178746700287,0.08304870873689651
156,4,128,117,0.509634256362915,0.15415388345718384
156,4,128,118,0.7398819327354431,0.16031940281391144
156,4,128,119,0.3186913728713989,0.15933649241924286
156,4,128,120,0.5947704911231995,0.19230155646800995
156,4,128,121,0.6560031175613403,0.27137893438339233
156,4,128,122,0.6466860175132751,0.14832660555839539
156,4,128,123,0.5761330723762512,0.12276196479797363
156,4,128,124,0.6132110357284546,0.26400548219680786
156,4,128,125,0.39501166343688965,0.23758544027805328
156,4,128,126,0.5180613398551941,0.2510036826133728
156,4,128,127,0.6417967677116394,0.2637053430080414
156,5,128,0,0.5871913433074951,0.17150691151618958
156,5,128,1,0.7812678217887878,0.21718157827854156
156,5,128,2,0.5701221823692322,0.09765753149986267
156,5,128,3,0.7932573556900024,0.08286960422992706
156,5,128,4,0.669815182685852,0.1647358387708664
156,5,128,5,0.5943832993507385,0.15418311953544617
156,5,128,6,0.6138323545455933,0.20617462694644928
156,5,128,7,0.6890141367912292,0.2085564285516739
156,5,128,8,0.5924291610717773,0.20539428293704987
156,5,128,9,0.5432822108268738,0.15056830644607544
156,5,128,10,0.6724521517753601,0.1618080586194992
156,5,128,11,0.6796631813049316,0.16359810531139374
156,5,128,12,0.7194783091545105,0.1062757670879364
156,5,128,13,0.4847276210784912,0.2198398858308792
156,5,128,14,0.5432307124137878,0.20415669679641724
156,5,128,15,0.4136022925376892,0.2541331350803375
156,5,128,16,0.33051222562789917,0.18258489668369293
156,5,128,17,0.6172301769256592,0.14165900647640228
156,5,128,18,0.5340492129325867,0.19506032764911652
156,5,128,19,0.5054166913032532,0.24309588968753815
156,5,128,20,0.5029020309448242,0.18928401172161102
156,5,128,21,0.6795775294303894,0.13352514803409576
156,5,128,22,0.6653704047203064,0.12221474945545197
156,5,128,23,0.2915894091129303,0.16468289494514465
156,5,128,24,0.48006701469421387,0.2186034619808197
156,5,128,25,0.7280257940292358,0.10441406816244125
156,5,128,26,0.7666236758232117,0.07639549672603607
156,5,128,27,0.5243251323699951,0.16799724102020264
156,5,128,28,0.5347995162010193,0.09414610266685486
156,5,128,29,0.4913017153739929,0.19295234978199005
156,5,128,30,0.6242617964744568,0.1286085695028305
156,5,128,31,0.8120601773262024,0.12837249040603638
156,5,128,32,0.5789188742637634,0.13329707086086273
156,5,128,33,0.4719875752925873,0.0531858392059803
156,5,128,34,0.6423943042755127,0.1071474552154541
156,5,128,35,0.6053294539451599,0.14723829925060272
156,5,128,36,0.6562467217445374,0.15235573053359985
156,5,128,37,0.785982072353363,0.1185813918709755
156,5,128,38,0.48640236258506775,0.2275347262620926
156,5,128,39,0.4338776469230652,0.17924576997756958
156,5,128,40,0.6817032694816589,0.13641248643398285
156,5,128,41,0.576515793800354,0.10318120568990707
156,5,128,42,0.47921833395957947,0.24930313229560852
156,5,128,43,0.8343430161476135,0.07374239712953568
156,5,128,44,0.4759925901889801,0.1557673066854477
156,5,128,45,0.7512876391410828,0.13536088168621063
156,5,128,46,0.607040286064148,0.16640138626098633
156,5,128,47,0.5891454219818115,0.15450552105903625
156,5,128,48,0.5561546683311462,0.17484556138515472
156,5,128,49,0.6687173843383789,0.25086039304733276
156,5,128,50,0.37553340196609497,0.2062976360321045
156,5,128,51,0.7056601643562317,0.18259188532829285
156,5,128,52,0.7291150689125061,0.16711299121379852
156,5,128,53,0.757794201374054,0.08581231534481049
156,5,128,54,0.4129660725593567,0.1580752432346344
156,5,128,55,0.47372934222221375,0.20203717052936554
156,5,128,56,0.5262243151664734,0.20851337909698486
156,5,128,57,0.6274564266204834,0.13711632788181305
156,5,128,58,0.504197895526886,0.15415146946907043
156,5,128,59,0.48176267743110657,0.13617676496505737
156,5,128,60,0.5659124851226807,0.21340692043304443
156,5,128,61,0.6289668083190918,0.22958318889141083
156,5,128,62,0.8012045621871948,0.1059916540980339
156,5,128,63,0.6034455895423889,0.16881966590881348
156,5,128,64,0.5562273263931274,0.18613435328006744
156,5,128,65,0.7020842432975769,0.22546352446079254
156,5,128,66,0.6698996424674988,0.12040918320417404
156,5,128,67,0.7168140411376953,0.13367432355880737
156,5,128,68,0.6598919630050659,0.21463161706924438
156,5,128,69,0.6095784306526184,0.19188793003559113
156,5,128,70,0.7048068046569824,0.12437848001718521
156,5,128,71,0.3403792977333069,0.16932259500026703
156,5,128,72,0.8184539675712585,0.13086451590061188
156,5,128,73,0.5996719598770142,0.19137802720069885
156,5,128,74,0.5992580056190491,0.15989725291728973
156,5,128,75,0.5734926462173462,0.182747945189476
156,5,128,76,0.6105667948722839,0.28746962547302246
156,5,128,77,0.34159788489341736,0.2632523775100708
156,5,128,78,0.8035499453544617,0.07889500260353088
156,5,128,79,0.4047304093837738,0.12291497737169266
156,5,128,80,0.6646644473075867,0.2029331475496292
156,5,128,81,0.5583376288414001,0.14132943749427795
156,5,128,82,0.6930828094482422,0.09191462397575378
156,5,128,83,0.6046193838119507,0.19455568492412567
156,5,128,84,0.475010484457016,0.16779667139053345
156,5,128,85,0.7044286727905273,0.14267028868198395
156,5,128,86,0.7547339200973511,0.12692978978157043
156,5,128,87,0.7612051963806152,0.17330436408519745
156,5,128,88,0.6811954379081726,0.17957594990730286
156,5,128,89,0.660024106502533,0.10212026536464691
156,5,128,90,0.5981287360191345,0.2838684320449829
156,5,128,91,0.6057232618331909,0.21449440717697144
156,5,128,92,0.44763514399528503,0.06829341500997543
156,5,128,93,0.580272376537323,0.25387412309646606
156,5,128,94,0.6462258696556091,0.12090706080198288
156,5,128,95,0.3387755751609802,0.22495459020137787
156,5,128,96,0.5698621273040771,0.1747017204761505
156,5,128,97,0.6372997164726257,0.15620645880699158
156,5,128,98,0.46138349175453186,0.17339639365673065
156,5,128,99,0.7524958252906799,0.1357334703207016
156,5,128,100,0.7183344960212708,0.11970273405313492
156,5,128,101,0.6857885718345642,0.1079002171754837
156,5,128,102,0.8045769333839417,0.10312744230031967
156,5,128,103,0.5753178596496582,0.10878849774599075
156,5,128,104,0.6357667446136475,0.13523328304290771
156,5,128,105,0.6924452185630798,0.11193865537643433
156,5,128,106,0.6546615362167358,0.16622433066368103
156,5,128,107,0.6615614891052246,0.1863323301076889
156,5,128,108,0.46219876408576965,0.19483432173728943
156,5,128,109,0.6548394560813904,0.10149279981851578
156,5,128,110,0.7084436416625977,0.12037689238786697
156,5,128,111,0.6179513931274414,0.160114124417305
156,5,128,112,0.5400969982147217,0.1015535220503807
156,5,128,113,0.7530643939971924,0.07969453930854797
156,5,128,114,0.5880349278450012,0.16579338908195496
156,5,128,115,0.5816401839256287,0.1696462333202362
156,5,128,116,0.6011243462562561,0.17811183631420135
156,5,128,117,0.7164548635482788,0.12359748035669327
156,5,128,118,0.7158499360084534,0.1207454577088356
156,5,128,119,0.5136033892631531,0.21240340173244476
156,5,128,120,0.5545607805252075,0.1728462129831314
156,5,128,121,0.6975997686386108,0.28201448917388916
156,5,128,122,0.5554705858230591,0.14381951093673706
156,5,128,123,0.6947716474533081,0.1146170049905777
156,5,128,124,0.6771602630615234,0.1836499124765396
156,5,128,125,0.6812860369682312,0.18993088603019714
156,5,128,126,0.6432692408561707,0.1290559023618698
156,5,128,127,0.596679151058197,0.09563712030649185
185,0,32,0,0.4152141809463501,0.14808408915996552
185,0,32,1,0.5656106472015381,0.07427013665437698
185,0,32,2,0.5282968282699585,0.0643283948302269
185,0,32,3,0.3892204165458679,0.06010391190648079
185,0,32,4,0.4645339846611023,0.09425182640552521
185,0,32,5,0.47109243273735046,0.05596930533647537
185,0,32,6,0.5063353180885315,0.05818166583776474
185,0,32,7,0.43590661883354187,0.11806848645210266
185,0,32,8,0.30274564027786255,0.06548473238945007
185,0,32,9,0.3009202778339386,0.07345237582921982
185,0,32,10,0.46582821011543274,0.049357712268829346
185,0,32,11,0.43301093578338623,0.033371876925230026
185,0,32,12,0.5064438581466675,0.08373404294252396
185,0,32,13,0.46508273482322693,0.05084112659096718
185,0,32,14,0.5786564946174622,0.048972368240356445
185,0,32,15,0.6334547400474548,0.08660481125116348
185,0,32,16,0.5898433327674866,0.10596421360969543
185,0,32,17,0.4506126046180725,0.09042820334434509
185,0,32,18,0.5789610147476196,0.04559186100959778
185,0,32,19,0.37563619017601013,0.07252403348684311
185,0,32,20,0.45228758454322815,0.029521705582737923
185,0,32,21,0.4446665644645691,0.06750019639730453
185,0,32,22,0.34331685304641724,0.03689070791006088
185,0,32,23,0.5271164774894714,0.0706545040011406
185,0,32,24,0.5717624425888062,0.0621180534362793
185,0,32,25,0.5531583428382874,0.08170001953840256
185,0,32,26,0.6113781332969666,0.06495373696088791
185,0,32,27,0.5442579388618469,0.07214406877756119
185,0,32,28,0.4736940860748291,0.03360173851251602
185,0,32,29,0.5178166031837463,0.09794078767299652
185,0,32,30,0.4307365417480469,0.10874544829130173
185,0,32,31,0.5056835412979126,0.05541796609759331
185,1,32,0,0.3991404175758362,0.05853954702615738
185,1,32,1,0.5199800133705139,0.1544688642024994
185,1,32,2,0.47556135058403015,0.07369372993707657
185,1,32,3,0.5741167664527893,0.12412626296281815
185,1,32,4,0.5143876075744629,0.08771629631519318
185,1,32,5,0.4995141923427582,0.04098384082317352
185,1,32,6,0.5232354998588562,0.11809700727462769
185,1,32,7,0.6441780924797058,0.0675857812166214
185,1,32,8,0.529415488243103,0.045419108122587204
185,1,32,9,0.667622983455658,0.10724863409996033
185,1,32,10,0.6454692482948303,0.08458946645259857
185,1,32,11,0.43112584948539734,0.07571885734796524
185,1,32,12,0.4663692116737366,0.11574951559305191
185,1,32,13,0.5993155241012573,0.12060907483100891
185,1,32,14,0.427258163690567,0.0868375226855278
185,1,32,15,0.36351531744003296,0.08782144635915756
185,1,32,16,0.42762407660484314,0.042113274335861206
185,1,32,17,0.6172019839286804,0.055304523557424545
185,1,32,18,0.34986647963523865,0.09613210707902908
185,1,32,19,0.3912425935268402,0.05954126641154289
185,1,32,20,0.5069345831871033,0.11651432514190674
185,1,32,21,0.43671050667762756,0.11900962889194489
185,1,32,22,0.32481667399406433,0.09518226236104965
185,1,32,23,0.3359468877315521,0.0907098725438118
185,1,32,24,0.5503033399581909,0.08541283011436462
185,1,32,25,0.550452470779419,0.11007063090801239
185,1,32,26,0.3807491362094879,0.10824588686227798
185,1,32,27,0.38029682636260986,0.14379914104938507
185,1,32,28,0.5433007478713989,0.09996867179870605
185,1,32,29,0.526321291923523,0.06288551539182663
185,1,32,30,0.552889347076416,0.04867895692586899
185,1,32,31,0.5015745162963867,0.10559076070785522
185,2,64,0,0.4179355204105377,0.17161443829536438
185,2,64,1,0.7285889387130737,0.14279882609844208
185,2,64,2,0.4062236249446869,0.2181762158870697
185,2,64,3,0.3597787618637085,0.1542382389307022
185,2,64,4,0.6295177340507507,0.2947010099887848
185,2,64,5,0.34110936522483826,0.19993412494659424
185,2,64,6,0.49668896198272705,0.1875350922346115
185,2,64,7,0.6782045960426331,0.14673838019371033
185,2,64,8,0.3726358115673065,0.1638317108154297
185,2,64,9,0.47558534145355225,0.18910378217697144
185,2,64,10,0.5268633365631104,0.18640345335006714
185,2,64,11,0.46635448932647705,0.23707924783229828
185,2,64,12,0.47778981924057007,0.24818867444992065
185,2,64,13,0.6186776757240295,0.09343265742063522
185,2,64,14,0.5790313482284546,0.3105432689189911
185,2,64,15,0.5620249509811401,0.1909203976392746
185,2,64,16,0.6081075072288513,0.14545905590057373
185,2,64,17,0.5474393367767334,0.33577826619148254
185,2,64,18,0.48152226209640503,0.21251280605793
185,2,64,19,0.2921408414840698,0.15676546096801758
185,2,64,20,0.418028324842453,0.1588939130306244
185,2,64,21,0.34871047735214233,0.11380933225154877
185,2,64,22,0.3956402540206909,0.18129834532737732
185,2,64,23,0.40210118889808655,0.1515217125415802
185,2,64,24,0.5113508701324463,0.08970493078231812
185,2,64,25,0.5764093399047852,0.1909562200307846
185,2,64,26,0.5538707375526428,0.1568312644958496
185,2,64,27,0.46511173248291016,0.26424533128738403
185,2,64,28,0.6051526665687561,0.12289898097515106
185,2,64,29,0.6253845691680908,0.2561136782169342
185,2,64,30,0.2791914939880371,0.1326192170381546
185,2,64,31,0.4281339645385742,0.2394469827413559
185,2,64,32,0.5547498464584351,0.2900994122028351
185,2,64,33,0.6944127678871155,0.11113838851451874
185,2,64,34,0.5060938596725464,0.29083311557769775
185,2,64,35,0.5536386966705322,0.17729344964027405
185,2,64,36,0.5287186503410339,0.2614870071411133
185,2,64,37,0.4923299551010132,0.29265737533569336
185,2,64,38,0.32280656695365906,0.1576230376958847
185,2,64,39,0.35595980286598206,0.16010896861553192
185,2,64,40,0.38911253213882446,0.2123909592628479
185,2,64,41,0.7054880261421204,0.1670718640089035
185,2,64,42,0.2752189338207245,0.13422979414463043
185,2,64,43,0.5111420750617981,0.10863599181175232
185,2,64,44,0.43416449427604675,0.22987313568592072
185,2,64,45,0.4652212858200073,0.2561861574649811
185,2,64,46,0.4914475679397583,0.12657709419727325
185,2,64,47,0.5540941953659058,0.27528318762779236
185,2,64,48,0.32689014077186584,0.17044024169445038
185,2,64,49,0.5113416314125061,0.21902118623256683
185,2,64,50,0.44840142130851746,0.13875329494476318
185,2,64,51,0.6578835248947144,0.15261946618556976
185,2,64,52,0.4611549973487854,0.2502659857273102
185,2,64,53,0.5607656836509705,0.2299131155014038
185,2,64,54,0.5696115493774414,0.11835137009620667
185,2,64,55,0.46416985988616943,0.10253632068634033
185,2,64,56,0.4916854202747345,0.1740540862083435
185,2,64,57,0.5253148078918457,0.2450827807188034
185,2,64,58,0.5436088442802429,0.08611847460269928
185,2,64,59,0.5057080984115601,0.15073822438716888
185,2,64,60,0.5200742483139038,0.21694393455982208
185,2,64,61,0.5199748277664185,0.15087418258190155
185,2,64,62,0.40757638216018677,0.208228200674057
185,2,64,63,0.6732087135314941,0.167684406042099
185,3,64,0,0.5865436792373657,0.12808361649513245
185,3,64,1,0.37779420614242554,0.13824336230754852
185,3,64,2,0.5348619222640991,0.1946869194507599
185,3,64,3,0.31284448504447937,0.12089509516954422
185,3,64,4,0.5355715155601501,0.1268843114376068
185,3,64,5,0.45424002408981323,0.12199857085943222
185,3,64,6,0.46034932136535645,0.08119864761829376
185,3,64,7,0.4964394271373749,0.17037299275398254
185,3,64,8,0.462433785200119,0.10759428143501282
185,3,64,9,0.47913044691085815,0.12672875821590424
185,3,64,10,0.47707125544548035,0.1471869945526123
185,3,64,11,0.516940176486969,0.051173754036426544
185,3,64,12,0.5653696656227112,0.10569026321172714
185,3,64,13,0.5344510674476624,0.05979226902127266
185,3,64,14,0.4175019860267639,0.09231166541576385
185,3,64,15,0.4984836280345917,0.1530567705631256
185,3,64,16,0.4643716514110565,0.10755696147680283
185,3,64,17,0.5067766308784485,0.13587799668312073
185,3,64,18,0.4821407198905945,0.1550256311893463
185,3,64,19,0.5002400875091553,0.2127082794904709
185,3,64,20,0.4136382043361664,0.10085052251815796
185,3,64,21,0.45709216594696045,0.09711211919784546
185,3,64,22,0.4712427854537964,0.13879232108592987
185,3,64,23,0.5021634101867676,0.09414857625961304
185,3,64,24,0.4495435655117035,0.1212187111377716
185,3,64,25,0.5359995365142822,0.18512819707393646
185,3,64,26,0.4701177775859833,0.14624960720539093
185,3,64,27,0.5382207036018372,0.040139321237802505
185,3,64,28,0.4606798589229584,0.12994354963302612
185,3,64,29,0.4698302149772644,0.10704738646745682
185,3,64,30,0.5481920838356018,0.17701031267642975
185,3,64,31,0.5465781688690186,0.08561255037784576
185,3,64,32,0.5203530788421631,0.15369607508182526
185,3,64,33,0.5145400166511536,0.08414196223020554
185,3,64,34,0.46179601550102234,0.1267222762107849
185,3,64,35,0.5928279757499695,0.06648413091897964
185,3,64,36,0.3716571033000946,0.11787247657775879
185,3,64,37,0.5536420941352844,0.11719122529029846
185,3,64,38,0.5737878084182739,0.09357810765504837
185,3,64,39,0.59618079662323,0.1250304877758026
185,3,64,40,0.5776457786560059,0.10523418337106705
185,3,64,41,0.5690960884094238,0.11953333020210266
185,3,64,42,0.486611008644104,0.15292008221149445
185,3,64,43,0.6819567084312439,0.0837612897157669
185,3,64,44,0.5232967734336853,0.11471034586429596
185,3,64,45,0.4672042727470398,0.14803358912467957
185,3,64,46,0.46301889419555664,0.07254061102867126
185,3,64,47,0.536109983921051,0.12471476942300797
185,3,64,48,0.5312190055847168,0.13551850616931915
185,3,64,49,0.43553316593170166,0.13884659111499786
185,3,64,50,0.4577389657497406,0.09022204577922821
185,3,64,51,0.41491132974624634,0.11921771615743637
185,3,64,52,0.48377469182014465,0.14816291630268097
185,3,64,53,0.5801379680633545,0.1199723333120346
185,3,64,54,0.44164642691612244,0.1128569170832634
185,3,64,55,0.6147372126579285,0.14607247710227966
185,3,64,56,0.46936824917793274,0.0944022536277771
185,3,64,57,0.509393572807312,0.09291314333677292
185,3,64,58,0.40187135338783264,0.10368797183036804
185,3,64,59,0.45751848816871643,0.06991799175739288
185,3,64,60,0.5032795667648315,0.12385229766368866
185,3,64,61,0.3824176788330078,0.13805986940860748
185,3,64,62,0.3520137667655945,0.11277759075164795
185,3,64,63,0.5255475640296936,0.14349329471588135
185,4,128,0,0.5188737511634827,0.259668231010437
185,4,128,1,0.45582857728004456,0.1867891401052475
185,4,128,2,0.6270371079444885,0.18591471016407013
185,4,128,3,0.5120120048522949,0.17403236031532288
185,4,128,4,0.6580219268798828,0.22626617550849915
185,4,128,5,0.5346788167953491,0.18078231811523438
185,4,128,6,0.5882693529129028,0.26225540041923523
185,4,128,7,0.538061797618866,0.21440580487251282
185,4,128,8,0.4721672832965851,0.16074886918067932
185,4,128,9,0.5031008720397949,0.1434292495250702
185,4,128,10,0.35552358627319336,0.08653201162815094
185,4,128,11,0.6316646933555603,0.17153652012348175
185,4,128,12,0.6031229496002197,0.08097469061613083
185,4,128,13,0.4262556731700897,0.1505766361951828
185,4,128,14,0.6393359899520874,0.16202189028263092
185,4,128,15,0.4939902424812317,0.24760998785495758
185,4,128,16,0.44168025255203247,0.15193390846252441
185,4,128,17,0.6915189027786255,0.16941069066524506
185,4,128,18,0.476249098777771,0.11470042169094086
185,4,128,19,0.4544984698295593,0.129815936088562
185,4,128,20,0.6547751426696777,0.15142762660980225
185,4,128,21,0.49682581424713135,0.19969482719898224
185,4,128,22,0.33474013209342957,0.09622463583946228
185,4,128,23,0.35937538743019104,0.2234617918729782
185,4,128,24,0.48506107926368713,0.2256627380847931
185,4,128,25,0.39047864079475403,0.201523557305336
185,4,128,26,0.6596800088882446,0.2854308784008026
185,4,128,27,0.6097995638847351,0.23732002079486847
185,4,128,28,0.33734750747680664,0.16777722537517548
185,4,128,29,0.462505578994751,0.11488962918519974
185,4,128,30,0.42547470331192017,0.16256049275398254
185,4,128,31,0.6098655462265015,0.17848771810531616
185,4,128,32,0.5236209034919739,0.15008874237537384
185,4,128,33,0.45282885432243347,0.15216393768787384
185,4,128,34,0.43666502833366394,0.24997444450855255
185,4,128,35,0.44505032896995544,0.13338397443294525
185,4,128,36,0.6061258316040039,0.2880340814590454
185,4,128,37,0.5774467587471008,0.1859295517206192
185,4,128,38,0.573771595954895,0.1357487440109253
185,4,128,39,0.57085782289505,0.11199890077114105
185,4,128,40,0.6173007488250732,0.22183090448379517
185,4,128,41,0.642641007900238,0.09288975596427917
185,4,128,42,0.45226797461509705,0.18998576700687408
185,4,128,43,0.483403742313385,0.18079105019569397
185,4,128,44,0.4470366835594177,0.1699158102273941
185,4,128,45,0.3974309265613556,0.1514309048652649
185,4,128,46,0.5213235020637512,0.14200788736343384
185,4,128,47,0.5309078693389893,0.14167939126491547
185,4,128,48,0.6070443987846375,0.16713088750839233
185,4,128,49,0.5407009124755859,0.2566151022911072
185,4,128,50,0.6328657865524292,0.12773369252681732
185,4,128,51,0.59506756067276,0.1634194701910019
185,4,128,52,0.4245786666870117,0.23066669702529907
185,4,128,53,0.4194875955581665,0.12655286490917206
185,4,128,54,0.7250437140464783,0.11792545020580292
185,4,128,55,0.4846963882446289,0.23050038516521454
185,4,128,56,0.5411607027053833,0.1432601660490036
185,4,128,57,0.5088944435119629,0.13422301411628723
185,4,128,58,0.6158351302146912,0.12998461723327637
185,4,128,59,0.3895769715309143,0.06951918452978134
185,4,128,60,0.617805540561676,0.23667524755001068
185,4,128,61,0.4495641887187958,0.12413149327039719
185,4,128,62,0.645310640335083,0.19781678915023804
185,4,128,63,0.5547094345092773,0.17656990885734558
185,4,128,64,0.6009475588798523,0.28643572330474854
185,4,128,65,0.6218043565750122,0.22123567759990692
185,4,128,66,0.4437481462955475,0.12332997471094131
185,4,128,67,0.5608808398246765,0.1659993976354599
185,4,128,68,0.48019900918006897,0.23454436659812927
185,4,128,69,0.555033266544342,0.12507492303848267
185,4,128,70,0.413025826215744,0.11996647715568542
185,4,128,71,0.4240262508392334,0.11769433319568634
185,4,128,72,0.455807626247406,0.14427517354488373
185,4,128,73,0.41725197434425354,0.1827109158039093
185,4,128,74,0.5102135539054871,0.2047211080789566
185,4,128,75,0.46292442083358765,0.1272466778755188
185,4,128,76,0.5479029417037964,0.2809417247772217
185,4,128,77,0.6350209712982178,0.2080998420715332
185,4,128,78,0.637614905834198,0.2564004063606262
185,4,128,79,0.4333828389644623,0.21058960258960724
185,4,128,80,0.5061184167861938,0.18603233993053436
185,4,128,81,0.5058565139770508,0.12895968556404114
185,4,128,82,0.43909788131713867,0.20684078335762024
185,4,128,83,0.6112942695617676,0.28568655252456665
185,4,128,84,0.4502006769180298,0.20147569477558136
185,4,128,85,0.3633984625339508,0.10922238975763321
185,4,128,86,0.5120304822921753,0.2127380073070526
185,4,128,87,0.530414342880249,0.26303622126579285
185,4,128,88,0.5326967835426331,0.1601179540157318
185,4,128,89,0.3372286856174469,0.12506674230098724
185,4,128,90,0.5009491443634033,0.2313026636838913
185,4,128,91,0.6232708692550659,0.10418159514665604
185,4,128,92,0.5142353177070618,0.19974109530448914
185,4,128,93,0.4860522449016571,0.11331655830144882
185,4,128,94,0.5435793995857239,0.2753148376941681
185,4,128,95,0.5805075168609619,0.16721758246421814
185,4,128,96,0.3596095144748688,0.16207680106163025
185,4,128,97,0.6350889205932617,0.13201896846294403
185,4,128,98,0.5759751200675964,0.1317959874868393
185,4,128,99,0.5152797102928162,0.10849448293447495
185,4,128,100,0.5289029479026794,0.1960933357477188
185,4,128,101,0.3776392936706543,0.20067273080348969
185,4,128,102,0.2681678235530853,0.10000481456518173
185,4,128,103,0.38299503922462463,0.17579133808612823
185,4,128,104,0.5160801410675049,0.1860462725162506
185,4,128,105,0.5562912821769714,0.2124321609735489
185,4,128,106,0.5216838121414185,0.12290192395448685
185,4,128,107,0.4038965702056885,0.19018788635730743
185,4,128,108,0.458683043718338,0.1691092550754547
185,4,128,109,0.6350403428077698,0.15875601768493652
185,4,128,110,0.3213678300380707,0.10917286574840546
185,4,128,111,0.6483814120292664,0.1807885766029358
185,4,128,112,0.5988684296607971,0.16594348847866058
185,4,128,113,0.4446825385093689,0.2035072147846222
185,4,128,114,0.43371090292930603,0.21597597002983093
185,4,128,115,0.5463031530380249,0.16948720812797546
185,4,128,116,0.5926699638366699,0.16531550884246826
185,4,128,117,0.5068880915641785,0.23670141398906708
185,4,128,118,0.6595619320869446,0.11806254088878632
185,4,128,119,0.4388708472251892,0.20586323738098145
185,4,128,120,0.5316755175590515,0.16869832575321198
185,4,128,121,0.5627475380897522,0.15873321890830994
185,4,128,122,0.4968678653240204,0.06561697274446487
185,4,128,123,0.38786470890045166,0.24031966924667358
185,4,128,124,0.4929843544960022,0.22472630441188812
185,4,128,125,0.5555192828178406,0.2696198523044586
185,4,128,126,0.6134849786758423,0.1804313063621521
185,4,128,127,0.6015121936798096,0.19894179701805115
185,5,128,0,0.5874198079109192,0.2850657105445862
185,5,128,1,0.4394785761833191,0.1559487283229828
185,5,128,2,0.6054044365882874,0.22486844658851624
185,5,128,3,0.45948249101638794,0.14468087255954742
185,5,128,4,0.6076440811157227,0.3095439374446869
185,5,128,5,0.372843474149704,0.13326284289360046
185,5,128,6,0.536358654499054,0.3052665591239929
185,5,128,7,0.40515220165252686,0.22870448231697083
185,5,128,8,0.6587822437286377,0.18910515308380127
185,5,128,9,0.5421269536018372,0.19197554886341095
185,5,128,10,0.6361701488494873,0.13712415099143982
185,5,128,11,0.36309653520584106,0.2352021485567093
185,5,128,12,0.5520766973495483,0.231331005692482
185,5,128,13,0.7721503973007202,0.11282078921794891
185,5,128,14,0.7620583176612854,0.09135701507329941
185,5,128,15,0.35947760939598083,0.19897587597370148
185,5,128,16,0.6375700831413269,0.11165577173233032
185,5,128,17,0.6614904999732971,0.21710872650146484
185,5,128,18,0.6104280948638916,0.2499229460954666
185,5,128,19,0.6150358319282532,0.2675800025463104
185,5,128,20,0.5698840022087097,0.1457042694091797
185,5,128,21,0.49968427419662476,0.22389528155326843
185,5,128,22,0.5207980275154114,0.18394726514816284
185,5,128,23,0.46514859795570374,0.20674164593219757
185,5,128,24,0.4811367690563202,0.21698559820652008
185,5,128,25,0.5933630466461182,0.07717926800251007
185,5,128,26,0.6303587555885315,0.2381422072649002
185,5,128,27,0.47439876198768616,0.16167987883090973
185,5,128,28,0.6608930230140686,0.1582389622926712
185,5,128,29,0.6601142287254333,0.12118842452764511
185,5,128,30,0.5050488710403442,0.1839820146560669
185,5,128,31,0.6639363765716553,0.20973248779773712
185,5,128,32,0.5957242846488953,0.17664840817451477
185,5,128,33,0.7186617851257324,0.15911243855953217
185,5,128,34,0.5579107403755188,0.20652040839195251
185,5,128,35,0.6902871131896973,0.10590144991874695
185,5,128,36,0.5431400537490845,0.17410002648830414
185,5,128,37,0.535575270652771,0.17781728506088257
185,5,128,38,0.5351066589355469,0.16070356965065002
185,5,128,39,0.5800535082817078,0.15619544684886932
185,5,128,40,0.5729756951332092,0.20276008546352386
185,5,128,41,0.5518697500228882,0.18913425505161285
185,5,128,42,0.6403167247772217,0.1619405597448349
185,5,128,43,0.49488675594329834,0.18309061229228973
185,5,128,44,0.43076083064079285,0.19287648797035217
185,5,128,45,0.6200093626976013,0.22652360796928406
185,5,128,46,0.6532487273216248,0.10767047852277756
185,5,128,47,0.6806496381759644,0.14206399023532867
185,5,128,48,0.5734015107154846,0.16409234702587128
185,5,128,49,0.512626051902771,0.2567376494407654
185,5,128,50,0.53279048204422,0.1027819812297821
185,5,128,51,0.48395976424217224,0.05628501623868942
185,5,128,52,0.532170832157135,0.17780771851539612
185,5,128,53,0.6848623156547546,0.1368739753961563
185,5,128,54,0.41146671772003174,0.14636455476284027
185,5,128,55,0.6075504422187805,0.1461995542049408
185,5,128,56,0.6652208566665649,0.1706721931695938
185,5,128,57,0.7734565138816833,0.10057856142520905
185,5,128,58,0.6076933741569519,0.17098720371723175
185,5,128,59,0.6137905716896057,0.1794128268957138
185,5,128,60,0.5992114543914795,0.17289669811725616
185,5,128,61,0.6144290566444397,0.2112753838300705
185,5,128,62,0.656912088394165,0.21485283970832825
185,5,128,63,0.6112514734268188,0.0867699384689331
185,5,128,64,0.6173055768013,0.15095029771327972
185,5,128,65,0.5773127675056458,0.22159039974212646
185,5,128,66,0.4389382600784302,0.050732310861349106
185,5,128,67,0.7166160941123962,0.12743115425109863
185,5,128,68,0.7209428548812866,0.17833121120929718
185,5,128,69,0.6096998453140259,0.21301017701625824
185,5,128,70,0.6743226647377014,0.07802242785692215
185,5,128,71,0.6417354941368103,0.16402482986450195
185,5,128,72,0.4824755787849426,0.13469617068767548
185,5,128,73,0.5428178310394287,0.22838912904262543
185,5,128,74,0.6064592003822327,0.09817453473806381
185,5,128,75,0.5867866277694702,0.25177866220474243
185,5,128,76,0.6691029071807861,0.18516281247138977
185,5,128,77,0.5019704103469849,0.1857091784477234
185,5,128,78,0.61268150806427,0.19807370007038116
185,5,128,79,0.6201648116111755,0.18079465627670288
185,5,128,80,0.7521664500236511,0.17224064469337463
185,5,128,81,0.5865550637245178,0.2523971498012543
185,5,128,82,0.45111748576164246,0.21896986663341522
185,5,128,83,0.582513689994812,0.24042204022407532
185,5,128,84,0.48426419496536255,0.11269935965538025
185,5,128,85,0.5073848366737366,0.18665456771850586
185,5,128,86,0.5748984813690186,0.07371760904788971
185,5,128,87,0.6123937964439392,0.17792977392673492
185,5,128,88,0.6747087240219116,0.11222438514232635
185,5,128,89,0.5379654169082642,0.14332321286201477
185,5,128,90,0.6173256039619446,0.12555205821990967
185,5,128,91,0.6771252155303955,0.12675178050994873
185,5,128,92,0.585894763469696,0.06986889988183975
185,5,128,93,0.6002979278564453,0.10077070444822311
185,5,128,94,0.5094855427742004,0.13055308163166046
185,5,128,95,0.6324116587638855,0.23360320925712585
185,5,128,96,0.43758854269981384,0.18214185535907745
185,5,128,97,0.7108036279678345,0.11288614571094513
185,5,128,98,0.7137450575828552,0.14696559309959412
185,5,128,99,0.7312106490135193,0.1127091497182846
185,5,128,100,0.5695775151252747,0.16775353252887726
185,5,128,101,0.5432957410812378,0.2095392793416977
185,5,128,102,0.5255167484283447,0.18099725246429443
185,5,128,103,0.7540265917778015,0.11578169465065002
185,5,128,104,0.6623495221138,0.24016401171684265
185,5,128,105,0.7699717283248901,0.10724125057458878
185,5,128,106,0.5653117299079895,0.11670252680778503
185,5,128,107,0.6326828598976135,0.23474252223968506
185,5,128,108,0.5184672474861145,0.20354516804218292
185,5,128,109,0.5751891136169434,0.16510485112667084
185,5,128,110,0.4950122535228729,0.1349027305841446
185,5,128,111,0.5906860828399658,0.1428491622209549
185,5,128,112,0.3941519260406494,0.13397827744483948
185,5,128,113,0.591285765171051,0.13769039511680603
185,5,128,114,0.5785396099090576,0.20021873712539673
185,5,128,115,0.5844587683677673,0.17700697481632233
185,5,128,116,0.4590623676776886,0.15906216204166412
185,5,128,117,0.5288926362991333,0.22661282122135162
185,5,128,118,0.6468043327331543,0.11570516228675842
185,5,128,119,0.6308276057243347,0.13562843203544617
185,5,128,120,0.6754376292228699,0.1625010222196579
185,5,128,121,0.5629848837852478,0.2696760296821594
185,5,128,122,0.629593551158905,0.19863711297512054
185,5,128,123,0.44121864438056946,0.07362283021211624
185,5,128,124,0.5914419889450073,0.09686814993619919
185,5,128,125,0.5538783669471741,0.1148470938205719
185,5,128,126,0.47327762842178345,0.23037484288215637
185,5,128,127,0.6697539687156677,0.168134868144989
186,0,32,0,0.3521900475025177,0.16209279000759125
186,0,32,1,0.5851195454597473,0.0799286961555481
186,0,32,2,0.3075585961341858,0.07759775221347809
186,0,32,3,0.5266603827476501,0.10460738837718964
186,0,32,4,0.5250813961029053,0.1260785460472107
186,0,32,5,0.2741822898387909,0.09615930169820786
186,0,32,6,0.36994633078575134,0.1324930191040039
186,0,32,7,0.48351746797561646,0.16658708453178406
186,0,32,8,0.5534197688102722,0.12582147121429443
186,0,32,9,0.3433510661125183,0.13430635631084442
186,0,32,10,0.6222707033157349,0.1700316220521927
186,0,32,11,0.32517850399017334,0.10599015653133392
186,0,32,12,0.2982778549194336,0.09188083559274673
186,0,32,13,0.5171812176704407,0.08146906644105911
186,0,32,14,0.5726538300514221,0.03892085701227188
186,0,32,15,0.5342445969581604,0.17436055839061737
186,0,32,16,0.5344367027282715,0.0888640284538269
186,0,32,17,0.4658786654472351,0.07152635604143143
186,0,32,18,0.6573770642280579,0.18899720907211304
186,0,32,19,0.5397208333015442,0.1490832418203354
186,0,32,20,0.36404547095298767,0.10713931918144226
186,0,32,21,0.36044320464134216,0.1062626913189888
186,0,32,22,0.35443806648254395,0.062541663646698
186,0,32,23,0.4038686156272888,0.0730815902352333
186,0,32,24,0.4269424080848694,0.0533231720328331
186,0,32,25,0.3319905698299408,0.07139871269464493
186,0,32,26,0.37427911162376404,0.10261926054954529
186,0,32,27,0.5642597079277039,0.10369864851236343
186,0,32,28,0.6428589820861816,0.10400928556919098
186,0,32,29,0.5626304745674133,0.08625631034374237
186,0,32,30,0.37577566504478455,0.13914184272289276
186,0,32,31,0.45072415471076965,0.06013181060552597
186,1,32,0,0.5798420906066895,0.13137167692184448
186,1,32,1,0.3785669207572937,0.05464246869087219
186,1,32,2,0.5189595222473145,0.11337059736251831
186,1,32,3,0.5099669098854065,0.052184127271175385
186,1,32,4,0.5879438519477844,0.1383044570684433
186,1,32,5,0.4555012881755829,0.08623972535133362
186,1,32,6,0.6560608744621277,0.09184100478887558
186,1,32,7,0.5856545567512512,0.11640318483114243
186,1,32,8,0.6087982058525085,0.07027829438447952
186,1,32,9,0.654342770576477,0.11389240622520447
186,1,32,10,0.415620893239975,0.04937029629945755
186,1,32,11,0.4953361749649048,0.14641806483268738
186,1,32,12,0.5332351326942444,0.1251222789287567
186,1,32,13,0.38670358061790466,0.06977283954620361
186,1,32,14,0.40524980425834656,0.09220132976770401
186,1,32,15,0.5299550294876099,0.11990834772586823
186,1,32,16,0.5348736643791199,0.07797139137983322
186,1,32,17,0.5369423627853394,0.09527953714132309
186,1,32,18,0.38927018642425537,0.1214604601264
186,1,32,19,0.5368260741233826,0.09587529301643372
186,1,32,20,0.5504510998725891,0.05658833682537079
186,1,32,21,0.45744433999061584,0.17304487526416779
186,1,32,22,0.4752402901649475,0.11185513436794281
186,1,32,23,0.5889347195625305,0.15384924411773682
186,1,32,24,0.3759395480155945,0.11277372390031815
186,1,32,25,0.38969796895980835,0.10398454964160919
186,1,32,26,0.3886184096336365,0.08655818551778793
186,1,32,27,0.36154821515083313,0.09754469245672226
186,1,32,28,0.49170219898223877,0.1345139592885971
186,1,32,29,0.4498724341392517,0.1547456532716751
186,1,32,30,0.28358563780784607,0.12052414566278458
186,1,32,31,0.49231937527656555,0.14541774988174438
186,2,64,0,0.65658038854599,0.13438338041305542
186,2,64,1,0.5773698687553406,0.21252134442329407
186,2,64,2,0.40825897455215454,0.1519833207130432
186,2,64,3,0.6296181082725525,0.09920306503772736
186,2,64,4,0.5373004078865051,0.23171037435531616
186,2,64,5,0.3990321755409241,0.1798761785030365
186,2,64,6,0.47463810443878174,0.28020167350769043
186,2,64,7,0.35657134652137756,0.1536157876253128
186,2,64,8,0.564138650894165,0.29739660024642944
186,2,64,9,0.5443458557128906,0.20931433141231537
186,2,64,10,0.3824206590652466,0.10158973187208176
186,2,64,11,0.5324831008911133,0.22418904304504395
186,2,64,12,0.47506386041641235,0.18795862793922424
186,2,64,13,0.5048719644546509,0.08259937167167664
186,2,64,14,0.6698564887046814,0.10033629834651947
186,2,64,15,0.558271586894989,0.17313268780708313
186,2,64,16,0.5027337670326233,0.15727832913398743
186,2,64,17,0.5310426950454712,0.2209082394838333
186,2,64,18,0.4143869876861572,0.14802436530590057
186,2,64,19,0.5816013813018799,0.25411489605903625
186,2,64,20,0.3840990364551544,0.12932400405406952
186,2,64,21,0.35183802247047424,0.0919903963804245
186,2,64,22,0.42577406764030457,0.20487913489341736
186,2,64,23,0.5988339185714722,0.21107158064842224
186,2,64,24,0.396511971950531,0.11470090597867966
186,2,64,25,0.44420289993286133,0.12885721027851105
186,2,64,26,0.6157094240188599,0.11918386071920395
186,2,64,27,0.5040744543075562,0.2917289733886719
186,2,64,28,0.6183772087097168,0.14941872656345367
186,2,64,29,0.5398046970367432,0.20776130259037018
186,2,64,30,0.6339102983474731,0.14400550723075867
186,2,64,31,0.36655741930007935,0.15468302369117737
186,2,64,32,0.552330732345581,0.17235854268074036
186,2,64,33,0.3458716571331024,0.19354933500289917
186,2,64,34,0.5349152684211731,0.2237008810043335
186,2,64,35,0.4910033941268921,0.18796172738075256
186,2,64,36,0.4404059946537018,0.32578226923942566
186,2,64,37,0.5189191102981567,0.22594457864761353
186,2,64,38,0.459025502204895,0.2622968852519989
186,2,64,39,0.49742788076400757,0.12620674073696136
186,2,64,40,0.35880452394485474,0.10045129805803299
186,2,64,41,0.48586034774780273,0.145871102809906
186,2,64,42,0.5237779021263123,0.13206499814987183
186,2,64,43,0.5647748112678528,0.16234730184078217
186,2,64,44,0.44293180108070374,0.18624179065227509
186,2,64,45,0.4305689036846161,0.10000208020210266
186,2,64,46,0.38931936025619507,0.11610884219408035
186,2,64,47,0.42628180980682373,0.10728241503238678
186,2,64,48,0.5728314518928528,0.06693854928016663
186,2,64,49,0.34974831342697144,0.11154315620660782
186,2,64,50,0.5757136940956116,0.12999014556407928
186,2,64,51,0.44180095195770264,0.15000085532665253
186,2,64,52,0.5750682950019836,0.13064880669116974
186,2,64,53,0.49090099334716797,0.22830723226070404
186,2,64,54,0.49931517243385315,0.26517438888549805
186,2,64,55,0.4666045606136322,0.21305978298187256
186,2,64,56,0.34451958537101746,0.14746476709842682
186,2,64,57,0.6000820994377136,0.11328496783971786
186,2,64,58,0.5874066948890686,0.1306256353855133
186,2,64,59,0.44975942373275757,0.17331548035144806
186,2,64,60,0.4190058410167694,0.22440944612026215
186,2,64,61,0.3925432860851288,0.10243538022041321
186,2,64,62,0.4846141040325165,0.21958863735198975
186,2,64,63,0.39913302659988403,0.14182129502296448
186,3,64,0,0.45095324516296387,0.19321833550930023
186,3,64,1,0.32141828536987305,0.06944318860769272
186,3,64,2,0.6522884964942932,0.12257165461778641
186,3,64,3,0.35785117745399475,0.12165350466966629
186,3,64,4,0.3390166759490967,0.08444157987833023
186,3,64,5,0.5726319551467896,0.16321782767772675
186,3,64,6,0.4754194915294647,0.20581409335136414
186,3,64,7,0.41874346137046814,0.2176918089389801
186,3,64,8,0.5058231949806213,0.21031822264194489
186,3,64,9,0.4730854630470276,0.24491940438747406
186,3,64,10,0.560455322265625,0.1698807328939438
186,3,64,11,0.4419535994529724,0.18263773620128632
186,3,64,12,0.5523636341094971,0.10443131625652313
186,3,64,13,0.526399552822113,0.20960739254951477
186,3,64,14,0.5795170068740845,0.17560474574565887
186,3,64,15,0.4750414788722992,0.10594584792852402
186,3,64,16,0.5650663375854492,0.09787850826978683
186,3,64,17,0.5210554003715515,0.13656441867351532
186,3,64,18,0.42840245366096497,0.09641926735639572
186,3,64,19,0.5626181364059448,0.12105076014995575
186,3,64,20,0.3860204517841339,0.1406017690896988
186,3,64,21,0.444599986076355,0.1415284425020218
186,3,64,22,0.4129990339279175,0.1102098673582077
186,3,64,23,0.5115340352058411,0.1066356897354126
186,3,64,24,0.5634276270866394,0.12145929783582687
186,3,64,25,0.49374672770500183,0.27057990431785583
186,3,64,26,0.4176415205001831,0.14435704052448273
186,3,64,27,0.4520517587661743,0.13456778228282928
186,3,64,28,0.3948574960231781,0.08850730210542679
186,3,64,29,0.45709261298179626,0.11279749870300293
186,3,64,30,0.51727294921875,0.15705691277980804
186,3,64,31,0.31880220770835876,0.06354157626628876
186,3,64,32,0.6188666820526123,0.1680266410112381
186,3,64,33,0.5077987909317017,0.17256999015808105
186,3,64,34,0.4297068417072296,0.21776019036769867
186,3,64,35,0.5219556093215942,0.1662977933883667
186,3,64,36,0.513189971446991,0.22586092352867126
186,3,64,37,0.5603377223014832,0.1326911896467209
186,3,64,38,0.4963874816894531,0.2702690064907074
186,3,64,39,0.5780686140060425,0.09852348268032074
186,3,64,40,0.43238621950149536,0.10732582211494446
186,3,64,41,0.565168559551239,0.110005684196949
186,3,64,42,0.5484031438827515,0.19478261470794678
186,3,64,43,0.6290107369422913,0.20090682804584503
186,3,64,44,0.6195583343505859,0.2515037953853607
186,3,64,45,0.6949265599250793,0.07936388999223709
186,3,64,46,0.41084492206573486,0.11633574962615967
186,3,64,47,0.5398813486099243,0.178392231464386
186,3,64,48,0.28081396222114563,0.08609503507614136
186,3,64,49,0.3463829457759857,0.07876716554164886
186,3,64,50,0.6052445769309998,0.1444096565246582
186,3,64,51,0.4968796372413635,0.16206790506839752
186,3,64,52,0.5533443689346313,0.15109975636005402
186,3,64,53,0.39359503984451294,0.24533097445964813
186,3,64,54,0.6204821467399597,0.1578368991613388
186,3,64,55,0.5514340400695801,0.17894402146339417
186,3,64,56,0.4999045729637146,0.11857953667640686
186,3,64,57,0.6135898232460022,0.08355949819087982
186,3,64,58,0.43729642033576965,0.15782196819782257
186,3,64,59,0.49015554785728455,0.28846457600593567
186,3,64,60,0.5204108953475952,0.08589046448469162
186,3,64,61,0.43320292234420776,0.09998361021280289
186,3,64,62,0.34815946221351624,0.11354980617761612
186,3,64,63,0.3862450420856476,0.1992492824792862
186,4,128,0,0.6037955284118652,0.1927110254764557
186,4,128,1,0.4845586121082306,0.14840096235275269
186,4,128,2,0.5634030699729919,0.15892525017261505
186,4,128,3,0.6427949070930481,0.07620510458946228
186,4,128,4,0.5921028852462769,0.11724554747343063
186,4,128,5,0.47723618149757385,0.15750420093536377
186,4,128,6,0.4955103397369385,0.136379212141037
186,4,128,7,0.5477051138877869,0.15905876457691193
186,4,128,8,0.5238049626350403,0.24322043359279633
186,4,128,9,0.44416913390159607,0.2475542575120926
186,4,128,10,0.4557425081729889,0.14242778718471527
186,4,128,11,0.49842965602874756,0.21611233055591583
186,4,128,12,0.7513659596443176,0.08857902884483337
186,4,128,13,0.5535668730735779,0.23301197588443756
186,4,128,14,0.5265744924545288,0.26230236887931824
186,4,128,15,0.6056016087532043,0.24859832227230072
186,4,128,16,0.4340783953666687,0.1908590942621231
186,4,128,17,0.6366246938705444,0.11144028604030609
186,4,128,18,0.4471331536769867,0.2633979618549347
186,4,128,19,0.5046660900115967,0.2860722541809082
186,4,128,20,0.432172954082489,0.11828737705945969
186,4,128,21,0.6023938059806824,0.13382278382778168
186,4,128,22,0.4399404227733612,0.17694196105003357
186,4,128,23,0.5008898973464966,0.26929229497909546
186,4,128,24,0.5842154026031494,0.2246958613395691
186,4,128,25,0.4706006348133087,0.1829914003610611
186,4,128,26,0.48019102215766907,0.1860131174325943
186,4,128,27,0.5323647856712341,0.21705493330955505
186,4,128,28,0.5246028900146484,0.0970396101474762
186,4,128,29,0.519204318523407,0.17971521615982056
186,4,128,30,0.6201666593551636,0.11195717006921768
186,4,128,31,0.4983397126197815,0.3074973523616791
186,4,128,32,0.43635737895965576,0.19876396656036377
186,4,128,33,0.6073787808418274,0.21298807859420776
186,4,128,34,0.4755517542362213,0.18844999372959137
186,4,128,35,0.46059539914131165,0.19274824857711792
186,4,128,36,0.5537284016609192,0.14070235192775726
186,4,128,37,0.6492725014686584,0.1273597925901413
186,4,128,38,0.5287075638771057,0.23413275182247162
186,4,128,39,0.5292890071868896,0.28994235396385193
186,4,128,40,0.5014976859092712,0.18496492505073547
186,4,128,41,0.6154155135154724,0.17461331188678741
186,4,128,42,0.5585073232650757,0.24403326213359833
186,4,128,43,0.49597832560539246,0.24495168030261993
186,4,128,44,0.33663803339004517,0.14202357828617096
186,4,128,45,0.5849730372428894,0.12626126408576965
186,4,128,46,0.5684041976928711,0.12845748662948608
186,4,128,47,0.4432550072669983,0.13723118603229523
186,4,128,48,0.5861622095108032,0.209024116396904
186,4,128,49,0.5376399159431458,0.22274567186832428
186,4,128,50,0.5884599089622498,0.22823534905910492
186,4,128,51,0.6298753023147583,0.11071965098381042
186,4,128,52,0.4250197410583496,0.2342478483915329
186,4,128,53,0.49125415086746216,0.1799672394990921
186,4,128,54,0.5265329480171204,0.16279281675815582
186,4,128,55,0.7062033414840698,0.11600290983915329
186,4,128,56,0.5864049196243286,0.20500598847866058
186,4,128,57,0.716316819190979,0.10871660709381104
186,4,128,58,0.5971591472625732,0.153765007853508
186,4,128,59,0.6060705780982971,0.10260655730962753
186,4,128,60,0.5919580459594727,0.1884278804063797
186,4,128,61,0.5657846927642822,0.11578307300806046
186,4,128,62,0.4452971816062927,0.12519431114196777
186,4,128,63,0.5544684529304504,0.24579128623008728
186,4,128,64,0.49190419912338257,0.22197961807250977
186,4,128,65,0.5004269480705261,0.11651294678449631
186,4,128,66,0.5359688997268677,0.20276042819023132
186,4,128,67,0.5842589735984802,0.09972219914197922
186,4,128,68,0.5399541258811951,0.24223749339580536
186,4,128,69,0.5660050511360168,0.0899689570069313
186,4,128,70,0.563067615032196,0.1817871332168579
186,4,128,71,0.5196726322174072,0.17166757583618164
186,4,128,72,0.5400723218917847,0.2797231674194336
186,4,128,73,0.6173461079597473,0.20325985550880432
186,4,128,74,0.5975286364555359,0.17056895792484283
186,4,128,75,0.596879780292511,0.22282853722572327
186,4,128,76,0.500031590461731,0.1916930079460144
186,4,128,77,0.3910360336303711,0.13286814093589783
186,4,128,78,0.6895576119422913,0.13834890723228455
186,4,128,79,0.6068865656852722,0.10050151497125626
186,4,128,80,0.4877289831638336,0.1669122725725174
186,4,128,81,0.5958166718482971,0.20575471222400665
186,4,128,82,0.5344420075416565,0.2416871190071106
186,4,128,83,0.4644245207309723,0.08789491653442383
186,4,128,84,0.576535701751709,0.1433553248643875
186,4,128,85,0.5072954893112183,0.1785290539264679
186,4,128,86,0.4959608018398285,0.19629791378974915
186,4,128,87,0.5412024855613708,0.20970237255096436
186,4,128,88,0.5333918929100037,0.2612045705318451
186,4,128,89,0.43380868434906006,0.15618294477462769
186,4,128,90,0.5248010754585266,0.21874825656414032
186,4,128,91,0.5424427390098572,0.14032095670700073
186,4,128,92,0.5929421186447144,0.1255209892988205
186,4,128,93,0.3894212245941162,0.2255512923002243
186,4,128,94,0.5834555625915527,0.23800429701805115
186,4,128,95,0.44312986731529236,0.12371883541345596
186,4,128,96,0.6843761801719666,0.17126189172267914
186,4,128,97,0.453494131565094,0.17266754806041718
186,4,128,98,0.5436173677444458,0.15546764433383942
186,4,128,99,0.4661593735218048,0.18265856802463531
186,4,128,100,0.631930410861969,0.21009187400341034
186,4,128,101,0.6467055678367615,0.10457693785429001
186,4,128,102,0.4728039503097534,0.17416678369045258
186,4,128,103,0.5355059504508972,0.12990866601467133
186,4,128,104,0.6000602841377258,0.18199549615383148
186,4,128,105,0.47244498133659363,0.24186864495277405
186,4,128,106,0.5861449241638184,0.10116390138864517
186,4,128,107,0.45012688636779785,0.1467849761247635
186,4,128,108,0.4062126576900482,0.12157812714576721
186,4,128,109,0.47478196024894714,0.0969952791929245
186,4,128,110,0.6700966358184814,0.09160575270652771
186,4,128,111,0.43169206380844116,0.1629604697227478
186,4,128,112,0.5053023099899292,0.19187714159488678
186,4,128,113,0.6172935366630554,0.15753041207790375
186,4,128,114,0.48351985216140747,0.15668131411075592
186,4,128,115,0.5181981921195984,0.23805522918701172
186,4,128,116,0.4749070107936859,0.14344698190689087
186,4,128,117,0.5672757625579834,0.13477392494678497
186,4,128,118,0.4689268171787262,0.1666930764913559
186,4,128,119,0.4868873655796051,0.19614680111408234
186,4,128,120,0.4667382538318634,0.19817370176315308
186,4,128,121,0.4961930513381958,0.2208685427904129
186,4,128,122,0.5303319096565247,0.18737155199050903
186,4,128,123,0.5002144575119019,0.2589593827724457
186,4,128,124,0.4610033333301544,0.19504360854625702
186,4,128,125,0.4714606702327728,0.1016591414809227
186,4,128,126,0.5880691409111023,0.28016746044158936
186,4,128,127,0.582639217376709,0.2582257091999054
186,5,128,0,0.597651481628418,0.29859980940818787
186,5,128,1,0.7370230555534363,0.1580020934343338
186,5,128,2,0.5687329173088074,0.2094777673482895
186,5,128,3,0.6138350963592529,0.15323564410209656
186,5,128,4,0.40328142046928406,0.18886657059192657
186,5,128,5,0.631799042224884,0.20387832820415497
186,5,128,6,0.44778889417648315,0.2923929691314697
186,5,128,7,0.5693091750144958,0.2051997184753418
186,5,128,8,0.7034528255462646,0.1904163658618927
186,5,128,9,0.4841538965702057,0.2335769683122635
186,5,128,10,0.6463326811790466,0.26869794726371765
186,5,128,11,0.7298858761787415,0.18383748829364777
186,5,128,12,0.6862920522689819,0.27094897627830505
186,5,128,13,0.6338179707527161,0.215780571103096
186,5,128,14,0.6231876015663147,0.2643006145954132
186,5,128,15,0.5194731950759888,0.20722846686840057
186,5,128,16,0.6329718232154846,0.2671050429344177
186,5,128,17,0.3989638090133667,0.08905815333127975
186,5,128,18,0.6271683573722839,0.25009390711784363
186,5,128,19,0.5354276895523071,0.23101890087127686
186,5,128,20,0.8162223696708679,0.08451900631189346
186,5,128,21,0.7788636088371277,0.09898202866315842
186,5,128,22,0.7147372961044312,0.1825120747089386
186,5,128,23,0.5909261703491211,0.31475070118904114
186,5,128,24,0.45398789644241333,0.20451778173446655
186,5,128,25,0.8095642924308777,0.18006643652915955
186,5,128,26,0.7985743880271912,0.0993913933634758
186,5,128,27,0.6715349555015564,0.21633586287498474
186,5,128,28,0.7631978988647461,0.15357768535614014
186,5,128,29,0.6423609852790833,0.30219781398773193
186,5,128,30,0.45886242389678955,0.2365105301141739
186,5,128,31,0.6263401508331299,0.17258131504058838
186,5,128,32,0.668510377407074,0.21351958811283112
186,5,128,33,0.8465213179588318,0.09006251394748688
186,5,128,34,0.5688505172729492,0.2058517336845398
186,5,128,35,0.6154723763465881,0.22839289903640747
186,5,128,36,0.7256795167922974,0.17026002705097198
186,5,128,37,0.36198917031288147,0.14376254379749298
186,5,128,38,0.7863615155220032,0.14713424444198608
186,5,128,39,0.5516711473464966,0.27638646960258484
186,5,128,40,0.6682921051979065,0.1555301398038864
186,5,128,41,0.4799930155277252,0.24053460359573364
186,5,128,42,0.4159502685070038,0.2868322730064392
186,5,128,43,0.6784868836402893,0.17557768523693085
186,5,128,44,0.42436400055885315,0.23909015953540802
186,5,128,45,0.4425661563873291,0.26163002848625183
186,5,128,46,0.5097531080245972,0.2289203405380249
186,5,128,47,0.7773382067680359,0.15838275849819183
186,5,128,48,0.5936130881309509,0.21475273370742798
186,5,128,49,0.6556235551834106,0.21860525012016296
186,5,128,50,0.7777593731880188,0.11888173967599869
186,5,128,51,0.5813512206077576,0.12120754271745682
186,5,128,52,0.7767707109451294,0.14352947473526
186,5,128,53,0.6443035006523132,0.276519775390625
186,5,128,54,0.665334165096283,0.14374014735221863
186,5,128,55,0.81910640001297,0.08869124948978424
186,5,128,56,0.6374538540840149,0.13746806979179382
186,5,128,57,0.8026038408279419,0.11157243698835373
186,5,128,58,0.7762804627418518,0.1191961020231247
186,5,128,59,0.7595435976982117,0.09626036137342453
186,5,128,60,0.8095704913139343,0.18987712264060974
186,5,128,61,0.6967638731002808,0.19054652750492096
186,5,128,62,0.5409126877784729,0.2507688105106354
186,5,128,63,0.708335280418396,0.1602087914943695
186,5,128,64,0.7741503119468689,0.13730710744857788
186,5,128,65,0.7477772235870361,0.12554316222667694
186,5,128,66,0.5154505968093872,0.23688483238220215
186,5,128,67,0.8239640593528748,0.1302536129951477
186,5,128,68,0.8097377419471741,0.10486581921577454
186,5,128,69,0.5669927000999451,0.19014975428581238
186,5,128,70,0.706607460975647,0.16665177047252655
186,5,128,71,0.7958949208259583,0.11409598588943481
186,5,128,72,0.7647280693054199,0.15539677441120148
186,5,128,73,0.44636785984039307,0.2761130630970001
186,5,128,74,0.8378099203109741,0.14931420981884003
186,5,128,75,0.7338298559188843,0.12022051960229874
186,5,128,76,0.6477197408676147,0.20715956389904022
186,5,128,77,0.6289948225021362,0.19603924453258514
186,5,128,78,0.5276321768760681,0.1250534951686859
186,5,128,79,0.6302978992462158,0.17057570815086365
186,5,128,80,0.6952816843986511,0.1724371314048767
186,5,128,81,0.8895004987716675,0.08477725088596344
186,5,128,82,0.39573436975479126,0.29337799549102783
186,5,128,83,0.6275806427001953,0.15618212521076202
186,5,128,84,0.5324982404708862,0.21084830164909363
186,5,128,85,0.47723618149757385,0.24258311092853546
186,5,128,86,0.6122230291366577,0.16676534712314606
186,5,128,87,0.8239752054214478,0.14973106980323792
186,5,128,88,0.696323573589325,0.22871863842010498
186,5,128,89,0.6699413061141968,0.14213444292545319
186,5,128,90,0.8043209314346313,0.12113916873931885
186,5,128,91,0.71953284740448,0.13765068352222443
186,5,128,92,0.751589834690094,0.28233322501182556
186,5,128,93,0.5827325582504272,0.27118992805480957
186,5,128,94,0.3062523305416107,0.11235787719488144
186,5,128,95,0.6145081520080566,0.24070657789707184
186,5,128,96,0.8405624032020569,0.10300865769386292
186,5,128,97,0.6777479648590088,0.2828705906867981
186,5,128,98,0.564662516117096,0.17831571400165558
186,5,128,99,0.7417054772377014,0.1071203202009201
186,5,128,100,0.6626697182655334,0.10585908591747284
186,5,128,101,0.8004208207130432,0.1085701584815979
186,5,128,102,0.7038999795913696,0.15541134774684906
186,5,128,103,0.7706443071365356,0.134673073887825
186,5,128,104,0.5087449550628662,0.1869126707315445
186,5,128,105,0.6181118488311768,0.07876802980899811
186,5,128,106,0.6080030202865601,0.311208575963974
186,5,128,107,0.7224717140197754,0.24938635528087616
186,5,128,108,0.43511998653411865,0.27180635929107666
186,5,128,109,0.6631658673286438,0.17360901832580566
186,5,128,110,0.7633916139602661,0.10750006884336472
186,5,128,111,0.5975816249847412,0.2086411714553833
186,5,128,112,0.7089784741401672,0.17365604639053345
186,5,128,113,0.6493868231773376,0.10510124266147614
186,5,128,114,0.5173375606536865,0.2541109621524811
186,5,128,115,0.7316781878471375,0.13698439300060272
186,5,128,116,0.846398651599884,0.15899057686328888
186,5,128,117,0.612528920173645,0.2792181372642517
186,5,128,118,0.45461252331733704,0.280444860458374
186,5,128,119,0.7372690439224243,0.16181153059005737
186,5,128,120,0.4664457142353058,0.13321097195148468
186,5,128,121,0.4541851878166199,0.2779989540576935
186,5,128,122,0.3916388154029846,0.20615451037883759
186,5,128,123,0.7306270599365234,0.14426031708717346
186,5,128,124,0.585113525390625,0.1948784738779068
186,5,128,125,0.5733932852745056,0.17104336619377136
186,5,128,126,0.8389180302619934,0.1357053816318512
186,5,128,127,0.5486984252929688,0.2435167133808136
188,0,32,0,0.6125204563140869,0.07725559175014496
188,0,32,1,0.4184986650943756,0.058742694556713104
188,0,32,2,0.5687680840492249,0.0796288251876831
188,0,32,3,0.46346330642700195,0.10759999603033066
188,0,32,4,0.47429317235946655,0.03373272344470024
188,0,32,5,0.51908278465271,0.04107292741537094
188,0,32,6,0.568998396396637,0.043232742697000504
188,0,32,7,0.44025716185569763,0.017409617081284523
188,0,32,8,0.40163111686706543,0.06813656538724899
188,0,32,9,0.34981587529182434,0.05605552718043327
188,0,32,10,0.47165149450302124,0.08767618238925934
188,0,32,11,0.5597977042198181,0.06517436355352402
188,0,32,12,0.6025314927101135,0.06481009721755981
188,0,32,13,0.4961225390434265,0.04503307119011879
188,0,32,14,0.5908772349357605,0.0331549346446991
188,0,32,15,0.4346354901790619,0.0853683352470398
188,0,32,16,0.48449498414993286,0.08303818106651306
188,0,32,17,0.47296714782714844,0.08036021888256073
188,0,32,18,0.49087080359458923,0.07476542145013809
188,0,32,19,0.542992353439331,0.0786638855934143
188,0,32,20,0.47571176290512085,0.10514767467975616
188,0,32,21,0.32900696992874146,0.07474332302808762
188,0,32,22,0.4235178828239441,0.08356350660324097
188,0,32,23,0.3825269043445587,0.07353617995977402
188,0,32,24,0.5676984190940857,0.06019306555390358
188,0,32,25,0.5882464647293091,0.061860091984272
188,0,32,26,0.5768165588378906,0.06858472526073456
188,0,32,27,0.49626293778419495,0.12898395955562592
188,0,32,28,0.4387797713279724,0.06754988431930542
188,0,32,29,0.5595666170120239,0.08093232661485672
188,0,32,30,0.4690901041030884,0.07127995043992996
188,0,32,31,0.5448237657546997,0.11364636570215225
188,1,32,0,0.46477657556533813,0.05649532377719879
188,1,32,1,0.43198704719543457,0.06828521192073822
188,1,32,2,0.6003170609474182,0.04046671465039253
188,1,32,3,0.5730590224266052,0.07211591303348541
188,1,32,4,0.3672848343849182,0.03954425826668739
188,1,32,5,0.38716185092926025,0.10639859735965729
188,1,32,6,0.651785135269165,0.09639882296323776
188,1,32,7,0.5807727575302124,0.08363473415374756
188,1,32,8,0.48568466305732727,0.06911242008209229
188,1,32,9,0.41660794615745544,0.031202590093016624
188,1,32,10,0.5608017444610596,0.09875471889972687
188,1,32,11,0.5913998484611511,0.053998641669750214
188,1,32,12,0.5178036689758301,0.08387040346860886
188,1,32,13,0.2775844931602478,0.06474068015813828
188,1,32,14,0.3262069523334503,0.053518664091825485
188,1,32,15,0.5108364820480347,0.08203994482755661
188,1,32,16,0.4953802525997162,0.0782545655965805
188,1,32,17,0.6141631007194519,0.08105038851499557
188,1,32,18,0.288625031709671,0.08208084106445312
188,1,32,19,0.4949197769165039,0.028627606108784676
188,1,32,20,0.45686978101730347,0.09294955432415009
188,1,32,21,0.4536888897418976,0.07296668738126755
188,1,32,22,0.3177584409713745,0.05178399011492729
188,1,32,23,0.36455482244491577,0.05383005738258362
188,1,32,24,0.5373993515968323,0.15017782151699066
188,1,32,25,0.48377999663352966,0.03491921350359917
188,1,32,26,0.35893213748931885,0.0666753500699997
188,1,32,27,0.37990081310272217,0.10285352915525436
188,1,32,28,0.4919987916946411,0.04372742027044296
188,1,32,29,0.4592900276184082,0.09701588749885559
188,1,32,30,0.5665124654769897,0.09743494540452957
188,1,32,31,0.5568705797195435,0.11181141436100006
188,2,64,0,0.6508598327636719,0.16656546294689178
188,2,64,1,0.6562097072601318,0.05499267578125
188,2,64,2,0.3717465400695801,0.1914338320493698
188,2,64,3,0.6272026896476746,0.12637090682983398
188,2,64,4,0.4502118229866028,0.12439276278018951
188,2,64,5,0.5100553631782532,0.12554723024368286
188,2,64,6,0.6754708290100098,0.07386212050914764
188,2,64,7,0.6458466649055481,0.09201188385486603
188,2,64,8,0.5608731508255005,0.21287527680397034
188,2,64,9,0.5982601046562195,0.10228053480386734
188,2,64,10,0.43910330533981323,0.2171381264925003
188,2,64,11,0.6857457160949707,0.16054904460906982
188,2,64,12,0.3059358596801758,0.05889565870165825
188,2,64,13,0.36278146505355835,0.11523567885160446
188,2,64,14,0.4467860460281372,0.22825361788272858
188,2,64,15,0.4096464216709137,0.11759834736585617
188,2,64,16,0.32571959495544434,0.14582045376300812
188,2,64,17,0.7047920823097229,0.09786120057106018
188,2,64,18,0.6604194045066833,0.1589457094669342
188,2,64,19,0.3948057293891907,0.17723900079727173
188,2,64,20,0.42494672536849976,0.0918988287448883
188,2,64,21,0.6169764995574951,0.0952744111418724
188,2,64,22,0.600945234298706,0.12797771394252777
188,2,64,23,0.622502863407135,0.19395744800567627
188,2,64,24,0.3615545630455017,0.0964532420039177
188,2,64,25,0.38636258244514465,0.09481651335954666
188,2,64,26,0.5493391156196594,0.23716343939304352
188,2,64,27,0.5785371661186218,0.14544668793678284
188,2,64,28,0.4964922070503235,0.061048172414302826
188,2,64,29,0.4396226704120636,0.22628861665725708
188,2,64,30,0.45778688788414,0.07030494511127472
188,2,64,31,0.27441105246543884,0.08095947653055191
188,2,64,32,0.46977242827415466,0.2509770393371582
188,2,64,33,0.41783666610717773,0.08430273085832596
188,2,64,34,0.6693111062049866,0.059448689222335815
188,2,64,35,0.36370572447776794,0.10833626985549927
188,2,64,36,0.44931650161743164,0.1372835487127304
188,2,64,37,0.4223986566066742,0.19560423493385315
188,2,64,38,0.6151793003082275,0.1050635427236557
188,2,64,39,0.5832335948944092,0.17979994416236877
188,2,64,40,0.4616512358188629,0.15320663154125214
188,2,64,41,0.49680137634277344,0.15988843142986298
188,2,64,42,0.6360824704170227,0.14208678901195526
188,2,64,43,0.4904410243034363,0.1434132307767868
188,2,64,44,0.43923062086105347,0.13374590873718262
188,2,64,45,0.38762277364730835,0.1711471527814865
188,2,64,46,0.561167299747467,0.09442723542451859
188,2,64,47,0.3003244698047638,0.07822734862565994
188,2,64,48,0.6062451601028442,0.0755750983953476
188,2,64,49,0.5563915371894836,0.10563214868307114
188,2,64,50,0.5099349021911621,0.24915477633476257
188,2,64,51,0.38770854473114014,0.08757761120796204
188,2,64,52,0.3826219439506531,0.11842770129442215
188,2,64,53,0.4655360281467438,0.10856679081916809
188,2,64,54,0.41610148549079895,0.19586963951587677
188,2,64,55,0.5535132884979248,0.104249969124794
188,2,64,56,0.6452747583389282,0.1513892561197281
188,2,64,57,0.556415855884552,0.12576399743556976
188,2,64,58,0.5360638499259949,0.22188133001327515
188,2,64,59,0.6293764114379883,0.06730563938617706
188,2,64,60,0.33501285314559937,0.15004625916481018
188,2,64,61,0.554785966873169,0.13084672391414642
188,2,64,62,0.5051267147064209,0.2190730720758438
188,2,64,63,0.6059502363204956,0.06262250989675522
188,3,64,0,0.4515603184700012,0.11424987763166428
188,3,64,1,0.5524123311042786,0.07065904140472412
188,3,64,2,0.3910389542579651,0.16204790771007538
188,3,64,3,0.6527581214904785,0.06226044520735741
188,3,64,4,0.4760880768299103,0.04650965332984924
188,3,64,5,0.44764214754104614,0.11627490818500519
188,3,64,6,0.4466148912906647,0.0700712502002716
188,3,64,7,0.5277402997016907,0.0949748307466507
188,3,64,8,0.5043823719024658,0.12778134644031525
188,3,64,9,0.5444076061248779,0.04929765313863754
188,3,64,10,0.4309491217136383,0.12206021696329117
188,3,64,11,0.6621870398521423,0.07919156551361084
188,3,64,12,0.39347246289253235,0.06145868077874184
188,3,64,13,0.35374873876571655,0.05370483919978142
188,3,64,14,0.517384946346283,0.07402472198009491
188,3,64,15,0.5191437005996704,0.06637520343065262
188,3,64,16,0.46244046092033386,0.07564578205347061
188,3,64,17,0.5034052729606628,0.09473620355129242
188,3,64,18,0.49188709259033203,0.09274664521217346
188,3,64,19,0.5298084616661072,0.08098360896110535
188,3,64,20,0.5390397906303406,0.041117552667856216
188,3,64,21,0.5830903053283691,0.0553092435002327
188,3,64,22,0.31036576628685,0.0887283906340599
188,3,64,23,0.42990872263908386,0.07516290247440338
188,3,64,24,0.5274292230606079,0.06974925100803375
188,3,64,25,0.6136932373046875,0.08247911930084229
188,3,64,26,0.30904480814933777,0.11617748439311981
188,3,64,27,0.47980996966362,0.04585779458284378
188,3,64,28,0.5500732064247131,0.07172275334596634
188,3,64,29,0.37760406732559204,0.07855088263750076
188,3,64,30,0.5877333879470825,0.09669601172208786
188,3,64,31,0.5359271168708801,0.11154431849718094
188,3,64,32,0.39659619331359863,0.13719594478607178
188,3,64,33,0.5069312453269958,0.08798013627529144
188,3,64,34,0.6132887005805969,0.10585395991802216
188,3,64,35,0.6230327486991882,0.097905233502388
188,3,64,36,0.5314494967460632,0.09882685542106628
188,3,64,37,0.4614180624485016,0.08574189245700836
188,3,64,38,0.5175938010215759,0.06729436665773392
188,3,64,39,0.5548375248908997,0.14579252898693085
188,3,64,40,0.3263092041015625,0.128109410405159
188,3,64,41,0.3892660140991211,0.08139970153570175
188,3,64,42,0.46209535002708435,0.0948052778840065
188,3,64,43,0.48946794867515564,0.11247728019952774
188,3,64,44,0.49963444471359253,0.09498454630374908
188,3,64,45,0.4405611753463745,0.10813382267951965
188,3,64,46,0.44353073835372925,0.12348446249961853
188,3,64,47,0.4765835702419281,0.06734496355056763
188,3,64,48,0.4694681763648987,0.08245222270488739
188,3,64,49,0.6540763974189758,0.07653423398733139
188,3,64,50,0.39603692293167114,0.09574568271636963
188,3,64,51,0.5210911631584167,0.11871396005153656
188,3,64,52,0.3998584747314453,0.1049201712012291
188,3,64,53,0.3053768277168274,0.0879068598151207
188,3,64,54,0.31489312648773193,0.07570866495370865
188,3,64,55,0.3300320506095886,0.09487292915582657
188,3,64,56,0.5396094918251038,0.06264164298772812
188,3,64,57,0.3585759401321411,0.0820687785744667
188,3,64,58,0.5131222605705261,0.08032757043838501
188,3,64,59,0.35649046301841736,0.08392202109098434
188,3,64,60,0.5460469722747803,0.0817374736070633
188,3,64,61,0.4370303750038147,0.0732228234410286
188,3,64,62,0.5512645840644836,0.07640185207128525
188,3,64,63,0.5143659710884094,0.0468132384121418
188,4,128,0,0.5607687830924988,0.08225517719984055
188,4,128,1,0.5444532632827759,0.07067034393548965
188,4,128,2,0.5833466649055481,0.1306483894586563
188,4,128,3,0.6114236116409302,0.1633724570274353
188,4,128,4,0.5215862393379211,0.0573389008641243
188,4,128,5,0.4551030397415161,0.11743763834238052
188,4,128,6,0.6632981896400452,0.2015596479177475
188,4,128,7,0.4236966073513031,0.07057346403598785
188,4,128,8,0.8203867673873901,0.14074742794036865
188,4,128,9,0.3811253011226654,0.10927638411521912
188,4,128,10,0.7828865647315979,0.18815499544143677
188,4,128,11,0.4827685058116913,0.05166877433657646
188,4,128,12,0.3461982011795044,0.17987684905529022
188,4,128,13,0.6604065299034119,0.11270659416913986
188,4,128,14,0.49309590458869934,0.12352045625448227
188,4,128,15,0.49596256017684937,0.19610543549060822
188,4,128,16,0.5846284627914429,0.13243162631988525
188,4,128,17,0.6011080145835876,0.12031982839107513
188,4,128,18,0.5088540315628052,0.09081804752349854
188,4,128,19,0.2925666272640228,0.0784282386302948
188,4,128,20,0.5068233013153076,0.14517860114574432
188,4,128,21,0.5522051453590393,0.12942340970039368
188,4,128,22,0.7504380345344543,0.15937571227550507
188,4,128,23,0.5168236494064331,0.1168842762708664
188,4,128,24,0.2725070118904114,0.14142554998397827
188,4,128,25,0.5004239678382874,0.16801373660564423
188,4,128,26,0.43114253878593445,0.179284006357193
188,4,128,27,0.5691912174224854,0.1751052439212799
188,4,128,28,0.3139113485813141,0.07703021913766861
188,4,128,29,0.7605124115943909,0.13057520985603333
188,4,128,30,0.5708513855934143,0.1511460840702057
188,4,128,31,0.4604834020137787,0.12988728284835815
188,4,128,32,0.31856387853622437,0.09275373071432114
188,4,128,33,0.46793419122695923,0.19435842335224152
188,4,128,34,0.3695123791694641,0.0920051708817482
188,4,128,35,0.5136808156967163,0.21794630587100983
188,4,128,36,0.6168287396430969,0.1464988887310028
188,4,128,37,0.7023508548736572,0.13937899470329285
188,4,128,38,0.5226224660873413,0.14191147685050964
188,4,128,39,0.5099363923072815,0.10773072391748428
188,4,128,40,0.528690755367279,0.16418634355068207
188,4,128,41,0.4802895784378052,0.17710328102111816
188,4,128,42,0.3779503405094147,0.08637500554323196
188,4,128,43,0.5072141885757446,0.12060042470693588
188,4,128,44,0.7305214405059814,0.14057081937789917
188,4,128,45,0.4380212426185608,0.09047769755125046
188,4,128,46,0.41744741797447205,0.17119641602039337
188,4,128,47,0.3662651479244232,0.15728561580181122
188,4,128,48,0.3120199739933014,0.1287251114845276
188,4,128,49,0.6766700744628906,0.13340796530246735
188,4,128,50,0.638768196105957,0.15965698659420013
188,4,128,51,0.6779260039329529,0.16115643084049225
188,4,128,52,0.4270403981208801,0.1428253948688507
188,4,128,53,0.49067774415016174,0.12696371972560883
188,4,128,54,0.5528619885444641,0.15974049270153046
188,4,128,55,0.4565073847770691,0.1095159500837326
188,4,128,56,0.43773096799850464,0.14941897988319397
188,4,128,57,0.5844988822937012,0.07826681435108185
188,4,128,58,0.6277269124984741,0.06994080543518066
188,4,128,59,0.4744413495063782,0.20582233369350433
188,4,128,60,0.3985445201396942,0.1130857914686203
188,4,128,61,0.5889832973480225,0.09384258836507797
188,4,128,62,0.6430914402008057,0.08711473643779755
188,4,128,63,0.49654310941696167,0.05176634341478348
188,4,128,64,0.6175625920295715,0.1407625675201416
188,4,128,65,0.5766617059707642,0.08415021002292633
188,4,128,66,0.5074012875556946,0.15266144275665283
188,4,128,67,0.4220975339412689,0.1654762625694275
188,4,128,68,0.6236329674720764,0.060951098799705505
188,4,128,69,0.33759185671806335,0.10400647670030594
188,4,128,70,0.5146042704582214,0.0747692659497261
188,4,128,71,0.4815678000450134,0.05515367537736893
188,4,128,72,0.7165107727050781,0.1910829246044159
188,4,128,73,0.6732137799263,0.15496794879436493
188,4,128,74,0.5269521474838257,0.1374027580022812
188,4,128,75,0.6080108880996704,0.09532657265663147
188,4,128,76,0.4497838020324707,0.10266591608524323
188,4,128,77,0.7216859459877014,0.183641254901886
188,4,128,78,0.5210801959037781,0.1659257560968399
188,4,128,79,0.6155473589897156,0.27532780170440674
188,4,128,80,0.5539831519126892,0.17201712727546692
188,4,128,81,0.4713323414325714,0.24506552517414093
188,4,128,82,0.5730851292610168,0.1611587107181549
188,4,128,83,0.7125962376594543,0.10170972347259521
188,4,128,84,0.5309317708015442,0.03882778435945511
188,4,128,85,0.7210351228713989,0.1820651739835739
188,4,128,86,0.7538030743598938,0.17236930131912231
188,4,128,87,0.7951017618179321,0.15472905337810516
188,4,128,88,0.7090726494789124,0.1636338233947754
188,4,128,89,0.5652728080749512,0.20480534434318542
188,4,128,90,0.5168412923812866,0.1676759123802185
188,4,128,91,0.6222158074378967,0.21391385793685913
188,4,128,92,0.38932931423187256,0.16045956313610077
188,4,128,93,0.49277445673942566,0.08370403200387955
188,4,128,94,0.39530813694000244,0.11863362044095993
188,4,128,95,0.4886687397956848,0.1134529858827591
188,4,128,96,0.6051981449127197,0.11813908070325851
188,4,128,97,0.3198159337043762,0.1385219693183899
188,4,128,98,0.634354293346405,0.16778554022312164
188,4,128,99,0.5165571570396423,0.2385479360818863
188,4,128,100,0.5387238264083862,0.09225308150053024
188,4,128,101,0.5981024503707886,0.12822069227695465
188,4,128,102,0.46375763416290283,0.08074282109737396
188,4,128,103,0.4370630085468292,0.13005377352237701
188,4,128,104,0.3361910879611969,0.11674458533525467
188,4,128,105,0.6038044095039368,0.12179587036371231
188,4,128,106,0.7629510760307312,0.16526654362678528
188,4,128,107,0.5003118515014648,0.1690751016139984
188,4,128,108,0.6941414475440979,0.12639380991458893
188,4,128,109,0.5146050453186035,0.08245515078306198
188,4,128,110,0.4840603470802307,0.17689791321754456
188,4,128,111,0.5087665319442749,0.2034219354391098
188,4,128,112,0.5213490724563599,0.11157214641571045
188,4,128,113,0.530916690826416,0.04403501749038696
188,4,128,114,0.5332562327384949,0.14533062279224396
188,4,128,115,0.48274239897727966,0.24809840321540833
188,4,128,116,0.5957963466644287,0.07941091805696487
188,4,128,117,0.5383954644203186,0.0748254805803299
188,4,128,118,0.6056268811225891,0.0411435067653656
188,4,128,119,0.5349078178405762,0.11344362795352936
188,4,128,120,0.6487225890159607,0.23812153935432434
188,4,128,121,0.6794975996017456,0.16619598865509033
188,4,128,122,0.3490387499332428,0.14085842669010162
188,4,128,123,0.6353165507316589,0.09175039082765579
188,4,128,124,0.4912797808647156,0.2048300951719284
188,4,128,125,0.5542909502983093,0.13975568115711212
188,4,128,126,0.6081509590148926,0.11210282146930695
188,4,128,127,0.7648716568946838,0.22675390541553497
188,5,128,0,0.45738276839256287,0.07298844307661057
188,5,128,1,0.6175490021705627,0.1520279347896576
188,5,128,2,0.59975266456604,0.07624254375696182
188,5,128,3,0.44852933287620544,0.11136085540056229
188,5,128,4,0.41864484548568726,0.13855314254760742
188,5,128,5,0.691119909286499,0.08485550433397293
188,5,128,6,0.6400445699691772,0.14807015657424927
188,5,128,7,0.6394506096839905,0.08713452517986298
188,5,128,8,0.7005857825279236,0.2142203003168106
188,5,128,9,0.5965489745140076,0.11459442973136902
188,5,128,10,0.60182124376297,0.14725153148174286
188,5,128,11,0.5399623513221741,0.07069171965122223
188,5,128,12,0.5528887510299683,0.08735248446464539
188,5,128,13,0.6868956089019775,0.11874235421419144
188,5,128,14,0.691254734992981,0.1747753918170929
188,5,128,15,0.6517016887664795,0.08181841671466827
188,5,128,16,0.4638873040676117,0.04841507226228714
188,5,128,17,0.406927227973938,0.07835166901350021
188,5,128,18,0.37358516454696655,0.09956713020801544
188,5,128,19,0.4558582901954651,0.10441069304943085
188,5,128,20,0.6335847973823547,0.12410242855548859
188,5,128,21,0.6660435199737549,0.21499407291412354
188,5,128,22,0.7177035808563232,0.1903906911611557
188,5,128,23,0.6805326342582703,0.13086238503456116
188,5,128,24,0.6172593832015991,0.19960126280784607
188,5,128,25,0.6602055430412292,0.08469559997320175
188,5,128,26,0.735257625579834,0.1099267229437828
188,5,128,27,0.3619868755340576,0.11467638611793518
188,5,128,28,0.3251342475414276,0.1486586481332779
188,5,128,29,0.7516021728515625,0.17635852098464966
188,5,128,30,0.6277726292610168,0.15585066378116608
188,5,128,31,0.4947265386581421,0.10608400404453278
188,5,128,32,0.5350275039672852,0.05886461213231087
188,5,128,33,0.5741739273071289,0.09148402512073517
188,5,128,34,0.6302215456962585,0.0947321206331253
188,5,128,35,0.522334098815918,0.06809760630130768
188,5,128,36,0.5971524715423584,0.08800800144672394
188,5,128,37,0.6156994700431824,0.08298544585704803
188,5,128,38,0.6178819537162781,0.11673646420240402
188,5,128,39,0.5504134297370911,0.06089622527360916
188,5,128,40,0.33953651785850525,0.12967994809150696
188,5,128,41,0.6854282021522522,0.134687602519989
188,5,128,42,0.3194226622581482,0.1462438553571701
188,5,128,43,0.5288714170455933,0.10221561789512634
188,5,128,44,0.7539217472076416,0.12430267781019211
188,5,128,45,0.6207544207572937,0.19274049997329712
188,5,128,46,0.580070972442627,0.1541324406862259
188,5,128,47,0.4534093141555786,0.07932855933904648
188,5,128,48,0.6630920767784119,0.09206724911928177
188,5,128,49,0.5628302097320557,0.06140177696943283
188,5,128,50,0.632419764995575,0.1823056936264038
188,5,128,51,0.5733193159103394,0.08296731859445572
188,5,128,52,0.6586552262306213,0.12367814034223557
188,5,128,53,0.5324109196662903,0.08291493356227875
188,5,128,54,0.6482606530189514,0.09664499014616013
188,5,128,55,0.34561800956726074,0.22831480205059052
188,5,128,56,0.5394865274429321,0.04814039543271065
188,5,128,57,0.5568863153457642,0.19482962787151337
188,5,128,58,0.3739711344242096,0.12235143035650253
188,5,128,59,0.6716481447219849,0.17558827996253967
188,5,128,60,0.623608410358429,0.1401674449443817
188,5,128,61,0.38175296783447266,0.09305540472269058
188,5,128,62,0.33413776755332947,0.13658861815929413
188,5,128,63,0.5600378513336182,0.130381777882576
188,5,128,64,0.5535544157028198,0.07073540985584259
188,5,128,65,0.5953212976455688,0.0800854042172432
188,5,128,66,0.6539618372917175,0.12316864728927612
188,5,128,67,0.6248564720153809,0.1443193107843399
188,5,128,68,0.4963923990726471,0.09866676479578018
188,5,128,69,0.3867006301879883,0.14733101427555084
188,5,128,70,0.4604019820690155,0.058512333780527115
188,5,128,71,0.480358749628067,0.04137415438890457
188,5,128,72,0.5573697090148926,0.10249342769384384
188,5,128,73,0.46604102849960327,0.08548283576965332
188,5,128,74,0.5379692316055298,0.09491229057312012
188,5,128,75,0.6318563222885132,0.1522759199142456
188,5,128,76,0.7149044871330261,0.0964621752500534
188,5,128,77,0.751089870929718,0.12287922203540802
188,5,128,78,0.2851032614707947,0.1177741140127182
188,5,128,79,0.4803788661956787,0.0769721046090126
188,5,128,80,0.3299632668495178,0.10073729604482651
188,5,128,81,0.6450914740562439,0.20496048033237457
188,5,128,82,0.526080310344696,0.06315743923187256
188,5,128,83,0.7019233703613281,0.2619307339191437
188,5,128,84,0.4840987026691437,0.15558937191963196
188,5,128,85,0.6824281811714172,0.1463947892189026
188,5,128,86,0.7181839942932129,0.2096967250108719
188,5,128,87,0.713111162185669,0.20079918205738068
188,5,128,88,0.6943584680557251,0.17687001824378967
188,5,128,89,0.6198911070823669,0.11539922654628754
188,5,128,90,0.45532721281051636,0.05271163210272789
188,5,128,91,0.5531019568443298,0.18274939060211182
188,5,128,92,0.6092381477355957,0.11083546280860901
188,5,128,93,0.715209424495697,0.1168534979224205
188,5,128,94,0.5768150091171265,0.04382053017616272
188,5,128,95,0.6220642924308777,0.1159498319029808
188,5,128,96,0.6412858963012695,0.1023322120308876
188,5,128,97,0.673695981502533,0.08219116181135178
188,5,128,98,0.6369820833206177,0.08498471975326538
188,5,128,99,0.6087396740913391,0.15005236864089966
188,5,128,100,0.6179714202880859,0.2139563262462616
188,5,128,101,0.4640527367591858,0.07937467098236084
188,5,128,102,0.5911601781845093,0.08030399680137634
188,5,128,103,0.5866051316261292,0.07422895729541779
188,5,128,104,0.6961002945899963,0.10827171057462692
188,5,128,105,0.5227944254875183,0.1251281499862671
188,5,128,106,0.6025733351707458,0.13109368085861206
188,5,128,107,0.6474663019180298,0.08988804370164871
188,5,128,108,0.6700655221939087,0.21645691990852356
188,5,128,109,0.5614346265792847,0.06926972419023514
188,5,128,110,0.6418512463569641,0.14283490180969238
188,5,128,111,0.609845757484436,0.15797725319862366
188,5,128,112,0.7544839978218079,0.1322762817144394
188,5,128,113,0.5406083464622498,0.09229819476604462
188,5,128,114,0.5071834325790405,0.1233067438006401
188,5,128,115,0.6736840605735779,0.2536732256412506
188,5,128,116,0.6614839434623718,0.24617435038089752
188,5,128,117,0.6672882437705994,0.11226962506771088
188,5,128,118,0.586472749710083,0.04154624417424202
188,5,128,119,0.5241696238517761,0.12410017102956772
188,5,128,120,0.7413647174835205,0.17503178119659424
188,5,128,121,0.6584280729293823,0.21223841607570648
188,5,128,122,0.4377206861972809,0.08198070526123047
188,5,128,123,0.3639165461063385,0.23292683064937592
188,5,128,124,0.3094089925289154,0.12129456549882889
188,5,128,125,0.5986778736114502,0.04117230325937271
188,5,128,126,0.5794534683227539,0.14788807928562164
188,5,128,127,0.5847486853599548,0.21682420372962952
189,0,32,0,0.33528944849967957,0.1163383275270462
189,0,32,1,0.388692706823349,0.11498145759105682
189,0,32,2,0.3894274830818176,0.1275663673877716
189,0,32,3,0.37934812903404236,0.049824703484773636
189,0,32,4,0.49091073870658875,0.12586160004138947
189,0,32,5,0.31537002325057983,0.1050647720694542
189,0,32,6,0.4362145662307739,0.05910079926252365
189,0,32,7,0.4041423499584198,0.04337083175778389
189,0,32,8,0.39428362250328064,0.06697158515453339
189,0,32,9,0.48502570390701294,0.07850205898284912
189,0,32,10,0.4714849889278412,0.11896508932113647
189,0,32,11,0.3370186984539032,0.14102058112621307
189,0,32,12,0.4031527638435364,0.06167129799723625
189,0,32,13,0.3809763193130493,0.08345770090818405
189,0,32,14,0.5878521800041199,0.1382112205028534
189,0,32,15,0.6375980377197266,0.0832638368010521
189,0,32,16,0.3571377694606781,0.0440559908747673
189,0,32,17,0.6454366445541382,0.09023649245500565
189,0,32,18,0.6385207176208496,0.08977396786212921
189,0,32,19,0.3564624488353729,0.1577840894460678
189,0,32,20,0.5257422924041748,0.08652801066637039
189,0,32,21,0.5295068621635437,0.03431972861289978
189,0,32,22,0.48073938488960266,0.11179105192422867
189,0,32,23,0.4275953769683838,0.0886114239692688
189,0,32,24,0.5956260561943054,0.13888315856456757
189,0,32,25,0.45844152569770813,0.035736020654439926
189,0,32,26,0.531528890132904,0.09915942698717117
189,0,32,27,0.4046698212623596,0.161688432097435
189,0,32,28,0.558262288570404,0.09554276615381241
189,0,32,29,0.5381078720092773,0.05422438308596611
189,0,32,30,0.4804796576499939,0.09786229580640793
189,0,32,31,0.5757420063018799,0.03595294430851936
189,1,32,0,0.3357635736465454,0.09095066785812378
189,1,32,1,0.6434488296508789,0.0508015900850296
189,1,32,2,0.44440895318984985,0.01911386474967003
189,1,32,3,0.4214989244937897,0.08364666253328323
189,1,32,4,0.45049163699150085,0.0774744302034378
189,1,32,5,0.3299594819545746,0.0980578139424324
189,1,32,6,0.4121474325656891,0.1151677593588829
189,1,32,7,0.5623506307601929,0.0894007608294487
189,1,32,8,0.5457615852355957,0.1128339096903801
189,1,32,9,0.4370774030685425,0.09841245412826538
189,1,32,10,0.40896308422088623,0.08637937158346176
189,1,32,11,0.518064558506012,0.1589464545249939
189,1,32,12,0.5433493852615356,0.13823848962783813
189,1,32,13,0.5277816653251648,0.06894447654485703
189,1,32,14,0.6524876952171326,0.11183434724807739
189,1,32,15,0.610496997833252,0.05625740811228752
189,1,32,16,0.45110902190208435,0.09682078659534454
189,1,32,17,0.5371216535568237,0.0802711769938469
189,1,32,18,0.40389284491539,0.06823848932981491
189,1,32,19,0.5578708648681641,0.08522170037031174
189,1,32,20,0.4472775459289551,0.06385594606399536
189,1,32,21,0.502617359161377,0.08585050702095032
189,1,32,22,0.3713856041431427,0.12761066854000092
189,1,32,23,0.4742562174797058,0.062326762825250626
189,1,32,24,0.5048100352287292,0.09006304293870926
189,1,32,25,0.3421372175216675,0.06665320694446564
189,1,32,26,0.43027859926223755,0.051589157432317734
189,1,32,27,0.5648303031921387,0.05658767744898796
189,1,32,28,0.5534337162971497,0.06693236529827118
189,1,32,29,0.470486581325531,0.12204387038946152
189,1,32,30,0.5398240089416504,0.15028154850006104
189,1,32,31,0.4079211950302124,0.09609747678041458
189,2,64,0,0.4447263181209564,0.12653233110904694
189,2,64,1,0.3856556713581085,0.08818056434392929
189,2,64,2,0.4022800326347351,0.20668421685695648
189,2,64,3,0.5430477857589722,0.11730995029211044
189,2,64,4,0.534864604473114,0.09073414653539658
189,2,64,5,0.36095577478408813,0.1392703503370285
189,2,64,6,0.6557879447937012,0.09412150084972382
189,2,64,7,0.5010145902633667,0.07989323884248734
189,2,64,8,0.46828094124794006,0.08593456447124481
189,2,64,9,0.48966383934020996,0.1554291993379593
189,2,64,10,0.4230388104915619,0.17106975615024567
189,2,64,11,0.4430970549583435,0.1427842676639557
189,2,64,12,0.5248478055000305,0.11284155398607254
189,2,64,13,0.5194259881973267,0.08029735088348389
189,2,64,14,0.4050467312335968,0.11116766184568405
189,2,64,15,0.5645607709884644,0.17997214198112488
189,2,64,16,0.5072129964828491,0.08080057799816132
189,2,64,17,0.5088042616844177,0.04053480550646782
189,2,64,18,0.4580557644367218,0.10589200258255005
189,2,64,19,0.47887304425239563,0.15501156449317932
189,2,64,20,0.5834601521492004,0.1336645931005478
189,2,64,21,0.6258436441421509,0.2525179386138916
189,2,64,22,0.4563687741756439,0.1160513237118721
189,2,64,23,0.5637467503547668,0.0872296690940857
189,2,64,24,0.4127252399921417,0.12796655297279358
189,2,64,25,0.41669362783432007,0.07267504185438156
189,2,64,26,0.39324915409088135,0.11718707531690598
189,2,64,27,0.4886975586414337,0.0995333343744278
189,2,64,28,0.46154025197029114,0.16647876799106598
189,2,64,29,0.579992949962616,0.07691735774278641
189,2,64,30,0.6654332280158997,0.09240235388278961
189,2,64,31,0.5104145407676697,0.18848153948783875
189,2,64,32,0.39310353994369507,0.10576731711626053
189,2,64,33,0.6363693475723267,0.04813262075185776
189,2,64,34,0.6900578737258911,0.22235150635242462
189,2,64,35,0.44343000650405884,0.11409443616867065
189,2,64,36,0.4118247628211975,0.14632903039455414
189,2,64,37,0.39343783259391785,0.12269631773233414
189,2,64,38,0.7435242533683777,0.1927211880683899
189,2,64,39,0.5867847800254822,0.06897927075624466
189,2,64,40,0.48781660199165344,0.16198544204235077
189,2,64,41,0.638386070728302,0.23404450714588165
189,2,64,42,0.3360157310962677,0.13390527665615082
189,2,64,43,0.4733061194419861,0.05751617252826691
189,2,64,44,0.33926376700401306,0.18647471070289612
189,2,64,45,0.5094319581985474,0.050713490694761276
189,2,64,46,0.5976763963699341,0.2193240076303482
189,2,64,47,0.32408857345581055,0.07239620387554169
189,2,64,48,0.48842597007751465,0.13671693205833435
189,2,64,49,0.5142393112182617,0.06844716519117355
189,2,64,50,0.47063809633255005,0.11355355381965637
189,2,64,51,0.38239359855651855,0.1718893200159073
189,2,64,52,0.5868485569953918,0.14989949762821198
189,2,64,53,0.37688493728637695,0.16889725625514984
189,2,64,54,0.5903107523918152,0.23327872157096863
189,2,64,55,0.6135849356651306,0.09435376524925232
189,2,64,56,0.6857783198356628,0.24104072153568268
189,2,64,57,0.616456925868988,0.14143753051757812
189,2,64,58,0.599282443523407,0.09173095226287842
189,2,64,59,0.5300480723381042,0.17672426998615265
189,2,64,60,0.3339219391345978,0.10795888304710388
189,2,64,61,0.5862559080123901,0.07373111695051193
189,2,64,62,0.5675392150878906,0.16528096795082092
189,2,64,63,0.41773274540901184,0.13035018742084503
189,3,64,0,0.7062035202980042,0.10012659430503845
189,3,64,1,0.4232262074947357,0.1294272392988205
189,3,64,2,0.4225156903266907,0.14911246299743652
189,3,64,3,0.5621156096458435,0.11640801280736923
189,3,64,4,0.6346024870872498,0.241163432598114
189,3,64,5,0.5375487804412842,0.07292893528938293
189,3,64,6,0.4305361211299896,0.04961675778031349
189,3,64,7,0.3750985860824585,0.21589472889900208
189,3,64,8,0.3601885735988617,0.17615149915218353
189,3,64,9,0.3704253137111664,0.11290815472602844
189,3,64,10,0.44527551531791687,0.3007456958293915
189,3,64,11,0.4511452615261078,0.16111306846141815
189,3,64,12,0.3559882342815399,0.15806670486927032
189,3,64,13,0.45721185207366943,0.25992512702941895
189,3,64,14,0.379728764295578,0.2298072725534439
189,3,64,15,0.2869538366794586,0.2037944346666336
189,3,64,16,0.47934967279434204,0.25081947445869446
189,3,64,17,0.41818860173225403,0.17680814862251282
189,3,64,18,0.4793177843093872,0.24408835172653198
189,3,64,19,0.3431664705276489,0.20418138802051544
189,3,64,20,0.5682264566421509,0.24139165878295898
189,3,64,21,0.5522500276565552,0.23960502445697784
189,3,64,22,0.3044438362121582,0.09972293674945831
189,3,64,23,0.5949296951293945,0.20695564150810242
189,3,64,24,0.3488311767578125,0.08283696323633194
189,3,64,25,0.3428916037082672,0.10279354453086853
189,3,64,26,0.3732345998287201,0.16506290435791016
189,3,64,27,0.5553898215293884,0.12698602676391602
189,3,64,28,0.3896408677101135,0.13996870815753937
189,3,64,29,0.5003253221511841,0.33114972710609436
189,3,64,30,0.4874492883682251,0.23855334520339966
189,3,64,31,0.4569932818412781,0.2104405015707016
189,3,64,32,0.4878726303577423,0.252670019865036
189,3,64,33,0.4337528944015503,0.10020145773887634
189,3,64,34,0.4276796281337738,0.31543204188346863
189,3,64,35,0.4013831913471222,0.1177627369761467
189,3,64,36,0.6486753225326538,0.14622430503368378
189,3,64,37,0.6379492282867432,0.20008264482021332
189,3,64,38,0.46034541726112366,0.3347792625427246
189,3,64,39,0.7085514664649963,0.18327021598815918
189,3,64,40,0.4262770712375641,0.1118902638554573
189,3,64,41,0.666711151599884,0.27536943554878235
189,3,64,42,0.6991499066352844,0.16118010878562927
189,3,64,43,0.7449241876602173,0.1396085023880005
189,3,64,44,0.3535308837890625,0.2441903054714203
189,3,64,45,0.40653178095817566,0.17498928308486938
189,3,64,46,0.687179446220398,0.22675955295562744
189,3,64,47,0.6116380095481873,0.13053293526172638
189,3,64,48,0.45867475867271423,0.21548473834991455
189,3,64,49,0.6946488618850708,0.22417300939559937
189,3,64,50,0.33782315254211426,0.19557452201843262
189,3,64,51,0.6190438270568848,0.18182456493377686
189,3,64,52,0.3821372985839844,0.11714411526918411
189,3,64,53,0.33944839239120483,0.13253645598888397
189,3,64,54,0.5191681385040283,0.29915452003479004
189,3,64,55,0.491221159696579,0.23636016249656677
189,3,64,56,0.6219481825828552,0.28411489725112915
189,3,64,57,0.4800060987472534,0.3116039037704468
189,3,64,58,0.5143992304801941,0.23998259007930756
189,3,64,59,0.6656131744384766,0.2336674928665161
189,3,64,60,0.4775342345237732,0.19447743892669678
189,3,64,61,0.7118120789527893,0.2172631323337555
189,3,64,62,0.27259090542793274,0.13517385721206665
189,3,64,63,0.4474111795425415,0.21556974947452545
189,4,128,0,0.5410445928573608,0.3137012720108032
189,4,128,1,0.6161937713623047,0.22629792988300323
189,4,128,2,0.567472517490387,0.13401885330677032
189,4,128,3,0.4569668173789978,0.11136969178915024
189,4,128,4,0.4753270149230957,0.20335981249809265
189,4,128,5,0.5831164717674255,0.11202706396579742
189,4,128,6,0.6441565155982971,0.11958606541156769
189,4,128,7,0.6116597056388855,0.17112722992897034
189,4,128,8,0.474185585975647,0.13527172803878784
189,4,128,9,0.6330451369285583,0.1401975154876709
189,4,128,10,0.46445316076278687,0.18621140718460083
189,4,128,11,0.47199875116348267,0.16232195496559143
189,4,128,12,0.4962700307369232,0.19673298299312592
189,4,128,13,0.608281135559082,0.10911519080400467
189,4,128,14,0.6656838655471802,0.1532353311777115
189,4,128,15,0.5549487471580505,0.18647925555706024
189,4,128,16,0.4926771819591522,0.17356666922569275
189,4,128,17,0.6364586353302002,0.09574282169342041
189,4,128,18,0.4436546564102173,0.13194715976715088
189,4,128,19,0.7041460275650024,0.1836562156677246
189,4,128,20,0.5144770741462708,0.09444653242826462
189,4,128,21,0.5291914343833923,0.1885383278131485
189,4,128,22,0.5687444806098938,0.09086128324270248
189,4,128,23,0.6241747736930847,0.1289246827363968
189,4,128,24,0.5784705281257629,0.2387705296278
189,4,128,25,0.44272366166114807,0.2443116456270218
189,4,128,26,0.35629528760910034,0.10830408334732056
189,4,128,27,0.46762242913246155,0.12978382408618927
189,4,128,28,0.4890669286251068,0.12483779340982437
189,4,128,29,0.6912546157836914,0.08389142900705338
189,4,128,30,0.5227006673812866,0.18836310505867004
189,4,128,31,0.494546502828598,0.2649894654750824
189,4,128,32,0.4402051568031311,0.2725968062877655
189,4,128,33,0.5800381302833557,0.17505192756652832
189,4,128,34,0.5068512558937073,0.12529964745044708
189,4,128,35,0.5156424045562744,0.18507042527198792
189,4,128,36,0.4024575650691986,0.20935264229774475
189,4,128,37,0.4622722268104553,0.26550039649009705
189,4,128,38,0.4310094714164734,0.17007818818092346
189,4,128,39,0.6247812509536743,0.12120761722326279
189,4,128,40,0.6790181398391724,0.08881222456693649
189,4,128,41,0.6316453814506531,0.12266156077384949
189,4,128,42,0.6380612850189209,0.2149040848016739
189,4,128,43,0.5633316040039062,0.11857248097658157
189,4,128,44,0.5735248327255249,0.21413074433803558
189,4,128,45,0.6467636823654175,0.1603919416666031
189,4,128,46,0.5475113391876221,0.12858428061008453
189,4,128,47,0.5017016530036926,0.1725827306509018
189,4,128,48,0.46749165654182434,0.07126325368881226
189,4,128,49,0.5136458277702332,0.22844187915325165
189,4,128,50,0.5518767833709717,0.07006185501813889
189,4,128,51,0.49178242683410645,0.19859297573566437
189,4,128,52,0.48351821303367615,0.21132983267307281
189,4,128,53,0.45908504724502563,0.24788489937782288
189,4,128,54,0.4272637665271759,0.1644226312637329
189,4,128,55,0.4779678285121918,0.17971302568912506
189,4,128,56,0.443165123462677,0.15496417880058289
189,4,128,57,0.6098994016647339,0.10599107295274734
189,4,128,58,0.4462409019470215,0.27684882283210754
189,4,128,59,0.5734773874282837,0.13757838308811188
189,4,128,60,0.6087960004806519,0.14482161402702332
189,4,128,61,0.46609076857566833,0.08603057265281677
189,4,128,62,0.4802294373512268,0.21251055598258972
189,4,128,63,0.581868052482605,0.18363894522190094
189,4,128,64,0.5202351212501526,0.1838657110929489
189,4,128,65,0.5143221616744995,0.0907607302069664
189,4,128,66,0.45016682147979736,0.23628322780132294
189,4,128,67,0.5872687697410583,0.12554849684238434
189,4,128,68,0.6388478875160217,0.10018172115087509
189,4,128,69,0.3566047251224518,0.13571497797966003
189,4,128,70,0.5354673266410828,0.10937154293060303
189,4,128,71,0.6277158260345459,0.10941664129495621
189,4,128,72,0.5349200367927551,0.26447197794914246
189,4,128,73,0.5899621844291687,0.23671340942382812
189,4,128,74,0.49181175231933594,0.1518605500459671
189,4,128,75,0.3784452974796295,0.11294639110565186
189,4,128,76,0.4932774007320404,0.2764682173728943
189,4,128,77,0.3847346305847168,0.13225731253623962
189,4,128,78,0.5681126713752747,0.2445150762796402
189,4,128,79,0.5325192809104919,0.17287345230579376
189,4,128,80,0.543860673904419,0.2185475081205368
189,4,128,81,0.5403574705123901,0.1409953385591507
189,4,128,82,0.5597061514854431,0.2471756488084793
189,4,128,83,0.5898361802101135,0.22990700602531433
189,4,128,84,0.43217766284942627,0.21859534084796906
189,4,128,85,0.47645363211631775,0.14492560923099518
189,4,128,86,0.48347628116607666,0.23915693163871765
189,4,128,87,0.5161300897598267,0.18587523698806763
189,4,128,88,0.6280483603477478,0.10912635177373886
189,4,128,89,0.49857446551322937,0.1278109848499298
189,4,128,90,0.4894895553588867,0.245375856757164
189,4,128,91,0.39473214745521545,0.16700737178325653
189,4,128,92,0.6254088282585144,0.1041741743683815
189,4,128,93,0.6366195678710938,0.11386832594871521
189,4,128,94,0.4505908191204071,0.1532515436410904
189,4,128,95,0.4116725027561188,0.07360082864761353
189,4,128,96,0.610957145690918,0.14542730152606964
189,4,128,97,0.4972860515117645,0.1593477427959442
189,4,128,98,0.6333293914794922,0.09501921385526657
189,4,128,99,0.558590292930603,0.20927059650421143
189,4,128,100,0.5312566757202148,0.3002248704433441
189,4,128,101,0.5851774215698242,0.1753295212984085
189,4,128,102,0.4613233208656311,0.2056661993265152
189,4,128,103,0.5566728115081787,0.169705331325531
189,4,128,104,0.5653546452522278,0.19571644067764282
189,4,128,105,0.5035076141357422,0.20507782697677612
189,4,128,106,0.5483716726303101,0.22189782559871674
189,4,128,107,0.46040284633636475,0.21561966836452484
189,4,128,108,0.551264762878418,0.30446484684944153
189,4,128,109,0.6390697360038757,0.13188616931438446
189,4,128,110,0.43249988555908203,0.2678913176059723
189,4,128,111,0.5122669339179993,0.16138006746768951
189,4,128,112,0.5755820274353027,0.155333012342453
189,4,128,113,0.4739539921283722,0.08876482397317886
189,4,128,114,0.6408130526542664,0.13199521601200104
189,4,128,115,0.5495399236679077,0.08130710572004318
189,4,128,116,0.5623753666877747,0.2901028096675873
189,4,128,117,0.5375860333442688,0.18453645706176758
189,4,128,118,0.4946770966053009,0.2488197535276413
189,4,128,119,0.5433182120323181,0.2353859394788742
189,4,128,120,0.48545312881469727,0.15208780765533447
189,4,128,121,0.5074352025985718,0.23632587492465973
189,4,128,122,0.5240554809570312,0.29662078619003296
189,4,128,123,0.5515050888061523,0.21444235742092133
189,4,128,124,0.4844288229942322,0.04719633236527443
189,4,128,125,0.5271552801132202,0.24875088036060333
189,4,128,126,0.6253036856651306,0.14515890181064606
189,4,128,127,0.46744152903556824,0.11943091452121735
189,5,128,0,0.6778427958488464,0.10244889557361603
189,5,128,1,0.5577203631401062,0.2340220808982849
189,5,128,2,0.5547232627868652,0.3003906011581421
189,5,128,3,0.5611308813095093,0.1327805072069168
189,5,128,4,0.5663334131240845,0.18052944540977478
189,5,128,5,0.3656587302684784,0.1751709282398224
189,5,128,6,0.6290143728256226,0.10378141701221466
189,5,128,7,0.5501038432121277,0.23285257816314697
189,5,128,8,0.5893023014068604,0.17339468002319336
189,5,128,9,0.5488651990890503,0.19575469195842743
189,5,128,10,0.6240622401237488,0.12463560700416565
189,5,128,11,0.6615787148475647,0.1551961600780487
189,5,128,12,0.4246000647544861,0.2038174271583557
189,5,128,13,0.6587772965431213,0.13499069213867188
189,5,128,14,0.6953341364860535,0.13512270152568817
189,5,128,15,0.48461398482322693,0.1879650354385376
189,5,128,16,0.5642431378364563,0.1720152497291565
189,5,128,17,0.526802122592926,0.23337730765342712
189,5,128,18,0.5360403060913086,0.24520528316497803
189,5,128,19,0.534849226474762,0.2755589485168457
189,5,128,20,0.6547201871871948,0.21855396032333374
189,5,128,21,0.5548484325408936,0.25487592816352844
189,5,128,22,0.5705470442771912,0.16393303871154785
189,5,128,23,0.4717136323451996,0.15639014542102814
189,5,128,24,0.4613034725189209,0.2821511924266815
189,5,128,25,0.5523012280464172,0.19858062267303467
189,5,128,26,0.3212285339832306,0.14379769563674927
189,5,128,27,0.5553380846977234,0.21440628170967102
189,5,128,28,0.62034010887146,0.196621373295784
189,5,128,29,0.6919265985488892,0.1361943483352661
189,5,128,30,0.6061098575592041,0.2526949942111969
189,5,128,31,0.7463199496269226,0.13867276906967163
189,5,128,32,0.7179979681968689,0.12202674150466919
189,5,128,33,0.5235573649406433,0.2589443027973175
189,5,128,34,0.5291907787322998,0.19781139492988586
189,5,128,35,0.6963149905204773,0.09209969639778137
189,5,128,36,0.5285729169845581,0.14066269993782043
189,5,128,37,0.6135518550872803,0.27445417642593384
189,5,128,38,0.4184686839580536,0.1407318264245987
189,5,128,39,0.5172516107559204,0.12749168276786804
189,5,128,40,0.6210606098175049,0.2873416244983673
189,5,128,41,0.6115451455116272,0.25268521904945374
189,5,128,42,0.6350203156471252,0.27309179306030273
189,5,128,43,0.5509780049324036,0.17903144657611847
189,5,128,44,0.7077440023422241,0.15204566717147827
189,5,128,45,0.4772653877735138,0.1687026470899582
189,5,128,46,0.4468176066875458,0.1752462238073349
189,5,128,47,0.6304333209991455,0.1793459951877594
189,5,128,48,0.6244474053382874,0.22082452476024628
189,5,128,49,0.5472071170806885,0.14508527517318726
189,5,128,50,0.7644200325012207,0.1619475781917572
189,5,128,51,0.7687997221946716,0.13119159638881683
189,5,128,52,0.5862476229667664,0.055878181010484695
189,5,128,53,0.7061964869499207,0.22032131254673004
189,5,128,54,0.517181396484375,0.21846885979175568
189,5,128,55,0.591088593006134,0.12892548739910126
189,5,128,56,0.6193055510520935,0.20208074152469635
189,5,128,57,0.6499045491218567,0.06750041991472244
189,5,128,58,0.6621055006980896,0.15420936048030853
189,5,128,59,0.6068161129951477,0.10098589211702347
189,5,128,60,0.48862776160240173,0.09134107828140259
189,5,128,61,0.5498691201210022,0.2044275403022766
189,5,128,62,0.3856590986251831,0.12349548190832138
189,5,128,63,0.5019213557243347,0.2190377414226532
189,5,128,64,0.3808095157146454,0.1437259316444397
189,5,128,65,0.5863972306251526,0.17766758799552917
189,5,128,66,0.616288959980011,0.07863745838403702
189,5,128,67,0.48828259110450745,0.20760713517665863
189,5,128,68,0.556118369102478,0.19330327212810516
189,5,128,69,0.61086505651474,0.2726058065891266
189,5,128,70,0.6037456393241882,0.18239180743694305
189,5,128,71,0.5390626788139343,0.22898806631565094
189,5,128,72,0.47020962834358215,0.22018098831176758
189,5,128,73,0.6520290970802307,0.15065708756446838
189,5,128,74,0.4234708547592163,0.22024177014827728
189,5,128,75,0.6217917203903198,0.20733261108398438
189,5,128,76,0.5599542856216431,0.1705130934715271
189,5,128,77,0.6168627142906189,0.19454702734947205
189,5,128,78,0.5627617239952087,0.12072017043828964
189,5,128,79,0.6024159789085388,0.14839650690555573
189,5,128,80,0.5082085728645325,0.21922342479228973
189,5,128,81,0.5785102248191833,0.15430429577827454
189,5,128,82,0.6044436693191528,0.15689922869205475
189,5,128,83,0.8007535338401794,0.11950402706861496
189,5,128,84,0.7027440667152405,0.25833195447921753
189,5,128,85,0.3253226578235626,0.08878446370363235
189,5,128,86,0.5384721755981445,0.15050974488258362
189,5,128,87,0.7088488340377808,0.18184371292591095
189,5,128,88,0.7242586016654968,0.12666715681552887
189,5,128,89,0.6530563831329346,0.1657872200012207
189,5,128,90,0.6753364205360413,0.13897208869457245
189,5,128,91,0.5334049463272095,0.22524911165237427
189,5,128,92,0.6059295535087585,0.16354352235794067
189,5,128,93,0.5200790762901306,0.20413124561309814
189,5,128,94,0.6939424872398376,0.08675746619701385
189,5,128,95,0.7480428218841553,0.1385018229484558
189,5,128,96,0.43775704503059387,0.19313836097717285
189,5,128,97,0.6753131151199341,0.09039965271949768
189,5,128,98,0.719531238079071,0.12367111444473267
189,5,128,99,0.694178581237793,0.09443894773721695
189,5,128,100,0.6762558221817017,0.09875205159187317
189,5,128,101,0.6715865135192871,0.17151430249214172
189,5,128,102,0.5315796732902527,0.16535227000713348
189,5,128,103,0.7034412026405334,0.11256323009729385
189,5,128,104,0.68828284740448,0.12781864404678345
189,5,128,105,0.5257867574691772,0.22725164890289307
189,5,128,106,0.5617504715919495,0.30353260040283203
189,5,128,107,0.5636960864067078,0.10211285948753357
189,5,128,108,0.49654221534729004,0.2389182597398758
189,5,128,109,0.6532804369926453,0.058383386582136154
189,5,128,110,0.7423967719078064,0.11112837493419647
189,5,128,111,0.6971979141235352,0.1388646513223648
189,5,128,112,0.634884238243103,0.08914493769407272
189,5,128,113,0.6755593419075012,0.10185620188713074
189,5,128,114,0.4927620589733124,0.14995670318603516
189,5,128,115,0.5884091854095459,0.2349952608346939
189,5,128,116,0.6258313059806824,0.13688236474990845
189,5,128,117,0.571334958076477,0.2611709237098694
189,5,128,118,0.6942737102508545,0.1013212651014328
189,5,128,119,0.4213751554489136,0.10537265241146088
189,5,128,120,0.6306201219558716,0.19241665303707123
189,5,128,121,0.6930466294288635,0.23509100079536438
189,5,128,122,0.5871824026107788,0.16159655153751373
189,5,128,123,0.7209929823875427,0.20260308682918549
189,5,128,124,0.4499833285808563,0.20207101106643677
189,5,128,125,0.5354034900665283,0.28923967480659485
189,5,128,126,0.6761876344680786,0.22499124705791473
189,5,128,127,0.5141074657440186,0.1738222986459732
190,0,32,0,0.3046858310699463,0.12401936203241348
190,0,32,1,0.5027034282684326,0.19200241565704346
190,0,32,2,0.291263610124588,0.0970480889081955
190,0,32,3,0.5549671649932861,0.07819297164678574
190,0,32,4,0.5395495891571045,0.11749953031539917
190,0,32,5,0.3459284007549286,0.06012285500764847
190,0,32,6,0.36892464756965637,0.15608127415180206
190,0,32,7,0.4855649173259735,0.15563185513019562
190,0,32,8,0.5036100745201111,0.1532890498638153
190,0,32,9,0.4121873080730438,0.13909628987312317
190,0,32,10,0.6129640340805054,0.14156003296375275
190,0,32,11,0.3350946009159088,0.12342382967472076
190,0,32,12,0.34853222966194153,0.060214582830667496
190,0,32,13,0.5618234276771545,0.048916302621364594
190,0,32,14,0.5262348651885986,0.06240316480398178
190,0,32,15,0.44762998819351196,0.14464539289474487
190,0,32,16,0.4815199375152588,0.06886085867881775
190,0,32,17,0.4829160273075104,0.1027417927980423
190,0,32,18,0.6484169960021973,0.17405003309249878
190,0,32,19,0.47468048334121704,0.19745756685733795
190,0,32,20,0.42278891801834106,0.06698423624038696
190,0,32,21,0.33576321601867676,0.09790077805519104
190,0,32,22,0.3781956136226654,0.12752825021743774
190,0,32,23,0.37909600138664246,0.04583873599767685
190,0,32,24,0.420969158411026,0.04647208750247955
190,0,32,25,0.35793983936309814,0.05016249045729637
190,0,32,26,0.43496692180633545,0.08335293084383011
190,0,32,27,0.5090246200561523,0.09201399981975555
190,0,32,28,0.5370743274688721,0.08827913552522659
190,0,32,29,0.5591859817504883,0.07978371530771255
190,0,32,30,0.4179065525531769,0.13327321410179138
190,0,32,31,0.44742459058761597,0.09911195933818817
190,1,32,0,0.5145179629325867,0.0995580404996872
190,1,32,1,0.28936484456062317,0.1080743595957756
190,1,32,2,0.5404242873191833,0.08956389129161835
190,1,32,3,0.5352495908737183,0.07128845155239105
190,1,32,4,0.5664912462234497,0.12657487392425537
190,1,32,5,0.48952099680900574,0.09720280766487122
190,1,32,6,0.7070451974868774,0.10417734086513519
190,1,32,7,0.6227116584777832,0.11243398487567902
190,1,32,8,0.5717262625694275,0.05464791879057884
190,1,32,9,0.6268004179000854,0.09828515350818634
190,1,32,10,0.417740136384964,0.06351418048143387
190,1,32,11,0.4267871677875519,0.0700821503996849
190,1,32,12,0.49148863554000854,0.10474862158298492
190,1,32,13,0.41106170415878296,0.05594407767057419
190,1,32,14,0.46669185161590576,0.13263069093227386
190,1,32,15,0.5087191462516785,0.11820577830076218
190,1,32,16,0.5657501220703125,0.09903349727392197
190,1,32,17,0.5406479835510254,0.14627045392990112
190,1,32,18,0.3915802240371704,0.14256218075752258
190,1,32,19,0.528099000453949,0.05457576736807823
190,1,32,20,0.5529117584228516,0.08627358824014664
190,1,32,21,0.5049638152122498,0.09779497236013412
190,1,32,22,0.5592604875564575,0.11495880037546158
190,1,32,23,0.5612059831619263,0.07511524856090546
190,1,32,24,0.4112190008163452,0.09592842310667038
190,1,32,25,0.3760221600532532,0.09263847768306732
190,1,32,26,0.32971662282943726,0.049523260444402695
190,1,32,27,0.4042901396751404,0.10195396840572357
190,1,32,28,0.5432345867156982,0.13717803359031677
190,1,32,29,0.4619457721710205,0.08487525582313538
190,1,32,30,0.3015333414077759,0.09456025809049606
190,1,32,31,0.48919177055358887,0.11738307029008865
190,2,64,0,0.6485056281089783,0.19762146472930908
190,2,64,1,0.5880289077758789,0.16146577894687653
190,2,64,2,0.4049099087715149,0.13098393380641937
190,2,64,3,0.6683027148246765,0.07555805891752243
190,2,64,4,0.44327473640441895,0.13887479901313782
190,2,64,5,0.3301909267902374,0.1412218064069748
190,2,64,6,0.5520164966583252,0.1600789576768875
190,2,64,7,0.2854078412055969,0.16531266272068024
190,2,64,8,0.5833456516265869,0.2171103060245514
190,2,64,9,0.6264195442199707,0.19527217745780945
190,2,64,10,0.34759435057640076,0.09090014547109604
190,2,64,11,0.5520626306533813,0.11668051779270172
190,2,64,12,0.5346002578735352,0.1294349879026413
190,2,64,13,0.5166438221931458,0.17403894662857056
190,2,64,14,0.6461420059204102,0.09368585050106049
190,2,64,15,0.5908923745155334,0.16131898760795593
190,2,64,16,0.5529903769493103,0.132277712225914
190,2,64,17,0.4520133137702942,0.10369626432657242
190,2,64,18,0.46233320236206055,0.1797005981206894
190,2,64,19,0.48356741666793823,0.12868240475654602
190,2,64,20,0.4698601961135864,0.2054295390844345
190,2,64,21,0.39533087611198425,0.12601244449615479
190,2,64,22,0.4582960903644562,0.1890294849872589
190,2,64,23,0.5047351717948914,0.18634775280952454
190,2,64,24,0.3581005036830902,0.11797520518302917
190,2,64,25,0.427344411611557,0.12252947688102722
190,2,64,26,0.6330836415290833,0.09203113615512848
190,2,64,27,0.4719318747520447,0.2627788484096527
190,2,64,28,0.6383721828460693,0.2479967176914215
190,2,64,29,0.4277309477329254,0.13196037709712982
