subject,channel,alpha,f1,drop_pp
1,0,1.0,0.6896440514015243,0.0
1,0,0.75,0.690499536713206,-0.08554853116816696
1,0,0.5,0.6996265056839924,-0.9982454282468134
1,0,0.25,0.6986907375500223,-0.9046686148498018
1,0,0.0,0.6739590082676756,1.5685043133848664
1,1,1.0,0.6896440514015243,0.0
1,1,0.75,0.6868804936199566,0.27635577815676715
1,1,0.5,0.6952261755766136,-0.5582124175089298
1,1,0.25,0.6894634313730053,0.01806200285190407
1,1,0.0,0.6717602946493328,1.7883756752191449
1,2,1.0,0.6896440514015243,0.0
1,2,0.75,0.6891154900439975,0.05285613575267689
1,2,0.5,0.6830301731665871,0.6613878234937198
1,2,0.25,0.679576095521979,1.0067955879545343
1,2,0.0,0.6595668323900378,3.0077219011486522
1,3,1.0,0.6896440514015243,0.0
1,3,0.75,0.6863577742556977,0.32862771458266327
1,3,0.5,0.6734610969113914,1.618295449013285
1,3,0.25,0.6572450882101823,3.2398963191341945
1,3,0.0,0.625885960463445,6.375809093807927
1,4,1.0,0.6896440514015243,0.0
1,4,0.75,0.6973131994274268,-0.7669148025902461
1,4,0.5,0.7043464522722295,-1.470240087070518
1,4,0.25,0.7172554359777183,-2.7611384576194054
1,4,0.0,0.7171136433561678,-2.746959195464349
1,5,1.0,0.6896440514015243,0.0
1,5,0.75,0.6952879866836161,-0.5643935282091839
1,5,0.5,0.7034407347510028,-1.3796683349478478
1,5,0.25,0.6930026387988308,-0.3358587397306545
1,5,0.0,0.6879039484702352,0.17401029312891225
1,6,1.0,0.6896440514015243,0.0
1,6,0.75,0.6945078913870875,-0.48638399855631675
1,6,0.5,0.7067502177147056,-1.7106166313181292
1,6,0.25,0.7091179574801527,-1.9473906078628422
1,6,0.0,0.6997890056071219,-1.0144954205597578
1,7,1.0,0.6896440514015243,0.0
1,7,0.75,0.6859464097382196,0.36976416633046627
1,7,0.5,0.6800377803975846,0.9606271003939737
1,7,0.25,0.6507981119726445,3.8845939428879817
1,7,0.0,0.5904474014913856,9.919664991013866
1,8,1.0,0.6896440514015243,0.0
1,8,0.75,0.6856146193903221,0.40294320112022053
1,8,0.5,0.6684889028521852,2.1155148549339087
1,8,0.25,0.6212492933165124,6.839475808501194
1,8,0.0,0.5470799661253792,14.256408527614505
2,0,1.0,0.928188354608972,0.0
2,0,0.75,0.9217126303880867,0.647572422088527
2,0,0.5,0.9310797779917988,-0.28914233828267744
2,0,0.25,0.9179743231686855,1.021403144028643
2,0,0.0,0.8647713088070081,6.341704580196383
2,1,1.0,0.928188354608972,0.0
2,1,0.75,0.92165480551398,0.6533549094991931
2,1,0.5,0.9096686880501843,1.8519666558787673
2,1,0.25,0.8960898590790958,3.2098495529876203
2,1,0.0,0.8676126056092541,6.057574899971785
2,2,1.0,0.928188354608972,0.0
2,2,0.75,0.92165480551398,0.6533549094991931
2,2,0.5,0.9118589184924365,1.6329436116535478
2,2,0.25,0.9118734347453434,1.631491986362854
2,2,0.0,0.8454523834365217,8.273597117245025
2,3,1.0,0.928188354608972,0.0
2,3,0.75,0.9235694251041212,0.4618929504850766
2,3,0.5,0.9290226871054248,-0.08343324964528165
2,3,0.25,0.9163602472197008,1.1828107389271203
2,3,0.0,0.9038812662057044,2.4307088403267563
2,4,1.0,0.928188354608972,0.0
2,4,0.75,0.932362021961577,-0.41736673526050483
2,4,0.5,0.9283766278182334,-0.018827320926140256
2,4,0.25,0.9284880887390479,-0.029973413007589045
2,4,0.0,0.9104530655391221,1.773528906984989
2,5,1.0,0.928188354608972,0.0
2,5,0.75,0.9268832304360171,0.1305124172954919
2,5,0.5,0.918954039655377,0.9234314953594946
2,5,0.25,0.9116455411302583,1.654281347871367
2,5,0.0,0.8776347081291859,5.05536464797861
2,6,1.0,0.928188354608972,0.0
2,6,0.75,0.9197680929473309,0.8420261661641115
2,6,0.5,0.9230727187679908,0.5115635840981181
2,6,0.25,0.9031047386985027,2.508361591046926
2,6,0.0,0.8896687804957633,3.851957411320872
2,7,1.0,0.928188354608972,0.0
2,7,0.75,0.913170019690311,1.5018334918661003
2,7,0.5,0.8884662699110542,3.9722084697917825
2,7,0.25,0.8577335735697998,7.045478103917214
2,7,0.0,0.7823005241269974,14.588783048197463
2,8,1.0,0.928188354608972,0.0
2,8,0.75,0.9333389724402492,-0.5150617831277238
2,8,0.5,0.9352413572953894,-0.7053002686417398
2,8,0.25,0.9068798733225449,2.130848128642704
2,8,0.0,0.780506319166113,14.768203544285896
3,0,1.0,0.8627048287408121,0.0
3,0,0.75,0.8801907150382949,-1.7485886297482822
3,0,0.5,0.8888421130325493,-2.613728429173723
3,0,0.25,0.8903806730993048,-2.7675844358492685
3,0,0.0,0.8973426602122875,-3.4637831471475367
3,1,1.0,0.8627048287408121,0.0
3,1,0.75,0.8648061424154198,-0.2101313674607641
3,1,0.5,0.8648061424154198,-0.2101313674607641
3,1,0.25,0.8466070132456625,1.6097815495149659
3,1,0.0,0.8251861608925357,3.75186678482764
3,2,1.0,0.8627048287408121,0.0
3,2,0.75,0.8691031200420984,-0.639829130128633
3,2,0.5,0.853163851787098,0.9540976953714142
3,2,0.25,0.8294544257381403,3.325040300267179
3,2,0.0,0.7962460579508354,6.645877078997675
3,3,1.0,0.8627048287408121,0.0
3,3,0.75,0.8403994695638913,2.230535917692078
3,3,0.5,0.8195087360740692,4.319609266674296
3,3,0.25,0.7808122281940812,8.189260054673086
3,3,0.0,0.738168941178436,12.453588756237611
3,4,1.0,0.8627048287408121,0.0
3,4,0.75,0.8634952909813022,-0.07904622404900641
3,4,0.5,0.8615472135834903,0.1157615157321823
3,4,0.25,0.8652006890000332,-0.24958602592211054
3,4,0.0,0.854798410536614,0.7906418204198129
3,5,1.0,0.8627048287408121,0.0
3,5,0.75,0.8701774853218286,-0.7472656581016479
3,5,0.5,0.8766072329528971,-1.3902404212084996
3,5,0.25,0.8698752052674373,-0.7170376526625222
3,5,0.0,0.8540618338387257,0.864299490208642
3,6,1.0,0.8627048287408121,0.0
3,6,0.75,0.8641626242456178,-0.14577955048057367
3,6,0.5,0.8707922982721538,-0.8087469531341651
3,6,0.25,0.8672502501226855,-0.45454213818734157
3,6,0.0,0.8698691998051347,-0.716437106432255
3,7,1.0,0.8627048287408121,0.0
3,7,0.75,0.8566809851203484,0.6023843620463709
3,7,0.5,0.851860566296916,1.0844262443896135
3,7,0.25,0.8259279319268853,3.677689681392682
3,7,0.0,0.7760069144930217,8.669791424779039
3,8,1.0,0.8627048287408121,0.0
3,8,0.75,0.8614154825496411,0.1289346191171048
3,8,0.5,0.8714757076441527,-0.8770878903340606
3,8,0.25,0.8798491891593335,-1.714436041852141
3,8,0.0,0.8822958323832482,-1.9591003642436045
4,0,1.0,0.8714552249778322,0.0
4,0,0.75,0.8737046412397004,-0.22494162618681424
4,0,0.5,0.8672325177842289,0.4222707193603292
4,0,0.25,0.870457519579657,0.09977053981752304
4,0,0.0,0.8182089575221383,5.324626745569394
4,1,1.0,0.8714552249778322,0.0
4,1,0.75,0.8603478344379595,1.1107390539872752
4,1,0.5,0.8579890276388764,1.346619733895582
4,1,0.25,0.8478287982419812,2.3626426735851025
4,1,0.0,0.8142600605391166,5.719516443871564
4,2,1.0,0.8714552249778322,0.0
4,2,0.75,0.8635621677813833,0.7893057196448949
4,2,0.5,0.8590948138805962,1.2360411097236068
4,2,0.25,0.8308777465535493,4.057747842428294
4,2,0.0,0.8072998312901928,6.415539368763945
4,3,1.0,0.8714552249778322,0.0
4,3,0.75,0.8730449433832272,-0.1589718405395013
4,3,0.5,0.8567020306710781,1.4753194306754147
4,3,0.25,0.8428910189322526,2.856420604557963
4,3,0.0,0.8316151064928752,3.9840118484957054
4,4,1.0,0.8714552249778322,0.0
4,4,0.75,0.8701401369276851,0.13150880501471285
4,4,0.5,0.86719969828514,0.42555266926922464
4,4,0.25,0.8598434873777674,1.1611737600064842
4,4,0.0,0.8500070189971773,2.144820598065489
4,5,1.0,0.8714552249778322,0.0
4,5,0.75,0.8701401369276851,0.13150880501471285
4,5,0.5,0.8796076979789273,-0.8152473001095117
4,5,0.25,0.8640591702662576,0.7396054711574673
4,5,0.0,0.8334185956824963,3.803662929533591
4,6,1.0,0.8714552249778322,0.0
4,6,0.75,0.8691468353184525,0.23083896593797393
4,6,0.5,0.8691124292488637,0.23427957289685608
4,6,0.25,0.8604747127123384,1.0980512265493791
4,6,0.0,0.8659802632673939,0.5474961710438375
4,7,1.0,0.8714552249778322,0.0
4,7,0.75,0.8744948938064098,-0.30396688285775353
4,7,0.5,0.8798793297806927,-0.8424104802860488
4,7,0.25,0.8850754561662569,-1.3620231188424703
4,7,0.0,0.8297596503782008,4.169557459963147
4,8,1.0,0.8714552249778322,0.0
4,8,0.75,0.8755591246938614,-0.41038997160292023
4,8,0.5,0.8749490575798234,-0.3493832601991209
4,8,0.25,0.8554524682368085,1.6002756741023694
4,8,0.0,0.7943072506294817,7.714797434835052
5,0,1.0,0.6824341091988211,0.0
5,0,0.75,0.6813035217461774,0.11305874526437165
5,0,0.5,0.6754504028959807,0.6983706302840398
5,0,0.25,0.6777475321481632,0.4686577050657892
5,0,0.0,0.6633230540339488,1.9111055164872326
5,1,1.0,0.6824341091988211,0.0
5,1,0.75,0.6800544111722359,0.23796980265852197
5,1,0.5,0.6881911765462168,-0.5757067347395672
5,1,0.25,0.6828033916603838,-0.03692824615627588
5,1,0.0,0.6658271203512114,1.6606988847609694
5,2,1.0,0.6824341091988211,0.0
5,2,0.75,0.6820559237777165,0.0378185421104571
5,2,0.5,0.678207869763847,0.4226239434974133
5,2,0.25,0.6745598678567215,0.7874241342099575
5,2,0.0,0.6644082874429112,1.8025821755909832
5,3,1.0,0.6824341091988211,0.0
5,3,0.75,0.6899191527692633,-0.7485043570442218
5,3,0.5,0.7149645807118508,-3.253047151302968
5,3,0.25,0.7346012116790873,-5.216710248026624
5,3,0.0,0.7270363932421834,-4.460228404336231
5,4,1.0,0.6824341091988211,0.0
5,4,0.75,0.6739317091411232,0.8502400057697868
5,4,0.5,0.6674619601639329,1.4972149034888194
5,4,0.25,0.6442110301314781,3.8223079067343013
5,4,0.0,0.6145357601063508,6.789834909247028
5,5,1.0,0.6824341091988211,0.0
5,5,0.75,0.6825593423746295,-0.012523317580837023
5,5,0.5,0.660083236729538,2.2350872469283134
5,5,0.25,0.640545853644216,4.188825555460507
5,5,0.0,0.6351424696879687,4.729163951085235
5,6,1.0,0.6824341091988211,0.0
5,6,0.75,0.6927236397430355,-1.0289530544214442
5,6,0.5,0.6931203764371097,-1.0686267238288583
5,6,0.25,0.7023545796087577,-1.9920470409936608
5,6,0.0,0.6949892527101404,-1.2555143511319367
5,7,1.0,0.6824341091988211,0.0
5,7,0.75,0.6820290770641942,0.04050321346268371
5,7,0.5,0.6750762131509394,0.7357896047881729
5,7,0.25,0.6735419431342368,0.8892166064584317
5,7,0.0,0.6573086024827113,2.5125506716109802
5,8,1.0,0.6824341091988211,0.0
5,8,0.75,0.6881791679701624,-0.5745058771341349
5,8,0.5,0.6941837521517329,-1.174964295291181
5,8,0.25,0.6899119384048658,-0.7477829206044673
5,8,0.0,0.6473631282472774,3.5070980951543707
6,0,1.0,0.7752926666886668,0.0
6,0,0.75,0.7808314578105287,-0.5538791121861841
6,0,0.5,0.7859126970402982,-1.0620030351631393
6,0,0.25,0.7766947883390705,-0.14021216504036538
6,0,0.0,0.7612771582314729,1.4015508457193904
6,1,1.0,0.7752926666886668,0.0
6,1,0.75,0.7842775663948676,-0.8984899706200755
6,1,0.5,0.7900209580167368,-1.4728291328069965
6,1,0.25,0.7669844460952122,0.8308220593454596
6,1,0.0,0.7351594713830125,4.013319530565429
6,2,1.0,0.7752926666886668,0.0
6,2,0.75,0.7953728345292523,-2.0080167840585528
6,2,0.5,0.8018256243643407,-2.6532957675673874
6,2,0.25,0.8004440466765343,-2.515137998786754
6,2,0.0,0.8170533584558292,-4.176069176716235
6,3,1.0,0.7752926666886668,0.0
6,3,0.75,0.7982958425780036,-2.3003175889336758
6,3,0.5,0.7997915798478297,-2.449891315916286
6,3,0.25,0.7997269189464971,-2.4434252257830247
6,3,0.0,0.7890557595926516,-1.3763092903984808
6,4,1.0,0.7752926666886668,0.0
6,4,0.75,0.772942806186478,0.2349860502188772
6,4,0.5,0.7677297390902794,0.7562927598387392
6,4,0.25,0.7683057627815425,0.6986903907124309
6,4,0.0,0.7302407550282359,4.505191166043088
6,5,1.0,0.7752926666886668,0.0
6,5,0.75,0.7707850594905277,0.4507607198139141
6,5,0.5,0.7652118998083302,1.0080766880336656
6,5,0.25,0.749255603699013,2.6037062989653803
6,5,0.0,0.7108197368250806,6.4472929863586215
6,6,1.0,0.7752926666886668,0.0
6,6,0.75,0.7670225156227688,0.8270151065898013
6,6,0.5,0.7746001014908642,0.0692565197802586
6,6,0.25,0.7662053149933775,0.9087351695289292
6,6,0.0,0.7560218625999773,1.927080408868953
6,7,1.0,0.7752926666886668,0.0
6,7,0.75,0.7607157645839637,1.4576902104703082
6,7,0.5,0.7479167792503053,2.73758874383615
6,7,0.25,0.7324721245998769,4.282054208878994
6,7,0.0,0.6703488372093024,10.494382947936442
6,8,1.0,0.7752926666886668,0.0
6,8,0.75,0.7712485194518945,0.40441472367722664
6,8,0.5,0.7729738050858741,0.231886160279271
6,8,0.25,0.7471922072990875,2.810045938957928
6,8,0.0,0.7204859766676319,5.480669002103489
7,0,1.0,0.7933821756433007,0.0
7,0,0.75,0.794208350465089,-0.08261748217882614
7,0,0.5,0.806899102740071,-1.3516927096770326
7,0,0.25,0.7957400684162862,-0.23578927729854815
7,0,0.0,0.7787285438194842,1.4653631823816515
7,1,1.0,0.7933821756433007,0.0
7,1,0.75,0.7873705198063015,0.6011655836999252
7,1,0.5,0.7818552281430575,1.152694750024319
7,1,0.25,0.7811315052350495,1.225067040825123
7,1,0.0,0.743941569792179,4.944060585112176
7,2,1.0,0.7933821756433007,0.0
7,2,0.75,0.791262505467932,0.21196701753687375
7,2,0.5,0.7970906327011679,-0.3708457057867154
7,2,0.25,0.7845508862873479,0.8831289355952787
7,2,0.0,0.7529724593560687,4.0409716287232005
7,3,1.0,0.7933821756433007,0.0
7,3,0.75,0.7829870147473433,1.0395160895957378
7,3,0.5,0.7816484749282491,1.1733700715051643
7,3,0.25,0.79289235823222,0.0489817411080673
7,3,0.0,0.7872434162653141,0.613875937798658
7,4,1.0,0.7933821756433007,0.0
7,4,0.75,0.797192139218236,-0.3809963574935238
7,4,0.5,0.7917968127987389,0.15853628445617884
7,4,0.25,0.7826209935424023,1.076118210089838
7,4,0.0,0.7539614027872317,3.942077285606904
7,5,1.0,0.7933821756433007,0.0
7,5,0.75,0.792016499582289,0.1365676061011678
7,5,0.5,0.8016912739698082,-0.8309098326507502
7,5,0.25,0.7886168287947952,0.4765346848505492
7,5,0.0,0.7676886169522813,2.5693558691019414
7,6,1.0,0.7933821756433007,0.0
7,6,0.75,0.780837396224306,1.2544779418994678
7,6,0.5,0.7600150429964977,3.336713264680302
7,6,0.25,0.7530062018169829,4.037597382631786
7,6,0.0,0.7434792838060758,4.990289183722496
7,7,1.0,0.7933821756433007,0.0
7,7,0.75,0.7928669400205037,0.05152356227969834
7,7,0.5,0.7892725655663109,0.41096100769898447
7,7,0.25,0.7648030438802971,2.857913176300364
7,7,0.0,0.7351817271538852,5.820044848941553
7,8,1.0,0.7933821756433007,0.0
7,8,0.75,0.778974762150227,1.4407413493073729
7,8,0.5,0.7590941422060967,3.428803343720399
7,8,0.25,0.7458525345622119,4.752964108108881
7,8,0.0,0.6884457381804661,10.493643746283466
8,0,1.0,0.8518993853391724,0.0
8,0,0.75,0.8655217503120203,-1.3622364972847856
8,0,0.5,0.859892474419044,-0.7993089079871618
8,0,0.25,0.8562502528266113,-0.43508674874388475
8,0,0.0,0.8525066370712802,-0.060725173210773864
8,1,1.0,0.8518993853391724,0.0
8,1,0.75,0.8513897221704188,0.050966316875367124
8,1,0.5,0.8555651298378333,-0.3665744498660861
8,1,0.25,0.8553410114874961,-0.3441626148323662
8,1,0.0,0.8380887432956268,1.3810642043545651
8,2,1.0,0.8518993853391724,0.0
8,2,0.75,0.864725182403417,-1.2825797064244582
8,2,0.5,0.8836514203707642,-3.175203503159174
8,2,0.25,0.8884293632543631,-3.6529977915190637
8,2,0.0,0.8874590290144263,-3.5559643675253882
8,3,1.0,0.8518993853391724,0.0
8,3,0.75,0.8566722525914664,-0.47728672522939775
8,3,0.5,0.866959855900285,-1.5060470561112593
8,3,0.25,0.8648319223038247,-1.2932536964652241
8,3,0.0,0.8540661942985783,-0.2166808959405908
8,4,1.0,0.8518993853391724,0.0
8,4,0.75,0.8554063320740187,-0.35069467348463057
8,4,0.5,0.8596467214686211,-0.7747336129448668
8,4,0.25,0.8517404092287133,0.01589761104591192
8,4,0.0,0.8324652932790635,1.9434092060108932
8,5,1.0,0.8518993853391724,0.0
8,5,0.75,0.8439931220272054,0.7906263311966977
8,5,0.5,0.8434540716525094,0.8445313686663014
8,5,0.25,0.8389545724767729,1.2944812862399568
8,5,0.0,0.8025766373309726,4.932274800819981
8,6,1.0,0.8518993853391724,0.0
8,6,0.75,0.8577800101595278,-0.588062482035534
8,6,0.5,0.8694887495139908,-1.7589364174818378
8,6,0.25,0.8743210648006969,-2.2421679461524513
8,6,0.0,0.8570715018804521,-0.5172116541279692
8,7,1.0,0.8518993853391724,0.0
8,7,0.75,0.8594302690718088,-0.7530883732636329
8,7,0.5,0.8680476213567039,-1.6148236017531459
8,7,0.25,0.8431593289548895,0.8740056384282879
8,7,0.0,0.7945837280526546,5.731565728651777
8,8,1.0,0.8518993853391724,0.0
8,8,0.75,0.8401034522696341,1.17959330695383
8,8,0.5,0.8363666883937287,1.553269694544368
8,8,0.25,0.8284940675940518,2.340531774512067
8,8,0.0,0.7901429826840045,6.17564026551679
9,0,1.0,0.8635237684644556,0.0
9,0,0.75,0.8592381096840591,0.42856587803964397
9,0,0.5,0.8611723795834734,0.2351388880982186
9,0,0.25,0.8420856587936176,2.1438109670837924
9,0,0.0,0.7945686120050058,6.895515645944972
9,1,1.0,0.8635237684644556,0.0
9,1,0.75,0.8629041797805803,0.06195886838752385
9,1,0.5,0.8582860283724287,0.5237740092026821
9,1,0.25,0.8338019347410598,2.9721833723395763
9,1,0.0,0.7835874211404321,7.993634732402343
9,2,1.0,0.8635237684644556,0.0
9,2,0.75,0.8582201878612439,0.5303580603211677
9,2,0.5,0.8507903168129403,1.2733451651515293
9,2,0.25,0.8401480077013638,2.337576076309178
9,2,0.0,0.8101053100995596,5.3418458364896
9,3,1.0,0.8635237684644556,0.0
9,3,0.75,0.8571724682039905,0.6351300260465043
9,3,0.5,0.8448108102198559,1.871295824459962
9,3,0.25,0.8395281525663791,2.3995615898076417
9,3,0.0,0.8158334156396584,4.769035282479717
9,4,1.0,0.8635237684644556,0.0
9,4,0.75,0.866479036455043,-0.2955267990587429
9,4,0.5,0.8590709820175372,0.44527864469183775
9,4,0.25,0.8494040757464151,1.4119692718040477
9,4,0.0,0.8245109637051021,3.9012804759353426
9,5,1.0,0.8635237684644556,0.0
9,5,0.75,0.859862810561606,0.3660957902849593
9,5,0.5,0.859141907284322,0.4381861180133506
9,5,0.25,0.8507571030002666,1.276666546418892
9,5,0.0,0.8415808782957406,2.194289016871498
9,6,1.0,0.8635237684644556,0.0
9,6,0.75,0.8564277894475352,0.7095979016920384
9,6,0.5,0.8533839111380446,1.0139857326410984
9,6,0.25,0.8501030796214869,1.3420688842968653
9,6,0.0,0.8511799410029499,1.234382746150564
9,7,1.0,0.8635237684644556,0.0
9,7,0.75,0.8522017594013622,1.132200906309333
9,7,0.5,0.8565173975860036,0.7006370878451906
9,7,0.25,0.8413703492887147,2.2153419175740874
9,7,0.0,0.7614017926517926,10.212197581266292
9,8,1.0,0.8635237684644556,0.0
9,8,0.75,0.8657022572116911,-0.21784887472355852
9,8,0.5,0.8567799836691203,0.6743784795335217
9,8,0.25,0.8481874656688244,1.533630279563114
9,8,0.0,0.8267920305330081,3.673173793144746
10,0,1.0,0.7695794804162117,0.0
10,0,0.75,0.7723080117778691,-0.2728531361657405
10,0,0.5,0.7658279090850884,0.375157133112336
10,0,0.25,0.7489066107933763,2.0672869622835433
10,0,0.0,0.7080568304762034,6.152264994000833
10,1,1.0,0.7695794804162117,0.0
10,1,0.75,0.7882834793111198,-1.8703998894908036
10,1,0.5,0.7765988360872634,-0.7019355671051719
10,1,0.25,0.7838161735128578,-1.4236693096646102
10,1,0.0,0.7632160030131333,0.636347740307841
10,2,1.0,0.7695794804162117,0.0
10,2,0.75,0.776741562806785,-0.7162082390573254
10,2,0.5,0.7663592652377987,0.32202151784129773
10,2,0.25,0.7403143669371487,2.926511347906302
10,2,0.0,0.7215654341593711,4.801404625684058
10,3,1.0,0.7695794804162117,0.0
10,3,0.75,0.7808480697221248,-1.1268589305913124
10,3,0.5,0.7776181337051801,-0.8038653288968356
10,3,0.25,0.7603693742497746,0.9210106166437138
10,3,0.0,0.7303070116369828,3.9272468779228964
10,4,1.0,0.7695794804162117,0.0
10,4,0.75,0.7692290387740386,0.03504416421731271
10,4,0.5,0.7628202790657064,0.6759201350505339
10,4,0.25,0.7525177706795637,1.7061709736648
10,4,0.0,0.7281352333521606,4.144424706405115
10,5,1.0,0.7695794804162117,0.0
10,5,0.75,0.7746260317650286,-0.504655134881693
10,5,0.5,0.7527883593100984,1.679112110611336
10,5,0.25,0.7245659513245346,4.501352909167711
10,5,0.0,0.7063793285953228,6.3200151820888895
10,6,1.0,0.7695794804162117,0.0
10,6,0.75,0.778600481187532,-0.9021000771320287
10,6,0.5,0.7760930573359445,-0.6513576919732755
10,6,0.25,0.777371305371931,-0.7791824955719284
10,6,0.0,0.7751495375831239,-0.5570057166912168
10,7,1.0,0.7695794804162117,0.0
10,7,0.75,0.7816988121755354,-1.211933175932367
10,7,0.5,0.7905276892331592,-2.094820881694748
10,7,0.25,0.7920099994275137,-2.2430519011301997
10,7,0.0,0.7405397632317391,2.9039717184472624
10,8,1.0,0.7695794804162117,0.0
10,8,0.75,0.7866647220840685,-1.7085241667856743
10,8,0.5,0.7717750676499552,-0.2195587233743468
10,8,0.25,0.7383983303843662,3.1181150031845517
10,8,0.0,0.7106839710499707,5.889550936624099
11,0,1.0,0.9162453522890901,0.0
11,0,0.75,0.9241616513322777,-0.791629904318758
11,0,0.5,0.9203589016890673,-0.4113549399977212
11,0,0.25,0.8976199930507354,1.8625359238354733
11,0,0.0,0.8621714500455936,5.407390224349651
11,1,1.0,0.9162453522890901,0.0
11,1,0.75,0.9153262804600608,0.09190718290292832
11,1,0.5,0.9019547559826266,1.4290596306463454
11,1,0.25,0.8925236168086929,2.3721735480397244
11,1,0.0,0.8481122803711472,6.813307191794293
11,2,1.0,0.9162453522890901,0.0
11,2,0.75,0.901332658222407,1.4912694066683052
11,2,0.5,0.8908225981977969,2.5422754091293243
11,2,0.25,0.8730239179619752,4.322143432711489
11,2,0.0,0.8433968653450259,7.284848694406421
11,3,1.0,0.9162453522890901,0.0
11,3,0.75,0.9100394137327574,0.6205938556332669
11,3,0.5,0.9148587863637359,0.1386565925354244
11,3,0.25,0.8917864808014926,2.445887148759751
11,3,0.0,0.8392559321530839,7.698942013600618
11,4,1.0,0.9162453522890901,0.0
11,4,0.75,0.9152619628715718,0.09833894175182989
11,4,0.5,0.9121365177196821,0.41088345694080264
11,4,0.25,0.9085942760724726,0.7651076216617536
11,4,0.0,0.8807033704403165,3.554198184877355
11,5,1.0,0.9162453522890901,0.0
11,5,0.75,0.9170902068857423,-0.08448545966521781
11,5,0.5,0.9122287689193984,0.4016583369691684
11,5,0.25,0.8915213399875977,2.472401230149235
11,5,0.0,0.8510207300898782,6.522462219921188
11,6,1.0,0.9162453522890901,0.0
11,6,0.75,0.9199773285401502,-0.3731976251060143
11,6,0.5,0.9094732529917068,0.6772099297383316
11,6,0.25,0.9037801767248209,1.2465175564269182
11,6,0.0,0.89206798937902,2.417736291007011
11,7,1.0,0.9162453522890901,0.0
11,7,0.75,0.9196440130330935,-0.3398660744003412
11,7,0.5,0.9367236258622433,-2.047827357315324
11,7,0.25,0.9438552635139151,-2.7609911224825034
11,7,0.0,0.887421878414405,2.882347387468509
11,8,1.0,0.9162453522890901,0.0
11,8,0.75,0.9218205562172215,-0.5575203928131378
11,8,0.5,0.9155756061591401,0.06697461299499663
11,8,0.25,0.9114752343733926,0.47701179156974804
11,8,0.0,0.8768255401269321,3.9419812162157952
12,0,1.0,0.917113381176261,0.0
12,0,0.75,0.9125470117112882,0.4566369464972797
12,0,0.5,0.921826716561017,-0.47133353847560455
12,0,0.25,0.9121082479304577,0.5005133245803206
12,0,0.0,0.8847295619006398,3.2383819275621173
12,1,1.0,0.917113381176261,0.0
12,1,0.75,0.9196027669582136,-0.248938578195268
12,1,0.5,0.9245004385470218,-0.7387057370760841
12,1,0.25,0.9161300858529302,0.09832953233307462
12,1,0.0,0.9072281830954008,0.9885198080860191
12,2,1.0,0.917113381176261,0.0
12,2,0.75,0.9213688005888074,-0.42554194125464795
12,2,0.5,0.9244746900387859,-0.7361308862524951
12,2,0.25,0.8994848073098944,1.7628573866366515
12,2,0.0,0.8662619988706945,5.085138230556641
12,3,1.0,0.917113381176261,0.0
12,3,0.75,0.9136378332329046,0.3475547943356361
12,3,0.5,0.9133811247632444,0.3732256413016555
12,3,0.25,0.8934196594114671,2.3693721764793896
12,3,0.0,0.8488404897607034,6.8272891415557595
12,4,1.0,0.917113381176261,0.0
12,4,0.75,0.9130452960402391,0.40680851360218595
12,4,0.5,0.908847089376441,0.8266291799819969
12,4,0.25,0.9048744514605501,1.2238929715710833
12,4,0.0,0.8784622493088811,3.8651131867379895
12,5,1.0,0.917113381176261,0.0
12,5,0.75,0.9134435007785243,0.36698803977366357
12,5,0.5,0.9173349737405313,-0.022159256427034535
12,5,0.25,0.9136111848136039,0.35021963626570285
12,5,0.0,0.9070671264421124,1.0046254734148552
12,6,1.0,0.917113381176261,0.0
12,6,0.75,0.9159483722555058,0.11650089207551062
12,6,0.5,0.9089704751739129,0.8142906002348016
12,6,0.25,0.9021902084126459,1.49231727636151
12,6,0.0,0.9006967493067413,1.6416631869519693
12,7,1.0,0.917113381176261,0.0
12,7,0.75,0.9081486582853707,0.8964722890890231
12,7,0.5,0.9071887297923462,0.992465138391474
12,7,0.25,0.9005077734987876,1.6605607677473322
12,7,0.0,0.8722419522656815,4.48714289105795
12,8,1.0,0.917113381176261,0.0
12,8,0.75,0.917113381176261,0.0
12,8,0.5,0.9012678296354218,1.584555154083911
12,8,0.25,0.8904634146341462,2.664996654211471
12,8,0.0,0.8555864178980598,6.152696327820117
13,0,1.0,0.9479150461082575,0.0
13,0,0.75,0.9486922638334692,-0.07772177252116652
13,0,0.5,0.9568605726248742,-0.8945526516616731
13,0,0.25,0.9475879725339947,0.03270735742627595
13,0,0.0,0.9307978789520465,1.7117167156211033
13,1,1.0,0.9479150461082575,0.0
13,1,0.75,0.9552830101389337,-0.7367964030676188
13,1,0.5,0.9490085478820025,-0.10935017737450092
13,1,0.25,0.9323601537415804,1.5554892366677064
13,1,0.0,0.9214856903513117,2.6429355756945827
13,2,1.0,0.9479150461082575,0.0
13,2,0.75,0.9475792227361113,0.03358233721462156
13,2,0.5,0.9472349275046232,0.0680118603634261
13,2,0.25,0.9428613428731599,0.5053703235097573
13,2,0.0,0.9353614034672052,1.2553642641052298
13,3,1.0,0.9479150461082575,0.0
13,3,0.75,0.9468123491221885,0.11026969860690183
13,3,0.5,0.9404199931858017,0.749505292245578
13,3,0.25,0.9266878738749853,2.1227172233272196
13,3,0.0,0.9134275159263491,3.448753018190842
13,4,1.0,0.9479150461082575,0.0
13,4,0.75,0.9527258741579054,-0.48108280496479416
13,4,0.5,0.9461248356476251,0.17902104606324354
13,4,0.25,0.9239968808696697,2.3918165238587807
13,4,0.0,0.873975155503528,7.39398906047295
13,5,1.0,0.9479150461082575,0.0
13,5,0.75,0.9435702180895427,0.434482801871483
13,5,0.5,0.9334785462141568,1.4436499894100674
13,5,0.25,0.928576763560145,1.933828254811254
13,5,0.0,0.8924559792005804,5.54590669076771
13,6,1.0,0.9479150461082575,0.0
13,6,0.75,0.9464091588106383,0.1505887297619246
13,6,0.5,0.935357486900334,1.2557559207923452
13,6,0.25,0.9205310630420774,2.738398306618006
13,6,0.0,0.9082105921379093,3.9704453970348164
13,7,1.0,0.9479150461082575,0.0
13,7,0.75,0.9461568054056593,0.17582407025982238
13,7,0.5,0.9372279545572658,1.0687091550991679
13,7,0.25,0.9157225041809749,3.2192541927282603
13,7,0.0,0.8814568866627357,6.64581594455218
13,8,1.0,0.9479150461082575,0.0
13,8,0.75,0.9574769655859744,-0.9561919477716896
13,8,0.5,0.95160910688861,-0.3694060780352504
13,8,0.25,0.9462672036599802,0.16478424482773146
13,8,0.0,0.8986963940435727,4.921865206468478
14,0,1.0,0.838083535588429,0.0
14,0,0.75,0.8302998444514617,0.7783691136967308
14,0,0.5,0.8271309633537484,1.0952572234680602
14,0,0.25,0.8329828361208158,0.5100699467613157
14,0,0.0,0.8107210640474573,2.736247154097171
14,1,1.0,0.838083535588429,0.0
14,1,0.75,0.8329243660440282,0.5159169544400766
14,1,0.5,0.8297939607876768,0.8289574800752209
14,1,0.25,0.8238361108395023,1.4247424748926707
14,1,0.0,0.8043535528168972,3.372998277153172
14,2,1.0,0.838083535588429,0.0
14,2,0.75,0.8286849373344091,0.9398598254019896
14,2,0.5,0.8314793293051259,0.6604206283303049
14,2,0.25,0.8355065154595158,0.25770201289131434
14,2,0.0,0.8372306979335734,0.08528376548555539
14,3,1.0,0.838083535588429,0.0
14,3,0.75,0.8337365893160122,0.43469462724167185
14,3,0.5,0.8135015710949957,2.4581964493433306
14,3,0.25,0.7713510147839946,6.6732520804434365
14,3,0.0,0.7219976464591069,11.608588912932206
14,4,1.0,0.838083535588429,0.0
14,4,0.75,0.8471194622373027,-0.903592664887376
14,4,0.5,0.8575747670504139,-1.9491231461984948
14,4,0.25,0.8499727543558286,-1.1889218767399679
14,4,0.0,0.8290360852380629,0.9047450350366026
14,5,1.0,0.838083535588429,0.0
14,5,0.75,0.8436868260675746,-0.5603290479145651
14,5,0.5,0.8499265316028418,-1.1842996014412854
14,5,0.25,0.8496343854054658,-1.1550849817036801
14,5,0.0,0.802582563419971,3.5500972168457934
14,6,1.0,0.838083535588429,0.0
14,6,0.75,0.843189383691265,-0.5105848102835986
14,6,0.5,0.8381007368503405,-0.001720126191151472
14,6,0.25,0.8311881316951004,0.6895403893328544
14,6,0.0,0.817571635914629,2.051189967379996
14,7,1.0,0.838083535588429,0.0
14,7,0.75,0.8418234395100156,-0.3739903921586629
14,7,0.5,0.8460273728782481,-0.7943837289819178
14,7,0.25,0.8363165505707693,0.17669850176597057
14,7,0.0,0.8080137573877104,3.0069778200718544
14,8,1.0,0.838083535588429,0.0
14,8,0.75,0.839221842461193,-0.1138306872764061
14,8,0.5,0.831660207688718,0.6423327899711007
14,8,0.25,0.8153012350176884,2.27823005707406
14,8,0.0,0.7467525566538031,9.133097893462583
15,0,1.0,0.9097650443940948,0.0
15,0,0.75,0.9030481553008078,0.6716889093286937
15,0,0.5,0.907540393206674,0.22246511874207675
15,0,0.25,0.8898750595938452,1.9889984800249616
15,0,0.0,0.8229326405582711,8.683240383582369
15,1,1.0,0.9097650443940948,0.0
15,1,0.75,0.9157304392975473,-0.5965394903452492
15,1,0.5,0.9079968093372349,0.1768235056859857
15,1,0.25,0.8948245917855067,1.4940452608588117
15,1,0.0,0.8322307451546422,7.753429923945254
15,2,1.0,0.9097650443940948,0.0
15,2,0.75,0.9018788730227105,0.7886171371384254
15,2,0.5,0.8978571268691928,1.1907917524901945
15,2,0.25,0.8852073008909469,2.4557743503147877
15,2,0.0,0.8408281659409522,6.893687845314256
15,3,1.0,0.9097650443940948,0.0
15,3,0.75,0.8979165190765186,1.1848525317576186
15,3,0.5,0.8929777535911544,1.678729080294039
15,3,0.25,0.8791322711667425,3.063277322735225
15,3,0.0,0.8711085788234176,3.8656465570677145
15,4,1.0,0.9097650443940948,0.0
15,4,0.75,0.9111874224790858,-0.14223780849910161
15,4,0.5,0.9064508541604698,0.3314190233625003
15,4,0.25,0.9002261702926933,0.9538874101401529
15,4,0.0,0.855373817152449,5.43912272416458
15,5,1.0,0.9097650443940948,0.0
15,5,0.75,0.9119755429053342,-0.22104985112394449
15,5,0.5,0.9072037705645175,0.2561273829577271
15,5,0.25,0.8915317632358974,1.8233281158197334
15,5,0.0,0.8470649720649721,6.270007232912267
15,6,1.0,0.9097650443940948,0.0
15,6,0.75,0.9042544282322025,0.5510616161892301
15,6,0.5,0.8958672384110664,1.3897805983028366
15,6,0.25,0.8936879153175372,1.6077129076557561
15,6,0.0,0.8890347028222755,2.07303415718193
15,7,1.0,0.9097650443940948,0.0
15,7,0.75,0.8907627802719169,1.900226412217787
15,7,0.5,0.8763904338153503,3.337461057874447
15,7,0.25,0.8627122330533882,4.70528113407066
15,7,0.0,0.803861537463828,10.590350693026673
15,8,1.0,0.9097650443940948,0.0
15,8,0.75,0.9261724272448363,-1.6407382850741503
15,8,0.5,0.9365802974836501,-2.6815253089555346
15,8,0.25,0.9539932727592574,-4.422822836516261
15,8,0.0,0.9160349033735437,-0.6269858979448872
16,0,1.0,0.8630017222106303,0.0
16,0,0.75,0.8707871238510775,-0.7785401640447165
16,0,0.5,0.8710538533212904,-0.8052131110660055
16,0,0.25,0.8602359240625629,0.2765798148067433
16,0,0.0,0.8397938493512646,2.3207872859365763
16,1,1.0,0.8630017222106303,0.0
16,1,0.75,0.8633036295397961,-0.030190732916579588
16,1,0.5,0.8701484025023188,-0.7146680291688523
16,1,0.25,0.8670259650909806,-0.4024242880350304
16,1,0.0,0.8316263546894891,3.137536752114123
16,2,1.0,0.8630017222106303,0.0
16,2,0.75,0.861333889392115,0.16678328185153468
16,2,0.5,0.870284389589211,-0.7282667378580632
16,2,0.25,0.8609296826528577,0.2072039557772576
16,2,0.0,0.8392001051656717,2.3801617044958645
16,3,1.0,0.8630017222106303,0.0
16,3,0.75,0.8634018186710016,-0.04000964603713131
16,3,0.5,0.8691656741253566,-0.6163951914726296
16,3,0.25,0.8597633851528141,0.32383370578161763
16,3,0.0,0.8405825998717971,2.2419122338833253
16,4,1.0,0.8630017222106303,0.0
16,4,0.75,0.8522091998946555,1.0792522315974828
16,4,0.5,0.8470319538195773,1.5969768391053019
16,4,0.25,0.834891363037841,2.8110359172789368
16,4,0.0,0.7772899446744964,8.57117775361339
16,5,1.0,0.8630017222106303,0.0
16,5,0.75,0.856164994425864,0.6836727784766294
16,5,0.5,0.8545951471547458,0.8406575055884491
16,5,0.25,0.8430106503165775,1.9991071894052803
16,5,0.0,0.79484112461645,6.816059759418036
16,6,1.0,0.8630017222106303,0.0
16,6,0.75,0.8638670982153337,-0.08653760047033776
16,6,0.5,0.8588237481102855,0.4177974100344817
16,6,0.25,0.8510826186833598,1.1919103527270547
16,6,0.0,0.8491588492635498,1.3842872947080531
16,7,1.0,0.8630017222106303,0.0
16,7,0.75,0.8660613289984707,-0.3059606787840341
16,7,0.5,0.8526581656986107,1.034355651201957
16,7,0.25,0.8220340544093828,4.096766780124749
16,7,0.0,0.7635991635600807,9.940255865054958
16,8,1.0,0.8630017222106303,0.0
16,8,0.75,0.865551072524539,-0.25493503139086826
16,8,0.5,0.8584064378206496,0.45952843899806917
16,8,0.25,0.8441197838659088,1.8881938344721516
16,8,0.0,0.8096902894144928,5.331143279613748
17,0,1.0,0.8474939591875076,0.0
17,0,0.75,0.854767941259462,-0.7273982071954399
17,0,0.5,0.8546772067496449,-0.7183247562137285
17,0,0.25,0.844182536044739,0.3311423142768555
17,0,0.0,0.8189931075672616,2.850085162024596
17,1,1.0,0.8474939591875076,0.0
17,1,0.75,0.8542209911436303,-0.6727031956122675
17,1,0.5,0.8562214465568465,-0.8727487369338927
17,1,0.25,0.8586836976559757,-1.1189738468468158
17,1,0.0,0.8570763376918146,-0.9582378504306988
17,2,1.0,0.8474939591875076,0.0
17,2,0.75,0.8502390133431265,-0.27450541556188757
17,2,0.5,0.8551928441479685,-0.7698884960460894
17,2,0.25,0.8487355263671053,-0.1241567179597669
17,2,0.0,0.8588336140114646,-1.1339654823957046
17,3,1.0,0.8474939591875076,0.0
17,3,0.75,0.8501226789318179,-0.2628719744310337
17,3,0.5,0.8593762361903377,-1.1882277002830066
17,3,0.25,0.8490198038655623,-0.1525844678054722
17,3,0.0,0.828587961728787,1.890599745872057
17,4,1.0,0.8474939591875076,0.0
17,4,0.75,0.8589003659568528,-1.1406406769345234
17,4,0.5,0.8541666462113435,-0.6672687023835944
17,4,0.25,0.8405921980887643,0.6901761098743298
17,4,0.0,0.8234107457420888,2.408321344541875
17,5,1.0,0.8474939591875076,0.0
17,5,0.75,0.8478902001795241,-0.039624099201651664
17,5,0.5,0.8431140825803377,0.43798766071698747
17,5,0.25,0.8300532090976849,1.744075008982271
17,5,0.0,0.7873686797969002,6.012527939060741
17,6,1.0,0.8474939591875076,0.0
17,6,0.75,0.8505885988028845,-0.3094639615376926
17,6,0.5,0.8559087844321586,-0.8414825244650981
17,6,0.25,0.8523419346413557,-0.48479754538480746
17,6,0.0,0.8509898857852292,-0.3495926597721577
17,7,1.0,0.8474939591875076,0.0
17,7,0.75,0.8655848559055035,-1.8090896717995908
17,7,0.5,0.85370011628584,-0.6206157098332388
17,7,0.25,0.855012396486194,-0.7518437298686398
17,7,0.0,0.8346543369531905,1.2839622234317116
17,8,1.0,0.8474939591875076,0.0
17,8,0.75,0.8595891046648672,-1.209514547735957
17,8,0.5,0.8446533745826114,0.28405846048962236
17,8,0.25,0.8459501066432127,0.15438525442948992
17,8,0.0,0.7540780674466809,9.341589174082666
18,0,1.0,0.8602586241928802,0.0
18,0,0.75,0.847512559667952,1.2746064524928213
18,0,0.5,0.8270746747549231,3.3183949437957105
18,0,0.25,0.8063778126536169,5.388081153926338
18,0,0.0,0.7958566267611313,6.44019974317489
18,1,1.0,0.8602586241928802,0.0
18,1,0.75,0.8562260934950926,0.40325306977876396
18,1,0.5,0.8614434521601217,-0.11848279672415085
18,1,0.25,0.8634410470066151,-0.318242281373482
18,1,0.0,0.8392773783704277,2.0981245822452532
18,2,1.0,0.8602586241928802,0.0
18,2,0.75,0.848330110491626,1.192851370125425
18,2,0.5,0.8471373168290183,1.3121307363861967
18,2,0.25,0.8389669771668453,2.129164702603492
18,2,0.0,0.8092728433634432,5.098578082943705
18,3,1.0,0.8602586241928802,0.0
18,3,0.75,0.8376964934757656,2.256213071711466
18,3,0.5,0.8219810963017474,3.827752789113281
18,3,0.25,0.7900628993050882,7.019572488779202
18,3,0.0,0.7195746807188586,14.068394347402169
18,4,1.0,0.8602586241928802,0.0
18,4,0.75,0.853359173126615,0.6899451066265216
18,4,0.5,0.8452096730529746,1.5048951139905675
18,4,0.25,0.8465006477609767,1.3757976431903574
18,4,0.0,0.8123900111952269,4.786861299765333
18,5,1.0,0.8602586241928802,0.0
18,5,0.75,0.8461597051717955,1.4098919021084733
18,5,0.5,0.8584816592409016,0.17769649519786546
18,5,0.25,0.8600819572952911,0.017666689758910614
18,5,0.0,0.8023144996220447,5.794412457083553
18,6,1.0,0.8602586241928802,0.0
18,6,0.75,0.860990305143843,-0.07316809509627653
18,6,0.5,0.8636639686833243,-0.3405344490444051
18,6,0.25,0.8644733737042893,-0.42147495114090994
18,6,0.0,0.8609744813694453,-0.07158571765650823
18,7,1.0,0.8602586241928802,0.0
18,7,0.75,0.8405360974351561,1.9722526757724124
18,7,0.5,0.8281055537407012,3.2153070452179078
18,7,0.25,0.815198848171724,4.505977602115618
18,7,0.0,0.7680010961654706,9.22575280274096
18,8,1.0,0.8602586241928802,0.0
18,8,0.75,0.842795331988887,1.746329220399323
18,8,0.5,0.8234087254300702,3.6849898762810085
18,8,0.25,0.791278638833242,6.897998535963823
18,8,0.0,0.7506161469432858,10.964247724959442
19,0,1.0,0.8735129592881241,0.0
19,0,0.75,0.8752281287859861,-0.17151694978619902
19,0,0.5,0.8601888399684423,1.3324119319681804
19,0,0.25,0.8488520757929496,2.466088349517448
19,0,0.0,0.8420494159803336,3.1463543307790554
19,1,1.0,0.8735129592881241,0.0
19,1,0.75,0.8817524262829703,-0.8239466994846234
19,1,0.5,0.8765737330449547,-0.30607737568305593
19,1,0.25,0.8725981707677515,0.09147885203726336
19,1,0.0,0.8674541868507386,0.6058772437385507
19,2,1.0,0.8735129592881241,0.0
19,2,0.75,0.8770377453040037,-0.35247860158795774
19,2,0.5,0.8741762789730192,-0.06633196848950806
19,2,0.25,0.8755718938679424,-0.20589345798183167
19,2,0.0,0.8620013072371071,1.1511652051017007
19,3,1.0,0.8735129592881241,0.0
19,3,0.75,0.876561834160136,-0.30488748720118863
19,3,0.5,0.8747810783297874,-0.12681190416632404
19,3,0.25,0.8674148016667548,0.6098157621369338
19,3,0.0,0.8258351827687691,4.767777651935501
19,4,1.0,0.8735129592881241,0.0
19,4,0.75,0.8799567895922666,-0.6443830304142528
19,4,0.5,0.8775410446341585,-0.40280853460343824
19,4,0.25,0.8653150457725384,0.8197913515585742
19,4,0.0,0.8108498244231378,6.266313486498632
19,5,1.0,0.8735129592881241,0.0
19,5,0.75,0.8756486594723432,-0.2135700184219047
19,5,0.5,0.8781356843206259,-0.4622725032501829
19,5,0.25,0.873652893732211,-0.01399344440868866
19,5,0.0,0.818980765782389,5.453219350573512
19,6,1.0,0.8735129592881241,0.0
19,6,0.75,0.8769751965831669,-0.34622372950428026
19,6,0.5,0.8745974473167873,-0.1084488028663233
19,6,0.25,0.8822583228401136,-0.8745363551989516
19,6,0.0,0.8636058451870288,0.9907114101095349
19,7,1.0,0.8735129592881241,0.0
19,7,0.75,0.8721802972362773,0.1332662051846789
19,7,0.5,0.8760242287405806,-0.25112694524564994
19,7,0.25,0.8690639932888788,0.4448965999245269
19,7,0.0,0.8365549325088599,3.6958026779264186
19,8,1.0,0.8735129592881241,0.0
19,8,0.75,0.8717497029597568,0.17632563283672686
19,8,0.5,0.8646862612195931,0.882669806853098
19,8,0.25,0.8572183041371768,1.6294655150947301
19,8,0.0,0.849850981972366,2.3661977315758143
20,0,1.0,0.8367310764492647,0.0
20,0,0.75,0.8336136145435525,0.311746190571216
20,0,0.5,0.8369680851063829,-0.02370086571181762
20,0,0.25,0.8387922639512528,-0.20611875019881376
20,0,0.0,0.8037518106719268,3.2979265777337896
20,1,1.0,0.8367310764492647,0.0
20,1,0.75,0.8271357424426596,0.9595334006605061
20,1,0.5,0.8119929912229907,2.4738085226273965
20,1,0.25,0.8035134325153497,3.321764393391502
20,1,0.0,0.7674005074140484,6.933056903521628
20,2,1.0,0.8367310764492647,0.0
20,2,0.75,0.8276701989523055,0.9060877496959163
20,2,0.5,0.8069242347544582,2.980684169480652
20,2,0.25,0.7983653233959558,3.8365753053308915
20,2,0.0,0.7823095123497809,5.442156409948384
20,3,1.0,0.8367310764492647,0.0
20,3,0.75,0.8327699217618082,0.3961154687456503
20,3,0.5,0.8112726911954691,2.5458385253795623
20,3,0.25,0.7925906648504253,4.414041159883942
20,3,0.0,0.79350033980912,4.323073664014466
20,4,1.0,0.8367310764492647,0.0
20,4,0.75,0.8419197016522426,-0.5188625202977915
20,4,0.5,0.8383545207366814,-0.16234442874166755
20,4,0.25,0.8374092886516331,-0.06782122023684112
20,4,0.0,0.8344417536015897,0.22893228476750238
20,5,1.0,0.8367310764492647,0.0
20,5,0.75,0.8413187592558204,-0.45876828065557484
20,5,0.5,0.8371560718124533,-0.04249953631886294
20,5,0.25,0.8412456791886546,-0.45146027393898613
20,5,0.0,0.8238945318320409,1.2836544617223833
20,6,1.0,0.8367310764492647,0.0
20,6,0.75,0.8350310338473896,0.17000426018750625
20,6,0.5,0.8083161191944535,2.8414957254811246
20,6,0.25,0.8112228942565873,2.5508182192677364
20,6,0.0,0.7961594886143962,4.057158783486847
20,7,1.0,0.8367310764492647,0.0
20,7,0.75,0.8350310338473896,0.17000426018750625
20,7,0.5,0.8389511227065989,-0.2220046257334185
20,7,0.25,0.8166218038698374,2.0109272579427295
20,7,0.0,0.7760557088277295,6.067536762153525
20,8,1.0,0.8367310764492647,0.0
20,8,0.75,0.8272167696476661,0.9514306801598593
20,8,0.5,0.8291031684401462,0.76279080091185
20,8,0.25,0.802674711219273,3.405636522999167
20,8,0.0,0.7528234546699539,8.390762177931077
21,0,1.0,0.8399138966048261,0.0
21,0,0.75,0.8467919085351461,-0.6878011930320005
21,0,0.5,0.8459310769192616,-0.6017180314435544
21,0,0.25,0.8311229976031019,0.879089900172414
21,0,0.0,0.8201190947600541,1.9794801844772003
21,1,1.0,0.8399138966048261,0.0
21,1,0.75,0.8396260406779341,0.02878559268919556
21,1,0.5,0.8444292103781089,-0.45153137732828474
21,1,0.25,0.847668973918593,-0.77550773137669
21,1,0.0,0.8492142230026338,-0.9300326397807757
21,2,1.0,0.8399138966048261,0.0
21,2,0.75,0.8475101896154527,-0.7596293010626587
21,2,0.5,0.8518479483429499,-1.1934051738123785
21,2,0.25,0.8339771716438573,0.5936724960968753
21,2,0.0,0.8288920306514462,1.102186595337984
21,3,1.0,0.8399138966048261,0.0
21,3,0.75,0.8392569418885207,0.06569547163053358
21,3,0.5,0.8356240322937403,0.42898643110858004
21,3,0.25,0.8302133726031893,0.970052400163679
21,3,0.0,0.815466080774168,2.4447815830658026
21,4,1.0,0.8399138966048261,0.0
21,4,0.75,0.8465282766204627,-0.6614380015636634
21,4,0.5,0.8456830737802615,-0.5769177175435458
21,4,0.25,0.8506909210600793,-1.0777024455253192
21,4,0.0,0.8321677731296554,0.7746123475170674
21,5,1.0,0.8399138966048261,0.0
21,5,0.75,0.8439876811565914,-0.4073784551765325
21,5,0.5,0.8574479270085982,-1.7534030403772105
21,5,0.25,0.8526671468435313,-1.2753250238705216
21,5,0.0,0.8656978571463301,-2.5783960541504003
21,6,1.0,0.8399138966048261,0.0
21,6,0.75,0.8410310734822091,-0.11171768773829971
21,6,0.5,0.8371049245963169,0.28089720085091585
21,6,0.25,0.832538899051745,0.737499755308102
21,6,0.0,0.8123302981331654,2.7583598471660697
21,7,1.0,0.8399138966048261,0.0
21,7,0.75,0.8352459381656462,0.4667958439179887
21,7,0.5,0.8350205176182983,0.4893378986527752
21,7,0.25,0.8118072819560235,2.8106614648802597
21,7,0.0,0.7980855344372126,4.182836216761343
21,8,1.0,0.8399138966048261,0.0
21,8,0.75,0.8369588963746062,0.2955000230219884
21,8,0.5,0.8472203343974312,-0.7306437792605092
21,8,0.25,0.8484420542259002,-0.8528157621074173
21,8,0.0,0.8073458715560753,3.256802504875078
22,0,1.0,0.7934314701046985,0.0
22,0,0.75,0.8020910427987286,-0.865957269403006
22,0,0.5,0.791785123487681,0.1646346617017458
22,0,0.25,0.774223961913165,1.9207508191533496
22,0,0.0,0.7383252870398368,5.510618306486171
22,1,1.0,0.7934314701046985,0.0
22,1,0.75,0.8000240208374061,-0.6592550732707592
22,1,0.5,0.7957200549479018,-0.22885848432032674
22,1,0.25,0.7991310087179924,-0.5699538613293864
22,1,0.0,0.7841582982642493,0.9273171840449179
22,2,1.0,0.7934314701046985,0.0
22,2,0.75,0.7925463576876579,0.088511241704059
22,2,0.5,0.7884724013357657,0.4959068768932817
22,2,0.25,0.7819881507851704,1.1443319319528134
22,2,0.0,0.7748973934769966,1.85340766277019
22,3,1.0,0.7934314701046985,0.0
22,3,0.75,0.7789769255890076,1.4454544515690948
22,3,0.5,0.75873001672304,3.470145338165853
22,3,0.25,0.752514826656211,4.091664344848745
22,3,0.0,0.7520996384370335,4.133183166766496
22,4,1.0,0.7934314701046985,0.0
22,4,0.75,0.7954718406593406,-0.20403705546421236
22,4,0.5,0.7800017777993029,1.342969230539559
22,4,0.25,0.7670816209554072,2.6349849149291282
22,4,0.0,0.7462324192661272,4.719905083857134
22,5,1.0,0.7934314701046985,0.0
22,5,0.75,0.7964012546505208,-0.2969784545822307
22,5,0.5,0.7998890069922711,-0.6457536887572557
22,5,0.25,0.7883403811886182,0.5091088916080344
22,5,0.0,0.7596381665189497,3.3793303585748835
22,6,1.0,0.7934314701046985,0.0
22,6,0.75,0.7971152573393487,-0.36837872346502376
22,6,0.5,0.7927404702750981,0.06909998296004138
22,6,0.25,0.7879993432759114,0.5432126828787132
22,6,0.0,0.782094024580178,1.133744552452054
22,7,1.0,0.7934314701046985,0.0
22,7,0.75,0.7752395195144545,1.8191950590244033
22,7,0.5,0.7663471372494421,2.7084332855256354
22,7,0.25,0.7417898996006815,5.1641570504016965
22,7,0.0,0.6890838213240117,10.43476487806868
22,8,1.0,0.7934314701046985,0.0
22,8,0.75,0.7933585314824908,0.007293862220769665
22,8,0.5,0.7929146742181704,0.05167958865280875
22,8,0.25,0.7775956239489681,1.5835846155730415
22,8,0.0,0.7318443798582572,6.158709024644127
23,0,1.0,0.819553888768434,0.0
23,0,0.75,0.8148990049669336,0.46548838015004756
23,0,0.5,0.8069563100914465,1.259757867698752
23,0,0.25,0.778454718670821,4.109917009761299
23,0,0.0,0.7075611235812718,11.199276518716228
23,1,1.0,0.819553888768434,0.0
23,1,0.75,0.8180736627332198,0.14802260352142493
23,1,0.5,0.8129968128814176,0.6557075887016484
23,1,0.25,0.8014374366997289,1.8116452068705158
23,1,0.0,0.7791021398854123,4.0451748883021725
23,2,1.0,0.819553888768434,0.0
23,2,0.75,0.8326487783771106,-1.3094889608676552
23,2,0.5,0.8339677813814543,-1.4413892613020285
23,2,0.25,0.8377012190963444,-1.8147330327910383
23,2,0.0,0.8389832947706874,-1.9429406002253402
23,3,1.0,0.819553888768434,0.0
23,3,0.75,0.8160484787794494,0.35054099889846313
23,3,0.5,0.8234397884453312,-0.388589967689712
23,3,0.25,0.8127314550566964,0.682243371173763
23,3,0.0,0.785521599246895,3.4032289521539028
23,4,1.0,0.819553888768434,0.0
23,4,0.75,0.8153416067930199,0.4212281975414123
23,4,0.5,0.8208696837833056,-0.1315795014871557
23,4,0.25,0.795544525809259,2.4009362959174996
23,4,0.0,0.7727277335961771,4.682615517225697
23,5,1.0,0.819553888768434,0.0
23,5,0.75,0.8156256351133135,0.3928253655120506
23,5,0.5,0.8152907913355008,0.4263097432933294
23,5,0.25,0.809848632469493,0.9705256298941034
23,5,0.0,0.785865514154866,3.3688374613567995
23,6,1.0,0.819553888768434,0.0
23,6,0.75,0.8194614238220796,0.009246494635439806
23,6,0.5,0.8118683337391213,0.7685555029312785
23,6,0.25,0.8031793316796935,1.6374557088740582
23,6,0.0,0.8009240602514818,1.8629828516952274
23,7,1.0,0.819553888768434,0.0
23,7,0.75,0.8186889416290506,0.0864947139383454
23,7,0.5,0.8263812502883885,-0.6827361519954445
23,7,0.25,0.810364950630594,0.9188938137840053
23,7,0.0,0.8021800741796105,1.7373814588823588
23,8,1.0,0.819553888768434,0.0
23,8,0.75,0.8234235665807583,-0.3869677812324279
23,8,0.5,0.8124467031518453,0.710718561658874
23,8,0.25,0.8070420459778258,1.251184279060824
23,8,0.0,0.7732092602519431,4.63446285164909
24,0,1.0,0.8067804912799927,0.0
24,0,0.75,0.7932530562775877,1.3527435002405053
24,0,0.5,0.7954464276116553,1.1334063668337446
24,0,0.25,0.7888833927329364,1.7897098547056345
24,0,0.0,0.7573148704959382,4.946562078405458
24,1,1.0,0.8067804912799927,0.0
24,1,0.75,0.8040665131634179,0.2713978116574811
24,1,0.5,0.8037969714731589,0.29835198068338675
24,1,0.25,0.8049559154739121,0.18245758060806416
24,1,0.0,0.7985244868245163,0.8256004455476473
24,2,1.0,0.8067804912799927,0.0
24,2,0.75,0.7988801542634495,0.7900337016543246
24,2,0.5,0.792654839315698,1.4125651964294716
24,2,0.25,0.7857221677105259,2.1058323569466797
24,2,0.0,0.7678619464551588,3.8918544824833923
24,3,1.0,0.8067804912799927,0.0
24,3,0.75,0.8214190207870089,-1.4638529507016163
24,3,0.5,0.8201738003395385,-1.3393309059545722
24,3,0.25,0.8387271494356016,-3.194665815560882
24,3,0.0,0.8395856041818774,-3.2805112901884703
24,4,1.0,0.8067804912799927,0.0
24,4,0.75,0.7952235494510885,1.155694182890421
24,4,0.5,0.7841284220093039,2.2652069270688857
24,4,0.25,0.7843849050589476,2.2395586221045094
24,4,0.0,0.737219326568489,6.956116471150375
24,5,1.0,0.8067804912799927,0.0
24,5,0.75,0.7933277101648044,1.3452781115188328
24,5,0.5,0.7894597150161262,1.7320776263866522
24,5,0.25,0.7753777254781917,3.1402765801801014
24,5,0.0,0.7443369088769034,6.244358240308934
24,6,1.0,0.8067804912799927,0.0
24,6,0.75,0.79361267557325,1.3167815706742747
24,6,0.5,0.788183904574251,1.8596586705741713
24,6,0.25,0.7843530414429332,2.2427449837059577
24,6,0.0,0.7726424581742404,3.4138033105752363
24,7,1.0,0.8067804912799927,0.0
24,7,0.75,0.801609472256412,0.5171019023580747
24,7,0.5,0.7956921926026532,1.1088298677339514
24,7,0.25,0.7884192293492677,1.836126193072507
24,7,0.0,0.7455498109267835,6.123068035320922
24,8,1.0,0.8067804912799927,0.0
24,8,0.75,0.8034338817993143,0.3346609480678442
24,8,0.5,0.7959319473791511,1.0848543900841667
24,8,0.25,0.7810876051372253,2.5692886142767435
24,8,0.0,0.7623247718151364,4.445571946485638
25,0,1.0,0.8968832096823478,0.0
25,0,0.75,0.900582917088771,-0.3699707406423225
25,0,0.5,0.901495874344235,-0.4612664661887145
25,0,0.25,0.8806608254507236,1.6222384231624254
25,0,0.0,0.8644389043456009,3.2444305336746915
25,1,1.0,0.8968832096823478,0.0
25,1,0.75,0.9111906646314968,-1.4307454949148979
25,1,0.5,0.9192473796653428,-2.2364169982994953
25,1,0.25,0.9125965092394759,-1.571329955712808
25,1,0.0,0.8918848484979898,0.49983611843580356
25,2,1.0,0.8968832096823478,0.0
25,2,0.75,0.9032922055280842,-0.6408995845736398
25,2,0.5,0.919927551672704,-2.304434199035621
25,2,0.25,0.910539164915811,-1.365595523346319
25,2,0.0,0.8892081947207204,0.7675014961627369
25,3,1.0,0.8968832096823478,0.0
25,3,0.75,0.9036544486215539,-0.6771238939206059
25,3,0.5,0.9198449349371216,-2.29617252547738
25,3,0.25,0.907284146464229,-1.0400936781881143
25,3,0.0,0.8794909077968756,1.739230188547225
25,4,1.0,0.8968832096823478,0.0
25,4,0.75,0.8953360346344723,0.1547175047875493
25,4,0.5,0.885638287468951,1.124492221339679
25,4,0.25,0.8757164911259251,2.1166718556422714
25,4,0.0,0.8034514231292389,9.34317865531089
25,5,1.0,0.8968832096823478,0.0
25,5,0.75,0.8969857759389432,-0.010256625659543772
25,5,0.5,0.8882491890095453,0.86340206728025
25,5,0.25,0.8918669448752523,0.5016264807095494
25,5,0.0,0.8265471142310752,7.033609545127262
25,6,1.0,0.8968832096823478,0.0
25,6,0.75,0.9046586627690287,-0.7775453086680928
25,6,0.5,0.9064752092558404,-0.9591999573492549
25,6,0.25,0.9107438547221918,-1.3860645039843966
25,6,0.0,0.9088723959991576,-1.1989186316809786
25,7,1.0,0.8968832096823478,0.0
25,7,0.75,0.9014702602996286,-0.4587050617280819
25,7,0.5,0.9097138193717919,-1.283060968944405
25,7,0.25,0.9018365993993642,-0.4953389717016421
25,7,0.0,0.8453028117134262,5.158039796892155
25,8,1.0,0.8968832096823478,0.0
25,8,0.75,0.8998336514917595,-0.295044180941173
25,8,0.5,0.8972294848250929,-0.03462751427451005
25,8,0.25,0.8990004879211949,-0.2117278238847109
25,8,0.0,0.8927885331077765,0.4094676574571299
26,0,1.0,0.7698675494145291,0.0
26,0,0.75,0.7828554071994851,-1.2987857784956036
26,0,0.5,0.7829626574269579,-1.3095108012428858
26,0,0.25,0.7681609978259122,0.1706551588616878
26,0,0.0,0.759300926760482,1.0566622654047064
26,1,1.0,0.7698675494145291,0.0
26,1,0.75,0.7762319235162672,-0.6364374101738179
26,1,0.5,0.7723759099109143,-0.25083604963852535
26,1,0.25,0.7733992631419825,-0.35317137274534227
26,1,0.0,0.7497166199029552,2.0150929511573823
26,2,1.0,0.7698675494145291,0.0
26,2,0.75,0.7759677454496102,-0.6100196035081162
26,2,0.5,0.7700803032740025,-0.02127538594733913
26,2,0.25,0.7595802301506684,1.0287319263860617
26,2,0.0,0.749532994730955,2.0334554683574035
26,3,1.0,0.7698675494145291,0.0
26,3,0.75,0.7815728080647716,-1.1705258650242523
26,3,0.5,0.7908729175253693,-2.1005368110840195
26,3,0.25,0.7729585957683276,-0.3091046353798532
26,3,0.0,0.7232462809534869,4.66212684610422
26,4,1.0,0.7698675494145291,0.0
26,4,0.75,0.7667021398165872,0.31654095979418706
26,4,0.5,0.7631824686892774,0.6685080725251646
26,4,0.25,0.7530668104080874,1.6800739006441634
26,4,0.0,0.7298905922276775,3.997695718685157
26,5,1.0,0.7698675494145291,0.0
26,5,0.75,0.783485841238548,-1.3618291824018969
26,5,0.5,0.7916779224456639,-2.1810373031134866
26,5,0.25,0.7853597479337574,-1.549219851922834
26,5,0.0,0.7610804880569911,0.8787061357537929
26,6,1.0,0.7698675494145291,0.0
26,6,0.75,0.775656195048184,-0.5788645633654887
26,6,0.5,0.7803320591673082,-1.0464509752779128
26,6,0.25,0.7749545553432805,-0.5087005928751442
26,6,0.0,0.7644101149915973,0.5457434422931784
26,7,1.0,0.7698675494145291,0.0
26,7,0.75,0.7982306148701612,-2.8363065455632164
26,7,0.5,0.8041555031275363,-3.428795371300719
26,7,0.25,0.7937680513610017,-2.390050194647264
26,7,0.0,0.7212868973517093,4.858065206281981
26,8,1.0,0.7698675494145291,0.0
26,8,0.75,0.7751735300178677,-0.5305980603338645
26,8,0.5,0.7634331542954917,0.6434395119037317
26,8,0.25,0.753962803069946,1.5904746344583054
26,8,0.0,0.7007140843302606,6.915346508426845
27,0,1.0,0.9049029241898274,0.0
27,0,0.75,0.9101664935346508,-0.5263569344823416
27,0,0.5,0.918051577045893,-1.314865285606559
27,0,0.25,0.9150916702274466,-1.0188746037619212
27,0,0.0,0.8979354579659786,0.6967466223848806
27,1,1.0,0.9049029241898274,0.0
27,1,0.75,0.9022520035544332,0.2650920635394183
27,1,0.5,0.8993974996058977,0.5505424583929774
27,1,0.25,0.9100563171764842,-0.5153392986656735
27,1,0.0,0.9084192002389835,-0.3516276049156053
27,2,1.0,0.9049029241898274,0.0
27,2,0.75,0.9020083847177359,0.28945394720915063
27,2,0.5,0.8933966836509893,1.1506240538838086
27,2,0.25,0.8879321398041843,1.6970784385643145
27,2,0.0,0.8705618928528362,3.434103133699118
27,3,1.0,0.9049029241898274,0.0
27,3,0.75,0.9022125379053402,0.2690386284487256
27,3,0.5,0.9036703616722651,0.1232562517562319
27,3,0.25,0.9072260889356069,-0.2323164745779427
27,3,0.0,0.892468530901206,1.2434393288621393
27,4,1.0,0.9049029241898274,0.0
27,4,0.75,0.9075840158148255,-0.26810916249980776
27,4,0.5,0.903884772165137,0.10181520246904663
27,4,0.25,0.8934063486501175,1.1496575539709952
27,4,0.0,0.8450500389479192,5.985288524190824
27,5,1.0,0.9049029241898274,0.0
27,5,0.75,0.9047085973777267,0.019432681210074243
27,5,0.5,0.9047973915594034,0.010553263042401007
27,5,0.25,0.8929037283882295,1.1999195801597917
27,5,0.0,0.8537386188708461,5.11643053189813
27,6,1.0,0.9049029241898274,0.0
27,6,0.75,0.8991077692911554,0.5795154898671995
27,6,0.5,0.8989279527872502,0.5974971402577189
27,6,0.25,0.8924815084981375,1.2421415691689974
27,6,0.0,0.8852349521707248,1.9667972019102642
27,7,1.0,0.9049029241898274,0.0
27,7,0.75,0.9234110341624608,-1.8508109972633413
27,7,0.5,0.9184534688195335,-1.3550544629706063
27,7,0.25,0.9009261268102186,0.3976797379608876
27,7,0.0,0.8722051212657607,3.2697802924066766
27,8,1.0,0.9049029241898274,0.0
27,8,0.75,0.9018184239673221,0.3084500222505282
27,8,0.5,0.9042637296171621,0.06391945726653692
27,8,0.25,0.8949426777906682,0.9960246399159267
27,8,0.0,0.882357607983791,2.254531620603639
28,0,1.0,0.8571697486938014,0.0
28,0,0.75,0.8649602521929824,-0.779050349918109
28,0,0.5,0.8726425423068039,-1.5472793613002578
28,0,0.25,0.8688292082582894,-1.1659459564487995
28,0,0.0,0.854224394499179,0.2945354194622385
28,1,1.0,0.8571697486938014,0.0
28,1,0.75,0.8565059985503372,0.06637501434642035
28,1,0.5,0.8667888232568465,-0.9619074563045116
28,1,0.25,0.8547721045124427,0.23976441813586824
28,1,0.0,0.8515580767972103,0.5611671896591064
28,2,1.0,0.8571697486938014,0.0
28,2,0.75,0.848379164136949,0.8790584556852332
28,2,0.5,0.8504371218241293,0.673262686967202
28,2,0.25,0.845321664437848,1.1848084255953406
28,2,0.0,0.8365458044808619,2.062394421293945
28,3,1.0,0.8571697486938014,0.0
28,3,0.75,0.8708142685008983,-1.364451980709691
28,3,0.5,0.8480088310258013,0.916091766800009
28,3,0.25,0.8097268031925816,4.744294550121975
28,3,0.0,0.7794283879725388,7.774136072126259
28,4,1.0,0.8571697486938014,0.0
28,4,0.75,0.8464532086563887,1.0716540037412625
28,4,0.5,0.8308880792039721,2.628166948982924
28,4,0.25,0.7969605495156582,6.020919917814316
28,4,0.0,0.7510518923832229,10.611785631057845
28,5,1.0,0.8571697486938014,0.0
28,5,0.75,0.86220618999685,-0.5036441303048589
28,5,0.5,0.8512489422382319,0.5920806455569472
28,5,0.25,0.8263385092737918,3.0831239420009537
28,5,0.0,0.7820273897962968,7.514235889750454
28,6,1.0,0.8571697486938014,0.0
28,6,0.75,0.8575197418719707,-0.03499931781693055
28,6,0.5,0.8661114328961779,-0.894168420237651
28,6,0.25,0.8536216974413994,0.35480512524019847
28,6,0.0,0.8535966309715337,0.3573117722267649
28,7,1.0,0.8571697486938014,0.0
28,7,0.75,0.8529546161774547,0.42151325163466424
28,7,0.5,0.8527111612371223,0.4458587456679042
28,7,0.25,0.8307954361150778,2.637431257872358
28,7,0.0,0.7900388611878308,6.713088750597052
28,8,1.0,0.8571697486938014,0.0
28,8,0.75,0.8612566767887323,-0.40869280949309417
28,8,0.5,0.8661958119750458,-0.9026063281244445
28,8,0.25,0.8588069819699228,-0.16372332761214192
28,8,0.0,0.8506348359741398,0.6534912719661556
29,0,1.0,0.8382267054625998,0.0
29,0,0.75,0.830244621162187,0.7982084300412806
29,0,0.5,0.8352174815913679,0.3009223871231925
29,0,0.25,0.8196511168743217,1.8575588588278125
29,0,0.0,0.7989721679286896,3.925453753391017
29,1,1.0,0.8382267054625998,0.0
29,1,0.75,0.8384295214490876,-0.020281598648774768
29,1,0.5,0.8362527148111878,0.19739906514120165
29,1,0.25,0.833137223036584,0.5089482426015812
29,1,0.0,0.8223190268366899,1.5907678625909916
29,2,1.0,0.8382267054625998,0.0
29,2,0.75,0.8382267054625998,0.0
29,2,0.5,0.8342279699672037,0.39987354953960885
29,2,0.25,0.8310750681179294,0.7151637344670392
29,2,0.0,0.7971470141829515,4.107969127964828
29,3,1.0,0.8382267054625998,0.0
29,3,0.75,0.8246728018095323,1.3553903653067523
29,3,0.5,0.8213018674934051,1.692483796919475
29,3,0.25,0.8110128154689048,2.7213889993695006
29,3,0.0,0.7986822950096837,3.9544410452916123
29,4,1.0,0.8382267054625998,0.0
29,4,0.75,0.8301165860414019,0.8110119421197881
29,4,0.5,0.8206615018564889,1.7565203606110913
29,4,0.25,0.7860185428077943,5.220816265480554
29,4,0.0,0.7209123120995098,11.731439336309002
29,5,1.0,0.8382267054625998,0.0
29,5,0.75,0.8336400191857901,0.4586686276809693
29,5,0.5,0.8231520020005658,1.507470346203399
29,5,0.25,0.8180616244490749,2.0165081013524877
29,5,0.0,0.7685400158385005,6.96866896240993
29,6,1.0,0.8382267054625998,0.0
29,6,0.75,0.8400960181478352,-0.18693126852353803
29,6,0.5,0.8459652642775157,-0.7738558814915919
29,6,0.25,0.8450960768898887,-0.686937142728894
29,6,0.0,0.8536793369807743,-1.5452631518174442
29,7,1.0,0.8382267054625998,0.0
29,7,0.75,0.8394846393153058,-0.12579338527060058
29,7,0.5,0.8353541835943881,0.28725218682117415
29,7,0.25,0.8311467875140737,0.7079917948526138
29,7,0.0,0.7932075960942643,4.5019109368335535
29,8,1.0,0.8382267054625998,0.0
29,8,0.75,0.8345498259664261,0.36768794961736795
29,8,0.5,0.8290400066362302,0.9186698826369577
29,8,0.25,0.8089786671440966,2.92480383185032
29,8,0.0,0.7572315561961849,8.099514926641493
30,0,1.0,0.8710026257731743,0.0
30,0,0.75,0.8786687063285836,-0.7666080555409294
30,0,0.5,0.8775402861601187,-0.6537660386944366
30,0,0.25,0.8739503025068786,-0.29476767337042187
30,0,0.0,0.8972205164702506,-2.621789069707625
30,1,1.0,0.8710026257731743,0.0
30,1,0.75,0.8774615280458594,-0.6458902272685085
30,1,0.5,0.8640581444656672,0.6944481307507133
30,1,0.25,0.8605558473389355,1.0446778434238801
30,1,0.0,0.8441121497001085,2.6890476073065828
30,2,1.0,0.8710026257731743,0.0
30,2,0.75,0.8677260876053597,0.3276538167814591
30,2,0.5,0.8829071920115965,-1.1904566238422176
30,2,0.25,0.8819663405524694,-1.096371477929503
30,2,0.0,0.8598648037656297,1.113782200754465
30,3,1.0,0.8710026257731743,0.0
30,3,0.75,0.8677533831841582,0.32492425890161547
30,3,0.5,0.8547546736282701,1.6247952144904265
30,3,0.25,0.846125142445395,2.487748332777928
30,3,0.0,0.8303669965888137,4.063562918436059
30,4,1.0,0.8710026257731743,0.0
30,4,0.75,0.8683962928941044,0.26063328790699725
30,4,0.5,0.8606558876735059,1.0346738099668462
30,4,0.25,0.8553063902372466,1.5696235535927694
30,4,0.0,0.817007896570592,5.39947292025823
30,5,1.0,0.8710026257731743,0.0
30,5,0.75,0.8631039477109529,0.7898678062221443
30,5,0.5,0.8613471557143599,0.9655470058814397
30,5,0.25,0.8363600041762645,3.4642621596909784
30,5,0.0,0.8078742596431275,6.31283661300468
30,6,1.0,0.8710026257731743,0.0
30,6,0.75,0.8652541234569643,0.5748502316210047
30,6,0.5,0.8632117057791723,0.7790919994002055
30,6,0.25,0.8585330613262094,1.2469564446964898
30,6,0.0,0.8595336386882368,1.1468987084937488
30,7,1.0,0.8710026257731743,0.0
30,7,0.75,0.8684961976614867,0.2506428111687664
30,7,0.5,0.8622468199994963,0.8755805773678071
30,7,0.25,0.8080632671985305,6.293935857464383
30,7,0.0,0.759223947970959,11.17786778022153
30,8,1.0,0.8710026257731743,0.0
30,8,0.75,0.8671775452705968,0.38250805025775714
30,8,0.5,0.8657489158629298,0.5253709910244542
30,8,0.25,0.8608568373566827,1.0145788416491608
30,8,0.0,0.8363168180910049,3.4685807682169445
31,0,1.0,0.8172779437926228,0.0
31,0,0.75,0.8223565295280454,-0.5078585735422636
31,0,0.5,0.8221577683251329,-0.4879824532510124
31,0,0.25,0.8164989594028315,0.07789843897912929
31,0,0.0,0.810984924004829,0.629301978779373
31,1,1.0,0.8172779437926228,0.0
31,1,0.75,0.8165519336134068,0.0726010179215919
31,1,0.5,0.8181238414478584,-0.08458976552356834
31,1,0.25,0.8028247976288477,1.4453146163775021
31,1,0.0,0.7984632834595544,1.8814660333068334
31,2,1.0,0.8172779437926228,0.0
31,2,0.75,0.8154998831808595,0.17780606117632214
31,2,0.5,0.8083341060151427,0.894383777748009
31,2,0.25,0.8028485313182734,1.4429412474349368
31,2,0.0,0.762772470762491,5.450547303013176
31,3,1.0,0.8172779437926228,0.0
31,3,0.75,0.8114084412484355,0.5869502544187277
31,3,0.5,0.8099820445140381,0.729589927858465
31,3,0.25,0.8140464685562958,0.32314752363269417
31,3,0.0,0.8018817512429691,1.5396192549653631
31,4,1.0,0.8172779437926228,0.0
31,4,0.75,0.8129050010467836,0.43729427458391035
31,4,0.5,0.8138593127113085,0.34186310813142384
31,4,0.25,0.8198935999776737,-0.26156561850509963
31,4,0.0,0.8235099727389789,-0.6232028946356105
31,5,1.0,0.8172779437926228,0.0
31,5,0.75,0.8184638043861415,-0.11858605935187727
31,5,0.5,0.8245451691697725,-0.7267225377149744
31,5,0.25,0.8209789610340429,-0.3701017241420135
31,5,0.0,0.8071798361148896,1.0098107677733115
31,6,1.0,0.8172779437926228,0.0
31,6,0.75,0.8175564202843935,-0.02784764917707072
31,6,0.5,0.8207797237861453,-0.35017799935225247
31,6,0.25,0.8116552282398595,0.562271555276328
31,6,0.0,0.8195466877979725,-0.226874400534971
31,7,1.0,0.8172779437926228,0.0
31,7,0.75,0.8111216455340016,0.6156298258621185
31,7,0.5,0.8096412143201209,0.7636729472501824
31,7,0.25,0.7882817185363558,2.8996225256266994
31,7,0.0,0.7384453735628714,7.8832570229751315
31,8,1.0,0.8172779437926228,0.0
31,8,0.75,0.820282754172735,-0.3004810380112244
31,8,0.5,0.807649799723564,0.9628144069058764
31,8,0.25,0.7986253930064922,1.8652550786130595
31,8,0.0,0.7331821293191219,8.409581447350089
32,0,1.0,0.8908476551236806,0.0
32,0,0.75,0.8865163584307391,0.4331296692941522
32,0,0.5,0.8919078400974925,-0.1060184973811884
32,0,0.25,0.8747500337664272,1.6097621357253344
32,0,0.0,0.8650730325310962,2.577462259258434
32,1,1.0,0.8908476551236806,0.0
32,1,0.75,0.8840468769930266,0.6800778130653939
32,1,0.5,0.8868870452539633,0.39606098697172465
32,1,0.25,0.8793436265868058,1.1504028536874822
32,1,0.0,0.8565676133954297,3.428004172825083
32,2,1.0,0.8908476551236806,0.0
32,2,0.75,0.8742506427312092,1.6597012392471355
32,2,0.5,0.8748115444182121,1.603611070546851
32,2,0.25,0.8734676785169037,1.7379976606776926
32,2,0.0,0.8680969427258267,2.2750712397853867
32,3,1.0,0.8908476551236806,0.0
32,3,0.75,0.8817854054405769,0.9062249683103651
32,3,0.5,0.8704534107473992,2.0394244376281345
32,3,0.25,0.8463688208980689,4.447883422561172
32,3,0.0,0.8251756069606706,6.567204816300998
32,4,1.0,0.8908476551236806,0.0
32,4,0.75,0.89359765722176,-0.2750002098079407
32,4,0.5,0.893254135851452,-0.24064807277713873
32,4,0.25,0.8724313603137814,1.8416294809899147
32,4,0.0,0.8152511538504424,7.559650127323813
32,5,1.0,0.8908476551236806,0.0
32,5,0.75,0.8823991439207175,0.8448511202963083
32,5,0.5,0.8942087756353193,-0.33611205116387266
32,5,0.25,0.8918992099732878,-0.10515548496071725
32,5,0.0,0.8471415520418341,4.370610308184652
32,6,1.0,0.8908476551236806,0.0
32,6,0.75,0.8853158075534556,0.5531847570224957
32,6,0.5,0.8864287294168752,0.44189257068053545
32,6,0.25,0.8806879294316069,1.0159725692073684
32,6,0.0,0.8556513679674359,3.5196287156244677
32,7,1.0,0.8908476551236806,0.0
32,7,0.75,0.8906293695554155,0.02182855682650864
32,7,0.5,0.8870862499393825,0.3761405184298128
32,7,0.25,0.8734607234256959,1.7386931697984664
32,7,0.0,0.786166090801803,10.468156432187758
32,8,1.0,0.8908476551236806,0.0
32,8,0.75,0.8848498093027627,0.5997845820917891
32,8,0.5,0.8857419645810172,0.510569054266341
32,8,0.25,0.8770981408772107,1.3749514246469863
32,8,0.0,0.8507069346507226,4.0140720472958025
33,0,1.0,0.9227395497846037,0.0
33,0,0.75,0.9226195600191296,0.011998976547411555
33,0,0.5,0.9145259370961519,0.8213612688451777
33,0,0.25,0.9036987094119683,1.9040840372635426
33,0,0.0,0.8864723463750416,3.626720340956213
33,1,1.0,0.9227395497846037,0.0
33,1,0.75,0.9292362311378378,-0.6496681353234113
33,1,0.5,0.9335114066857909,-1.0771856901187205
33,1,0.25,0.9416038981608059,-1.8864348376202211
33,1,0.0,0.9287495409016415,-0.6009991117037816
33,2,1.0,0.9227395497846037,0.0
33,2,0.75,0.9228262211407877,-0.008667135618400934
33,2,0.5,0.9181827009609563,0.4556848823647375
33,2,0.25,0.9037560060928027,1.8983543691800997
33,2,0.0,0.8734402562846979,4.92992934999058
33,3,1.0,0.9227395497846037,0.0
33,3,0.75,0.92298237941409,-0.02428296294862964
33,3,0.5,0.9278070381975925,-0.5067488412988763
33,3,0.25,0.9253265256357918,-0.2586975851188056
33,3,0.0,0.8824025915744883,4.03369582101154
33,4,1.0,0.9227395497846037,0.0
33,4,0.75,0.9282700886343725,-0.553053884976884
33,4,0.5,0.9254528483694854,-0.2713298584881674
33,4,0.25,0.9319191860538695,-0.9179636269265767
33,4,0.0,0.9254465428435608,-0.27069930589570523
33,5,1.0,0.9227395497846037,0.0
33,5,0.75,0.9254528483694854,-0.2713298584881674
33,5,0.5,0.9206920346579325,0.20475151266712288
33,5,0.25,0.9259455264587616,-0.32059766741578954
33,5,0.0,0.916762078115044,0.5977471669559753
33,6,1.0,0.9227395497846037,0.0
33,6,0.75,0.9227395497846037,0.0
33,6,0.5,0.9170712375473183,0.5668312237285367
33,6,0.25,0.9115016646102096,1.1237885174394058
33,6,0.0,0.9124473882575028,1.0292161527100885
33,7,1.0,0.9227395497846037,0.0
33,7,0.75,0.920154562221808,0.2584987562795682
33,7,0.5,0.9161088870043353,0.6630662780268359
33,7,0.25,0.9126047714325836,1.0134778352020146
33,7,0.0,0.8591453087058538,6.35942410787499
33,8,1.0,0.9227395497846037,0.0
33,8,0.75,0.9214860904217503,0.12534593628533708
33,8,0.5,0.9157333252742603,0.7006224510343384
33,8,0.25,0.9221981395007207,0.05414102838829926
33,8,0.0,0.9266443506195023,-0.3904800834898636
34,0,1.0,0.8897693961305453,0.0
34,0,0.75,0.8872527898368521,0.2516606293693213
34,0,0.5,0.8877004848977862,0.20689112327590964
34,0,0.25,0.8913964190661466,-0.1627022935601352
34,0,0.0,0.8529238314768891,3.684556465365618
34,1,1.0,0.8897693961305453,0.0
34,1,0.75,0.8784559589972907,1.1313437133254611
34,1,0.5,0.8869760409206039,0.2793355209941395
34,1,0.25,0.8846441716783332,0.5125224452212085
34,1,0.0,0.8555060934384886,3.4263302692056685
34,2,1.0,0.8897693961305453,0.0
34,2,0.75,0.8952698786921985,-0.5500482561653253
34,2,0.5,0.8930636313808318,-0.32942352502864924
34,2,0.25,0.8933915183949184,-0.36221222643730844
34,2,0.0,0.8935872004560426,-0.3817804325497276
34,3,1.0,0.8897693961305453,0.0
34,3,0.75,0.8909167214432687,-0.11473253127234351
34,3,0.5,0.8736714726667678,1.6097923463777475
34,3,0.25,0.8428881953108598,4.68812008196855
34,3,0.0,0.8090813062864598,8.068808984408548
34,4,1.0,0.8897693961305453,0.0
34,4,0.75,0.89318541641222,-0.34160202816747587
34,4,0.5,0.8951049535028093,-0.5335557372263988
34,4,0.25,0.8946689068861156,-0.4899510755570269
34,4,0.0,0.8650563489750316,2.47130471555137
34,5,1.0,0.8897693961305453,0.0
34,5,0.75,0.8880771182141045,0.16922779164407764
34,5,0.5,0.8759857194062737,1.378367672427161
34,5,0.25,0.8636066638863527,2.6162732244192632
34,5,0.0,0.8663399652396291,2.3429430890916203
34,6,1.0,0.8897693961305453,0.0
34,6,0.75,0.9042256389369718,-1.4456242806426545
34,6,0.5,0.9026266032859048,-1.285720715535954
34,6,0.25,0.9045682995374711,-1.47989034069258
34,6,0.0,0.9020940833235193,-1.232468719297397
34,7,1.0,0.8897693961305453,0.0
34,7,0.75,0.8750603420423803,1.470905408816503
34,7,0.5,0.8545114399705266,3.52579561600187
34,7,0.25,0.836635216053912,5.313418007663328
34,7,0.0,0.7859944658000715,10.37749303304738
34,8,1.0,0.8897693961305453,0.0
34,8,0.75,0.8893599996182664,0.04093965122788923
34,8,0.5,0.8764320241280865,1.333737200245877
34,8,0.25,0.8657734793963001,2.399591673424517
34,8,0.0,0.8237045651203821,6.606483101016314
35,0,1.0,0.7061615187012885,0.0
35,0,0.75,0.7121724106711957,-0.6010891969907228
35,0,0.5,0.7015294115104252,0.4632107190863266
35,0,0.25,0.6852702250349908,2.0891293666297717
35,0,0.0,0.636115901534334,7.004561716695457
35,1,1.0,0.7061615187012885,0.0
35,1,0.75,0.7071952347942335,-0.10337160929450029
35,1,0.5,0.7101364074272962,-0.3974888726007708
35,1,0.25,0.7047580521589416,0.14034665423469095
35,1,0.0,0.7008982215227963,0.5263297178492166
35,2,1.0,0.7061615187012885,0.0
35,2,0.75,0.7054622793168307,0.06992393844578171
35,2,0.5,0.7087656847875463,-0.26041660862577976
35,2,0.25,0.7015260472148342,0.4635471486454268
35,2,0.0,0.6901243437218441,1.6037174979444457
35,3,1.0,0.7061615187012885,0.0
35,3,0.75,0.7004316055067538,0.5729913194534753
35,3,0.5,0.6968540434473132,0.930747525397535
35,3,0.25,0.6970237146402136,0.9137804061074895
35,3,0.0,0.6800059501396651,2.6155568561623377
35,4,1.0,0.7061615187012885,0.0
35,4,0.75,0.7085531653745956,-0.23916466733070463
35,4,0.5,0.7058307237406635,0.03307949606250471
35,4,0.25,0.703950275657884,0.2211243043404476
35,4,0.0,0.6912022480256647,1.495927067562386
35,5,1.0,0.7061615187012885,0.0
35,5,0.75,0.7062582267486519,-0.00967080473633919
35,5,0.5,0.7064157997377176,-0.025428103642910482
35,5,0.25,0.6957605640275188,1.040095467376967
35,5,0.0,0.6847445803069212,2.1416938394367313
35,6,1.0,0.7061615187012885,0.0
35,6,0.75,0.6941558212864416,1.2005697414846916
35,6,0.5,0.6938165312642501,1.234498743703838
35,6,0.25,0.6918733841756124,1.4288134525676122
35,6,0.0,0.6913241743051577,1.4837344396130825
35,7,1.0,0.7061615187012885,0.0
35,7,0.75,0.6995598824163022,0.6601636284986334
35,7,0.5,0.7025660472412447,0.35954714600437976
35,7,0.25,0.7045090652699435,0.16524534313450134
35,7,0.0,0.6815962399404223,2.4565278760866227
35,8,1.0,0.7061615187012885,0.0
35,8,0.75,0.7033901424954241,0.27713762058644287
35,8,0.5,0.6899573501691029,1.6204168532185648
35,8,0.25,0.6993825639600422,0.6778954741246346
35,8,0.0,0.6951521568662048,1.100936183508372
36,0,1.0,0.7702366163121976,0.0
36,0,0.75,0.7497331034377427,2.0503512874454954
36,0,0.5,0.7374388433191346,3.279777299306308
36,0,0.25,0.7308225421837057,3.941407412849196
36,0,0.0,0.7172218160982122,5.301480021398541
36,1,1.0,0.7702366163121976,0.0
36,1,0.75,0.7692569319444591,0.09796843677385425
36,1,0.5,0.7792839128147816,-0.9047296502583957
36,1,0.25,0.7587869436134091,1.1449672698788493
36,1,0.0,0.7261964853059428,4.404013100625481
36,2,1.0,0.7702366163121976,0.0
36,2,0.75,0.7705918660532936,-0.03552497410959088
36,2,0.5,0.7690016385019187,0.12349778102789255
36,2,0.25,0.7629612074763625,0.7275408835835107
36,2,0.0,0.7313054215427937,3.8931194769403987
36,3,1.0,0.7702366163121976,0.0
36,3,0.75,0.769367131047459,0.08694852647386231
36,3,0.5,0.7560127123109526,1.422390400124507
36,3,0.25,0.7395798055504212,3.06568107617764
36,3,0.0,0.7105951971613057,5.9641419150891934
36,4,1.0,0.7702366163121976,0.0
36,4,0.75,0.7723964343799634,-0.2159818067765773
36,4,0.5,0.7861730091102019,-1.5936392798004295
36,4,0.25,0.7834494648055815,-1.3212848493383889
36,4,0.0,0.7963733785741607,-2.6136762261963042
36,5,1.0,0.7702366163121976,0.0
36,5,0.75,0.787261898895953,-1.7025282583755352
36,5,0.5,0.8083800021884306,-3.8143385876233005
36,5,0.25,0.8319741123117665,-6.17374959995689
36,5,0.0,0.8193772988183459,-4.9140682506148226
36,6,1.0,0.7702366163121976,0.0
36,6,0.75,0.7609007969279235,0.9335819384274191
36,6,0.5,0.7491996369135551,2.1036979398642575
36,6,0.25,0.7422627596049491,2.79738567072485
36,6,0.0,0.723902579724172,4.6334036588025596
36,7,1.0,0.7702366163121976,0.0
36,7,0.75,0.7695218574305828,0.07147588816148742
36,7,0.5,0.7771966011391025,-0.6959984826904853
36,7,0.25,0.7555029893974055,1.4733626914792186
36,7,0.0,0.7179360693414709,5.2300546970726725
36,8,1.0,0.7702366163121976,0.0
36,8,0.75,0.7486577651501717,2.157885116202596
36,8,0.5,0.706723725999024,6.351289031317364
36,8,0.25,0.674083273763026,9.615334254917162
36,8,0.0,0.6497333980519577,12.05032182602399
37,0,1.0,0.8573639579688919,0.0
37,0,0.75,0.8708271606491952,-1.3463202680303321
37,0,0.5,0.8665504480665189,-0.9186490097627065
37,0,0.25,0.8554867045444194,0.18772534244724248
37,0,0.0,0.8197327958700575,3.7631162098834325
37,1,1.0,0.8573639579688919,0.0
37,1,0.75,0.8630667343364382,-0.5702776367546347
37,1,0.5,0.8580950439431005,-0.07310859742086784
37,1,0.25,0.8397608035037893,1.7603154465102522
37,1,0.0,0.8131881897212085,4.417576824768332
37,2,1.0,0.8573639579688919,0.0
37,2,0.75,0.8598436262447915,-0.2479668275899627
37,2,0.5,0.8517705774027418,0.5593380566150108
37,2,0.25,0.8386826053242926,1.8681352644599247
37,2,0.0,0.7946523058447835,6.271165212410834
37,3,1.0,0.8573639579688919,0.0
37,3,0.75,0.8605386100217702,-0.31746520528783684
37,3,0.5,0.8524502160812528,0.4913741887639045
37,3,0.25,0.8597335274706394,-0.23695695017474927
37,3,0.0,0.8590510533715401,-0.168709540264822
37,4,1.0,0.8573639579688919,0.0
37,4,0.75,0.8770346091778605,-1.9670651208968604
37,4,0.5,0.8676616364208237,-1.0297678451931858
37,4,0.25,0.8707291210834004,-1.3365163114508527
37,4,0.0,0.842551483182809,1.481247478608283
37,5,1.0,0.8573639579688919,0.0
37,5,0.75,0.8727870559238484,-1.5423097954956555
37,5,0.5,0.8704848527305561,-1.3120894761664226
37,5,0.25,0.8677761700632295,-1.0412212094337625
37,5,0.0,0.869695708472068,-1.2331750503176142
37,6,1.0,0.8573639579688919,0.0
37,6,0.75,0.8575312350929458,-0.0167277124053955
37,6,0.5,0.85412348956095,0.3240468407941899
37,6,0.25,0.8452235624688033,1.2140395500088608
37,6,0.0,0.8280411626680924,2.932279530079951
37,7,1.0,0.8573639579688919,0.0
37,7,0.75,0.8593555791180043,-0.19916211491124436
37,7,0.5,0.8614020055693385,-0.40380476004466814
37,7,0.25,0.8334416669880831,2.392229098080878
37,7,0.0,0.7861491338299973,7.121482413889457
37,8,1.0,0.8573639579688919,0.0
37,8,0.75,0.8605190535980902,-0.3155095629198357
37,8,0.5,0.8457354828582526,1.1628475110639247
37,8,0.25,0.8487489509940868,0.8615006974805106
37,8,0.0,0.826963763398793,3.0400194570098904
38,0,1.0,0.8643259060215998,0.0
38,0,0.75,0.865159668419978,-0.08337623983782905
38,0,0.5,0.8546101421695177,0.971576385208206
38,0,0.25,0.8494647661558559,1.4861139865743889
38,0,0.0,0.8235653619940463,4.0760544027553465
38,1,1.0,0.8643259060215998,0.0
38,1,0.75,0.8628650571864614,0.14608488351383064
38,1,0.5,0.8622298379895499,0.20960680320498692
38,1,0.25,0.8716154314335645,-0.7289525411964703
38,1,0.0,0.8503192478650241,1.4006658156575647
38,2,1.0,0.8643259060215998,0.0
38,2,0.75,0.86572947621042,-0.14035701888202023
38,2,0.5,0.860682306560252,0.3643599461347735
38,2,0.25,0.8568787593020586,0.7447146719541164
38,2,0.0,0.8400275350331913,2.429837098840848
38,3,1.0,0.8643259060215998,0.0
38,3,0.75,0.8626111098562186,0.17147961653811716
38,3,0.5,0.8740537570920845,-0.9727851070484794
38,3,0.25,0.8707102568430529,-0.6384350821453166
38,3,0.0,0.8443594476836891,1.9966458337910664
38,4,1.0,0.8643259060215998,0.0
38,4,0.75,0.8682494542594361,-0.39235482378363606
38,4,0.5,0.8639547886249999,0.037111739659989595
38,4,0.25,0.8484048628677718,1.5921043153827918
38,4,0.0,0.8337177462002965,3.060815982130327
38,5,1.0,0.8643259060215998,0.0
38,5,0.75,0.8644274401317473,-0.010153411014757197
38,5,0.5,0.8648023850683102,-0.047647904671044294
38,5,0.25,0.8650457363704087,-0.07198303488089586
38,5,0.0,0.8385036171726755,2.5822288848924235
38,6,1.0,0.8643259060215998,0.0
38,6,0.75,0.870632601089609,-0.6306695068009294
38,6,0.5,0.8775698132477265,-1.3243907226126783
38,6,0.25,0.8696719666981764,-0.5346060676576614
38,6,0.0,0.8582415378390446,0.60843681825552
38,7,1.0,0.8643259060215998,0.0
38,7,0.75,0.8753287259618197,-1.10028199402199
38,7,0.5,0.8729177125108345,-0.8591806489234743
38,7,0.25,0.8532631992465348,1.1062706775064934
38,7,0.0,0.7977625649961645,6.656334102543527
38,8,1.0,0.8643259060215998,0.0
38,8,0.75,0.8582204375181101,0.6105468503489697
38,8,0.5,0.8622526955826262,0.20732104389735717
38,8,0.25,0.8436962067378044,2.062969928379532
38,8,0.0,0.7990919827925558,6.523392322904398
39,0,1.0,0.8497288620190622,0.0
39,0,0.75,0.8411190234719861,0.8609838547076087
39,0,0.5,0.8351178182688819,1.4611043750180297
39,0,0.25,0.8158043601626875,3.3924501856374634
39,0,0.0,0.7959418200063424,5.378704201271978
39,1,1.0,0.8497288620190622,0.0
39,1,0.75,0.8502191555843011,-0.04902935652388862
39,1,0.5,0.8503056968574211,-0.057683483835890836
39,1,0.25,0.8327662329277861,1.6962629091276105
39,1,0.0,0.8154463373227581,3.4282524696304106
39,2,1.0,0.8497288620190622,0.0
39,2,0.75,0.8490702520724966,0.06586099465655249
39,2,0.5,0.8574523085494036,-0.7723446530341405
39,2,0.25,0.8428941307837252,0.6834731235336955
39,2,0.0,0.8221368995362796,2.7591962482782617
39,3,1.0,0.8497288620190622,0.0
39,3,0.75,0.8351280485204384,1.4600813498623744
39,3,0.5,0.8169262739978842,3.280258802117797
39,3,0.25,0.7968524015525354,5.287646046652672
39,3,0.0,0.7638165377508696,8.591232426819262
39,4,1.0,0.8497288620190622,0.0
39,4,0.75,0.8479319822917097,0.17968797273524295
39,4,0.5,0.8411829048955249,0.8545957123537229
39,4,0.25,0.8166790349829531,3.3049827036109036
39,4,0.0,0.7760109783695989,7.37178836494633
39,5,1.0,0.8497288620190622,0.0
39,5,0.75,0.8557884067585997,-0.6059544739537515
39,5,0.5,0.8608579188567914,-1.1129056837729245
39,5,0.25,0.8504767668870927,-0.07479048680305578
39,5,0.0,0.8088880443284509,4.084081769061132
39,6,1.0,0.8497288620190622,0.0
39,6,0.75,0.8453871740044228,0.4341688014639411
39,6,0.5,0.8414496895568502,0.8279172462211992
39,6,0.25,0.8321780669994956,1.7550795019566579
39,6,0.0,0.830297730393595,1.9431131625467168
39,7,1.0,0.8497288620190622,0.0
39,7,0.75,0.846069518521491,0.36593434975711325
39,7,0.5,0.8368943733184311,1.2834488700631086
39,7,0.25,0.8399417843336088,0.9787077685453394
39,7,0.0,0.7535136078665251,9.621525415253707
39,8,1.0,0.8497288620190622,0.0
39,8,0.75,0.847524103437592,0.22047585814701787
39,8,0.5,0.8542619007303228,-0.45330387112606507
39,8,0.25,0.8216868305498994,2.804203146916273
39,8,0.0,0.7705785612795222,7.915030073953999
40,0,1.0,0.8314369022101821,0.0
40,0,0.75,0.8264695028283029,0.49673993818791784
40,0,0.5,0.8310421160272947,0.03947861828873522
40,0,0.25,0.8199044792808998,1.1532422929282249
40,0,0.0,0.7806361883908352,5.080071381934692
40,1,1.0,0.8314369022101821,0.0
40,1,0.75,0.8386246764874056,-0.7187774277223502
40,1,0.5,0.8321381201335237,-0.07012179233416571
40,1,0.25,0.8364335334753915,-0.4996631265209439
40,1,0.0,0.8296543896037175,0.1782512606464559
40,2,1.0,0.8314369022101821,0.0
40,2,0.75,0.8460276843092729,-1.4590782099090815
40,2,0.5,0.8643823960017256,-3.2945493791543545
40,2,0.25,0.8741498813888958,-4.271297917871375
40,2,0.0,0.8694139451011822,-3.7977042891000123
40,3,1.0,0.8314369022101821,0.0
40,3,0.75,0.8396397961648112,-0.8202893954629142
40,3,0.5,0.8573669786392754,-2.5930076429093285
40,3,0.25,0.8560519660193557,-2.4615063809173665
40,3,0.0,0.8683156001704389,-3.687869796025678
40,4,1.0,0.8314369022101821,0.0
40,4,0.75,0.8271655806250273,0.42713215851547526
40,4,0.5,0.8369204016030707,-0.5483499392888613
40,4,0.25,0.840422436617377,-0.8985534407194962
40,4,0.0,0.8264449132059046,0.4991989004277442
40,5,1.0,0.8314369022101821,0.0
40,5,0.75,0.8284180071381968,0.30188950719852725
40,5,0.5,0.8477253091742321,-1.6288406964049984
40,5,0.25,0.8420683969587934,-1.0631494748611359
40,5,0.0,0.8261673036838805,0.52695985263016
40,6,1.0,0.8314369022101821,0.0
40,6,0.75,0.8330348123974975,-0.15979101873154766
40,6,0.5,0.8349015270525806,-0.34646248423985115
40,6,0.25,0.8237577077239524,0.7679194486229668
40,6,0.0,0.8059417193866802,2.5495182823501827
40,7,1.0,0.8314369022101821,0.0
40,7,0.75,0.8250749550184098,0.6361947191772299
40,7,0.5,0.8382729919964358,-0.6836089786253718
40,7,0.25,0.8089746785597002,2.2462223650481894
40,7,0.0,0.7347312525370184,9.670564967316365
40,8,1.0,0.8314369022101821,0.0
40,8,0.75,0.8447304055392011,-1.3293503329019019
40,8,0.5,0.8479439326992858,-1.6507030489103736
40,8,0.25,0.8516561624037997,-2.021926019361764
40,8,0.0,0.799684569902164,3.1752332308018105
