subject,channel,r,f1_drop_mean,f1_drop_sd
1,0,5,0.11880669247067951,0.01078327362926372
1,1,5,0.07251847888034442,0.010594733796155041
1,2,5,0.1196579110271891,0.013331125707586357
1,3,5,0.06955839384820513,0.010883057285134707
1,4,5,0.01591380965227911,0.01090021705881318
1,5,5,0.026808197344899032,0.006966523977231244
1,6,5,0.023516615367808958,0.008880741744024938
1,7,5,0.14887414071365274,0.010330238513250581
1,8,5,0.14769244546616717,0.01759175811380523
2,0,5,0.11704023250780127,0.018214035160113898
2,1,5,0.10548778703113675,0.00918141129388927
2,2,5,0.16457975852108275,0.01765768031341606
2,3,5,0.07938435489911715,0.010643503605277594
2,4,5,0.12489468542526523,0.016319123765945638
2,5,5,0.13134639979779364,0.012275106119329618
2,6,5,0.06532341832511197,0.006381485063351483
2,7,5,0.21000496263213853,0.011846381956984425
2,8,5,0.1701346029486049,0.01244935901432893
3,0,5,0.012624447627661484,0.011761096686991856
3,1,5,0.10757334173102617,0.01469797702554844
3,2,5,0.08261605926500412,0.01347677368816215
3,3,5,0.09523936037532157,0.009770178579392313
3,4,5,0.0645179091813338,0.015339004925155535
3,5,5,0.07100308983801695,0.010839692737644693
3,6,5,-0.012912747922890277,0.0060825426025933795
3,7,5,0.10486251460055189,0.011307681554566119
3,8,5,0.0393308802775729,0.024686546194746077
4,0,5,0.09878809896409446,0.005192127328248173
4,1,5,0.10958100518608763,0.013030881196700506
4,2,5,0.12661711099035294,0.008042263362532246
4,3,5,0.05193297241576855,0.010544702915269736
4,4,5,0.0797136500059313,0.0034227851030060995
4,5,5,0.09888123122429579,0.012839231609465637
4,6,5,0.014273444362393483,0.00853787993179742
4,7,5,0.10200710345890292,0.008414800691944328
4,8,5,0.12340376128666522,0.01552248261075258
5,0,5,0.09433645926473548,0.009987120366859214
5,1,5,0.061734254390328515,0.013526395843209636
5,2,5,0.08774686432008486,0.013432280106108979
5,3,5,0.029668666314356294,0.006095355613591082
5,4,5,0.10495911532362175,0.013456562130853375
5,5,5,0.08022337485504624,0.01247051919576304
5,6,5,0.020155486289360015,0.005526377564088968
5,7,5,0.06881328976413081,0.0062800432850161165
5,8,5,0.11568208797249842,0.013795913445890162
6,0,5,0.09252130669698862,0.014002751349321132
6,1,5,0.09363418644091721,0.024347543200369616
6,2,5,0.10373472178054055,0.012538955453106921
6,3,5,0.03318766354366796,0.010913781554061457
6,4,5,0.10376856870274224,0.01613927785289316
6,5,5,0.08267508357804214,0.00922038385128525
6,6,5,0.035391106482881886,0.0046238500888298424
6,7,5,0.09405866993969174,0.005989533764951854
6,8,5,0.10368839306876934,0.01521059313409014
7,0,5,0.07411442980242604,0.010286188634907822
7,1,5,0.10961344236309076,0.007100300552785793
7,2,5,0.11942207114876131,0.00782345362838867
7,3,5,0.03415446367112982,0.015174205060646557
7,4,5,0.09948365867308322,0.017570522910185484
7,5,5,0.10990868265004114,0.017860519377840268
7,6,5,0.04004948668493238,0.011138214950888327
7,7,5,0.1177382870700296,0.012064575886760392
7,8,5,0.1686144925610195,0.014264371334766037
8,0,5,0.09174516492061965,0.01709872560653689
8,1,5,0.05624133949547929,0.018023532490110038
8,2,5,0.061569594166599684,0.01067185430381484
8,3,5,0.06471644605876262,0.013351569109349684
8,4,5,0.08158299535115934,0.021314134555113606
8,5,5,0.13662693030186143,0.008014741919222985
8,6,5,0.037028364782289526,0.010817336389691129
8,7,5,0.15856628038033965,0.007285779887078617
8,8,5,0.13488035697831638,0.007868969375176813
9,0,5,0.10316823891008746,0.012109798177038346
9,1,5,0.12664440938376292,0.022062995685434166
9,2,5,0.11769824177121749,0.008157724955501095
9,3,5,0.07009383720338332,0.011856218238602117
9,4,5,0.10202875039866918,0.014428889833481692
9,5,5,0.09028930107944522,0.005701355591252359
9,6,5,0.051149834898492744,0.008103315271469647
9,7,5,0.1768943774030395,0.00934718535636952
9,8,5,0.10916194843608776,0.009680682755042412
10,0,5,0.11181197629238675,0.01211917437293092
10,1,5,0.03930543304239202,0.013656296434805551
10,2,5,0.04436749619808757,0.01216352123057589
10,3,5,0.09002923390081334,0.007095282434349073
10,4,5,0.09487595318671063,0.012962823946127959
10,5,5,0.07508483538270219,0.0064693621670903
10,6,5,0.00024938706235355657,0.008600295188858607
10,7,5,0.1159848219751635,0.012765232825337855
10,8,5,0.10462663248634274,0.007834551996024581
11,0,5,0.10994354169685731,0.009722162827812684
11,1,5,0.12070939550812891,0.024082334803136145
11,2,5,0.1253371930079625,0.015252262186066165
11,3,5,0.10298140657553123,0.012090573145742339
11,4,5,0.10815367545433534,0.013839451031754907
11,5,5,0.11085273312042136,0.01365252680616977
11,6,5,0.04451460502486464,0.008482987859178406
11,7,5,0.11747725722915037,0.009301289154005863
11,8,5,0.1225060545661992,0.012131091396847283
12,0,5,0.09782736340020778,0.016608667266924743
12,1,5,0.09307947305670253,0.009707081020667438
12,2,5,0.12777678130659648,0.015732753906573946
12,3,5,0.11760913421894188,0.017243144886004164
12,4,5,0.11772970372359107,0.016548442720772792
12,5,5,0.05635108470863961,0.013233578270052785
12,6,5,0.0488517491770911,0.008301503647198043
12,7,5,0.13589258698696158,0.0108695092688715
12,8,5,0.10922434041495788,0.014142151160110748
13,0,5,0.10829396749256655,0.009377563559264451
13,1,5,0.05811467936063086,0.012867231027333925
13,2,5,0.09168590215424718,0.005511691752055385
13,3,5,0.06310903163214283,0.0091855684782598
13,4,5,0.1016101181440859,0.011368192117477409
13,5,5,0.12916136367065043,0.00797306171062853
13,6,5,0.05643647789291353,0.005954342735567767
13,7,5,0.1388208998436173,0.02513927460970506
13,8,5,0.11201315349672084,0.014832736373302869
14,0,5,0.09770851433169707,0.009421666742458376
14,1,5,0.09037203022275779,0.01799745766423087
14,2,5,0.08299109364077306,0.006807201229366862
14,3,5,0.12900611856065064,0.010799117436439524
14,4,5,0.08353049247532678,0.006444895715265213
14,5,5,0.09314426390221246,0.0099676418913521
14,6,5,0.024234819527118055,0.0036803747187651578
14,7,5,0.11846325284538764,0.007225884779302576
14,8,5,0.1272960861453173,0.009721586977440915
15,0,5,0.12188539396348977,0.013061445076589408
15,1,5,0.10650039759734373,0.005198226926369709
15,2,5,0.11233458382610975,0.0051111683252465755
15,3,5,0.024765177443574805,0.009323768047239318
15,4,5,0.0901188627543095,0.014318209462439427
15,5,5,0.10176378622800582,0.007994526104504702
15,6,5,0.05460099512734122,0.006453557581861791
15,7,5,0.126774093591756,0.01589228273923816
15,8,5,0.12032330067854768,0.0080778726954766
16,0,5,0.11287699701765046,0.010233244061966473
16,1,5,0.10270096241422011,0.020031132473861398
16,2,5,0.11692843194038993,0.012439229698676767
16,3,5,0.07266835336145783,0.013329581598262637
16,4,5,0.11526693332377566,0.013868891533622378
16,5,5,0.1146382083762389,0.0035568977153575057
16,6,5,0.037160362035010296,0.00512151427961
16,7,5,0.1758617585482048,0.018578000962363173
16,8,5,0.14925331759240063,0.017751638350188358
17,0,5,0.1101574348746304,0.01954546380556063
17,1,5,0.0652953574600796,0.012127501262252722
17,2,5,0.0797029380059513,0.007601013304761016
17,3,5,0.05624053675733569,0.009402355124910831
17,4,5,0.11318872090274112,0.011810852611405614
17,5,5,0.1159212752225455,0.010041346461711672
17,6,5,0.02340297638109463,0.010598348887401968
17,7,5,0.08688847036294026,0.01358971833774129
17,8,5,0.18049210304118132,0.020888210431685268
18,0,5,0.12920030593479048,0.011171159734194254
18,1,5,0.046197754792569004,0.0049401287428275115
18,2,5,0.10237759368978605,0.008256759534690584
18,3,5,0.14550943774474312,0.008339101962441737
18,4,5,0.09702968096610662,0.00991727628680686
18,5,5,0.11021724290104869,0.017058612910904325
18,6,5,0.02323261425373877,0.008035776657807149
18,7,5,0.19206732408926247,0.014283781814802814
18,8,5,0.13223241746607722,0.008548325659994012
19,0,5,0.1118666268005591,0.003526564946084955
19,1,5,0.05669169854464149,0.0050913072151189615
19,2,5,0.10799965337773583,0.012762759945188164
19,3,5,0.06258090950877818,0.009537922330051398
19,4,5,0.0757062018289262,0.009032659356153175
19,5,5,0.10770189168552272,0.00471992741242448
19,6,5,0.04337733051334336,0.005625324273482075
19,7,5,0.146564061765774,0.013811477990257403
19,8,5,0.11118130919742104,0.007341731016975373
20,0,5,0.07996980919815411,0.012653098757982217
20,1,5,0.10367961740509438,0.014313461600656009
20,2,5,0.11576138754690106,0.017023122382438794
20,3,5,0.05310895595394856,0.0046707723507082785
20,4,5,0.0825829317116868,0.017433240709468042
20,5,5,0.1401072251644039,0.007366192573653407
20,6,5,0.04848041787375392,0.004468032717673597
20,7,5,0.09314807957513545,0.01634038643501772
20,8,5,0.1559581650094382,0.0031946308428229702
21,0,5,0.10114771663178261,0.013738203624859998
21,1,5,0.03978452551732552,0.018926965619984706
21,2,5,0.07950199327318512,0.006271695293603444
21,3,5,0.013150107810256583,0.012423121323882787
21,4,5,0.06474709895487518,0.009771066208460157
21,5,5,0.055246137400392616,0.01031765819859408
21,6,5,0.04098107249052045,0.009281905441665938
21,7,5,0.10682025729764244,0.013913089883646767
21,8,5,0.1180874285952401,0.010933514009106249
22,0,5,0.13581172996123292,0.010941847173130008
22,1,5,0.08431844345203891,0.0063328779402047255
22,2,5,0.1108590382553702,0.010940406482322413
22,3,5,0.05247162794319047,0.010540932206397374
22,4,5,0.1310614372040484,0.007325197526658046
22,5,5,0.11588453274011253,0.00832200815138531
22,6,5,0.03989870870765233,0.013107801128752986
22,7,5,0.18433844128143917,0.011486900710727352
22,8,5,0.14719281398344325,0.01147020984786375
23,0,5,0.13874003215641442,0.006284236146053646
23,1,5,0.08348007939326325,0.006613095066092856
23,2,5,0.07798305681403253,0.009034507412886167
23,3,5,0.061984915211119575,0.014634039686722711
23,4,5,0.10485198938599265,0.015381095365708208
23,5,5,0.10201317263791528,0.010683981007366465
23,6,5,0.07499186136248215,0.009846645493947917
23,7,5,0.11628914799393515,0.019566945976778417
23,8,5,0.11535700365878235,0.014314290844695418
24,0,5,0.07120158393330242,0.009943784923070485
24,1,5,0.046755565667096086,0.0063260466219599056
24,2,5,0.10123832943088389,0.010064599007423894
24,3,5,0.018030227415599342,0.011591555625903435
24,4,5,0.1460916444015975,0.013858768184976951
24,5,5,0.13512387204797743,0.012765131421065458
24,6,5,0.06188319928574315,0.011728703151545629
24,7,5,0.1690684600870484,0.01292899600072024
24,8,5,0.09459799700059997,0.01090766841702509
25,0,5,0.10104625126093696,0.013405238924043078
25,1,5,0.07576421451123701,0.01530853644944398
25,2,5,0.11302366385120113,0.012349557317642557
25,3,5,0.07683021911820749,0.021770156641310212
25,4,5,0.13428113227157454,0.008025191037307698
25,5,5,0.11154573274965407,0.014961529621800676
25,6,5,0.01672240650770953,0.0033733041866928367
25,7,5,0.11673995671593373,0.008730748298216498
25,8,5,0.09755907901668877,0.01448689627606065
26,0,5,0.06614736143654998,0.010642956603787938
26,1,5,0.10194142128288981,0.005655165707057998
26,2,5,0.10451228575302654,0.00795975974334489
26,3,5,0.05704042044494488,0.007533282195371574
26,4,5,0.08862577069332982,0.013068406687445782
26,5,5,0.06888392654814779,0.007528875145970098
26,6,5,0.027541057012492987,0.0030770142285705447
26,7,5,0.1606479255278394,0.009104023997235604
26,8,5,0.10322902459132077,0.011238880577897372
27,0,5,0.07092039912680752,0.009947094283482841
27,1,5,0.03579721744986715,0.012600076983616083
27,2,5,0.08101746605137532,0.002564208733504457
27,3,5,0.03631310709886837,0.01042918687411824
27,4,5,0.14373578660634953,0.01929982325402783
27,5,5,0.06464900415786072,0.0137342364635255
27,6,5,0.017213301153240046,0.005880488113262526
27,7,5,0.10524882205874268,0.013779611021653813
27,8,5,0.08723874445183544,0.0129849963780294
28,0,5,0.09235787833831846,0.01572569193138818
28,1,5,0.049843071117002015,0.008406655457745363
28,2,5,0.07935658441904443,0.004081445618096681
28,3,5,0.11394678597741022,0.014126884080586108
28,4,5,0.16687603782831237,0.010644266902087484
28,5,5,0.18040414866179946,0.006411549598928665
28,6,5,0.022997933466515953,0.006132584924269226
28,7,5,0.11010255431197229,0.010627725250665217
28,8,5,0.10955440907707799,0.006008801132379567
29,0,5,0.10814772288908558,0.009040476478033292
29,1,5,0.0762130173318645,0.010116254866279224
29,2,5,0.09856459766915544,0.004387447941614827
29,3,5,0.048559913663187924,0.005821652638717756
29,4,5,0.12671359189537465,0.017776388385233557
29,5,5,0.10455501203623585,0.00948997591270534
29,6,5,0.02394789365362666,0.008161079211343108
29,7,5,0.10027026576032527,0.012561281092377844
29,8,5,0.1492836833368321,0.014684022641960595
30,0,5,0.07821084401952498,0.016969557670053478
30,1,5,0.054296228144391966,0.006039897499816874
30,2,5,0.07110627762617486,0.01682021116523759
30,3,5,0.056005980076508186,0.012519843294269216
30,4,5,0.06924911478147926,0.016143856469380692
30,5,5,0.07971934764550495,0.021545373925352527
30,6,5,0.04294666880795519,0.004283990814524027
30,7,5,0.18376588108932274,0.011833540555520064
30,8,5,0.15273052945676915,0.01518120080479484
31,0,5,0.09921328410365864,0.009416620618607655
31,1,5,0.1102720002232698,0.012917816804008223
31,2,5,0.13642568037311037,0.010921063285666393
31,3,5,0.08024393305379682,0.01204830176419474
31,4,5,0.10509096149774973,0.015821881035168576
31,5,5,0.06395322310018095,0.010604175397167978
31,6,5,0.03685606468759348,0.0038354436800815965
31,7,5,0.14344874328167298,0.010870774962191196
31,8,5,0.17320348912427003,0.011156063298276042
32,0,5,0.0870602278862456,0.012813163321167283
32,1,5,0.06940532941720381,0.012022822762266685
32,2,5,0.12042801863726844,0.007958338139536161
32,3,5,0.06464347336313159,0.006047649412429858
32,4,5,0.17252257548042682,0.007621945814595859
32,5,5,0.11813165387665314,0.023903906589363436
32,6,5,0.05343685930093731,0.011236666677865501
32,7,5,0.15821675765063942,0.02250518347964832
32,8,5,0.1260880248664073,0.021616158048159247
33,0,5,0.10948210159876745,0.01020556554686796
33,1,5,0.0744269521901099,0.016326730177281375
33,2,5,0.10313413556892645,0.011575872837050444
33,3,5,0.07147258165151482,0.0067156177360479016
33,4,5,0.06492686404893525,0.005503736599286581
33,5,5,0.02731107778224693,0.0072720459299585455
33,6,5,0.04924808511194208,0.0037054676868758215
33,7,5,0.13098436534140037,0.006180199927965842
33,8,5,0.06729635392484126,0.015151197288703512
34,0,5,0.14328840766925371,0.00890075823921661
34,1,5,0.09463109949235989,0.01576487060120448
34,2,5,0.09337029084729956,0.009648136826672237
34,3,5,0.09393697641140215,0.010186879039402895
34,4,5,0.07153952321895236,0.010887554025383389
34,5,5,0.06285873303086506,0.002639936180871379
34,6,5,0.015911153306383173,0.003919890868241431
34,7,5,0.16355487449456402,0.014758355893409942
34,8,5,0.13742054802336118,0.019575099120076572
35,0,5,0.09899988631213383,0.0076332355753749815
35,1,5,0.02778149667607379,0.012967258400819512
35,2,5,0.090879368629094,0.01094621807616432
35,3,5,0.0742158938449677,0.007662270637143662
35,4,5,0.07238394216747687,0.009376532410541621
35,5,5,0.09457798148456495,0.008251145624770003
35,6,5,0.034305745680508724,0.005075161174101645
35,7,5,0.137702723618007,0.006746802745556941
35,8,5,0.08803455901007384,0.010344991506967629
36,0,5,0.06731711052219613,0.008247509761146465
36,1,5,0.06596413439744206,0.011511768910132605
36,2,5,0.07167306464043988,0.010007256589754758
36,3,5,0.089258870218063,0.0040107958061182305
36,4,5,0.10068287076052027,0.014004994060199531
36,5,5,0.0803371710645294,0.013295822813626656
36,6,5,0.07128949276702641,0.008338179242555081
36,7,5,0.14788103939892835,0.014009595163419297
36,8,5,0.13580239347223974,0.01286147236249325
37,0,5,0.07954246299509178,0.007950667151765053
37,1,5,0.09996577061063303,0.019608953779975066
37,2,5,0.12369822562448814,0.009719172882527384
37,3,5,0.01099518199408971,0.005205364901449434
37,4,5,0.09999086702297381,0.014734329727186931
37,5,5,0.05392527451614495,0.01808232290531927
37,6,5,0.03944686075504964,0.008243373983417764
37,7,5,0.10107390857266267,0.008637988490925274
37,8,5,0.10096753936363975,0.019177429531108323
38,0,5,0.09510664886362123,0.01494814422759008
38,1,5,0.07234797512393139,0.017550344248566753
38,2,5,0.09554971939968848,0.015104654255005883
38,3,5,0.07314672224149203,0.010581408318327499
38,4,5,0.18350855727948723,0.011276910531151603
38,5,5,0.08560445205068697,0.017577007352642154
38,6,5,0.039602941376026976,0.005975767855817349
38,7,5,0.09273068934773135,0.013781296869622211
38,8,5,0.15388985910576533,0.019621386981968372
39,0,5,0.09832875352889632,0.009805434024721673
39,1,5,0.0722123593493934,0.009079380692055153
39,2,5,0.09377768395222172,0.015170241047461452
39,3,5,0.08034093736851192,0.009039766496519476
39,4,5,0.10501436416130909,0.007422357963038266
39,5,5,0.14871971966092964,0.0026695832860507604
39,6,5,0.04207837839095252,0.008351661694863038
39,7,5,0.16033036429102276,0.013317937780596369
39,8,5,0.1377629795260879,0.01583138300637375
40,0,5,0.1497985568231519,0.012008479912720891
40,1,5,0.058576425452659155,0.018174899563532403
40,2,5,0.008830010133160404,0.015831371976927706
40,3,5,0.00825986957903162,0.015633153042452032
40,4,5,0.028803104855881334,0.004571055684489961
40,5,5,0.02438121314016466,0.010142211561776316
40,6,5,0.07009851340086111,0.011932566151530778
40,7,5,0.13232993198364662,0.004668360683327064
40,8,5,0.11682032181984939,0.01600731163543004
