subject,block,block_width,feature_channel,gate_mean,gate_sd
1,0,32,0,0.3583351671695709,0.08230885118246078
1,0,32,1,0.4282302260398865,0.0842590406537056
1,0,32,2,0.469918429851532,0.03633798658847809
1,0,32,3,0.6481425166130066,0.07262606918811798
1,0,32,4,0.5601688623428345,0.06267567723989487
1,0,32,5,0.43555498123168945,0.07647673785686493
1,0,32,6,0.29643869400024414,0.11256294697523117
1,0,32,7,0.511856198310852,0.07853028178215027
1,0,32,8,0.5788483023643494,0.06015550717711449
1,0,32,9,0.4563138782978058,0.05984948202967644
1,0,32,10,0.5089083313941956,0.02609524130821228
1,0,32,11,0.5014239549636841,0.07480492442846298
1,0,32,12,0.30765339732170105,0.09844955801963806
1,0,32,13,0.5867484211921692,0.0989668220281601
1,0,32,14,0.3461036682128906,0.09667394310235977
1,0,32,15,0.491600900888443,0.04596545919775963
1,0,32,16,0.44825801253318787,0.0797676295042038
1,0,32,17,0.6717121601104736,0.12177573144435883
1,0,32,18,0.49256184697151184,0.09471457451581955
1,0,32,19,0.4454024136066437,0.0761805921792984
1,0,32,20,0.5382012128829956,0.12499123066663742
1,0,32,21,0.6648198366165161,0.12190911173820496
1,0,32,22,0.42266106605529785,0.054460685700178146
1,0,32,23,0.41471782326698303,0.050502657890319824
1,0,32,24,0.4717737138271332,0.06891828030347824
1,0,32,25,0.4780192971229553,0.06502514332532883
1,0,32,26,0.5574225187301636,0.10224372893571854
1,0,32,27,0.49989622831344604,0.060402754694223404
1,0,32,28,0.5381124019622803,0.06114829704165459
1,0,32,29,0.5435975790023804,0.09411419928073883
1,0,32,30,0.638489842414856,0.07203558832406998
1,0,32,31,0.4667612314224243,0.11010871082544327
1,1,32,0,0.4597768187522888,0.10813970863819122
1,1,32,1,0.32683971524238586,0.08836238831281662
1,1,32,2,0.5052430033683777,0.04605887457728386
1,1,32,3,0.5405951738357544,0.04331497102975845
1,1,32,4,0.6313919425010681,0.08213037252426147
1,1,32,5,0.5389435291290283,0.08502959460020065
1,1,32,6,0.4607715606689453,0.09746123850345612
1,1,32,7,0.5637086629867554,0.04711976274847984
1,1,32,8,0.44079434871673584,0.12393099814653397
1,1,32,9,0.5831027030944824,0.16597318649291992
1,1,32,10,0.5536643266677856,0.13184593617916107
1,1,32,11,0.5009163022041321,0.12113679945468903
1,1,32,12,0.4974519610404968,0.08465500175952911
1,1,32,13,0.436665415763855,0.13139742612838745
1,1,32,14,0.5206672549247742,0.016284028068184853
1,1,32,15,0.5456820726394653,0.07856453955173492
1,1,32,16,0.3559207618236542,0.11860422044992447
1,1,32,17,0.5877888202667236,0.044461678713560104
1,1,32,18,0.6524286270141602,0.08383191376924515
1,1,32,19,0.55214923620224,0.12472117692232132
1,1,32,20,0.5079383850097656,0.06226332485675812
1,1,32,21,0.4349336624145508,0.033570051193237305
1,1,32,22,0.45744258165359497,0.10391278564929962
1,1,32,23,0.49910539388656616,0.06216786801815033
1,1,32,24,0.5703398585319519,0.0366639569401741
1,1,32,25,0.5688698887825012,0.05575719475746155
1,1,32,26,0.49329501390457153,0.11414475739002228
1,1,32,27,0.5699347257614136,0.0810670554637909
1,1,32,28,0.4234420955181122,0.13537412881851196
1,1,32,29,0.5535153746604919,0.09861607849597931
1,1,32,30,0.42301565408706665,0.05593310669064522
1,1,32,31,0.5113265514373779,0.034353431314229965
1,2,64,0,0.43657541275024414,0.10342319309711456
1,2,64,1,0.48285287618637085,0.1948942393064499
1,2,64,2,0.44562262296676636,0.26727497577667236
1,2,64,3,0.5948869585990906,0.13502998650074005
1,2,64,4,0.42280128598213196,0.1123882532119751
1,2,64,5,0.5386886596679688,0.2027905285358429
1,2,64,6,0.33840858936309814,0.17842255532741547
1,2,64,7,0.5821278691291809,0.0961112529039383
1,2,64,8,0.5353075265884399,0.25546953082084656
1,2,64,9,0.4879847466945648,0.11200162768363953
1,2,64,10,0.4377322494983673,0.1063452810049057
1,2,64,11,0.5127118229866028,0.08438136428594589
1,2,64,12,0.5457966327667236,0.056758005172014236
1,2,64,13,0.5100202560424805,0.25845250487327576
1,2,64,14,0.3411290943622589,0.2378625124692917
1,2,64,15,0.3554700016975403,0.09548874199390411
1,2,64,16,0.485848069190979,0.1826464980840683
1,2,64,17,0.5519390106201172,0.21796883642673492
1,2,64,18,0.4284050464630127,0.12515978515148163
1,2,64,19,0.5015996694564819,0.1603732705116272
1,2,64,20,0.39379024505615234,0.13084571063518524
1,2,64,21,0.47791969776153564,0.24482959508895874
1,2,64,22,0.5867097973823547,0.16088207066059113
1,2,64,23,0.7029750943183899,0.1317601501941681
1,2,64,24,0.39431023597717285,0.1640673279762268
1,2,64,25,0.5378751158714294,0.16568884253501892
1,2,64,26,0.40012601017951965,0.10352673381567001
1,2,64,27,0.44611015915870667,0.1224387139081955
1,2,64,28,0.6486063003540039,0.10851948708295822
1,2,64,29,0.42195191979408264,0.12295277416706085
1,2,64,30,0.41927358508110046,0.1405450850725174
1,2,64,31,0.45674315094947815,0.18817158043384552
1,2,64,32,0.4713619649410248,0.12661318480968475
1,2,64,33,0.5240662097930908,0.1322421133518219
1,2,64,34,0.4039251208305359,0.12246952205896378
1,2,64,35,0.43946826457977295,0.07534421235322952
1,2,64,36,0.5631073713302612,0.13595688343048096
1,2,64,37,0.494306743144989,0.10182628035545349
1,2,64,38,0.4064149856567383,0.13841967284679413
1,2,64,39,0.45627927780151367,0.10928335785865784
1,2,64,40,0.6775924563407898,0.10278681665658951
1,2,64,41,0.39878755807876587,0.2460821270942688
1,2,64,42,0.5224632024765015,0.2758738398551941
1,2,64,43,0.5227903723716736,0.11042344570159912
1,2,64,44,0.5237683057785034,0.12770792841911316
1,2,64,45,0.34616997838020325,0.11861439049243927
1,2,64,46,0.6001539826393127,0.19802135229110718
1,2,64,47,0.3939628303050995,0.16913190484046936
1,2,64,48,0.44871729612350464,0.14217998087406158
1,2,64,49,0.5818203091621399,0.0833541676402092
1,2,64,50,0.49883076548576355,0.27079764008522034
1,2,64,51,0.474449098110199,0.15388286113739014
1,2,64,52,0.5207914113998413,0.18545109033584595
1,2,64,53,0.5432853102684021,0.1271314024925232
1,2,64,54,0.4608060419559479,0.2494141161441803
1,2,64,55,0.4737854301929474,0.1467873454093933
1,2,64,56,0.5765214562416077,0.17033056914806366
1,2,64,57,0.5745471715927124,0.09657211601734161
1,2,64,58,0.6719310283660889,0.15353970229625702
1,2,64,59,0.6718474626541138,0.1559857726097107
1,2,64,60,0.42389172315597534,0.13891811668872833
1,2,64,61,0.3256666660308838,0.12003657966852188
1,2,64,62,0.5275751352310181,0.17286598682403564
1,2,64,63,0.4183541536331177,0.2247343510389328
1,3,64,0,0.3239453434944153,0.10772938281297684
1,3,64,1,0.500372052192688,0.07013122737407684
1,3,64,2,0.6776687502861023,0.24057723581790924
1,3,64,3,0.6447411775588989,0.1114095002412796
1,3,64,4,0.5388292670249939,0.04220965504646301
1,3,64,5,0.6161707043647766,0.2200869470834732
1,3,64,6,0.4298330545425415,0.22725512087345123
1,3,64,7,0.5558985471725464,0.1780865490436554
1,3,64,8,0.4371972680091858,0.1597895473241806
1,3,64,9,0.5496826171875,0.10591006278991699
1,3,64,10,0.5736177563667297,0.17206907272338867
1,3,64,11,0.3995906114578247,0.11222755908966064
1,3,64,12,0.4383925795555115,0.12518928945064545
1,3,64,13,0.5159080624580383,0.24537862837314606
1,3,64,14,0.6607174277305603,0.1637716442346573
1,3,64,15,0.6008447408676147,0.2818864583969116
1,3,64,16,0.714158296585083,0.14083413779735565
1,3,64,17,0.6649911999702454,0.09400440007448196
1,3,64,18,0.6106842756271362,0.07051382958889008
1,3,64,19,0.5098050236701965,0.35308802127838135
1,3,64,20,0.2650231122970581,0.16933247447013855
1,3,64,21,0.439292848110199,0.12101369351148605
1,3,64,22,0.396748423576355,0.09389960765838623
1,3,64,23,0.45277541875839233,0.267196923494339
1,3,64,24,0.7874231338500977,0.12916500866413116
1,3,64,25,0.4797919690608978,0.24831552803516388
1,3,64,26,0.530968427658081,0.31195858120918274
1,3,64,27,0.5245380997657776,0.14623525738716125
1,3,64,28,0.6746375560760498,0.17726550996303558
1,3,64,29,0.33838656544685364,0.11170992255210876
1,3,64,30,0.6319771409034729,0.10151709616184235
1,3,64,31,0.48581862449645996,0.10315439105033875
1,3,64,32,0.5435511469841003,0.10557727515697479
1,3,64,33,0.6170974373817444,0.26328790187835693
1,3,64,34,0.59832763671875,0.18138821423053741
1,3,64,35,0.5687057971954346,0.15763069689273834
1,3,64,36,0.5394009947776794,0.10732864588499069
1,3,64,37,0.2839648127555847,0.15654753148555756
1,3,64,38,0.5668808817863464,0.07685483247041702
1,3,64,39,0.6199851036071777,0.2898176312446594
1,3,64,40,0.5858289003372192,0.2001713216304779
1,3,64,41,0.5255722403526306,0.3396456837654114
1,3,64,42,0.4005451500415802,0.13263288140296936
1,3,64,43,0.5580843687057495,0.16394740343093872
1,3,64,44,0.3633299767971039,0.07979928702116013
1,3,64,45,0.7215942740440369,0.16817262768745422
1,3,64,46,0.4226008653640747,0.2885259687900543
1,3,64,47,0.6595137715339661,0.20012129843235016
1,3,64,48,0.3595520853996277,0.24506776034832
1,3,64,49,0.5874999761581421,0.1147630587220192
1,3,64,50,0.36078163981437683,0.1042591780424118
1,3,64,51,0.5190409421920776,0.2042185515165329
1,3,64,52,0.41771766543388367,0.18009434640407562
1,3,64,53,0.4126380383968353,0.08720559626817703
1,3,64,54,0.2540096640586853,0.16008484363555908
1,3,64,55,0.5933470129966736,0.315163254737854
1,3,64,56,0.24889697134494781,0.09734518080949783
1,3,64,57,0.48061367869377136,0.230240136384964
1,3,64,58,0.3094407320022583,0.23332007229328156
1,3,64,59,0.48892414569854736,0.16760683059692383
1,3,64,60,0.4096219837665558,0.2242450714111328
1,3,64,61,0.3781050145626068,0.07678962498903275
1,3,64,62,0.5338407158851624,0.09308218210935593
1,3,64,63,0.655802845954895,0.11267463862895966
1,4,128,0,0.7278451323509216,0.07753369957208633
1,4,128,1,0.6369655728340149,0.21067222952842712
1,4,128,2,0.675855278968811,0.2169228047132492
1,4,128,3,0.6361978054046631,0.32151398062705994
1,4,128,4,0.5743181109428406,0.2464141696691513
1,4,128,5,0.5084496736526489,0.19267816841602325
1,4,128,6,0.5910646915435791,0.2689080834388733
1,4,128,7,0.6419060826301575,0.2538053095340729
1,4,128,8,0.5990705490112305,0.16709525883197784
1,4,128,9,0.42992231249809265,0.32312309741973877
1,4,128,10,0.36189427971839905,0.07126947492361069
1,4,128,11,0.5538516640663147,0.16932083666324615
1,4,128,12,0.30670037865638733,0.2287818044424057
1,4,128,13,0.5371360182762146,0.17418625950813293
1,4,128,14,0.6520828008651733,0.10136926174163818
1,4,128,15,0.6099573969841003,0.23042818903923035
1,4,128,16,0.5712761282920837,0.2435503751039505
1,4,128,17,0.48545005917549133,0.1682874858379364
1,4,128,18,0.5138967037200928,0.21616829931735992
1,4,128,19,0.5354107618331909,0.20629531145095825
1,4,128,20,0.5511242151260376,0.19785569608211517
1,4,128,21,0.6271508932113647,0.10726169496774673
1,4,128,22,0.5886154174804688,0.23467010259628296
1,4,128,23,0.6157447099685669,0.20776581764221191
1,4,128,24,0.6968645453453064,0.08450321108102798
1,4,128,25,0.48943066596984863,0.29188501834869385
1,4,128,26,0.37867972254753113,0.18461553752422333
1,4,128,27,0.6952802538871765,0.10112365335226059
1,4,128,28,0.4073893129825592,0.08604511618614197
1,4,128,29,0.6104908585548401,0.2964175045490265
1,4,128,30,0.5424032807350159,0.16622626781463623
1,4,128,31,0.6721974611282349,0.15978308022022247
1,4,128,32,0.39529693126678467,0.2674650251865387
1,4,128,33,0.7209811210632324,0.11180614680051804
1,4,128,34,0.6848515868186951,0.3028448224067688
1,4,128,35,0.4627297520637512,0.1888737827539444
1,4,128,36,0.6545402407646179,0.1698131114244461
1,4,128,37,0.6193900108337402,0.28446146845817566
1,4,128,38,0.6616417169570923,0.1960882544517517
1,4,128,39,0.5425223708152771,0.1211736723780632
1,4,128,40,0.5018361210823059,0.2257312536239624
1,4,128,41,0.37362247705459595,0.11060826480388641
1,4,128,42,0.42958974838256836,0.12735077738761902
1,4,128,43,0.40031614899635315,0.18028834462165833
1,4,128,44,0.379008412361145,0.1877267062664032
1,4,128,45,0.7150975465774536,0.12295817583799362
1,4,128,46,0.495962917804718,0.1836879551410675
1,4,128,47,0.43332573771476746,0.29679664969444275
1,4,128,48,0.5245355367660522,0.21031996607780457
1,4,128,49,0.5851718187332153,0.3683050572872162
1,4,128,50,0.41721802949905396,0.145032599568367
1,4,128,51,0.5883671045303345,0.15175919234752655
1,4,128,52,0.5666458606719971,0.13522149622440338
1,4,128,53,0.5159518122673035,0.1858207732439041
1,4,128,54,0.4890928864479065,0.2730547785758972
1,4,128,55,0.460358202457428,0.15706351399421692
1,4,128,56,0.6504260301589966,0.2427387237548828
1,4,128,57,0.6354415416717529,0.21222490072250366
1,4,128,58,0.453247606754303,0.2612687051296234
1,4,128,59,0.720348060131073,0.08090710639953613
1,4,128,60,0.5832523703575134,0.12635043263435364
1,4,128,61,0.4838443398475647,0.07689174264669418
1,4,128,62,0.6977912783622742,0.21436955034732819
1,4,128,63,0.5388320684432983,0.22110021114349365
1,4,128,64,0.7187104821205139,0.1075672060251236
1,4,128,65,0.7911108732223511,0.09643171727657318
1,4,128,66,0.4852491617202759,0.22917525470256805
1,4,128,67,0.5935601592063904,0.22193790972232819
1,4,128,68,0.546373188495636,0.25814008712768555
1,4,128,69,0.6510753035545349,0.15273432433605194
1,4,128,70,0.5744569897651672,0.17177078127861023
1,4,128,71,0.6331522464752197,0.16705434024333954
1,4,128,72,0.6389080286026001,0.19507333636283875
1,4,128,73,0.41071203351020813,0.25118616223335266
1,4,128,74,0.6766259074211121,0.19594523310661316
1,4,128,75,0.5902626514434814,0.22240014374256134
1,4,128,76,0.7079847455024719,0.17208506166934967
1,4,128,77,0.5379604697227478,0.14772818982601166
1,4,128,78,0.6079234480857849,0.13151322305202484
1,4,128,79,0.523199200630188,0.20096199214458466
1,4,128,80,0.45348337292671204,0.2509397864341736
1,4,128,81,0.6441656351089478,0.25167137384414673
1,4,128,82,0.5887385010719299,0.21101908385753632
1,4,128,83,0.4389651417732239,0.20371265709400177
1,4,128,84,0.787198007106781,0.1051214337348938
1,4,128,85,0.6765864491462708,0.1217348724603653
1,4,128,86,0.41257721185684204,0.2997561991214752
1,4,128,87,0.4347127377986908,0.3069359064102173
1,4,128,88,0.7205442786216736,0.24657146632671356
1,4,128,89,0.5600399971008301,0.05138641223311424
1,4,128,90,0.5726112127304077,0.08734946697950363
1,4,128,91,0.39722922444343567,0.18945331871509552
1,4,128,92,0.4722314476966858,0.15664221346378326
1,4,128,93,0.5484011173248291,0.2392408549785614
1,4,128,94,0.3812887370586395,0.20495010912418365
1,4,128,95,0.37695935368537903,0.30266356468200684
1,4,128,96,0.3047289550304413,0.16170786321163177
1,4,128,97,0.4153105318546295,0.20167207717895508
1,4,128,98,0.6591161489486694,0.23920829594135284
1,4,128,99,0.6909422874450684,0.26227742433547974
1,4,128,100,0.6336219310760498,0.16419415175914764
1,4,128,101,0.3328624665737152,0.13822433352470398
1,4,128,102,0.600058376789093,0.1618153154850006
1,4,128,103,0.752813994884491,0.08626614511013031
1,4,128,104,0.6609767079353333,0.12147295475006104
1,4,128,105,0.7108691930770874,0.18268316984176636
1,4,128,106,0.3714255392551422,0.1740611344575882
1,4,128,107,0.6997222304344177,0.08758058398962021
1,4,128,108,0.789652407169342,0.10369112342596054
1,4,128,109,0.6320494413375854,0.29867130517959595
1,4,128,110,0.5959650874137878,0.24569962918758392
1,4,128,111,0.31554633378982544,0.11167999356985092
1,4,128,112,0.6552961468696594,0.2080570012331009
1,4,128,113,0.6715620160102844,0.14613474905490875
1,4,128,114,0.6691918969154358,0.08940403163433075
1,4,128,115,0.6152716279029846,0.21924251317977905
1,4,128,116,0.6453130841255188,0.10399501770734787
1,4,128,117,0.34159305691719055,0.1543089747428894
1,4,128,118,0.7443335652351379,0.17135049402713776
1,4,128,119,0.5160720348358154,0.1828736960887909
1,4,128,120,0.6104163527488708,0.18516799807548523
1,4,128,121,0.48247697949409485,0.3230435252189636
1,4,128,122,0.4673800766468048,0.2330712080001831
1,4,128,123,0.5194522738456726,0.2824922502040863
1,4,128,124,0.4975584149360657,0.11431997269392014
1,4,128,125,0.44874298572540283,0.09106291085481644
1,4,128,126,0.675674557685852,0.09789709001779556
1,4,128,127,0.5265630483627319,0.1751556396484375
1,5,128,0,0.4638216197490692,0.1671864092350006
1,5,128,1,0.5447329878807068,0.229343980550766
1,5,128,2,0.5626052021980286,0.08579245954751968
1,5,128,3,0.843298077583313,0.12928812205791473
1,5,128,4,0.7612017393112183,0.1917603462934494
1,5,128,5,0.7995992302894592,0.10577573627233505
1,5,128,6,0.6011115312576294,0.15294937789440155
1,5,128,7,0.4102296233177185,0.1455232948064804
1,5,128,8,0.5539320707321167,0.2320517599582672
1,5,128,9,0.3684174120426178,0.2148626297712326
1,5,128,10,0.6801415681838989,0.2197016328573227
1,5,128,11,0.5478089451789856,0.14761009812355042
1,5,128,12,0.7663252353668213,0.08801714330911636
1,5,128,13,0.5963712334632874,0.10640226304531097
1,5,128,14,0.6822479963302612,0.1535731852054596
1,5,128,15,0.8377115726470947,0.09830287843942642
1,5,128,16,0.5234938263893127,0.2246108502149582
1,5,128,17,0.6983498334884644,0.08293885737657547
1,5,128,18,0.45753201842308044,0.12296385318040848
1,5,128,19,0.6471195220947266,0.04526204988360405
1,5,128,20,0.888083815574646,0.07926083356142044
1,5,128,21,0.7833904027938843,0.08796520531177521
1,5,128,22,0.7239826917648315,0.19904129207134247
1,5,128,23,0.5915138125419617,0.14620722830295563
1,5,128,24,0.6329852342605591,0.11513268947601318
1,5,128,25,0.7713207006454468,0.1409272700548172
1,5,128,26,0.6610369682312012,0.13874417543411255
1,5,128,27,0.8106009364128113,0.0944899246096611
1,5,128,28,0.8148677945137024,0.11698807775974274
1,5,128,29,0.4253697395324707,0.10198143869638443
1,5,128,30,0.7616869211196899,0.1553034633398056
1,5,128,31,0.8447011113166809,0.10562579333782196
1,5,128,32,0.7001268267631531,0.20079642534255981
1,5,128,33,0.7087753415107727,0.11173150688409805
1,5,128,34,0.4426303505897522,0.2946923077106476
1,5,128,35,0.8028472661972046,0.14077429473400116
1,5,128,36,0.819807231426239,0.08045748621225357
1,5,128,37,0.8399069905281067,0.08595960587263107
1,5,128,38,0.769913911819458,0.10113296657800674
1,5,128,39,0.7739612460136414,0.12911438941955566
1,5,128,40,0.8110319972038269,0.10830677300691605
1,5,128,41,0.44366124272346497,0.06746283918619156
1,5,128,42,0.6509087085723877,0.1265234351158142
1,5,128,43,0.4530564844608307,0.19361387193202972
1,5,128,44,0.6006102561950684,0.11162121593952179
1,5,128,45,0.7886226773262024,0.13577893376350403
1,5,128,46,0.6924326419830322,0.10071980953216553
1,5,128,47,0.7632389664649963,0.08769334852695465
1,5,128,48,0.7111832499504089,0.07993447780609131
1,5,128,49,0.840954601764679,0.0989401638507843
1,5,128,50,0.45353299379348755,0.2737492620944977
1,5,128,51,0.4808385968208313,0.2966155409812927
1,5,128,52,0.7766033411026001,0.11347434669733047
1,5,128,53,0.8437586426734924,0.070697121322155
1,5,128,54,0.562415599822998,0.0697794109582901
1,5,128,55,0.46228721737861633,0.19424980878829956
1,5,128,56,0.6674184799194336,0.2110166847705841
1,5,128,57,0.8016842007637024,0.09153711795806885
1,5,128,58,0.7267633676528931,0.10338904708623886
1,5,128,59,0.6199434399604797,0.15641306340694427
1,5,128,60,0.4537462890148163,0.21761035919189453
1,5,128,61,0.6462196707725525,0.17706021666526794
1,5,128,62,0.5307465195655823,0.07840653508901596
1,5,128,63,0.7585734128952026,0.11191432923078537
1,5,128,64,0.8251151442527771,0.09993061423301697
1,5,128,65,0.6814740896224976,0.2803122103214264
1,5,128,66,0.454502671957016,0.18878068029880524
1,5,128,67,0.5752860307693481,0.09853849560022354
1,5,128,68,0.7032260298728943,0.23212319612503052
1,5,128,69,0.7605571150779724,0.15049251914024353
1,5,128,70,0.6281310319900513,0.21124102175235748
1,5,128,71,0.6385983824729919,0.14850066602230072
1,5,128,72,0.7868936061859131,0.10791803896427155
1,5,128,73,0.8041776418685913,0.07550105452537537
1,5,128,74,0.6041466593742371,0.11793416738510132
1,5,128,75,0.8215702772140503,0.07046502083539963
1,5,128,76,0.666925311088562,0.20504264533519745
1,5,128,77,0.8726474046707153,0.07813863456249237
1,5,128,78,0.7077178955078125,0.09362617880105972
1,5,128,79,0.5609426498413086,0.08301816135644913
1,5,128,80,0.7541783452033997,0.14122267067432404
1,5,128,81,0.824269711971283,0.10054447501897812
1,5,128,82,0.868305504322052,0.08026701956987381
1,5,128,83,0.5256505012512207,0.23289282619953156
1,5,128,84,0.7403351068496704,0.2225228250026703
1,5,128,85,0.8363361954689026,0.09355095028877258
1,5,128,86,0.7144466042518616,0.07697887718677521
1,5,128,87,0.6375094652175903,0.13065262138843536
1,5,128,88,0.6978776454925537,0.24595458805561066
1,5,128,89,0.806731641292572,0.08106917887926102
1,5,128,90,0.7596848607063293,0.17826123535633087
1,5,128,91,0.7528406977653503,0.11159446090459824
1,5,128,92,0.38780584931373596,0.08071808516979218
1,5,128,93,0.7094907164573669,0.18086615204811096
1,5,128,94,0.6918963193893433,0.2234419584274292
1,5,128,95,0.3538496494293213,0.15187610685825348
1,5,128,96,0.7815370559692383,0.18301351368427277
1,5,128,97,0.6378099322319031,0.17768776416778564
1,5,128,98,0.7680135369300842,0.13475877046585083
1,5,128,99,0.7685239911079407,0.14742906391620636
1,5,128,100,0.6767053604125977,0.10911323130130768
1,5,128,101,0.7581263184547424,0.10421217232942581
1,5,128,102,0.7250463366508484,0.12555277347564697
1,5,128,103,0.7086954116821289,0.2162180095911026
1,5,128,104,0.7767302393913269,0.1468384563922882
1,5,128,105,0.5866580009460449,0.1802891194820404
1,5,128,106,0.539110004901886,0.16520628333091736
1,5,128,107,0.6759960055351257,0.09659837931394577
1,5,128,108,0.8231510519981384,0.09816468507051468
1,5,128,109,0.8928777575492859,0.07685723155736923
1,5,128,110,0.4077520966529846,0.1368892937898636
1,5,128,111,0.5750812292098999,0.20114804804325104
1,5,128,112,0.7118921875953674,0.16677649319171906
1,5,128,113,0.8149803876876831,0.07815723121166229
1,5,128,114,0.5192687511444092,0.06870665401220322
1,5,128,115,0.8358941674232483,0.10181549936532974
1,5,128,116,0.4630378484725952,0.09212784469127655
1,5,128,117,0.6809186339378357,0.13751374185085297
1,5,128,118,0.4387977123260498,0.16617269814014435
1,5,128,119,0.8890475630760193,0.0663750022649765
1,5,128,120,0.7931047677993774,0.13128414750099182
1,5,128,121,0.40089207887649536,0.19194601476192474
1,5,128,122,0.5217589735984802,0.1048237532377243
1,5,128,123,0.7867002487182617,0.07139170914888382
1,5,128,124,0.8079141974449158,0.06890256702899933
1,5,128,125,0.5991837382316589,0.06299892067909241
1,5,128,126,0.810718297958374,0.07668586820363998
1,5,128,127,0.7182083129882812,0.21122267842292786
2,0,32,0,0.5687808990478516,0.07099238783121109
2,0,32,1,0.5843423008918762,0.09298443794250488
2,0,32,2,0.5447288751602173,0.181402325630188
2,0,32,3,0.5223284363746643,0.12881092727184296
2,0,32,4,0.774786651134491,0.07187239080667496
2,0,32,5,0.47728535532951355,0.1335260570049286
2,0,32,6,0.5856199264526367,0.19118152558803558
2,0,32,7,0.353389173746109,0.12592259049415588
2,0,32,8,0.537962019443512,0.0686437264084816
2,0,32,9,0.5088574886322021,0.1113479807972908
2,0,32,10,0.5404196977615356,0.19266505539417267
2,0,32,11,0.5253534913063049,0.11162258684635162
2,0,32,12,0.6231972575187683,0.26868557929992676
2,0,32,13,0.42563751339912415,0.12739557027816772
2,0,32,14,0.5286368727684021,0.14390245079994202
2,0,32,15,0.5798274278640747,0.06951281428337097
2,0,32,16,0.38147857785224915,0.2193116545677185
2,0,32,17,0.6196836233139038,0.09433813393115997
2,0,32,18,0.464944452047348,0.2339668720960617
2,0,32,19,0.7195267677307129,0.11591850966215134
2,0,32,20,0.5571625828742981,0.051129620522260666
2,0,32,21,0.4653843343257904,0.09694860875606537
2,0,32,22,0.40064501762390137,0.09842152893543243
2,0,32,23,0.4970712661743164,0.09595295041799545
2,0,32,24,0.4165363609790802,0.11127937585115433
2,0,32,25,0.5081106424331665,0.1063234806060791
2,0,32,26,0.4095730185508728,0.13753606379032135
2,0,32,27,0.3018924295902252,0.10804207623004913
2,0,32,28,0.3230351209640503,0.11623106896877289
2,0,32,29,0.2789771556854248,0.08175276964902878
2,0,32,30,0.48661282658576965,0.04588726907968521
2,0,32,31,0.3303351402282715,0.0759689211845398
2,1,32,0,0.4888949394226074,0.03080349788069725
2,1,32,1,0.5321002006530762,0.06624584645032883
2,1,32,2,0.545981228351593,0.09514858573675156
2,1,32,3,0.5282185673713684,0.029885869473218918
2,1,32,4,0.45972445607185364,0.03443554416298866
2,1,32,5,0.4514622688293457,0.07051766663789749
2,1,32,6,0.5695893168449402,0.04657357186079025
2,1,32,7,0.5837059020996094,0.03605376183986664
2,1,32,8,0.5877732038497925,0.04755624756217003
2,1,32,9,0.5727246403694153,0.0827019065618515
2,1,32,10,0.46061229705810547,0.0628405213356018
2,1,32,11,0.5559675693511963,0.03860962763428688
2,1,32,12,0.4240659773349762,0.04746357351541519
2,1,32,13,0.597084105014801,0.046726495027542114
2,1,32,14,0.5365878343582153,0.052638452500104904
2,1,32,15,0.5340173244476318,0.042101938277482986
2,1,32,16,0.5569385290145874,0.09596597403287888
2,1,32,17,0.5557079911231995,0.08470488339662552
2,1,32,18,0.4838862419128418,0.058314766734838486
2,1,32,19,0.5779080986976624,0.05133140832185745
2,1,32,20,0.5649319291114807,0.049495939165353775
2,1,32,21,0.5427976846694946,0.07129327207803726
2,1,32,22,0.5232450366020203,0.044052086770534515
2,1,32,23,0.5427634119987488,0.07041732966899872
2,1,32,24,0.5110606551170349,0.058870017528533936
2,1,32,25,0.47061625123023987,0.06970756500959396
2,1,32,26,0.4445435702800751,0.06687438488006592
2,1,32,27,0.4104173183441162,0.07131295651197433
2,1,32,28,0.47818902134895325,0.1062466949224472
2,1,32,29,0.3981637954711914,0.0437612384557724
2,1,32,30,0.49749767780303955,0.08454416692256927
2,1,32,31,0.4966020882129669,0.0740479975938797
2,2,64,0,0.47190746665000916,0.10000087320804596
2,2,64,1,0.542748749256134,0.10747793316841125
2,2,64,2,0.39204928278923035,0.1250903457403183
2,2,64,3,0.49498337507247925,0.08463271707296371
2,2,64,4,0.5521414875984192,0.11526896804571152
2,2,64,5,0.5849048495292664,0.11596331745386124
2,2,64,6,0.586557149887085,0.07298187911510468
2,2,64,7,0.3180665671825409,0.16632190346717834
2,2,64,8,0.6286579966545105,0.12663424015045166
2,2,64,9,0.5112051963806152,0.12909094989299774
2,2,64,10,0.38249680399894714,0.1347200870513916
2,2,64,11,0.5163536071777344,0.04111962020397186
2,2,64,12,0.49772027134895325,0.1960405856370926
2,2,64,13,0.5913280248641968,0.15254800021648407
2,2,64,14,0.5299513936042786,0.0697704330086708
2,2,64,15,0.5014271140098572,0.11134006083011627
2,2,64,16,0.5265148878097534,0.1419474482536316
2,2,64,17,0.47391271591186523,0.08929210156202316
2,2,64,18,0.5971714854240417,0.07633937895298004
2,2,64,19,0.5311659574508667,0.2604909837245941
2,2,64,20,0.5216749310493469,0.06983885914087296
2,2,64,21,0.44753357768058777,0.08780505508184433
2,2,64,22,0.5363651514053345,0.08011596649885178
2,2,64,23,0.45540571212768555,0.22656072676181793
2,2,64,24,0.45016705989837646,0.11264192312955856
2,2,64,25,0.44573524594306946,0.060798559337854385
2,2,64,26,0.5739110708236694,0.12501473724842072
2,2,64,27,0.5354180932044983,0.06337418407201767
2,2,64,28,0.49486243724823,0.0991344228386879
2,2,64,29,0.4132388234138489,0.155732199549675
2,2,64,30,0.5329451560974121,0.14209340512752533
2,2,64,31,0.4555400311946869,0.12173977494239807
2,2,64,32,0.4838121831417084,0.079704649746418
2,2,64,33,0.4639754593372345,0.07555574178695679
2,2,64,34,0.4202885031700134,0.12116267532110214
2,2,64,35,0.5533658266067505,0.13041430711746216
2,2,64,36,0.4936997592449188,0.1981312781572342
2,2,64,37,0.4330378472805023,0.10867336392402649
2,2,64,38,0.48240625858306885,0.10825096815824509
2,2,64,39,0.6074163317680359,0.188681498169899
2,2,64,40,0.5099190473556519,0.17002485692501068
2,2,64,41,0.5212165117263794,0.09999474138021469
2,2,64,42,0.5403587222099304,0.1405990570783615
2,2,64,43,0.5077511072158813,0.10147556662559509
2,2,64,44,0.5022136569023132,0.05768648907542229
2,2,64,45,0.52556973695755,0.10181368142366409
2,2,64,46,0.5931352972984314,0.12484284490346909
2,2,64,47,0.37985411286354065,0.14488337934017181
2,2,64,48,0.4332544207572937,0.07333151996135712
2,2,64,49,0.5070315599441528,0.06287787109613419
2,2,64,50,0.5580745935440063,0.09602203220129013
2,2,64,51,0.4745749235153198,0.12834620475769043
2,2,64,52,0.47739192843437195,0.24055656790733337
2,2,64,53,0.6129360198974609,0.1140671819448471
2,2,64,54,0.45455247163772583,0.13041500747203827
2,2,64,55,0.5157606601715088,0.062192488461732864
2,2,64,56,0.5305245518684387,0.11534565687179565
2,2,64,57,0.520285427570343,0.2160574346780777
2,2,64,58,0.5600237846374512,0.15360713005065918
2,2,64,59,0.4679545760154724,0.06604994088411331
2,2,64,60,0.5463499426841736,0.1255778819322586
2,2,64,61,0.5647966265678406,0.11546279489994049
2,2,64,62,0.4155942499637604,0.11749756336212158
2,2,64,63,0.4532416760921478,0.15208621323108673
2,3,64,0,0.5783566832542419,0.14459024369716644
2,3,64,1,0.5642772316932678,0.2040855884552002
2,3,64,2,0.5515438318252563,0.14045538008213043
2,3,64,3,0.5938510298728943,0.09241049736738205
2,3,64,4,0.46322721242904663,0.1265271157026291
2,3,64,5,0.5767406225204468,0.14935122430324554
2,3,64,6,0.5997810959815979,0.0667061135172844
2,3,64,7,0.41768911480903625,0.18309102952480316
2,3,64,8,0.5969836711883545,0.2196279913187027
2,3,64,9,0.4448806345462799,0.2343958467245102
2,3,64,10,0.5406903624534607,0.08005066961050034
2,3,64,11,0.5452094078063965,0.10086078196763992
2,3,64,12,0.46000951528549194,0.11864794790744781
2,3,64,13,0.5616363286972046,0.12888185679912567
2,3,64,14,0.46368807554244995,0.08943943679332733
2,3,64,15,0.47695738077163696,0.10199816524982452
2,3,64,16,0.5262508392333984,0.06384103745222092
2,3,64,17,0.4493706226348877,0.16411174833774567
2,3,64,18,0.5753419399261475,0.19086410105228424
2,3,64,19,0.4002276659011841,0.16418568789958954
2,3,64,20,0.44344907999038696,0.06961352378129959
2,3,64,21,0.4372294843196869,0.20450378954410553
2,3,64,22,0.511795699596405,0.16020427644252777
2,3,64,23,0.49856361746788025,0.19651183485984802
2,3,64,24,0.6572232246398926,0.0999738946557045
2,3,64,25,0.47290971875190735,0.13730116188526154
2,3,64,26,0.4243253767490387,0.1168925017118454
2,3,64,27,0.4928271472454071,0.28471845388412476
2,3,64,28,0.33976051211357117,0.09006603062152863
2,3,64,29,0.5191775560379028,0.22092454135417938
2,3,64,30,0.3551550507545471,0.10790865123271942
2,3,64,31,0.5154204964637756,0.1208159402012825
2,3,64,32,0.525960385799408,0.0830894336104393
2,3,64,33,0.4104914367198944,0.14402391016483307
2,3,64,34,0.5001164674758911,0.2593781650066376
2,3,64,35,0.504900336265564,0.19313031435012817
2,3,64,36,0.601693868637085,0.1067044660449028
2,3,64,37,0.5240388512611389,0.09291581064462662
2,3,64,38,0.5774990916252136,0.15075460076332092
2,3,64,39,0.5867887139320374,0.15721245110034943
2,3,64,40,0.5355907678604126,0.14812374114990234
2,3,64,41,0.4339883625507355,0.09566836059093475
2,3,64,42,0.47974956035614014,0.15291310846805573
2,3,64,43,0.4282732605934143,0.17143839597702026
2,3,64,44,0.4841800630092621,0.16676147282123566
2,3,64,45,0.4168853461742401,0.1627850979566574
2,3,64,46,0.5019339919090271,0.16132299602031708
2,3,64,47,0.6680214405059814,0.07728983461856842
2,3,64,48,0.4605478346347809,0.08590292185544968
2,3,64,49,0.6219669580459595,0.07644258439540863
2,3,64,50,0.530259370803833,0.08353012055158615
2,3,64,51,0.4579766094684601,0.10468653589487076
2,3,64,52,0.590843677520752,0.19956764578819275
2,3,64,53,0.6351765990257263,0.042131174355745316
2,3,64,54,0.5097468495368958,0.20203931629657745
2,3,64,55,0.46231719851493835,0.10605616122484207
2,3,64,56,0.5163280367851257,0.08423904329538345
2,3,64,57,0.5476395487785339,0.1426144689321518
2,3,64,58,0.4139730632305145,0.12737198173999786
2,3,64,59,0.5891196727752686,0.09285816550254822
2,3,64,60,0.42718154191970825,0.219711571931839
2,3,64,61,0.5519965887069702,0.19477249681949615
2,3,64,62,0.5624809861183167,0.17378386855125427
2,3,64,63,0.5484741926193237,0.22340184450149536
2,4,128,0,0.5911517143249512,0.17600475251674652
2,4,128,1,0.6430299878120422,0.163244366645813
2,4,128,2,0.5958026647567749,0.23178042471408844
2,4,128,3,0.6675249934196472,0.28866714239120483
2,4,128,4,0.7653974890708923,0.08800078183412552
2,4,128,5,0.7259798645973206,0.08111957460641861
2,4,128,6,0.7176315188407898,0.27359506487846375
2,4,128,7,0.41259676218032837,0.1524251103401184
2,4,128,8,0.2807917892932892,0.19761879742145538
2,4,128,9,0.6286706328392029,0.20522981882095337
2,4,128,10,0.39847174286842346,0.2160797417163849
2,4,128,11,0.45399439334869385,0.08793852478265762
2,4,128,12,0.5410218238830566,0.1952076405286789
2,4,128,13,0.7092317938804626,0.10883309692144394
2,4,128,14,0.6986675262451172,0.2485005259513855
2,4,128,15,0.6553020477294922,0.10519147664308548
2,4,128,16,0.41817358136177063,0.20687608420848846
2,4,128,17,0.47204363346099854,0.16847550868988037
2,4,128,18,0.5454970002174377,0.06673254817724228
2,4,128,19,0.7851674556732178,0.0767153948545456
2,4,128,20,0.5551168918609619,0.14959196746349335
2,4,128,21,0.6240308284759521,0.12638044357299805
2,4,128,22,0.7036844491958618,0.14776358008384705
2,4,128,23,0.6813681721687317,0.2257804423570633
2,4,128,24,0.7721161246299744,0.21515342593193054
2,4,128,25,0.35274362564086914,0.17284700274467468
2,4,128,26,0.2996201515197754,0.19065850973129272
2,4,128,27,0.6969035267829895,0.09534763544797897
2,4,128,28,0.8136513233184814,0.07735329866409302
2,4,128,29,0.6700038313865662,0.2386888861656189
2,4,128,30,0.725055456161499,0.1418672651052475
2,4,128,31,0.32531121373176575,0.21205513179302216
2,4,128,32,0.39113306999206543,0.31970223784446716
2,4,128,33,0.6334086060523987,0.043774042278528214
2,4,128,34,0.6813343167304993,0.23615796864032745
2,4,128,35,0.6257246136665344,0.22844752669334412
2,4,128,36,0.4087965488433838,0.2700624465942383
2,4,128,37,0.6329630613327026,0.25495240092277527
2,4,128,38,0.6649977564811707,0.29971903562545776
2,4,128,39,0.6279484629631042,0.23266065120697021
2,4,128,40,0.354380339384079,0.24586063623428345
2,4,128,41,0.4989081621170044,0.15305572748184204
2,4,128,42,0.7477529048919678,0.2209930270910263
2,4,128,43,0.6868119239807129,0.18801945447921753
2,4,128,44,0.3633050322532654,0.26231056451797485
2,4,128,45,0.6870313882827759,0.07823339849710464
2,4,128,46,0.7663422226905823,0.10379967093467712
2,4,128,47,0.636101245880127,0.13252337276935577
2,4,128,48,0.706092357635498,0.1302269846200943
2,4,128,49,0.6452852487564087,0.26765263080596924
2,4,128,50,0.6173312067985535,0.19744938611984253
2,4,128,51,0.35259905457496643,0.27173343300819397
2,4,128,52,0.6636989712715149,0.1578652262687683
2,4,128,53,0.6592515707015991,0.17282386124134064
2,4,128,54,0.44454020261764526,0.20527683198451996
2,4,128,55,0.5420984625816345,0.07025881856679916
2,4,128,56,0.4571577310562134,0.19602526724338531
2,4,128,57,0.600602388381958,0.23442550003528595
2,4,128,58,0.7092799544334412,0.15916289389133453
2,4,128,59,0.5850353240966797,0.17685699462890625
2,4,128,60,0.5596609711647034,0.32958394289016724
2,4,128,61,0.6913158297538757,0.12039020657539368
2,4,128,62,0.6676111817359924,0.09599295258522034
2,4,128,63,0.7199552655220032,0.10515394806861877
2,4,128,64,0.7304608225822449,0.12138894200325012
2,4,128,65,0.4435422122478485,0.14248615503311157
2,4,128,66,0.6312233209609985,0.2894487977027893
2,4,128,67,0.6759271025657654,0.2566874921321869
2,4,128,68,0.7777636647224426,0.08819500356912613
2,4,128,69,0.47416719794273376,0.16993741691112518
2,4,128,70,0.26287123560905457,0.08927593380212784
2,4,128,71,0.5706163048744202,0.16358818113803864
2,4,128,72,0.5626702904701233,0.11695898324251175
2,4,128,73,0.700459897518158,0.21376186609268188
2,4,128,74,0.5595682859420776,0.17069187760353088
2,4,128,75,0.5052138566970825,0.21471624076366425
2,4,128,76,0.5867131352424622,0.17475451529026031
2,4,128,77,0.7184691429138184,0.2006574273109436
2,4,128,78,0.5292223691940308,0.16763155162334442
2,4,128,79,0.2673369348049164,0.165012389421463
2,4,128,80,0.6454313397407532,0.09107190370559692
2,4,128,81,0.5724155306816101,0.25255823135375977
2,4,128,82,0.4595462679862976,0.15737608075141907
2,4,128,83,0.6531713008880615,0.21248182654380798
2,4,128,84,0.4318091869354248,0.12423066049814224
2,4,128,85,0.630775511264801,0.34398624300956726
2,4,128,86,0.4928564727306366,0.20028530061244965
2,4,128,87,0.2771264910697937,0.2003657966852188
2,4,128,88,0.6784433126449585,0.3100512623786926
2,4,128,89,0.7121425867080688,0.08953451365232468
2,4,128,90,0.8168021440505981,0.12533441185951233
2,4,128,91,0.5835758447647095,0.17372773587703705
2,4,128,92,0.6118366122245789,0.31362080574035645
2,4,128,93,0.5242530703544617,0.16676464676856995
2,4,128,94,0.7162976861000061,0.06616227328777313
2,4,128,95,0.6786363124847412,0.18437087535858154
2,4,128,96,0.4852665066719055,0.1658923178911209
2,4,128,97,0.6549022793769836,0.24659790098667145
2,4,128,98,0.8097690343856812,0.08162059634923935
2,4,128,99,0.5339259505271912,0.1364896595478058
2,4,128,100,0.7333588600158691,0.2679208219051361
2,4,128,101,0.4257429838180542,0.1810106635093689
2,4,128,102,0.45125630497932434,0.14932624995708466
2,4,128,103,0.7326669692993164,0.07890085875988007
2,4,128,104,0.7702507376670837,0.11388283967971802
2,4,128,105,0.26698389649391174,0.21799403429031372
2,4,128,106,0.6667798757553101,0.14221706986427307
2,4,128,107,0.5646303296089172,0.1675398051738739
2,4,128,108,0.7311670780181885,0.2161678820848465
2,4,128,109,0.7532342672348022,0.10524634271860123
2,4,128,110,0.28272244334220886,0.2229999452829361
2,4,128,111,0.6479683518409729,0.15806835889816284
2,4,128,112,0.30155840516090393,0.30032414197921753
2,4,128,113,0.5283794403076172,0.15594619512557983
2,4,128,114,0.39232754707336426,0.23861074447631836
2,4,128,115,0.5494515895843506,0.23985004425048828
2,4,128,116,0.7868136763572693,0.14485985040664673
2,4,128,117,0.4864400625228882,0.13398700952529907
2,4,128,118,0.5870416164398193,0.27671927213668823
2,4,128,119,0.7589530944824219,0.15837666392326355
2,4,128,120,0.5434914827346802,0.10643822699785233
2,4,128,121,0.5768792033195496,0.1604725420475006
2,4,128,122,0.39589056372642517,0.19689473509788513
2,4,128,123,0.28328439593315125,0.11280038207769394
2,4,128,124,0.6473520994186401,0.13598570227622986
2,4,128,125,0.26133668422698975,0.1140972226858139
2,4,128,126,0.6494317650794983,0.15224377810955048
2,4,128,127,0.6438145041465759,0.30256059765815735
2,5,128,0,0.7126641273498535,0.27863603830337524
2,5,128,1,0.6867587566375732,0.09533873945474625
2,5,128,2,0.6914697885513306,0.31992679834365845
2,5,128,3,0.8807966113090515,0.1245175451040268
2,5,128,4,0.7932194471359253,0.17651815712451935
2,5,128,5,0.8447621464729309,0.08566804230213165
2,5,128,6,0.8769384622573853,0.11411963403224945
2,5,128,7,0.4010215997695923,0.18710626661777496
2,5,128,8,0.6229297518730164,0.2004929631948471
2,5,128,9,0.8699573278427124,0.09152918308973312
2,5,128,10,0.8786087036132812,0.11769774556159973
2,5,128,11,0.8045970797538757,0.16512595117092133
2,5,128,12,0.8102054595947266,0.18845517933368683
2,5,128,13,0.8595596551895142,0.09709277749061584
2,5,128,14,0.7436560392379761,0.0835917741060257
2,5,128,15,0.7160152196884155,0.1853650063276291
2,5,128,16,0.7746942043304443,0.2179548442363739
2,5,128,17,0.8292105793952942,0.11950790137052536
2,5,128,18,0.8149477243423462,0.050498802214860916
2,5,128,19,0.7819284796714783,0.1148548498749733
2,5,128,20,0.7959347367286682,0.18237020075321198
2,5,128,21,0.32227450609207153,0.2314811497926712
2,5,128,22,0.3010596036911011,0.22820058465003967
2,5,128,23,0.7262427806854248,0.269971638917923
2,5,128,24,0.842366099357605,0.09070894122123718
2,5,128,25,0.6265779137611389,0.15598033368587494
2,5,128,26,0.43937012553215027,0.18827486038208008
2,5,128,27,0.7630007863044739,0.1616666167974472
2,5,128,28,0.7191635370254517,0.2679891884326935
2,5,128,29,0.6349201202392578,0.1613430380821228
2,5,128,30,0.49020111560821533,0.35016798973083496
2,5,128,31,0.7927379012107849,0.07435675710439682
2,5,128,32,0.8488144874572754,0.05912650004029274
2,5,128,33,0.8976052403450012,0.07808908075094223
2,5,128,34,0.569391667842865,0.15734754502773285
2,5,128,35,0.6673566699028015,0.3392409384250641
2,5,128,36,0.5176836252212524,0.21989089250564575
2,5,128,37,0.4401739835739136,0.25730082392692566
2,5,128,38,0.7837673425674438,0.08903803676366806
2,5,128,39,0.8767390847206116,0.11756794154644012
2,5,128,40,0.5833530426025391,0.15416094660758972
2,5,128,41,0.7946241497993469,0.17071883380413055
2,5,128,42,0.8463941812515259,0.11516152322292328
2,5,128,43,0.8819589018821716,0.07843950390815735
2,5,128,44,0.41215604543685913,0.27478721737861633
2,5,128,45,0.8714466094970703,0.07576895505189896
2,5,128,46,0.8908916115760803,0.0694160908460617
2,5,128,47,0.32724475860595703,0.16748934984207153
2,5,128,48,0.6424127817153931,0.13429240882396698
2,5,128,49,0.82808917760849,0.09384851157665253
2,5,128,50,0.5573551654815674,0.21624475717544556
2,5,128,51,0.7496936917304993,0.1796780526638031
2,5,128,52,0.6285447478294373,0.11891912668943405
2,5,128,53,0.47897520661354065,0.24893726408481598
2,5,128,54,0.4548703134059906,0.27078676223754883
2,5,128,55,0.5765849947929382,0.07990975677967072
2,5,128,56,0.473775714635849,0.2385254204273224
2,5,128,57,0.4954959452152252,0.1891123503446579
2,5,128,58,0.7134918570518494,0.2684248387813568
2,5,128,59,0.7840920090675354,0.07621145248413086
2,5,128,60,0.8742831349372864,0.11898127943277359
2,5,128,61,0.7961952686309814,0.16005319356918335
2,5,128,62,0.8536545038223267,0.09654419124126434
2,5,128,63,0.8499336242675781,0.15579621493816376
2,5,128,64,0.8516345024108887,0.11959213763475418
2,5,128,65,0.6888695359230042,0.09671958535909653
2,5,128,66,0.8692295551300049,0.1132160946726799
2,5,128,67,0.7245475649833679,0.15886324644088745
2,5,128,68,0.8874173164367676,0.07381269335746765
2,5,128,69,0.4179360270500183,0.34683993458747864
2,5,128,70,0.5254418849945068,0.1483813226222992
2,5,128,71,0.7933676242828369,0.07248171418905258
2,5,128,72,0.713749349117279,0.09848251193761826
2,5,128,73,0.9022331833839417,0.0771159902215004
2,5,128,74,0.7776761054992676,0.19937875866889954
2,5,128,75,0.435000479221344,0.228667750954628
2,5,128,76,0.81710284948349,0.09048599749803543
2,5,128,77,0.4059213697910309,0.27449819445610046
2,5,128,78,0.7996959686279297,0.18775849044322968
2,5,128,79,0.47286128997802734,0.2541806101799011
2,5,128,80,0.37263813614845276,0.32476183772087097
2,5,128,81,0.7984174489974976,0.15456891059875488
2,5,128,82,0.3886301517486572,0.34411028027534485
2,5,128,83,0.8064958453178406,0.09674610197544098
2,5,128,84,0.7330169677734375,0.2889406681060791
2,5,128,85,0.8557307720184326,0.13484042882919312
2,5,128,86,0.8850806951522827,0.06568219512701035
2,5,128,87,0.5502044558525085,0.2139519304037094
2,5,128,88,0.8178405165672302,0.17563293874263763
2,5,128,89,0.8844165802001953,0.08378461003303528
2,5,128,90,0.9002732038497925,0.08659086376428604
2,5,128,91,0.3582143187522888,0.14356555044651031
2,5,128,92,0.7568067312240601,0.16533833742141724
2,5,128,93,0.7482377886772156,0.2420855462551117
2,5,128,94,0.7480887770652771,0.23178265988826752
2,5,128,95,0.734050452709198,0.2639572322368622
2,5,128,96,0.8107678890228271,0.19064487516880035
2,5,128,97,0.8846498727798462,0.09332036972045898
2,5,128,98,0.8672240972518921,0.12582729756832123
2,5,128,99,0.8133676052093506,0.10439149290323257
2,5,128,100,0.44360023736953735,0.09263759106397629
2,5,128,101,0.6477164626121521,0.06331980973482132
2,5,128,102,0.4588053524494171,0.1951296478509903
2,5,128,103,0.7053045630455017,0.22489804029464722
2,5,128,104,0.8882758021354675,0.08169592171907425
2,5,128,105,0.892638087272644,0.06877075880765915
2,5,128,106,0.773564875125885,0.15599705278873444
2,5,128,107,0.8038226366043091,0.1989448219537735
2,5,128,108,0.8926377296447754,0.0845387801527977
2,5,128,109,0.7491568922996521,0.1437961906194687
2,5,128,110,0.35907110571861267,0.3244354724884033
2,5,128,111,0.6625882983207703,0.08072372525930405
2,5,128,112,0.8422545790672302,0.12827864289283752
2,5,128,113,0.34608444571495056,0.29218190908432007
2,5,128,114,0.7403232455253601,0.12796728312969208
2,5,128,115,0.8645200133323669,0.09080769121646881
2,5,128,116,0.7679149508476257,0.08896738290786743
2,5,128,117,0.7642214894294739,0.17631500959396362
2,5,128,118,0.3729354441165924,0.20584265887737274
2,5,128,119,0.8690640330314636,0.12597641348838806
2,5,128,120,0.651346743106842,0.16758786141872406
2,5,128,121,0.5796319842338562,0.12119004130363464
2,5,128,122,0.6827777028083801,0.10329010337591171
2,5,128,123,0.7149843573570251,0.28038087487220764
2,5,128,124,0.8765757083892822,0.09363352507352829
2,5,128,125,0.33911389112472534,0.30259448289871216
2,5,128,126,0.3380885720252991,0.2964393198490143
2,5,128,127,0.5496625304222107,0.2308969646692276
3,0,32,0,0.6060085296630859,0.08947563171386719
3,0,32,1,0.6093348860740662,0.08097292482852936
3,0,32,2,0.611874520778656,0.08905470371246338
3,0,32,3,0.4434089958667755,0.1297132521867752
3,0,32,4,0.6791569590568542,0.08045494556427002
3,0,32,5,0.5289703011512756,0.1382320523262024
3,0,32,6,0.5298766493797302,0.07293355464935303
3,0,32,7,0.4358460307121277,0.12096055597066879
3,0,32,8,0.45650726556777954,0.1388915628194809
3,0,32,9,0.3112744688987732,0.10114795714616776
3,0,32,10,0.44514572620391846,0.07822088897228241
3,0,32,11,0.3878825306892395,0.13746289908885956
3,0,32,12,0.4384020268917084,0.08625827729701996
3,0,32,13,0.44203242659568787,0.11328427493572235
3,0,32,14,0.3764899969100952,0.11781352758407593
3,0,32,15,0.4814789593219757,0.045716751366853714
3,0,32,16,0.5355858206748962,0.1410970687866211
3,0,32,17,0.42839470505714417,0.17232857644557953
3,0,32,18,0.5215479135513306,0.10265076160430908
3,0,32,19,0.5403470396995544,0.08554889261722565
3,0,32,20,0.5233145952224731,0.06380586326122284
3,0,32,21,0.4975475072860718,0.05525030195713043
3,0,32,22,0.4153420627117157,0.17023609578609467
3,0,32,23,0.4650905728340149,0.0968378335237503
3,0,32,24,0.3964952528476715,0.09575799852609634
3,0,32,25,0.4152054190635681,0.07226163148880005
3,0,32,26,0.6706920862197876,0.10238543897867203
3,0,32,27,0.5713774561882019,0.066562719643116
3,0,32,28,0.6625082492828369,0.09401955455541611
3,0,32,29,0.6482542157173157,0.07994629442691803
3,0,32,30,0.38858649134635925,0.09324222803115845
3,0,32,31,0.46901392936706543,0.14940838515758514
3,1,32,0,0.4717201590538025,0.10380104184150696
3,1,32,1,0.4505104422569275,0.1204412654042244
3,1,32,2,0.4936831593513489,0.13313646614551544
3,1,32,3,0.4160540699958801,0.08959703892469406
3,1,32,4,0.5668336153030396,0.11368812620639801
3,1,32,5,0.6313058733940125,0.04951465129852295
3,1,32,6,0.4067994952201843,0.09802593290805817
3,1,32,7,0.4670604467391968,0.10798152536153793
3,1,32,8,0.49600276350975037,0.10823839902877808
3,1,32,9,0.5208667516708374,0.14428745210170746
3,1,32,10,0.42777687311172485,0.10104643553495407
3,1,32,11,0.4171189069747925,0.16067194938659668
3,1,32,12,0.5565817356109619,0.08062735944986343
3,1,32,13,0.5206766128540039,0.15309123694896698
3,1,32,14,0.4553128778934479,0.07228007167577744
3,1,32,15,0.5464670658111572,0.15378530323505402
3,1,32,16,0.5090698003768921,0.17515204846858978
3,1,32,17,0.517761766910553,0.05553364008665085
3,1,32,18,0.5235871076583862,0.12434307485818863
3,1,32,19,0.4799310863018036,0.07552243769168854
3,1,32,20,0.5739591121673584,0.07986319065093994
3,1,32,21,0.5974677205085754,0.09664871543645859
3,1,32,22,0.6501098275184631,0.07711658626794815
3,1,32,23,0.4052486717700958,0.04709648713469505
3,1,32,24,0.3465036153793335,0.06529052555561066
3,1,32,25,0.5549593567848206,0.08171892911195755
3,1,32,26,0.5244815945625305,0.14852477610111237
3,1,32,27,0.47704049944877625,0.07173699140548706
3,1,32,28,0.5114736557006836,0.10904444009065628
3,1,32,29,0.5281134843826294,0.12064594030380249
3,1,32,30,0.49222680926322937,0.11214911937713623
3,1,32,31,0.5469671487808228,0.0646471306681633
3,2,64,0,0.604784369468689,0.16983190178871155
3,2,64,1,0.5566821694374084,0.15027453005313873
3,2,64,2,0.42179688811302185,0.11645381897687912
3,2,64,3,0.5063685774803162,0.14062315225601196
3,2,64,4,0.4997752904891968,0.13527336716651917
3,2,64,5,0.6153127551078796,0.17100949585437775
3,2,64,6,0.5411374568939209,0.1530437171459198
3,2,64,7,0.5578644275665283,0.136366605758667
3,2,64,8,0.5062552690505981,0.1263808012008667
3,2,64,9,0.5330366492271423,0.11823756247758865
3,2,64,10,0.43584296107292175,0.16335077583789825
3,2,64,11,0.6216007471084595,0.06587367504835129
3,2,64,12,0.5091134309768677,0.14059418439865112
3,2,64,13,0.4523863196372986,0.11113456636667252
3,2,64,14,0.4816933572292328,0.24751459062099457
3,2,64,15,0.5067402720451355,0.12539860606193542
3,2,64,16,0.45750123262405396,0.10922549664974213
3,2,64,17,0.637483537197113,0.12743349373340607
3,2,64,18,0.39652588963508606,0.11295492947101593
3,2,64,19,0.5841779708862305,0.14997409284114838
3,2,64,20,0.47556519508361816,0.13515479862689972
3,2,64,21,0.5432898998260498,0.16360707581043243
3,2,64,22,0.6992530822753906,0.14228467643260956
3,2,64,23,0.5449634194374084,0.10760627686977386
3,2,64,24,0.5322391986846924,0.12610939145088196
3,2,64,25,0.4441389739513397,0.15314389765262604
3,2,64,26,0.4780416786670685,0.12657485902309418
3,2,64,27,0.5945329666137695,0.0978628471493721
3,2,64,28,0.42449072003364563,0.18531058728694916
3,2,64,29,0.5470232963562012,0.08268573880195618
3,2,64,30,0.5316829085350037,0.18973828852176666
3,2,64,31,0.35613328218460083,0.13370871543884277
3,2,64,32,0.476982444524765,0.18642865121364594
3,2,64,33,0.4095049500465393,0.12207384407520294
3,2,64,34,0.5015830397605896,0.2055646777153015
3,2,64,35,0.6709140539169312,0.13304439187049866
3,2,64,36,0.5661596059799194,0.1107230857014656
3,2,64,37,0.5025510191917419,0.1886282116174698
3,2,64,38,0.4826068878173828,0.17409232258796692
3,2,64,39,0.43772149085998535,0.16187357902526855
3,2,64,40,0.41415804624557495,0.12698224186897278
3,2,64,41,0.46597835421562195,0.15440633893013
3,2,64,42,0.4486595690250397,0.12896136939525604
3,2,64,43,0.41994011402130127,0.20562265813350677
3,2,64,44,0.26311391592025757,0.10351019352674484
3,2,64,45,0.5784381031990051,0.20700210332870483
3,2,64,46,0.6376771330833435,0.12910021841526031
3,2,64,47,0.487336128950119,0.14310236275196075
3,2,64,48,0.5406908392906189,0.17053990066051483
3,2,64,49,0.4377657175064087,0.19877101480960846
3,2,64,50,0.5956192016601562,0.13674740493297577
3,2,64,51,0.443405419588089,0.11555017530918121
3,2,64,52,0.5572202801704407,0.19992737472057343
3,2,64,53,0.31418973207473755,0.07359880208969116
3,2,64,54,0.4428352415561676,0.16867496073246002
3,2,64,55,0.42507204413414,0.13845863938331604
3,2,64,56,0.41914209723472595,0.17052456736564636
3,2,64,57,0.4755586087703705,0.2502993643283844
3,2,64,58,0.6749138236045837,0.15797823667526245
3,2,64,59,0.445351243019104,0.09197676926851273
3,2,64,60,0.45523256063461304,0.15247802436351776
3,2,64,61,0.4815939962863922,0.2411269098520279
3,2,64,62,0.5935091376304626,0.15630130469799042
3,2,64,63,0.4093630611896515,0.17102697491645813
3,3,64,0,0.5054978728294373,0.18508070707321167
3,3,64,1,0.3634352385997772,0.23746414482593536
3,3,64,2,0.579953134059906,0.3334585130214691
3,3,64,3,0.42136654257774353,0.07139422744512558
3,3,64,4,0.49189212918281555,0.062403202056884766
3,3,64,5,0.36714968085289,0.1038517951965332
3,3,64,6,0.5849269032478333,0.20655366778373718
3,3,64,7,0.38590678572654724,0.22278812527656555
3,3,64,8,0.4129874110221863,0.2487102448940277
3,3,64,9,0.5266660451889038,0.10912668704986572
3,3,64,10,0.642704427242279,0.10041327774524689
3,3,64,11,0.36343225836753845,0.06298644840717316
3,3,64,12,0.4469175934791565,0.10488811135292053
3,3,64,13,0.4317431151866913,0.1203349307179451
3,3,64,14,0.5721510052680969,0.19148097932338715
3,3,64,15,0.474181205034256,0.12841500341892242
3,3,64,16,0.3867208957672119,0.296616792678833
3,3,64,17,0.559057891368866,0.2380930632352829
3,3,64,18,0.6816758513450623,0.07741855829954147
3,3,64,19,0.31090807914733887,0.08612452447414398
3,3,64,20,0.39152422547340393,0.2544618248939514
3,3,64,21,0.6207641959190369,0.06477239727973938
3,3,64,22,0.5481022596359253,0.26813119649887085
3,3,64,23,0.3575311601161957,0.12885074317455292
3,3,64,24,0.5895770192146301,0.22145184874534607
3,3,64,25,0.6275746822357178,0.29755833745002747
3,3,64,26,0.3018297255039215,0.18532820045948029
3,3,64,27,0.4794606566429138,0.14399832487106323
3,3,64,28,0.4286401867866516,0.21208560466766357
3,3,64,29,0.7237358689308167,0.09413927048444748
3,3,64,30,0.48390844464302063,0.16058945655822754
3,3,64,31,0.5977324843406677,0.18957705795764923
3,3,64,32,0.5939273834228516,0.09427894651889801
3,3,64,33,0.2990863621234894,0.09481646120548248
3,3,64,34,0.6446442604064941,0.1809685379266739
3,3,64,35,0.35917675495147705,0.08968962728977203
3,3,64,36,0.5977020859718323,0.08126815408468246
3,3,64,37,0.3313063681125641,0.21861116588115692
3,3,64,38,0.6016469597816467,0.3310158848762512
3,3,64,39,0.5704519748687744,0.13233688473701477
3,3,64,40,0.56334388256073,0.15604953467845917
3,3,64,41,0.7279881834983826,0.1794556975364685
3,3,64,42,0.5259073972702026,0.09760501980781555
3,3,64,43,0.25553980469703674,0.08729658275842667
3,3,64,44,0.4445834755897522,0.07952546328306198
3,3,64,45,0.5854640603065491,0.10618718713521957
3,3,64,46,0.6468485593795776,0.22860804200172424
3,3,64,47,0.4806861877441406,0.13043099641799927
3,3,64,48,0.5826391577720642,0.09050393104553223
3,3,64,49,0.49826744198799133,0.12745743989944458
3,3,64,50,0.45247596502304077,0.2287217229604721
3,3,64,51,0.5751586556434631,0.06741978973150253
3,3,64,52,0.5414257645606995,0.2194894403219223
3,3,64,53,0.6108707785606384,0.08422756940126419
3,3,64,54,0.3929644227027893,0.1742439866065979
3,3,64,55,0.6096391677856445,0.1549139767885208
3,3,64,56,0.47174492478370667,0.15087483823299408
3,3,64,57,0.38407018780708313,0.09690747410058975
3,3,64,58,0.5408374667167664,0.17309844493865967
3,3,64,59,0.40626177191734314,0.30493396520614624
3,3,64,60,0.6298159956932068,0.16894693672657013
3,3,64,61,0.4703388810157776,0.12468995153903961
3,3,64,62,0.4983242154121399,0.11681582033634186
3,3,64,63,0.371957391500473,0.23702691495418549
3,4,128,0,0.7246694564819336,0.09506753087043762
3,4,128,1,0.6438093185424805,0.070696160197258
3,4,128,2,0.6622219085693359,0.10596709698438644
3,4,128,3,0.746349036693573,0.25899606943130493
3,4,128,4,0.7851068377494812,0.1293581873178482
3,4,128,5,0.512980043888092,0.2101210355758667
3,4,128,6,0.7588064670562744,0.2938736081123352
3,4,128,7,0.31603145599365234,0.07060979306697845
3,4,128,8,0.6080431342124939,0.20051288604736328
3,4,128,9,0.2812304198741913,0.12098594009876251
3,4,128,10,0.4100099802017212,0.17341560125350952
3,4,128,11,0.40724432468414307,0.10515490919351578
3,4,128,12,0.6126390695571899,0.2269558161497116
3,4,128,13,0.6941126585006714,0.16298329830169678
3,4,128,14,0.6836527585983276,0.13125912845134735
3,4,128,15,0.637839674949646,0.1474330872297287
3,4,128,16,0.47829166054725647,0.22779874503612518
3,4,128,17,0.41332122683525085,0.2305656224489212
3,4,128,18,0.5137335062026978,0.0685025006532669
3,4,128,19,0.6421812176704407,0.10035564005374908
3,4,128,20,0.4907030761241913,0.113021120429039
3,4,128,21,0.6251397728919983,0.25633078813552856
3,4,128,22,0.46058839559555054,0.31481197476387024
3,4,128,23,0.6572835445404053,0.24199387431144714
3,4,128,24,0.6037837266921997,0.21497106552124023
3,4,128,25,0.42836102843284607,0.1799999177455902
3,4,128,26,0.8114763498306274,0.0995868369936943
3,4,128,27,0.4753423035144806,0.2529814541339874
3,4,128,28,0.7314664721488953,0.3219296932220459
3,4,128,29,0.30388393998146057,0.2546113431453705
3,4,128,30,0.725319504737854,0.3245238959789276
3,4,128,31,0.44086483120918274,0.1883203238248825
3,4,128,32,0.30497750639915466,0.10318396985530853
3,4,128,33,0.6661677956581116,0.12070774286985397
3,4,128,34,0.6189417243003845,0.26863595843315125
3,4,128,35,0.31346726417541504,0.07493450492620468
3,4,128,36,0.5508592128753662,0.23301802575588226
3,4,128,37,0.5880812406539917,0.18049398064613342
3,4,128,38,0.719641923904419,0.09991718083620071
3,4,128,39,0.6362512111663818,0.10307525843381882
3,4,128,40,0.43356558680534363,0.23847895860671997
3,4,128,41,0.5499821901321411,0.17946843802928925
3,4,128,42,0.6612130403518677,0.10919700562953949
3,4,128,43,0.7425631284713745,0.12148641794919968
3,4,128,44,0.8110948204994202,0.1292683631181717
3,4,128,45,0.5230588316917419,0.26395830512046814
3,4,128,46,0.5742862224578857,0.18780530989170074
3,4,128,47,0.5521445274353027,0.20759010314941406
3,4,128,48,0.6495705842971802,0.2482416182756424
3,4,128,49,0.43622103333473206,0.2202916294336319
3,4,128,50,0.33652740716934204,0.2583240270614624
3,4,128,51,0.6048585176467896,0.12342587858438492
3,4,128,52,0.5284243226051331,0.21298466622829437
3,4,128,53,0.30107247829437256,0.0899442806839943
3,4,128,54,0.736598014831543,0.09403201937675476
3,4,128,55,0.5351716876029968,0.20063599944114685
3,4,128,56,0.5964676141738892,0.16242031753063202
3,4,128,57,0.2916288375854492,0.1740720272064209
3,4,128,58,0.5843570828437805,0.17109398543834686
3,4,128,59,0.7087666392326355,0.2860521376132965
3,4,128,60,0.5378205180168152,0.30859366059303284
3,4,128,61,0.3578420579433441,0.07757513225078583
3,4,128,62,0.7091635465621948,0.12836572527885437
3,4,128,63,0.5611366033554077,0.3142281472682953
3,4,128,64,0.6108829975128174,0.11319907009601593
3,4,128,65,0.3272150158882141,0.20521211624145508
3,4,128,66,0.40497756004333496,0.09141209721565247
3,4,128,67,0.5160912871360779,0.2424541413784027
3,4,128,68,0.8645622730255127,0.09284404665231705
3,4,128,69,0.6273402571678162,0.2123047411441803
3,4,128,70,0.4228704869747162,0.24039649963378906
3,4,128,71,0.4472968578338623,0.08632849901914597
3,4,128,72,0.5191490054130554,0.30065271258354187
3,4,128,73,0.76130211353302,0.17913298308849335
3,4,128,74,0.603137731552124,0.2781140208244324
3,4,128,75,0.5091494917869568,0.19981755316257477
3,4,128,76,0.5466862916946411,0.14172354340553284
3,4,128,77,0.5337242484092712,0.2615099549293518
3,4,128,78,0.3360865116119385,0.3042187988758087
3,4,128,79,0.6703538298606873,0.129616379737854
3,4,128,80,0.6034485697746277,0.19741429388523102
3,4,128,81,0.6656917333602905,0.05766826122999191
3,4,128,82,0.5781769156455994,0.17350076138973236
3,4,128,83,0.5296342968940735,0.08937408775091171
3,4,128,84,0.5507773160934448,0.11623619496822357
3,4,128,85,0.53825443983078,0.22746938467025757
3,4,128,86,0.5738441944122314,0.07102572172880173
3,4,128,87,0.7682165503501892,0.2138279676437378
3,4,128,88,0.42346668243408203,0.2134227305650711
3,4,128,89,0.5149438977241516,0.20835381746292114
3,4,128,90,0.5376653075218201,0.16500157117843628
3,4,128,91,0.8348007202148438,0.12883448600769043
3,4,128,92,0.6661937832832336,0.24039262533187866
3,4,128,93,0.6525481939315796,0.0861070305109024
3,4,128,94,0.49855709075927734,0.16449029743671417
3,4,128,95,0.7369573712348938,0.06629166752099991
3,4,128,96,0.4138243496417999,0.2780055105686188
3,4,128,97,0.637387216091156,0.24963581562042236
3,4,128,98,0.4097635746002197,0.2431534230709076
3,4,128,99,0.6116469502449036,0.09978421777486801
3,4,128,100,0.5807972550392151,0.06525719910860062
3,4,128,101,0.5123798847198486,0.22307266294956207
3,4,128,102,0.5004538297653198,0.1406678706407547
3,4,128,103,0.7630086541175842,0.10628760606050491
3,4,128,104,0.440165251493454,0.24544449150562286
3,4,128,105,0.6988347172737122,0.1298217475414276
3,4,128,106,0.7048682570457458,0.27017056941986084
3,4,128,107,0.7085078954696655,0.07823003083467484
3,4,128,108,0.2855917513370514,0.14253059029579163
3,4,128,109,0.6105706095695496,0.23004433512687683
3,4,128,110,0.8320501446723938,0.11728250235319138
3,4,128,111,0.4108281433582306,0.2800275683403015
3,4,128,112,0.536065399646759,0.1579943597316742
3,4,128,113,0.3327934145927429,0.11001748591661453
3,4,128,114,0.4391445517539978,0.134048730134964
3,4,128,115,0.697823166847229,0.2504289746284485
3,4,128,116,0.6357591152191162,0.24098865687847137
3,4,128,117,0.44764944911003113,0.22381725907325745
3,4,128,118,0.7246429920196533,0.16550704836845398
3,4,128,119,0.5923363566398621,0.2442978322505951
3,4,128,120,0.7805646657943726,0.12579552829265594
3,4,128,121,0.6135901808738708,0.11562834680080414
3,4,128,122,0.7079170942306519,0.13968756794929504
3,4,128,123,0.3271007835865021,0.13986557722091675
3,4,128,124,0.6021552085876465,0.056604497134685516
3,4,128,125,0.4420972764492035,0.26215216517448425
3,4,128,126,0.5976812839508057,0.32863762974739075
3,4,128,127,0.6713235974311829,0.1284937709569931
3,5,128,0,0.8171284794807434,0.1398913562297821
3,5,128,1,0.8484431505203247,0.12393258512020111
3,5,128,2,0.8756976127624512,0.09976111352443695
3,5,128,3,0.8408395051956177,0.17403589189052582
3,5,128,4,0.8881621360778809,0.08099478483200073
3,5,128,5,0.365280419588089,0.21803225576877594
3,5,128,6,0.8882434964179993,0.09573493152856827
3,5,128,7,0.8357762098312378,0.1359139382839203
3,5,128,8,0.8410710692405701,0.08629968017339706
3,5,128,9,0.391333669424057,0.33316534757614136
3,5,128,10,0.8202025294303894,0.10609783232212067
3,5,128,11,0.5988696813583374,0.21296796202659607
3,5,128,12,0.7856793999671936,0.1916511356830597
3,5,128,13,0.8762097954750061,0.10003679245710373
3,5,128,14,0.7373015284538269,0.22221480309963226
3,5,128,15,0.6513205170631409,0.17883525788784027
3,5,128,16,0.8780786991119385,0.06685519218444824
3,5,128,17,0.3106231987476349,0.18361632525920868
3,5,128,18,0.41819605231285095,0.23654459416866302
3,5,128,19,0.3765689730644226,0.31790080666542053
3,5,128,20,0.5633957386016846,0.1051158681511879
3,5,128,21,0.7007367014884949,0.14610502123832703
3,5,128,22,0.5875304341316223,0.2510027587413788
3,5,128,23,0.8507551550865173,0.11046617478132248
3,5,128,24,0.7964028716087341,0.1559230536222458
3,5,128,25,0.7561280131340027,0.13634954392910004
3,5,128,26,0.8380143642425537,0.13127848505973816
3,5,128,27,0.8482998013496399,0.09856493771076202
3,5,128,28,0.8514140248298645,0.08662522584199905
3,5,128,29,0.5158388018608093,0.18907880783081055
3,5,128,30,0.9054226279258728,0.08302665501832962
3,5,128,31,0.288632333278656,0.22110435366630554
3,5,128,32,0.5981248617172241,0.1330064833164215
3,5,128,33,0.7557415962219238,0.15663763880729675
3,5,128,34,0.7911500334739685,0.17982053756713867
3,5,128,35,0.7415251135826111,0.21237634122371674
3,5,128,36,0.8560071587562561,0.11337276548147202
3,5,128,37,0.8898904323577881,0.07492078840732574
3,5,128,38,0.8803720474243164,0.08177383244037628
3,5,128,39,0.8568029999732971,0.08823339641094208
3,5,128,40,0.4389001727104187,0.17724886536598206
3,5,128,41,0.6518828272819519,0.05325598642230034
3,5,128,42,0.8133503198623657,0.06490178406238556
3,5,128,43,0.7607866525650024,0.20794770121574402
3,5,128,44,0.8707191348075867,0.07011818140745163
3,5,128,45,0.7397790551185608,0.10572988539934158
3,5,128,46,0.6589560508728027,0.1655346006155014
3,5,128,47,0.7566307783126831,0.25921255350112915
3,5,128,48,0.7725659608840942,0.21613453328609467
3,5,128,49,0.7817213535308838,0.19351723790168762
3,5,128,50,0.2180263102054596,0.1803213357925415
3,5,128,51,0.728935718536377,0.24604979157447815
3,5,128,52,0.7387607097625732,0.10839971899986267
3,5,128,53,0.2474856972694397,0.21116787195205688
3,5,128,54,0.8136596083641052,0.10097476094961166
3,5,128,55,0.8158876299858093,0.16140441596508026
3,5,128,56,0.7667939066886902,0.12136906385421753
3,5,128,57,0.5314409136772156,0.22468899190425873
3,5,128,58,0.653632640838623,0.0704529657959938
3,5,128,59,0.8146936297416687,0.1812431514263153
3,5,128,60,0.6009405255317688,0.19681155681610107
3,5,128,61,0.8118270635604858,0.08974040299654007
3,5,128,62,0.8468937873840332,0.10505768656730652
3,5,128,63,0.7744956612586975,0.20359504222869873
3,5,128,64,0.4865689277648926,0.18070407211780548
3,5,128,65,0.23965053260326385,0.22578179836273193
3,5,128,66,0.29633304476737976,0.21485576033592224
3,5,128,67,0.3110126852989197,0.2493867427110672
3,5,128,68,0.8100497126579285,0.22062651813030243
3,5,128,69,0.8093023300170898,0.16122311353683472
3,5,128,70,0.35274213552474976,0.29909780621528625
3,5,128,71,0.795136570930481,0.1821882724761963
3,5,128,72,0.4293694496154785,0.2363525629043579
3,5,128,73,0.7590338587760925,0.183096781373024
3,5,128,74,0.7317023873329163,0.18947365880012512
3,5,128,75,0.8279256820678711,0.12034722417593002
3,5,128,76,0.6320140361785889,0.06434347480535507
3,5,128,77,0.8042548894882202,0.09294306486845016
3,5,128,78,0.7902763485908508,0.10240497440099716
3,5,128,79,0.65071040391922,0.14032958447933197
3,5,128,80,0.8017085790634155,0.1665353775024414
3,5,128,81,0.8086845874786377,0.11028333008289337
3,5,128,82,0.7799085378646851,0.2172679454088211
3,5,128,83,0.7317598462104797,0.12448715418577194
3,5,128,84,0.6668232679367065,0.23365819454193115
3,5,128,85,0.7066762447357178,0.0822409838438034
3,5,128,86,0.7859134078025818,0.1843104064464569
3,5,128,87,0.8077349662780762,0.23354081809520721
3,5,128,88,0.8166703581809998,0.13254480063915253
3,5,128,89,0.8197638988494873,0.08569145947694778
3,5,128,90,0.3887767791748047,0.228785440325737
3,5,128,91,0.7472514510154724,0.16147133708000183
3,5,128,92,0.7839608192443848,0.18778680264949799
3,5,128,93,0.7544980049133301,0.209572434425354
3,5,128,94,0.8125787973403931,0.07773126661777496
3,5,128,95,0.7986623048782349,0.16004817187786102
3,5,128,96,0.6401292681694031,0.09749969094991684
3,5,128,97,0.7725108861923218,0.2236875295639038
3,5,128,98,0.21687154471874237,0.16353119909763336
3,5,128,99,0.6370542645454407,0.03556224703788757
3,5,128,100,0.8325591683387756,0.18553844094276428
3,5,128,101,0.6509671807289124,0.16381607949733734
3,5,128,102,0.7915022373199463,0.19394108653068542
3,5,128,103,0.856785237789154,0.08590278029441833
3,5,128,104,0.8764205574989319,0.06657329201698303
3,5,128,105,0.49984094500541687,0.11977991461753845
3,5,128,106,0.7740439176559448,0.22123999893665314
3,5,128,107,0.8373647332191467,0.1867266595363617
3,5,128,108,0.6462430953979492,0.09316433221101761
3,5,128,109,0.8819664120674133,0.06312603503465652
3,5,128,110,0.8997631072998047,0.06576881557703018
3,5,128,111,0.7178800702095032,0.12064152956008911
3,5,128,112,0.8087646961212158,0.16715475916862488
3,5,128,113,0.4946092367172241,0.19801171123981476
3,5,128,114,0.6226547360420227,0.0893683061003685
3,5,128,115,0.8419653177261353,0.1698729544878006
3,5,128,116,0.7544558644294739,0.21834170818328857
3,5,128,117,0.44856375455856323,0.08231991529464722
3,5,128,118,0.8694776296615601,0.10626422613859177
3,5,128,119,0.4074857234954834,0.13697919249534607
3,5,128,120,0.8818569779396057,0.10759276151657104
3,5,128,121,0.7754161357879639,0.11617545038461685
3,5,128,122,0.7981272339820862,0.0811552181839943
3,5,128,123,0.7793675661087036,0.1421050727367401
3,5,128,124,0.6245903968811035,0.09627208858728409
3,5,128,125,0.5228939652442932,0.22012388706207275
3,5,128,126,0.37898680567741394,0.24474844336509705
3,5,128,127,0.8414637446403503,0.14029544591903687
4,0,32,0,0.5219562649726868,0.22262471914291382
4,0,32,1,0.5568920373916626,0.16208656132221222
4,0,32,2,0.6489668488502502,0.07654178142547607
4,0,32,3,0.5773725509643555,0.11865165084600449
4,0,32,4,0.5483705997467041,0.10254113376140594
4,0,32,5,0.3923575282096863,0.13859599828720093
4,0,32,6,0.5961853265762329,0.0927310511469841
4,0,32,7,0.4469955861568451,0.15456677973270416
4,0,32,8,0.6965389251708984,0.057358380407094955
4,0,32,9,0.4616106450557709,0.12735801935195923
4,0,32,10,0.6044654250144958,0.17342370748519897
4,0,32,11,0.5322414040565491,0.14167003333568573
4,0,32,12,0.5503973364830017,0.16838765144348145
4,0,32,13,0.45712751150131226,0.21247291564941406
4,0,32,14,0.5339547991752625,0.12270786613225937
4,0,32,15,0.3776392936706543,0.10297349095344543
4,0,32,16,0.5011804699897766,0.06443627178668976
4,0,32,17,0.3999005854129791,0.1278540939092636
4,0,32,18,0.2931053042411804,0.0969976931810379
4,0,32,19,0.4709831476211548,0.17171907424926758
4,0,32,20,0.32424652576446533,0.12248414754867554
4,0,32,21,0.510235071182251,0.02097373828291893
4,0,32,22,0.5519145131111145,0.17318110167980194
4,0,32,23,0.49349474906921387,0.11861847341060638
4,0,32,24,0.49918684363365173,0.06221897155046463
4,0,32,25,0.6076301336288452,0.11849323660135269
4,0,32,26,0.5619135499000549,0.11644221842288971
4,0,32,27,0.4953216314315796,0.11048206686973572
4,0,32,28,0.6223465204238892,0.09823960810899734
4,0,32,29,0.5321446061134338,0.08819623291492462
4,0,32,30,0.43334051966667175,0.10309113562107086
4,0,32,31,0.5060754418373108,0.12075275927782059
4,1,32,0,0.5875094532966614,0.08506350219249725
4,1,32,1,0.5891302824020386,0.19874602556228638
4,1,32,2,0.6379061937332153,0.07105317711830139
4,1,32,3,0.4517457187175751,0.09069345146417618
4,1,32,4,0.5323203206062317,0.09428303688764572
4,1,32,5,0.6023804545402527,0.10215489566326141
4,1,32,6,0.5214949250221252,0.07224828749895096
4,1,32,7,0.5052472352981567,0.14370478689670563
4,1,32,8,0.6273089647293091,0.10684061050415039
4,1,32,9,0.42504796385765076,0.11598586291074753
4,1,32,10,0.6292312145233154,0.11054243892431259
4,1,32,11,0.6050536632537842,0.13072587549686432
4,1,32,12,0.4638160467147827,0.19923830032348633
4,1,32,13,0.44851601123809814,0.08387181907892227
4,1,32,14,0.5176824331283569,0.18865914642810822
4,1,32,15,0.525543749332428,0.1332661360502243
4,1,32,16,0.40542760491371155,0.03399021551012993
4,1,32,17,0.5723155736923218,0.1086658462882042
4,1,32,18,0.4175858497619629,0.14749984443187714
4,1,32,19,0.4754326343536377,0.22362111508846283
4,1,32,20,0.5273341536521912,0.05090327560901642
4,1,32,21,0.5223421454429626,0.18763503432273865
4,1,32,22,0.5795612931251526,0.22632305324077606
4,1,32,23,0.6387009620666504,0.10042194277048111
4,1,32,24,0.4882977604866028,0.03720831125974655
4,1,32,25,0.5598866939544678,0.0597330667078495
4,1,32,26,0.48608168959617615,0.1720951348543167
4,1,32,27,0.4501933455467224,0.05386318266391754
4,1,32,28,0.6031292080879211,0.05781598016619682
4,1,32,29,0.40785476565361023,0.12095027416944504
4,1,32,30,0.4048515558242798,0.11602460592985153
4,1,32,31,0.46968787908554077,0.1769624948501587
4,2,64,0,0.6353851556777954,0.11545222252607346
4,2,64,1,0.47623729705810547,0.08303051441907883
4,2,64,2,0.442457914352417,0.08003968000411987
4,2,64,3,0.6543234586715698,0.08542955666780472
4,2,64,4,0.3942893147468567,0.09849141538143158
4,2,64,5,0.4535355269908905,0.05087814852595329
4,2,64,6,0.4140017330646515,0.16439485549926758
4,2,64,7,0.6085595488548279,0.10493335872888565
4,2,64,8,0.518492579460144,0.10892694443464279
4,2,64,9,0.5207454562187195,0.07071402668952942
4,2,64,10,0.5051376819610596,0.10009486973285675
4,2,64,11,0.5224130749702454,0.20805923640727997
4,2,64,12,0.39324474334716797,0.17305997014045715
4,2,64,13,0.5313880443572998,0.10252299159765244
4,2,64,14,0.6043357849121094,0.11486484855413437
4,2,64,15,0.5539106726646423,0.06351373344659805
4,2,64,16,0.48442018032073975,0.05298400670289993
4,2,64,17,0.5017842650413513,0.17197595536708832
4,2,64,18,0.4741518795490265,0.14956937730312347
4,2,64,19,0.48226988315582275,0.11111725121736526
4,2,64,20,0.5437595248222351,0.10295699536800385
4,2,64,21,0.44147971272468567,0.1122841089963913
4,2,64,22,0.6116564869880676,0.15120907127857208
4,2,64,23,0.4551803469657898,0.13803942501544952
4,2,64,24,0.5656882524490356,0.17418821156024933
4,2,64,25,0.5629853010177612,0.08324011415243149
4,2,64,26,0.42297619581222534,0.02699892409145832
4,2,64,27,0.47309622168540955,0.14832942187786102
4,2,64,28,0.49656370282173157,0.08355118334293365
4,2,64,29,0.47540712356567383,0.13468866050243378
4,2,64,30,0.5625271797180176,0.08769948780536652
4,2,64,31,0.5904513597488403,0.1256180852651596
4,2,64,32,0.4927217364311218,0.0843588337302208
4,2,64,33,0.5691400766372681,0.07997669279575348
4,2,64,34,0.4739610552787781,0.2080167680978775
4,2,64,35,0.5706612467765808,0.1089497059583664
4,2,64,36,0.5163670778274536,0.18984737992286682
4,2,64,37,0.5782083868980408,0.17551560699939728
4,2,64,38,0.5436583757400513,0.14765696227550507
4,2,64,39,0.4373592138290405,0.1090325266122818
4,2,64,40,0.5571998357772827,0.15036162734031677
4,2,64,41,0.6062668561935425,0.11984105408191681
4,2,64,42,0.4406903088092804,0.08239798992872238
4,2,64,43,0.5284870266914368,0.09540772438049316
4,2,64,44,0.46895632147789,0.036444783210754395
4,2,64,45,0.5106741786003113,0.11792325973510742
4,2,64,46,0.5958724617958069,0.1397217959165573
4,2,64,47,0.442195326089859,0.10512113571166992
4,2,64,48,0.6025745868682861,0.143400639295578
4,2,64,49,0.5126348733901978,0.17917273938655853
4,2,64,50,0.5162939429283142,0.04441086947917938
4,2,64,51,0.5081598162651062,0.04819110408425331
4,2,64,52,0.47581711411476135,0.12249177694320679
4,2,64,53,0.6447569727897644,0.14849522709846497
4,2,64,54,0.4762818515300751,0.12988479435443878
4,2,64,55,0.49492260813713074,0.18706725537776947
4,2,64,56,0.5461320281028748,0.0947812870144844
4,2,64,57,0.426384299993515,0.09771941602230072
4,2,64,58,0.5359058380126953,0.06847404688596725
4,2,64,59,0.5151869058609009,0.14129650592803955
4,2,64,60,0.5774136185646057,0.21189343929290771
4,2,64,61,0.5777355432510376,0.06432653963565826
4,2,64,62,0.5437859892845154,0.08373728394508362
4,2,64,63,0.3958970010280609,0.04819493740797043
4,3,64,0,0.6788249015808105,0.08535746484994888
4,3,64,1,0.46695056557655334,0.16967462003231049
4,3,64,2,0.5947482585906982,0.08562559634447098
4,3,64,3,0.4867417514324188,0.16865438222885132
4,3,64,4,0.4931739866733551,0.12683193385601044
4,3,64,5,0.3966771364212036,0.0941321924328804
4,3,64,6,0.5287843346595764,0.24364136159420013
4,3,64,7,0.5884184241294861,0.16698062419891357
4,3,64,8,0.3907874524593353,0.10961257666349411
4,3,64,9,0.6312410831451416,0.09265254437923431
4,3,64,10,0.35444676876068115,0.15893355011940002
4,3,64,11,0.5571972131729126,0.1091897189617157
4,3,64,12,0.49588924646377563,0.2807057201862335
4,3,64,13,0.5341933965682983,0.1891687512397766
4,3,64,14,0.46957579255104065,0.15646494925022125
4,3,64,15,0.4249691367149353,0.17267341911792755
4,3,64,16,0.505903422832489,0.27048009634017944
4,3,64,17,0.5989714860916138,0.2944626808166504
4,3,64,18,0.4475238025188446,0.11869073659181595
4,3,64,19,0.4599097669124603,0.10342179983854294
4,3,64,20,0.4306125342845917,0.17645323276519775
4,3,64,21,0.6327371001243591,0.18123798072338104
4,3,64,22,0.3113998770713806,0.11189877241849899
4,3,64,23,0.3884861469268799,0.14974163472652435
4,3,64,24,0.43048009276390076,0.09382952749729156
4,3,64,25,0.5906956195831299,0.0795077458024025
4,3,64,26,0.3729029893875122,0.1195012629032135
4,3,64,27,0.5472394824028015,0.2664279639720917
4,3,64,28,0.46991124749183655,0.2379545420408249
4,3,64,29,0.41498520970344543,0.21330216526985168
4,3,64,30,0.5340244770050049,0.08211642503738403
4,3,64,31,0.5642684698104858,0.16653387248516083
4,3,64,32,0.5525464415550232,0.09044426679611206
4,3,64,33,0.5038359761238098,0.20768269896507263
4,3,64,34,0.6159967184066772,0.11272235214710236
4,3,64,35,0.5392140746116638,0.25684109330177307
4,3,64,36,0.38569989800453186,0.15863631665706635
4,3,64,37,0.5541001558303833,0.09435002505779266
4,3,64,38,0.49091169238090515,0.28582021594047546
4,3,64,39,0.4915817081928253,0.17888715863227844
4,3,64,40,0.4657234251499176,0.14115433394908905
4,3,64,41,0.5048633813858032,0.21770794689655304
4,3,64,42,0.7260741591453552,0.12487219274044037
4,3,64,43,0.5077605247497559,0.1850745975971222
4,3,64,44,0.6575834155082703,0.11666735261678696
4,3,64,45,0.4466591775417328,0.12604421377182007
4,3,64,46,0.2954854965209961,0.11141863465309143
4,3,64,47,0.5922256112098694,0.12123404443264008
4,3,64,48,0.4764500856399536,0.07263345271348953
4,3,64,49,0.5165926814079285,0.16557319462299347
4,3,64,50,0.4084024429321289,0.13051080703735352
4,3,64,51,0.49025848507881165,0.22448644042015076
4,3,64,52,0.5512220859527588,0.2001553177833557
4,3,64,53,0.4622400403022766,0.12493996322154999
4,3,64,54,0.5887833833694458,0.1802607923746109
4,3,64,55,0.601212203502655,0.15429756045341492
4,3,64,56,0.6540437936782837,0.08195630460977554
4,3,64,57,0.4626893401145935,0.23008768260478973
4,3,64,58,0.6336312890052795,0.12596766650676727
4,3,64,59,0.5254220366477966,0.1301378607749939
4,3,64,60,0.41492000222206116,0.12226331233978271
4,3,64,61,0.5146487951278687,0.11978557705879211
4,3,64,62,0.44451937079429626,0.13390885293483734
4,3,64,63,0.5114101767539978,0.18270991742610931
4,4,128,0,0.5820020437240601,0.1745651662349701
4,4,128,1,0.6384784579277039,0.20433175563812256
4,4,128,2,0.5490189790725708,0.1280413120985031
4,4,128,3,0.6001145243644714,0.09118318557739258
4,4,128,4,0.3059697449207306,0.23436231911182404
4,4,128,5,0.484676331281662,0.11126761883497238
4,4,128,6,0.6826165318489075,0.2754170894622803
4,4,128,7,0.703874409198761,0.09859183430671692
4,4,128,8,0.3360060751438141,0.0901750922203064
4,4,128,9,0.3640914559364319,0.24951022863388062
4,4,128,10,0.7536854147911072,0.13784760236740112
4,4,128,11,0.4570879340171814,0.07448884844779968
4,4,128,12,0.6963876485824585,0.2715492844581604
4,4,128,13,0.6712707877159119,0.3397049605846405
4,4,128,14,0.41269543766975403,0.27447327971458435
4,4,128,15,0.7529017329216003,0.09898585826158524
4,4,128,16,0.5191746354103088,0.19173751771450043
4,4,128,17,0.6290601491928101,0.09072726219892502
4,4,128,18,0.5153769850730896,0.15256065130233765
4,4,128,19,0.5756003260612488,0.09615892916917801
4,4,128,20,0.4125710427761078,0.23328353464603424
4,4,128,21,0.37645354866981506,0.3190865218639374
4,4,128,22,0.7311831116676331,0.16650667786598206
4,4,128,23,0.4973839521408081,0.056972358375787735
4,4,128,24,0.32633253931999207,0.09345251321792603
4,4,128,25,0.7117246985435486,0.19036367535591125
4,4,128,26,0.6425741910934448,0.11427614092826843
4,4,128,27,0.6610631346702576,0.21709132194519043
4,4,128,28,0.8001203536987305,0.10076658427715302
4,4,128,29,0.34216681122779846,0.21023061871528625
4,4,128,30,0.6512020826339722,0.2796456813812256
4,4,128,31,0.5798850059509277,0.08161336183547974
4,4,128,32,0.7143529057502747,0.07497859746217728
4,4,128,33,0.3530387580394745,0.3065072000026703
4,4,128,34,0.4995242953300476,0.1823379397392273
4,4,128,35,0.4311961531639099,0.14043283462524414
4,4,128,36,0.660167932510376,0.09656212478876114
4,4,128,37,0.7889506816864014,0.0818779319524765
4,4,128,38,0.5560641288757324,0.06371694803237915
4,4,128,39,0.38803914189338684,0.2753567397594452
4,4,128,40,0.3950680196285248,0.1329556405544281
4,4,128,41,0.6842976212501526,0.08600178360939026
4,4,128,42,0.34590375423431396,0.10809740424156189
4,4,128,43,0.5486350655555725,0.16881775856018066
4,4,128,44,0.6080379486083984,0.10679013282060623
4,4,128,45,0.4707140028476715,0.23425902426242828
4,4,128,46,0.770118236541748,0.219893679022789
4,4,128,47,0.6113693714141846,0.20587140321731567
4,4,128,48,0.30615636706352234,0.10519435256719589
4,4,128,49,0.5809242129325867,0.17354309558868408
4,4,128,50,0.5695441365242004,0.04232439771294594
4,4,128,51,0.7069997787475586,0.2505057454109192
4,4,128,52,0.7122783064842224,0.2347259223461151
4,4,128,53,0.6603750586509705,0.23070456087589264
4,4,128,54,0.6690111756324768,0.17344580590724945
4,4,128,55,0.5167716145515442,0.10504461824893951
4,4,128,56,0.6445457339286804,0.2350216805934906
4,4,128,57,0.678918182849884,0.07271755486726761
4,4,128,58,0.6157574653625488,0.3039698600769043
4,4,128,59,0.3872321844100952,0.06609239429235458
4,4,128,60,0.4928716719150543,0.15636052191257477
4,4,128,61,0.6295750141143799,0.2879810035228729
4,4,128,62,0.44927653670310974,0.17145492136478424
4,4,128,63,0.6165560483932495,0.1965484321117401
4,4,128,64,0.38537004590034485,0.0781191736459732
4,4,128,65,0.40449562668800354,0.045134350657463074
4,4,128,66,0.6559206247329712,0.10194095969200134
4,4,128,67,0.650031328201294,0.2567089796066284
4,4,128,68,0.6743246912956238,0.16519282758235931
4,4,128,69,0.45639753341674805,0.2555910646915436
4,4,128,70,0.7229770421981812,0.1539323478937149
4,4,128,71,0.6842828989028931,0.2725585401058197
4,4,128,72,0.6917863488197327,0.3477906286716461
4,4,128,73,0.5203915238380432,0.12500286102294922
4,4,128,74,0.41660064458847046,0.10519371181726456
4,4,128,75,0.7405160665512085,0.09186877310276031
4,4,128,76,0.4152677059173584,0.05538630113005638
4,4,128,77,0.4939318895339966,0.12456484138965607
4,4,128,78,0.6164523959159851,0.1208239421248436
4,4,128,79,0.6999121904373169,0.30293500423431396
4,4,128,80,0.5941859483718872,0.29954808950424194
4,4,128,81,0.48000192642211914,0.07573553174734116
4,4,128,82,0.596709668636322,0.13830462098121643
4,4,128,83,0.7267162799835205,0.28957632184028625
4,4,128,84,0.43393224477767944,0.20131675899028778
4,4,128,85,0.46851661801338196,0.170126810669899
4,4,128,86,0.5728434324264526,0.1903170496225357
4,4,128,87,0.36482250690460205,0.2784769535064697
4,4,128,88,0.5837148427963257,0.14117343723773956
4,4,128,89,0.5380239486694336,0.19049721956253052
4,4,128,90,0.5535977482795715,0.1179838702082634
4,4,128,91,0.7536166906356812,0.2064068764448166
4,4,128,92,0.7679826021194458,0.09190808236598969
4,4,128,93,0.7770240902900696,0.08406224846839905
4,4,128,94,0.3742053508758545,0.297112375497818
4,4,128,95,0.5045564770698547,0.12073717266321182
4,4,128,96,0.6778655648231506,0.1197248250246048
4,4,128,97,0.4718247652053833,0.07734972983598709
4,4,128,98,0.7173218131065369,0.10886888951063156
4,4,128,99,0.6886788606643677,0.1747065633535385
4,4,128,100,0.5770312547683716,0.16848471760749817
4,4,128,101,0.7050361037254333,0.11990347504615784
4,4,128,102,0.4033178687095642,0.2771168351173401
4,4,128,103,0.34779122471809387,0.28128671646118164
4,4,128,104,0.7769553661346436,0.08386865258216858
4,4,128,105,0.6769163012504578,0.09230517596006393
4,4,128,106,0.6986606121063232,0.14707782864570618
4,4,128,107,0.7357311844825745,0.11607646197080612
4,4,128,108,0.5955727100372314,0.22730083763599396
4,4,128,109,0.5796997547149658,0.2224147766828537
4,4,128,110,0.49048250913619995,0.16484662890434265
4,4,128,111,0.6567860245704651,0.18320541083812714
4,4,128,112,0.5223366022109985,0.15832950174808502
4,4,128,113,0.6414955854415894,0.20514033734798431
4,4,128,114,0.6727348566055298,0.12647601962089539
4,4,128,115,0.3702727258205414,0.3271361291408539
4,4,128,116,0.6145948171615601,0.22812685370445251
4,4,128,117,0.6196503043174744,0.2511824369430542
4,4,128,118,0.6269403100013733,0.15775662660598755
4,4,128,119,0.6468660235404968,0.12965843081474304
4,4,128,120,0.36965739727020264,0.2757749855518341
4,4,128,121,0.6268532276153564,0.24294380843639374
4,4,128,122,0.39584213495254517,0.24135957658290863
4,4,128,123,0.4755038917064667,0.052274592220783234
4,4,128,124,0.6779267191886902,0.31101834774017334
4,4,128,125,0.6391995549201965,0.3100591003894806
4,4,128,126,0.4170753061771393,0.16993162035942078
4,4,128,127,0.3529876172542572,0.10953725129365921
4,5,128,0,0.4456992447376251,0.31691738963127136
4,5,128,1,0.6003879308700562,0.24607186019420624
4,5,128,2,0.7885087132453918,0.07678347826004028
4,5,128,3,0.8999722599983215,0.07179857045412064
4,5,128,4,0.8537911176681519,0.06324724853038788
4,5,128,5,0.76883465051651,0.15749134123325348
4,5,128,6,0.7058191895484924,0.14704330265522003
4,5,128,7,0.8642966151237488,0.09404300153255463
4,5,128,8,0.5767831802368164,0.2785227298736572
4,5,128,9,0.7929084300994873,0.10405346006155014
4,5,128,10,0.8348802328109741,0.06243622303009033
4,5,128,11,0.7824532389640808,0.08566465973854065
4,5,128,12,0.7224177122116089,0.11754017323255539
4,5,128,13,0.7260164022445679,0.165039524435997
4,5,128,14,0.7169309258460999,0.17826256155967712
4,5,128,15,0.616972804069519,0.19083639979362488
4,5,128,16,0.877427875995636,0.06147732585668564
4,5,128,17,0.5993138551712036,0.09361515939235687
4,5,128,18,0.4690990447998047,0.2750729024410248
4,5,128,19,0.5014558434486389,0.19729401171207428
4,5,128,20,0.4071836471557617,0.21800532937049866
4,5,128,21,0.4396637976169586,0.30387061834335327
4,5,128,22,0.6273933053016663,0.2876925766468048
4,5,128,23,0.4966234266757965,0.32280269265174866
4,5,128,24,0.6607456207275391,0.3001890778541565
4,5,128,25,0.7189457416534424,0.16356970369815826
4,5,128,26,0.8180676102638245,0.11888834089040756
4,5,128,27,0.849622905254364,0.09890297800302505
4,5,128,28,0.838103175163269,0.12276054918766022
4,5,128,29,0.33110126852989197,0.2418447732925415
4,5,128,30,0.7431561946868896,0.23763678967952728
4,5,128,31,0.7738973498344421,0.09518276154994965
4,5,128,32,0.8679182529449463,0.06105070188641548
4,5,128,33,0.4920026957988739,0.3519051671028137
4,5,128,34,0.5975263118743896,0.10552240163087845
4,5,128,35,0.5230516195297241,0.26111429929733276
4,5,128,36,0.6797245144844055,0.20641890168190002
4,5,128,37,0.8717268109321594,0.06738387793302536
4,5,128,38,0.7836847901344299,0.1005747988820076
4,5,128,39,0.7075991034507751,0.14488482475280762
4,5,128,40,0.844519317150116,0.06789000332355499
4,5,128,41,0.6229220628738403,0.31271088123321533
4,5,128,42,0.7026991844177246,0.20176838338375092
4,5,128,43,0.6231558918952942,0.08440952748060226
4,5,128,44,0.7194045186042786,0.09891165047883987
4,5,128,45,0.48943284153938293,0.2988010048866272
4,5,128,46,0.3616245985031128,0.25283828377723694
4,5,128,47,0.8494869470596313,0.08347894251346588
4,5,128,48,0.7772791385650635,0.14033527672290802
4,5,128,49,0.7822583913803101,0.17867980897426605
4,5,128,50,0.8657774925231934,0.07249823957681656
4,5,128,51,0.7515528202056885,0.15451402962207794
4,5,128,52,0.7337700724601746,0.20021013915538788
4,5,128,53,0.7590168714523315,0.0812324807047844
4,5,128,54,0.777563750743866,0.1885925680398941
4,5,128,55,0.5258620381355286,0.13155008852481842
4,5,128,56,0.4827178716659546,0.2355913519859314
4,5,128,57,0.7287819981575012,0.13556788861751556
4,5,128,58,0.8525716066360474,0.0875825360417366
4,5,128,59,0.7472720742225647,0.08438661694526672
4,5,128,60,0.7455990314483643,0.12122775614261627
4,5,128,61,0.8681037425994873,0.0702083483338356
4,5,128,62,0.8528857231140137,0.07834524661302567
4,5,128,63,0.8644675016403198,0.0637306272983551
4,5,128,64,0.513143002986908,0.19030626118183136
4,5,128,65,0.5824850797653198,0.1337118148803711
4,5,128,66,0.7769871354103088,0.09388545155525208
4,5,128,67,0.6315127611160278,0.3090440630912781
4,5,128,68,0.8746458888053894,0.07290717959403992
4,5,128,69,0.7708770632743835,0.09762784838676453
4,5,128,70,0.7932872176170349,0.1591971218585968
4,5,128,71,0.8589134812355042,0.08003214746713638
4,5,128,72,0.7806519269943237,0.167711079120636
4,5,128,73,0.689289391040802,0.17612816393375397
4,5,128,74,0.457527220249176,0.2899913787841797
4,5,128,75,0.4660060405731201,0.37294456362724304
4,5,128,76,0.6479226350784302,0.18024785816669464
4,5,128,77,0.7414050698280334,0.16854283213615417
4,5,128,78,0.7918539047241211,0.10756857693195343
4,5,128,79,0.8763757944107056,0.0671628937125206
4,5,128,80,0.7044873833656311,0.13426867127418518
4,5,128,81,0.8367922902107239,0.0763934999704361
4,5,128,82,0.4627150893211365,0.26792094111442566
4,5,128,83,0.7883384227752686,0.18614935874938965
4,5,128,84,0.6893727779388428,0.1360761523246765
4,5,128,85,0.6757379174232483,0.1628330647945404
4,5,128,86,0.5656949877738953,0.23404544591903687
4,5,128,87,0.7402417063713074,0.2410167157649994
4,5,128,88,0.6446000933647156,0.09743582457304001
4,5,128,89,0.39428770542144775,0.21179553866386414
4,5,128,90,0.38546597957611084,0.2803077697753906
4,5,128,91,0.8045340180397034,0.06706015020608902
4,5,128,92,0.843599259853363,0.07412951439619064
4,5,128,93,0.47390154004096985,0.1560785472393036
4,5,128,94,0.6748945713043213,0.1275448501110077
4,5,128,95,0.8091338872909546,0.1126314178109169
4,5,128,96,0.7048706412315369,0.10955148935317993
4,5,128,97,0.6062923073768616,0.23384985327720642
4,5,128,98,0.6336840987205505,0.2803867757320404
4,5,128,99,0.7188107371330261,0.144662544131279
4,5,128,100,0.6718935966491699,0.093011274933815
4,5,128,101,0.8501370549201965,0.06620126217603683
4,5,128,102,0.5321738123893738,0.1742493361234665
4,5,128,103,0.7986088395118713,0.09910114109516144
4,5,128,104,0.8326812982559204,0.0916629508137703
4,5,128,105,0.4700142741203308,0.363628625869751
4,5,128,106,0.6895129680633545,0.26097801327705383
4,5,128,107,0.45177245140075684,0.3329612612724304
4,5,128,108,0.6340259313583374,0.18139012157917023
4,5,128,109,0.8425315022468567,0.07150999456644058
4,5,128,110,0.636258065700531,0.10121147334575653
4,5,128,111,0.8047000765800476,0.11489151418209076
4,5,128,112,0.8502457141876221,0.06706459820270538
4,5,128,113,0.784361720085144,0.11759166419506073
4,5,128,114,0.5276194214820862,0.30205219984054565
4,5,128,115,0.5102181434631348,0.2708037793636322
4,5,128,116,0.6674941182136536,0.2004295289516449
4,5,128,117,0.6934103965759277,0.1991634964942932
4,5,128,118,0.7505985498428345,0.12977375090122223
4,5,128,119,0.6671587824821472,0.1508207619190216
4,5,128,120,0.6187290549278259,0.2533097267150879
4,5,128,121,0.6781572103500366,0.2626279294490814
4,5,128,122,0.7441002130508423,0.11488679051399231
4,5,128,123,0.8321694731712341,0.09511007368564606
4,5,128,124,0.6669327616691589,0.21304191648960114
4,5,128,125,0.6621716022491455,0.18539448082447052
4,5,128,126,0.819543182849884,0.08346040546894073
4,5,128,127,0.708116352558136,0.17254868149757385
5,0,32,0,0.5359829664230347,0.04565831646323204
5,0,32,1,0.5574621558189392,0.11726858466863632
5,0,32,2,0.543594479560852,0.055111661553382874
5,0,32,3,0.4947841763496399,0.03159627318382263
5,0,32,4,0.30350449681282043,0.08309616148471832
5,0,32,5,0.4603661894798279,0.03983742743730545
5,0,32,6,0.5261225700378418,0.050453200936317444
5,0,32,7,0.3039812743663788,0.09512429684400558
5,0,32,8,0.5785404443740845,0.07795660197734833
5,0,32,9,0.5139986872673035,0.06343390047550201
5,0,32,10,0.5286877751350403,0.09546498209238052
5,0,32,11,0.6466459035873413,0.07610492408275604
5,0,32,12,0.3622165024280548,0.0840219110250473
5,0,32,13,0.507361650466919,0.03581893816590309
5,0,32,14,0.49974164366722107,0.07435046136379242
5,0,32,15,0.49234238266944885,0.06539937108755112
5,0,32,16,0.5865607261657715,0.024380763992667198
5,0,32,17,0.523013174533844,0.08454973995685577
5,0,32,18,0.5831830501556396,0.06696529686450958
5,0,32,19,0.4194401800632477,0.05692080035805702
5,0,32,20,0.46138355135917664,0.1370115429162979
5,0,32,21,0.49501287937164307,0.1207965835928917
5,0,32,22,0.5877772569656372,0.08161339908838272
5,0,32,23,0.5201916098594666,0.030709173530340195
5,0,32,24,0.6162640452384949,0.05794820562005043
5,0,32,25,0.4287821352481842,0.11987408250570297
5,0,32,26,0.40326979756355286,0.05557991564273834
5,0,32,27,0.5849602222442627,0.11860104650259018
5,0,32,28,0.5702645182609558,0.08564560115337372
5,0,32,29,0.5058019757270813,0.09496614336967468
5,0,32,30,0.43233150243759155,0.05520317330956459
5,0,32,31,0.38878825306892395,0.027954265475273132
5,1,32,0,0.5072950124740601,0.06664258986711502
5,1,32,1,0.4676879644393921,0.09281860291957855
5,1,32,2,0.6047068238258362,0.09765581786632538
5,1,32,3,0.46193987131118774,0.13069111108779907
5,1,32,4,0.5001980662345886,0.07212193310260773
5,1,32,5,0.3963642120361328,0.09895208477973938
5,1,32,6,0.30054065585136414,0.062370143830776215
5,1,32,7,0.7069758176803589,0.08855941146612167
5,1,32,8,0.4286338984966278,0.08413082361221313
5,1,32,9,0.6114072203636169,0.12480475008487701
5,1,32,10,0.3553553521633148,0.10435888916254044
5,1,32,11,0.6352320313453674,0.14222368597984314
5,1,32,12,0.7177521586418152,0.1107679009437561
5,1,32,13,0.49946585297584534,0.037567369639873505
5,1,32,14,0.6957235336303711,0.10886431485414505
5,1,32,15,0.5841556787490845,0.04651439189910889
5,1,32,16,0.5173303484916687,0.07180850207805634
5,1,32,17,0.46131861209869385,0.0668337345123291
5,1,32,18,0.48633477091789246,0.05279260501265526
5,1,32,19,0.4768396019935608,0.12965644896030426
5,1,32,20,0.3925798535346985,0.07136140018701553
5,1,32,21,0.47303298115730286,0.0669330433011055
5,1,32,22,0.4811049699783325,0.08508778363466263
5,1,32,23,0.5283229351043701,0.04357663542032242
5,1,32,24,0.40219733119010925,0.07502297312021255
5,1,32,25,0.5752020478248596,0.14723655581474304
5,1,32,26,0.3618135154247284,0.14232754707336426
5,1,32,27,0.5922206044197083,0.03570591285824776
5,1,32,28,0.3330124616622925,0.13436663150787354
5,1,32,29,0.4454423785209656,0.05377405509352684
5,1,32,30,0.5274114608764648,0.04822768643498421
5,1,32,31,0.5943257808685303,0.13696981966495514
5,2,64,0,0.39729076623916626,0.11496561765670776
5,2,64,1,0.45645076036453247,0.2228715717792511
5,2,64,2,0.6293169260025024,0.15153685212135315
5,2,64,3,0.5299889445304871,0.20145632326602936
5,2,64,4,0.6596851944923401,0.13529321551322937
5,2,64,5,0.49851953983306885,0.21217751502990723
5,2,64,6,0.587074875831604,0.22155624628067017
5,2,64,7,0.5192998051643372,0.21135929226875305
5,2,64,8,0.41241583228111267,0.1665697991847992
5,2,64,9,0.5779777765274048,0.2544296085834503
5,2,64,10,0.5496255159378052,0.2789250612258911
5,2,64,11,0.5688830614089966,0.27256491780281067
5,2,64,12,0.5064652562141418,0.04247867316007614
5,2,64,13,0.3750711977481842,0.2878933250904083
5,2,64,14,0.5998423099517822,0.13516288995742798
5,2,64,15,0.44759881496429443,0.11863525956869125
5,2,64,16,0.4872343838214874,0.23684467375278473
5,2,64,17,0.5992417335510254,0.15458591282367706
5,2,64,18,0.5479825735092163,0.2876647710800171
5,2,64,19,0.7144516110420227,0.07277259230613708
5,2,64,20,0.5125293731689453,0.11683284491300583
5,2,64,21,0.4104504883289337,0.1522493064403534
5,2,64,22,0.5231207013130188,0.15010419487953186
5,2,64,23,0.456030935049057,0.09218382090330124
5,2,64,24,0.6557655334472656,0.11097855120897293
5,2,64,25,0.46006327867507935,0.16280558705329895
5,2,64,26,0.5067119002342224,0.1874319612979889
5,2,64,27,0.4269583225250244,0.12404011189937592
5,2,64,28,0.5314217209815979,0.13519532978534698
5,2,64,29,0.5404049754142761,0.20938090980052948
5,2,64,30,0.5393599271774292,0.20287515223026276
5,2,64,31,0.46490052342414856,0.16466961801052094
5,2,64,32,0.6497905850410461,0.16324059665203094
5,2,64,33,0.4812036156654358,0.20844244956970215
5,2,64,34,0.5128383040428162,0.08935695886611938
5,2,64,35,0.31011295318603516,0.10974133759737015
5,2,64,36,0.566244900226593,0.21101179718971252
5,2,64,37,0.4256595969200134,0.19538521766662598
5,2,64,38,0.5491245985031128,0.15557432174682617
5,2,64,39,0.33376917243003845,0.13903015851974487
5,2,64,40,0.6354760527610779,0.1508217304944992
5,2,64,41,0.4293745756149292,0.22772438824176788
5,2,64,42,0.4696968197822571,0.12387973070144653
5,2,64,43,0.5208349823951721,0.27895021438598633
5,2,64,44,0.4387294054031372,0.2558555006980896
5,2,64,45,0.3815611004829407,0.13187488913536072
5,2,64,46,0.48143360018730164,0.1664075404405594
5,2,64,47,0.48852598667144775,0.33945295214653015
5,2,64,48,0.7231889963150024,0.05319619178771973
5,2,64,49,0.3863289952278137,0.19708563387393951
5,2,64,50,0.5218492746353149,0.2120022475719452
5,2,64,51,0.3815758526325226,0.15354309976100922
5,2,64,52,0.4051349461078644,0.11394466459751129
5,2,64,53,0.6062501072883606,0.15390169620513916
5,2,64,54,0.5231720805168152,0.06162489578127861
5,2,64,55,0.5352755784988403,0.21698524057865143
5,2,64,56,0.6180301904678345,0.15118348598480225
5,2,64,57,0.5804244875907898,0.3072180151939392
5,2,64,58,0.431980162858963,0.09559739381074905
5,2,64,59,0.559791624546051,0.19101430475711823
5,2,64,60,0.6921125650405884,0.16855785250663757
5,2,64,61,0.6096656322479248,0.25845208764076233
5,2,64,62,0.46217551827430725,0.13335762917995453
5,2,64,63,0.6315736770629883,0.10187463462352753
5,3,64,0,0.5487254858016968,0.04874398931860924
5,3,64,1,0.5577820539474487,0.17206181585788727
5,3,64,2,0.5458171963691711,0.05913921073079109
5,3,64,3,0.4112859070301056,0.1700427085161209
5,3,64,4,0.3737378418445587,0.2532814145088196
5,3,64,5,0.3206375539302826,0.16235730051994324
5,3,64,6,0.4006292521953583,0.08464033901691437
5,3,64,7,0.36473461985588074,0.09994954615831375
5,3,64,8,0.7094887495040894,0.1755353957414627
5,3,64,9,0.378312885761261,0.11089996993541718
5,3,64,10,0.46877798438072205,0.16474799811840057
5,3,64,11,0.6873257756233215,0.19838465750217438
5,3,64,12,0.4374111592769623,0.16377398371696472
5,3,64,13,0.34172478318214417,0.1313198059797287
5,3,64,14,0.5599033236503601,0.15211457014083862
5,3,64,15,0.3763403594493866,0.12143343687057495
5,3,64,16,0.5647934675216675,0.0980139672756195
5,3,64,17,0.4216025769710541,0.20219145715236664
5,3,64,18,0.28274503350257874,0.15432967245578766
5,3,64,19,0.49878960847854614,0.13771246373653412
5,3,64,20,0.4636797606945038,0.1616595834493637
5,3,64,21,0.3561112582683563,0.13642343878746033
5,3,64,22,0.4574075937271118,0.07842709869146347
5,3,64,23,0.44225844740867615,0.0936853289604187
5,3,64,24,0.39329105615615845,0.1426202654838562
5,3,64,25,0.4964819848537445,0.16425758600234985
5,3,64,26,0.5549888014793396,0.09793448448181152
5,3,64,27,0.6105127930641174,0.16190804541110992
5,3,64,28,0.535912811756134,0.12744782865047455
5,3,64,29,0.6518980264663696,0.10418923944234848
5,3,64,30,0.43109259009361267,0.20700262486934662
5,3,64,31,0.3025345802307129,0.09264674037694931
5,3,64,32,0.5595787763595581,0.1695069968700409
5,3,64,33,0.3037448525428772,0.11783694475889206
5,3,64,34,0.583748459815979,0.1867857724428177
5,3,64,35,0.39004456996917725,0.11693772673606873
5,3,64,36,0.5827661752700806,0.12475751340389252
5,3,64,37,0.4655210077762604,0.1582801342010498
5,3,64,38,0.5097712874412537,0.17352044582366943
5,3,64,39,0.6837418675422668,0.10348223149776459
5,3,64,40,0.6069923043251038,0.12670722603797913
5,3,64,41,0.25305038690567017,0.13286888599395752
5,3,64,42,0.5653048753738403,0.10540025681257248
5,3,64,43,0.5831466317176819,0.15220962464809418
5,3,64,44,0.5882065892219543,0.17448949813842773
5,3,64,45,0.42699548602104187,0.1337856501340866
5,3,64,46,0.6211819052696228,0.15528564155101776
5,3,64,47,0.5540465116500854,0.18889601528644562
5,3,64,48,0.47781112790107727,0.08144047111272812
5,3,64,49,0.7326828837394714,0.17318420112133026
5,3,64,50,0.4275919198989868,0.15196499228477478
5,3,64,51,0.6445497274398804,0.07509765028953552
5,3,64,52,0.4027736186981201,0.11644624918699265
5,3,64,53,0.48929858207702637,0.15793874859809875
5,3,64,54,0.31378576159477234,0.16805054247379303
5,3,64,55,0.4465950131416321,0.15516027808189392
5,3,64,56,0.46025750041007996,0.15713892877101898
5,3,64,57,0.4458911716938019,0.09381008893251419
5,3,64,58,0.48621997237205505,0.1397661566734314
5,3,64,59,0.5188599824905396,0.12262913584709167
5,3,64,60,0.5013965964317322,0.15101414918899536
5,3,64,61,0.561496376991272,0.2001093626022339
5,3,64,62,0.4301092326641083,0.1417098343372345
5,3,64,63,0.5178126692771912,0.06724265217781067
5,4,128,0,0.672549307346344,0.062364451587200165
5,4,128,1,0.6187094449996948,0.33300185203552246
5,4,128,2,0.35474297404289246,0.1616014987230301
5,4,128,3,0.4408583641052246,0.32409921288490295
5,4,128,4,0.6380507349967957,0.18657496571540833
5,4,128,5,0.5576715469360352,0.2707596719264984
5,4,128,6,0.38594353199005127,0.14931762218475342
5,4,128,7,0.580321729183197,0.32922837138175964
5,4,128,8,0.7023088932037354,0.12296465784311295
5,4,128,9,0.4752635955810547,0.10287781804800034
5,4,128,10,0.6455329656600952,0.3056977391242981
5,4,128,11,0.5342161655426025,0.1317516714334488
5,4,128,12,0.5688520669937134,0.226456418633461
5,4,128,13,0.49191176891326904,0.3025045394897461
5,4,128,14,0.502098798751831,0.22604858875274658
5,4,128,15,0.6885799169540405,0.08693581819534302
5,4,128,16,0.5775148868560791,0.07235205173492432
5,4,128,17,0.562578558921814,0.16319814324378967
5,4,128,18,0.6943097114562988,0.12364435195922852
5,4,128,19,0.6706399917602539,0.19347204267978668
5,4,128,20,0.5193251967430115,0.25237035751342773
5,4,128,21,0.3174223005771637,0.11284003406763077
5,4,128,22,0.5645985007286072,0.23627975583076477
5,4,128,23,0.5469972491264343,0.25858747959136963
5,4,128,24,0.5231484770774841,0.16814054548740387
5,4,128,25,0.7181805968284607,0.1628108024597168
5,4,128,26,0.622222363948822,0.20148144662380219
5,4,128,27,0.7268568277359009,0.08854708075523376
5,4,128,28,0.5549988746643066,0.25984930992126465
5,4,128,29,0.5918743014335632,0.21374018490314484
5,4,128,30,0.5416302680969238,0.35653916001319885
5,4,128,31,0.517322838306427,0.1376955658197403
5,4,128,32,0.4264659881591797,0.3199659585952759
5,4,128,33,0.5588624477386475,0.27940741181373596
5,4,128,34,0.5821785926818848,0.17193900048732758
5,4,128,35,0.5418563485145569,0.26692497730255127
5,4,128,36,0.5133645534515381,0.1948050558567047
5,4,128,37,0.6730678677558899,0.2791915237903595
5,4,128,38,0.5571969151496887,0.20355114340782166
5,4,128,39,0.34091582894325256,0.15056978166103363
5,4,128,40,0.5791348218917847,0.33483290672302246
5,4,128,41,0.7367439270019531,0.2430267333984375
5,4,128,42,0.4570441246032715,0.21317757666110992
5,4,128,43,0.5656736493110657,0.2404583990573883
5,4,128,44,0.5571534037590027,0.20923349261283875
5,4,128,45,0.6300649642944336,0.34211495518684387
5,4,128,46,0.30329370498657227,0.1362711489200592
5,4,128,47,0.4423774778842926,0.22641117870807648
5,4,128,48,0.6655341982841492,0.17419351637363434
5,4,128,49,0.48881542682647705,0.2188330441713333
5,4,128,50,0.588388979434967,0.269483745098114
5,4,128,51,0.6984784603118896,0.14907406270503998
5,4,128,52,0.3722887933254242,0.29941117763519287
5,4,128,53,0.6006081700325012,0.24348357319831848
5,4,128,54,0.40570104122161865,0.13948601484298706
5,4,128,55,0.4132334291934967,0.21484553813934326
5,4,128,56,0.5622942447662354,0.28314629197120667
5,4,128,57,0.6567786335945129,0.25691547989845276
5,4,128,58,0.5811898708343506,0.27829697728157043
5,4,128,59,0.7571339011192322,0.13178694248199463
5,4,128,60,0.37169572710990906,0.22875262796878815
5,4,128,61,0.6848449110984802,0.15822003781795502
5,4,128,62,0.580242395401001,0.18859592080116272
5,4,128,63,0.7741376757621765,0.09008888155221939
5,4,128,64,0.5832175612449646,0.24303512275218964
5,4,128,65,0.512973964214325,0.2777208387851715
5,4,128,66,0.3494536876678467,0.2207193523645401
5,4,128,67,0.6623485088348389,0.09768710285425186
5,4,128,68,0.564894437789917,0.09941896796226501
5,4,128,69,0.6322945952415466,0.30965766310691833
5,4,128,70,0.4725325405597687,0.32061848044395447
5,4,128,71,0.5550640225410461,0.07670795917510986
5,4,128,72,0.6021125316619873,0.22607208788394928
5,4,128,73,0.6691641807556152,0.15013036131858826
5,4,128,74,0.5647925138473511,0.15178412199020386
5,4,128,75,0.720818281173706,0.08617165684700012
5,4,128,76,0.3506121337413788,0.2228570431470871
5,4,128,77,0.47650906443595886,0.120643250644207
5,4,128,78,0.5596523880958557,0.27926453948020935
5,4,128,79,0.5174365043640137,0.2454984039068222
5,4,128,80,0.6848101615905762,0.10596051812171936
5,4,128,81,0.5153475999832153,0.23419073224067688
5,4,128,82,0.44086021184921265,0.25220245122909546
5,4,128,83,0.4839117228984833,0.24459634721279144
5,4,128,84,0.769474446773529,0.0898672565817833
5,4,128,85,0.6427279710769653,0.2692488133907318
5,4,128,86,0.7193736433982849,0.07988482713699341
5,4,128,87,0.4221797585487366,0.20961567759513855
5,4,128,88,0.6547693610191345,0.11787361651659012
5,4,128,89,0.6044885516166687,0.16175396740436554
5,4,128,90,0.6311191320419312,0.20440244674682617
5,4,128,91,0.7712056636810303,0.10130732506513596
5,4,128,92,0.5562250018119812,0.2649443447589874
5,4,128,93,0.5105944871902466,0.19939322769641876
5,4,128,94,0.6796446442604065,0.13625916838645935
5,4,128,95,0.5558174848556519,0.2912575602531433
5,4,128,96,0.5432350635528564,0.22329092025756836
5,4,128,97,0.5451647043228149,0.31648769974708557
5,4,128,98,0.612925112247467,0.2819164991378784
5,4,128,99,0.3156105875968933,0.13979771733283997
5,4,128,100,0.645695686340332,0.32654276490211487
5,4,128,101,0.6132434010505676,0.3176383674144745
5,4,128,102,0.6852338314056396,0.13168218731880188
5,4,128,103,0.404404878616333,0.1023498997092247
5,4,128,104,0.7277826070785522,0.14132985472679138
5,4,128,105,0.5842704772949219,0.1413860023021698
5,4,128,106,0.6615722179412842,0.27328717708587646
5,4,128,107,0.42573249340057373,0.1677137315273285
5,4,128,108,0.46959567070007324,0.2463039606809616
5,4,128,109,0.7068979144096375,0.12930437922477722
5,4,128,110,0.5556582808494568,0.2449149638414383
5,4,128,111,0.6289623975753784,0.1523268222808838
5,4,128,112,0.5145949721336365,0.16878682374954224
5,4,128,113,0.42503732442855835,0.12789830565452576
5,4,128,114,0.5506301522254944,0.1548449844121933
5,4,128,115,0.5048763751983643,0.25876620411872864
5,4,128,116,0.40907859802246094,0.27207091450691223
5,4,128,117,0.43371909856796265,0.30252528190612793
5,4,128,118,0.6177551746368408,0.25595274567604065
5,4,128,119,0.6370895504951477,0.24040769040584564
5,4,128,120,0.3358897268772125,0.16577638685703278
5,4,128,121,0.67564857006073,0.1862531155347824
5,4,128,122,0.4170644283294678,0.19451642036437988
5,4,128,123,0.6186743378639221,0.2500799298286438
5,4,128,124,0.5875601172447205,0.12522168457508087
5,4,128,125,0.460313081741333,0.20647431910037994
5,4,128,126,0.6010288000106812,0.2606530785560608
5,4,128,127,0.6239059567451477,0.26908132433891296
5,5,128,0,0.788160502910614,0.13291732966899872
5,5,128,1,0.8498531579971313,0.12626272439956665
5,5,128,2,0.7215309739112854,0.15568561851978302
5,5,128,3,0.8765519261360168,0.08138209581375122
5,5,128,4,0.8197941184043884,0.11104894429445267
5,5,128,5,0.8687431216239929,0.10806156694889069
5,5,128,6,0.7383214831352234,0.2517620623111725
5,5,128,7,0.8510354161262512,0.08348361402750015
5,5,128,8,0.6511257886886597,0.22203807532787323
5,5,128,9,0.7683433294296265,0.14323511719703674
5,5,128,10,0.8498087525367737,0.1388801783323288
5,5,128,11,0.8436244130134583,0.08037116378545761
5,5,128,12,0.931641161441803,0.06295279413461685
5,5,128,13,0.40799903869628906,0.25832870602607727
5,5,128,14,0.7586584687232971,0.18180148303508759
5,5,128,15,0.41587182879447937,0.29767054319381714
5,5,128,16,0.7661091685295105,0.1675538867712021
5,5,128,17,0.39613625407218933,0.15779340267181396
5,5,128,18,0.8171591758728027,0.11319513618946075
5,5,128,19,0.7837984561920166,0.16288799047470093
5,5,128,20,0.599348783493042,0.1897108405828476
5,5,128,21,0.6435458660125732,0.14044122397899628
5,5,128,22,0.5152423977851868,0.17431588470935822
5,5,128,23,0.693303108215332,0.15007290244102478
5,5,128,24,0.7747476100921631,0.20138345658779144
5,5,128,25,0.8228949308395386,0.10786575824022293
5,5,128,26,0.8604371547698975,0.09740251302719116
5,5,128,27,0.8033152222633362,0.102348193526268
5,5,128,28,0.8335574865341187,0.0916333943605423
5,5,128,29,0.828503429889679,0.17617352306842804
5,5,128,30,0.8680068254470825,0.10815581679344177
5,5,128,31,0.7290031909942627,0.11379004269838333
5,5,128,32,0.7273381352424622,0.18630920350551605
5,5,128,33,0.7553743720054626,0.15990257263183594
5,5,128,34,0.810476541519165,0.13815133273601532
5,5,128,35,0.42821455001831055,0.16938543319702148
5,5,128,36,0.8278781175613403,0.12415584176778793
5,5,128,37,0.8798847794532776,0.11272545903921127
5,5,128,38,0.42699724435806274,0.1766226887702942
5,5,128,39,0.8526986241340637,0.11900856345891953
5,5,128,40,0.3985788822174072,0.29225578904151917
5,5,128,41,0.8884393572807312,0.1114049181342125
5,5,128,42,0.7173008918762207,0.0880509614944458
5,5,128,43,0.4069703221321106,0.2209872305393219
5,5,128,44,0.7645207047462463,0.08755742758512497
5,5,128,45,0.798244833946228,0.14585816860198975
5,5,128,46,0.5580354332923889,0.1735849678516388
5,5,128,47,0.3539297878742218,0.2112954556941986
5,5,128,48,0.7619990706443787,0.20463751256465912
5,5,128,49,0.27682772278785706,0.20751270651817322
5,5,128,50,0.6461730599403381,0.1622249037027359
5,5,128,51,0.7700439095497131,0.2227412909269333
5,5,128,52,0.4490565061569214,0.18395940959453583
5,5,128,53,0.7136971354484558,0.22722944617271423
5,5,128,54,0.6483751535415649,0.14916148781776428
5,5,128,55,0.3881537616252899,0.2791856527328491
5,5,128,56,0.7575385570526123,0.23207643628120422
5,5,128,57,0.7948569655418396,0.11996811628341675
5,5,128,58,0.7941108345985413,0.23152515292167664
5,5,128,59,0.8156535029411316,0.09582920372486115
5,5,128,60,0.8279480934143066,0.08579988032579422
5,5,128,61,0.8518211841583252,0.08934568613767624
5,5,128,62,0.8364988565444946,0.09694325923919678
5,5,128,63,0.7784895300865173,0.14325788617134094
5,5,128,64,0.7248212695121765,0.22354920208454132
5,5,128,65,0.3553210198879242,0.2569616734981537
5,5,128,66,0.700197696685791,0.28996962308883667
5,5,128,67,0.8441160321235657,0.11212500929832458
5,5,128,68,0.7996484637260437,0.15068911015987396
5,5,128,69,0.784400463104248,0.2168174833059311
5,5,128,70,0.8055294752120972,0.13505013287067413
5,5,128,71,0.6726770401000977,0.18774856626987457
5,5,128,72,0.4999941885471344,0.30149561166763306
5,5,128,73,0.3648865222930908,0.30319836735725403
5,5,128,74,0.7800986170768738,0.21639974415302277
5,5,128,75,0.7589480876922607,0.15633462369441986
5,5,128,76,0.7966415286064148,0.10430310666561127
5,5,128,77,0.8056308627128601,0.14396663010120392
5,5,128,78,0.5197080969810486,0.1158423200249672
5,5,128,79,0.7058045268058777,0.26855549216270447
5,5,128,80,0.6199868321418762,0.09893733263015747
5,5,128,81,0.7987958788871765,0.14681176841259003
5,5,128,82,0.8764806389808655,0.08438321948051453
5,5,128,83,0.5418978333473206,0.21781505644321442
5,5,128,84,0.6961239576339722,0.15033896267414093
5,5,128,85,0.7032625079154968,0.12414137274026871
5,5,128,86,0.7377057075500488,0.11197880655527115
5,5,128,87,0.7578310370445251,0.1934880167245865
5,5,128,88,0.7767874598503113,0.24188430607318878
5,5,128,89,0.8786109089851379,0.09687583148479462
5,5,128,90,0.8567078113555908,0.09032926708459854
5,5,128,91,0.8299447894096375,0.12357468158006668
5,5,128,92,0.8173977136611938,0.0874374732375145
5,5,128,93,0.493599534034729,0.26129770278930664
5,5,128,94,0.830671489238739,0.10079970955848694
5,5,128,95,0.49784278869628906,0.23510685563087463
5,5,128,96,0.5310800075531006,0.2684020698070526
5,5,128,97,0.7853860855102539,0.19709575176239014
5,5,128,98,0.7844367027282715,0.16261115670204163
5,5,128,99,0.4476234018802643,0.24747611582279205
5,5,128,100,0.8835124373435974,0.10669166594743729
5,5,128,101,0.8131412863731384,0.1432379186153412
5,5,128,102,0.8617419004440308,0.09972681105136871
5,5,128,103,0.555070698261261,0.12323010712862015
5,5,128,104,0.8096033930778503,0.20160265266895294
5,5,128,105,0.6539821028709412,0.23995794355869293
5,5,128,106,0.8684883713722229,0.09697462618350983
5,5,128,107,0.561821699142456,0.2664356231689453
5,5,128,108,0.7948534488677979,0.1426258683204651
5,5,128,109,0.7597730159759521,0.1865084022283554
5,5,128,110,0.7330341339111328,0.24675610661506653
5,5,128,111,0.8382792472839355,0.09845971316099167
5,5,128,112,0.7608720064163208,0.19727723300457
5,5,128,113,0.6278246641159058,0.18756461143493652
5,5,128,114,0.8422797918319702,0.10613871365785599
5,5,128,115,0.7352912425994873,0.23343999683856964
5,5,128,116,0.773681104183197,0.10555078089237213
5,5,128,117,0.778140127658844,0.24036909639835358
5,5,128,118,0.6701923608779907,0.12910692393779755
5,5,128,119,0.7810468673706055,0.1478961557149887
5,5,128,120,0.8827671408653259,0.08103058487176895
5,5,128,121,0.5683891177177429,0.06764724850654602
5,5,128,122,0.40305307507514954,0.2673667073249817
5,5,128,123,0.8342815041542053,0.11488839983940125
5,5,128,124,0.7620954513549805,0.14544811844825745
5,5,128,125,0.8148500323295593,0.14912495017051697
5,5,128,126,0.8118179440498352,0.13897454738616943
5,5,128,127,0.49127396941185,0.11783604323863983
6,0,32,0,0.5576379299163818,0.05583859235048294
6,0,32,1,0.5654564499855042,0.10025055706501007
6,0,32,2,0.5066930055618286,0.04942838102579117
6,0,32,3,0.5085356831550598,0.031967394053936005
6,0,32,4,0.3267398178577423,0.04788153991103172
6,0,32,5,0.4467056691646576,0.04682619124650955
6,0,32,6,0.4571780264377594,0.06563723087310791
6,0,32,7,0.3281966745853424,0.07872293889522552
6,0,32,8,0.502016544342041,0.09237631410360336
6,0,32,9,0.5061330199241638,0.10928895324468613
6,0,32,10,0.5616408586502075,0.035083163529634476
6,0,32,11,0.5836408734321594,0.09252899140119553
6,0,32,12,0.3498011827468872,0.0706525519490242
6,0,32,13,0.49992382526397705,0.05326966568827629
6,0,32,14,0.47619572281837463,0.059196896851062775
6,0,32,15,0.523247241973877,0.044697355479002
6,0,32,16,0.6037185192108154,0.029098747298121452
6,0,32,17,0.5374176502227783,0.09212764352560043
6,0,32,18,0.5529228448867798,0.06151052191853523
6,0,32,19,0.43701159954071045,0.050031986087560654
6,0,32,20,0.44494691491127014,0.061211295425891876
6,0,32,21,0.4319116473197937,0.0704948678612709
6,0,32,22,0.6016035676002502,0.07835176587104797
6,0,32,23,0.5524425506591797,0.03760717809200287
6,0,32,24,0.5965557098388672,0.0828285813331604
6,0,32,25,0.4559909403324127,0.05332012474536896
6,0,32,26,0.40474817156791687,0.05520695075392723
6,0,32,27,0.5826112627983093,0.08780670911073685
6,0,32,28,0.5430857539176941,0.06213333457708359
6,0,32,29,0.5065659284591675,0.06019655987620354
6,0,32,30,0.42622998356819153,0.07393224537372589
6,0,32,31,0.408555269241333,0.028547173365950584
6,1,32,0,0.5407912135124207,0.07271134853363037
6,1,32,1,0.3949532210826874,0.113865926861763
6,1,32,2,0.5563019514083862,0.06570877879858017
6,1,32,3,0.5380046963691711,0.1187019795179367
6,1,32,4,0.5728710293769836,0.10216537863016129
6,1,32,5,0.4856744706630707,0.06466094404459
6,1,32,6,0.35598769783973694,0.1007930338382721
6,1,32,7,0.6242767572402954,0.10285914689302444
6,1,32,8,0.43251413106918335,0.14627453684806824
6,1,32,9,0.5290555953979492,0.0894290879368782
6,1,32,10,0.43955832719802856,0.1312044858932495
6,1,32,11,0.5745319724082947,0.15867558121681213
6,1,32,12,0.6551012396812439,0.07271504402160645
6,1,32,13,0.4618977904319763,0.08841721713542938
6,1,32,14,0.6410142183303833,0.07504376769065857
6,1,32,15,0.5772165656089783,0.0864427462220192
6,1,32,16,0.464819997549057,0.06976790726184845
6,1,32,17,0.45457613468170166,0.11728658527135849
6,1,32,18,0.4206358790397644,0.070563405752182
6,1,32,19,0.5229699611663818,0.1139751598238945
6,1,32,20,0.4355056583881378,0.08133623749017715
6,1,32,21,0.512944221496582,0.045169707387685776
6,1,32,22,0.4337904751300812,0.07398852705955505
6,1,32,23,0.5444583296775818,0.11279552429914474
6,1,32,24,0.34980177879333496,0.08695100992918015
6,1,32,25,0.49971482157707214,0.110247902572155
6,1,32,26,0.4335033893585205,0.09037358313798904
6,1,32,27,0.581821084022522,0.015150250867009163
6,1,32,28,0.4365363121032715,0.03555469214916229
6,1,32,29,0.46424511075019836,0.08428117632865906
6,1,32,30,0.5616822838783264,0.08385416865348816
6,1,32,31,0.4448671340942383,0.040457215160131454
6,2,64,0,0.4978196918964386,0.1601252555847168
6,2,64,1,0.3563600778579712,0.0789894089102745
6,2,64,2,0.6417226791381836,0.15098151564598083
6,2,64,3,0.4449354410171509,0.16679036617279053
6,2,64,4,0.6879610419273376,0.12293669581413269
6,2,64,5,0.45333656668663025,0.1192462369799614
6,2,64,6,0.6441919803619385,0.12562322616577148
6,2,64,7,0.5465953946113586,0.1614006608724594
6,2,64,8,0.5247998237609863,0.09390238672494888
6,2,64,9,0.5586231350898743,0.17039334774017334
6,2,64,10,0.6232696175575256,0.12765318155288696
6,2,64,11,0.5647084712982178,0.060134489089250565
6,2,64,12,0.5004503130912781,0.13344062864780426
6,2,64,13,0.4353283941745758,0.14366580545902252
6,2,64,14,0.5123969912528992,0.18395832180976868
6,2,64,15,0.538699746131897,0.1622328907251358
6,2,64,16,0.4213103950023651,0.14962807297706604
6,2,64,17,0.5964175462722778,0.14708217978477478
6,2,64,18,0.46044376492500305,0.16882795095443726
6,2,64,19,0.6894537806510925,0.11871491372585297
6,2,64,20,0.5686507821083069,0.2608729898929596
6,2,64,21,0.4305206835269928,0.1381099820137024
6,2,64,22,0.40930575132369995,0.0996856838464737
6,2,64,23,0.5245394706726074,0.09435255080461502
6,2,64,24,0.6789060831069946,0.11836543679237366
6,2,64,25,0.4391387403011322,0.1907297968864441
6,2,64,26,0.6603348255157471,0.11502227932214737
6,2,64,27,0.4045411944389343,0.14906039834022522
6,2,64,28,0.5848916172981262,0.10414692014455795
6,2,64,29,0.5030795931816101,0.2665061056613922
6,2,64,30,0.515285313129425,0.20491473376750946
6,2,64,31,0.4187200963497162,0.1429566740989685
6,2,64,32,0.6829352378845215,0.05187380686402321
6,2,64,33,0.4774990677833557,0.17761699855327606
6,2,64,34,0.45787009596824646,0.14060543477535248
6,2,64,35,0.302585244178772,0.10027366131544113
6,2,64,36,0.46823474764823914,0.20386409759521484
6,2,64,37,0.40601077675819397,0.14915895462036133
6,2,64,38,0.4889441132545471,0.20809420943260193
6,2,64,39,0.3424709439277649,0.13293062150478363
6,2,64,40,0.497317910194397,0.12387968599796295
6,2,64,41,0.393763929605484,0.1168740838766098
6,2,64,42,0.4547845721244812,0.16159579157829285
6,2,64,43,0.6159425973892212,0.16142043471336365
6,2,64,44,0.44797343015670776,0.19425486028194427
6,2,64,45,0.4532526135444641,0.1474611908197403
6,2,64,46,0.49122846126556396,0.10247576236724854
6,2,64,47,0.40472412109375,0.1424056589603424
6,2,64,48,0.6435024738311768,0.11504329741001129
6,2,64,49,0.49452802538871765,0.25562039017677307
6,2,64,50,0.4911402761936188,0.11109747737646103
6,2,64,51,0.3834559917449951,0.10607942193746567
6,2,64,52,0.4431810975074768,0.1773977428674698
6,2,64,53,0.5264906883239746,0.15849089622497559
6,2,64,54,0.513407289981842,0.08514674752950668
6,2,64,55,0.4977051019668579,0.18606609106063843
6,2,64,56,0.45264971256256104,0.19834020733833313
6,2,64,57,0.5366539359092712,0.14613358676433563
6,2,64,58,0.4634193778038025,0.09630467742681503
6,2,64,59,0.5601006746292114,0.15343067049980164
6,2,64,60,0.4706293046474457,0.15118849277496338
6,2,64,61,0.6658328175544739,0.09361840039491653
6,2,64,62,0.43566185235977173,0.11251132190227509
6,2,64,63,0.4941791892051697,0.20876924693584442
6,3,64,0,0.4556593596935272,0.11985170841217041
6,3,64,1,0.521271288394928,0.21681219339370728
6,3,64,2,0.4691128134727478,0.07635176926851273
6,3,64,3,0.4966937303543091,0.20876917243003845
6,3,64,4,0.43680593371391296,0.2597283720970154
6,3,64,5,0.3956149220466614,0.15062245726585388
6,3,64,6,0.5114375352859497,0.23116709291934967
6,3,64,7,0.4192527234554291,0.0642656534910202
6,3,64,8,0.5974109768867493,0.15440568327903748
6,3,64,9,0.4821504056453705,0.1739385575056076
6,3,64,10,0.33679553866386414,0.11714854091405869
6,3,64,11,0.5309944748878479,0.07656735926866531
6,3,64,12,0.4732136130332947,0.10128761827945709
6,3,64,13,0.5289502739906311,0.2323170155286789
6,3,64,14,0.6642534732818604,0.17033705115318298
6,3,64,15,0.38808566331863403,0.10182712227106094
6,3,64,16,0.628206729888916,0.12251265347003937
6,3,64,17,0.41745415329933167,0.15179915726184845
6,3,64,18,0.32994958758354187,0.11111458390951157
6,3,64,19,0.5170094966888428,0.07393533736467361
6,3,64,20,0.46672800183296204,0.15774641931056976
6,3,64,21,0.4343045949935913,0.10933652520179749
6,3,64,22,0.48208969831466675,0.14526931941509247
6,3,64,23,0.4979098439216614,0.08064183592796326
6,3,64,24,0.43432918190956116,0.1064797192811966
6,3,64,25,0.5130934715270996,0.26404160261154175
6,3,64,26,0.4881051480770111,0.1436978429555893
6,3,64,27,0.5231626033782959,0.18468540906906128
6,3,64,28,0.5654134750366211,0.13587959110736847
6,3,64,29,0.6265045404434204,0.06314721703529358
6,3,64,30,0.5639739036560059,0.16246575117111206
6,3,64,31,0.35882535576820374,0.14493009448051453
6,3,64,32,0.5052350759506226,0.209303617477417
6,3,64,33,0.347513884305954,0.1188756674528122
6,3,64,34,0.48485109210014343,0.14830996096134186
6,3,64,35,0.3815023601055145,0.12736870348453522
6,3,64,36,0.5400023460388184,0.17060598731040955
6,3,64,37,0.533706784248352,0.18420864641666412
6,3,64,38,0.48402994871139526,0.06415141373872757
6,3,64,39,0.6199014186859131,0.14415211975574493
6,3,64,40,0.5370604991912842,0.0690760388970375
6,3,64,41,0.309021532535553,0.0985637679696083
6,3,64,42,0.5284954309463501,0.11847281455993652
6,3,64,43,0.5654081106185913,0.22316406667232513
6,3,64,44,0.501713216304779,0.21911196410655975
6,3,64,45,0.443236768245697,0.12341076135635376
6,3,64,46,0.5929026007652283,0.1543520987033844
6,3,64,47,0.5514384508132935,0.168183833360672
6,3,64,48,0.5256966352462769,0.08220957964658737
6,3,64,49,0.6152637004852295,0.11163017898797989
6,3,64,50,0.5417683720588684,0.10674408823251724
6,3,64,51,0.6615225076675415,0.07959852367639542
6,3,64,52,0.49035632610321045,0.16430436074733734
6,3,64,53,0.5964421629905701,0.14371278882026672
6,3,64,54,0.36396175622940063,0.08253418654203415
6,3,64,55,0.5354734659194946,0.10497415065765381
6,3,64,56,0.5218564867973328,0.1345357447862625
6,3,64,57,0.5025621056556702,0.1404675394296646
6,3,64,58,0.4435568153858185,0.2187003493309021
6,3,64,59,0.432677298784256,0.09532876312732697
6,3,64,60,0.47724947333335876,0.17631950974464417
6,3,64,61,0.5541496276855469,0.2732754349708557
6,3,64,62,0.5106635689735413,0.12848082184791565
