subject,block,block_width,feature_channel,gate_mean,gate_sd
1,0,32,0,0.5296705365180969,0.17050756514072418
1,0,32,1,0.44501030445098877,0.14460982382297516
1,0,32,2,0.3862275183200836,0.13643254339694977
1,0,32,3,0.3418688476085663,0.0906628742814064
1,0,32,4,0.47992196679115295,0.0933685228228569
1,0,32,5,0.38403841853141785,0.11195054650306702
1,0,32,6,0.5476264953613281,0.10150867700576782
1,0,32,7,0.3894445598125458,0.1462291032075882
1,0,32,8,0.47182416915893555,0.10283609479665756
1,0,32,9,0.4248982071876526,0.14508435130119324
1,0,32,10,0.5155779123306274,0.13867507874965668
1,0,32,11,0.42636486887931824,0.0913597121834755
1,0,32,12,0.5443540811538696,0.09193819016218185
1,0,32,13,0.29292333126068115,0.07308025658130646
1,0,32,14,0.47090715169906616,0.1563614159822464
1,0,32,15,0.5219863057136536,0.11109977960586548
1,0,32,16,0.4599035084247589,0.10882866382598877
1,0,32,17,0.43766167759895325,0.13889677822589874
1,0,32,18,0.5227033495903015,0.13790002465248108
1,0,32,19,0.4171002507209778,0.12132011353969574
1,0,32,20,0.45530009269714355,0.11253219097852707
1,0,32,21,0.4888272285461426,0.1354268342256546
1,0,32,22,0.4456154704093933,0.06944814324378967
1,0,32,23,0.3939439654350281,0.12205673009157181
1,0,32,24,0.6093468070030212,0.0589459054172039
1,0,32,25,0.37035784125328064,0.11654867976903915
1,0,32,26,0.5913832783699036,0.08466579765081406
1,0,32,27,0.4957820177078247,0.05407761037349701
1,0,32,28,0.4105878472328186,0.0261378176510334
1,0,32,29,0.3944146931171417,0.14251326024532318
1,0,32,30,0.5330783128738403,0.09506131708621979
1,0,32,31,0.4737594723701477,0.12067791819572449
1,1,32,0,0.6205741167068481,0.04607028514146805
1,1,32,1,0.4714490473270416,0.12382248789072037
1,1,32,2,0.5585739016532898,0.1449148803949356
1,1,32,3,0.528930127620697,0.08280139416456223
1,1,32,4,0.49318405985832214,0.15061214566230774
1,1,32,5,0.5462867617607117,0.07125905901193619
1,1,32,6,0.5460492372512817,0.08973705023527145
1,1,32,7,0.5774543285369873,0.07691527903079987
1,1,32,8,0.46246302127838135,0.08567055314779282
1,1,32,9,0.4529699981212616,0.10205400735139847
1,1,32,10,0.4271060526371002,0.10302560031414032
1,1,32,11,0.42144709825515747,0.10179859399795532
1,1,32,12,0.29452696442604065,0.04560441896319389
1,1,32,13,0.5717312097549438,0.08516138046979904
1,1,32,14,0.35615140199661255,0.09390432387590408
1,1,32,15,0.6666726469993591,0.08432523161172867
1,1,32,16,0.4302555024623871,0.07828398048877716
1,1,32,17,0.5670183897018433,0.08044081181287766
1,1,32,18,0.4380355775356293,0.11272003501653671
1,1,32,19,0.3300018310546875,0.06281138211488724
1,1,32,20,0.6384557485580444,0.048501815646886826
1,1,32,21,0.6101046800613403,0.058190684765577316
1,1,32,22,0.34564152359962463,0.06725805997848511
1,1,32,23,0.5423036813735962,0.11361805349588394
1,1,32,24,0.46264997124671936,0.09958986192941666
1,1,32,25,0.563112199306488,0.07892971485853195
1,1,32,26,0.6459252834320068,0.12802539765834808
1,1,32,27,0.5416082739830017,0.06609971821308136
1,1,32,28,0.42587125301361084,0.11681298911571503
1,1,32,29,0.46054336428642273,0.09030098468065262
1,1,32,30,0.6628047823905945,0.04469418153166771
1,1,32,31,0.5970569252967834,0.11515740305185318
1,2,64,0,0.5151153802871704,0.121397465467453
1,2,64,1,0.5021835565567017,0.04033375531435013
1,2,64,2,0.4794481098651886,0.08816811442375183
1,2,64,3,0.4673542380332947,0.14215007424354553
1,2,64,4,0.48686498403549194,0.11686792224645615
1,2,64,5,0.5215288996696472,0.09781071543693542
1,2,64,6,0.33639800548553467,0.09109257906675339
1,2,64,7,0.4544503688812256,0.13230444490909576
1,2,64,8,0.6000226140022278,0.08212694525718689
1,2,64,9,0.5770889520645142,0.11510393023490906
1,2,64,10,0.4668408930301666,0.1148986741900444
1,2,64,11,0.47841453552246094,0.07285957038402557
1,2,64,12,0.46934694051742554,0.08023178577423096
1,2,64,13,0.5074198842048645,0.0920461043715477
1,2,64,14,0.4182446599006653,0.08054739236831665
1,2,64,15,0.48566216230392456,0.026508651673793793
1,2,64,16,0.5554184317588806,0.16382460296154022
1,2,64,17,0.4166717529296875,0.10414299368858337
1,2,64,18,0.5054495930671692,0.07170917093753815
1,2,64,19,0.41892901062965393,0.08959551900625229
1,2,64,20,0.47002482414245605,0.10176242887973785
1,2,64,21,0.5450047254562378,0.08182378113269806
1,2,64,22,0.5651142597198486,0.06813399493694305
1,2,64,23,0.35483863949775696,0.049554843455553055
1,2,64,24,0.4820047616958618,0.050352100282907486
1,2,64,25,0.45250266790390015,0.09746931493282318
1,2,64,26,0.5684225559234619,0.1330002248287201
1,2,64,27,0.33977633714675903,0.07167643308639526
1,2,64,28,0.5033430457115173,0.05900369584560394
1,2,64,29,0.4055045545101166,0.10476849228143692
1,2,64,30,0.4242623746395111,0.1580757200717926
1,2,64,31,0.4916839301586151,0.07385419309139252
1,2,64,32,0.5308278799057007,0.11169333755970001
1,2,64,33,0.6408929824829102,0.08068913221359253
1,2,64,34,0.4994930326938629,0.09604264795780182
1,2,64,35,0.40278589725494385,0.12705674767494202
1,2,64,36,0.5270616412162781,0.11618024110794067
1,2,64,37,0.5956962704658508,0.12289367616176605
1,2,64,38,0.4127260446548462,0.12588287889957428
1,2,64,39,0.5739127397537231,0.10008736699819565
1,2,64,40,0.4831734001636505,0.06588460505008698
1,2,64,41,0.48376989364624023,0.14901183545589447
1,2,64,42,0.5792233943939209,0.11193964630365372
1,2,64,43,0.31685957312583923,0.09121216088533401
1,2,64,44,0.5019346475601196,0.09755037724971771
1,2,64,45,0.6574348211288452,0.09489201754331589
1,2,64,46,0.45558202266693115,0.0695388913154602
1,2,64,47,0.5207272171974182,0.09425466507673264
1,2,64,48,0.4801640212535858,0.08988926559686661
1,2,64,49,0.4395279288291931,0.12466539442539215
1,2,64,50,0.4468062222003937,0.13820336759090424
1,2,64,51,0.4411410391330719,0.12420348823070526
1,2,64,52,0.3685300052165985,0.08686806261539459
1,2,64,53,0.5577247142791748,0.1113438755273819
1,2,64,54,0.6096908450126648,0.07441777735948563
1,2,64,55,0.40251433849334717,0.07637201249599457
1,2,64,56,0.495828241109848,0.04821695014834404
1,2,64,57,0.3206591010093689,0.07789238542318344
1,2,64,58,0.40145784616470337,0.07634096592664719
1,2,64,59,0.5671680569648743,0.11263581365346909
1,2,64,60,0.4963942766189575,0.1008945107460022
1,2,64,61,0.39965057373046875,0.049913667142391205
1,2,64,62,0.527797520160675,0.13432298600673676
1,2,64,63,0.44487491250038147,0.05438411235809326
1,3,64,0,0.5302510857582092,0.09379599988460541
1,3,64,1,0.6262820959091187,0.09925155341625214
1,3,64,2,0.5733729600906372,0.10189730674028397
1,3,64,3,0.5791333913803101,0.16128699481487274
1,3,64,4,0.5191884636878967,0.19106800854206085
1,3,64,5,0.5170891880989075,0.13382598757743835
1,3,64,6,0.6242850422859192,0.08305099606513977
1,3,64,7,0.4901720881462097,0.18267373740673065
1,3,64,8,0.44576337933540344,0.08219344168901443
1,3,64,9,0.6630446910858154,0.11014290899038315
1,3,64,10,0.5232958197593689,0.16879259049892426
1,3,64,11,0.5028740167617798,0.0905347615480423
1,3,64,12,0.3715808093547821,0.06599408388137817
1,3,64,13,0.640369713306427,0.09809375554323196
1,3,64,14,0.5831082463264465,0.07050638645887375
1,3,64,15,0.5407822728157043,0.15922196209430695
1,3,64,16,0.5364518761634827,0.09826432913541794
1,3,64,17,0.6332929730415344,0.11801257729530334
1,3,64,18,0.6248000860214233,0.08859770745038986
1,3,64,19,0.39900386333465576,0.1302730292081833
1,3,64,20,0.5313120484352112,0.16511081159114838
1,3,64,21,0.5269961357116699,0.06711249053478241
1,3,64,22,0.5630604028701782,0.10491183400154114
1,3,64,23,0.4102371633052826,0.1923060417175293
1,3,64,24,0.5534000992774963,0.184002086520195
1,3,64,25,0.44624850153923035,0.1511632204055786
1,3,64,26,0.4172835946083069,0.14664945006370544
1,3,64,27,0.6182110905647278,0.15006384253501892
1,3,64,28,0.6113844513893127,0.061087027192115784
1,3,64,29,0.5218159556388855,0.16197870671749115
1,3,64,30,0.4495599567890167,0.16327469050884247
1,3,64,31,0.6432399749755859,0.1298273652791977
1,3,64,32,0.6083834767341614,0.14002074301242828
1,3,64,33,0.6046903133392334,0.149764284491539
1,3,64,34,0.44240379333496094,0.18653801083564758
1,3,64,35,0.6183779835700989,0.10951552540063858
1,3,64,36,0.4917202889919281,0.15725237131118774
1,3,64,37,0.5037159323692322,0.19733713567256927
1,3,64,38,0.3996160328388214,0.1859017014503479
1,3,64,39,0.5306217074394226,0.1137080043554306
1,3,64,40,0.5783852934837341,0.11763832718133926
1,3,64,41,0.3574969470500946,0.14228489995002747
1,3,64,42,0.5868855714797974,0.18118207156658173
1,3,64,43,0.5300394892692566,0.18767768144607544
1,3,64,44,0.3938770592212677,0.1578902006149292
1,3,64,45,0.46684399247169495,0.10138916969299316
1,3,64,46,0.5558061003684998,0.10083301365375519
1,3,64,47,0.6179294586181641,0.10422608256340027
1,3,64,48,0.599104106426239,0.07665786892175674
1,3,64,49,0.43373948335647583,0.0693933442234993
1,3,64,50,0.5133205652236938,0.07015301287174225
1,3,64,51,0.5424953699111938,0.18484337627887726
1,3,64,52,0.4510660171508789,0.10836664587259293
1,3,64,53,0.41835856437683105,0.07197895646095276
1,3,64,54,0.3906114101409912,0.08009298145771027
1,3,64,55,0.48212042450904846,0.15562178194522858
1,3,64,56,0.3784767985343933,0.1127229705452919
1,3,64,57,0.6301034092903137,0.12203332036733627
1,3,64,58,0.4280437231063843,0.22158941626548767
1,3,64,59,0.2816840708255768,0.11975318938493729
1,3,64,60,0.5573435425758362,0.1271430253982544
1,3,64,61,0.39385896921157837,0.17261570692062378
1,3,64,62,0.36339378356933594,0.15454882383346558
1,3,64,63,0.3519760072231293,0.06899157166481018
1,4,128,0,0.5222228765487671,0.15968038141727448
1,4,128,1,0.3596087098121643,0.19308671355247498
1,4,128,2,0.6395865082740784,0.13460269570350647
1,4,128,3,0.46001705527305603,0.17099280655384064
1,4,128,4,0.5992739200592041,0.13380549848079681
1,4,128,5,0.4567582607269287,0.10566363483667374
1,4,128,6,0.6344298124313354,0.10337697714567184
1,4,128,7,0.6274624466896057,0.21171338856220245
1,4,128,8,0.34074339270591736,0.1456579566001892
1,4,128,9,0.5037434101104736,0.19827553629875183
1,4,128,10,0.5196607112884521,0.15384447574615479
1,4,128,11,0.742465078830719,0.0989409014582634
1,4,128,12,0.5290601253509521,0.18540218472480774
1,4,128,13,0.5911498069763184,0.21379663050174713
1,4,128,14,0.5603505969047546,0.24337519705295563
1,4,128,15,0.543333113193512,0.06737428903579712
1,4,128,16,0.536878764629364,0.11703111231327057
1,4,128,17,0.6151737570762634,0.2032652497291565
1,4,128,18,0.5516666173934937,0.2533853352069855
1,4,128,19,0.4906240999698639,0.06573694944381714
1,4,128,20,0.5559510588645935,0.24341845512390137
1,4,128,21,0.3473030626773834,0.24250617623329163
1,4,128,22,0.6074639558792114,0.05699000880122185
1,4,128,23,0.5093684196472168,0.08299455046653748
1,4,128,24,0.5709205269813538,0.18447048962116241
1,4,128,25,0.5763559341430664,0.20759005844593048
1,4,128,26,0.7435617446899414,0.082586869597435
1,4,128,27,0.5219364762306213,0.12234488129615784
1,4,128,28,0.6730555295944214,0.08232811838388443
1,4,128,29,0.614284336566925,0.19378170371055603
1,4,128,30,0.4887753129005432,0.24435460567474365
1,4,128,31,0.606045126914978,0.16703715920448303
1,4,128,32,0.5433764457702637,0.26350757479667664
1,4,128,33,0.49662238359451294,0.19225645065307617
1,4,128,34,0.5652436017990112,0.1964394748210907
1,4,128,35,0.5502321720123291,0.33162838220596313
1,4,128,36,0.5969178676605225,0.14431361854076385
1,4,128,37,0.43051809072494507,0.13150759041309357
1,4,128,38,0.5212686061859131,0.0862986221909523
1,4,128,39,0.3622719347476959,0.12386780232191086
1,4,128,40,0.46765100955963135,0.09227864444255829
1,4,128,41,0.4895850121974945,0.06497567147016525
1,4,128,42,0.46573418378829956,0.0675058513879776
1,4,128,43,0.6480718851089478,0.11810214817523956
1,4,128,44,0.5496968626976013,0.09593185782432556
1,4,128,45,0.3958929181098938,0.0922837182879448
1,4,128,46,0.5524474382400513,0.06633131951093674
1,4,128,47,0.6112377643585205,0.14533016085624695
1,4,128,48,0.5952252149581909,0.1635051816701889
1,4,128,49,0.6315922141075134,0.07964666932821274
1,4,128,50,0.4933575987815857,0.24809031188488007
1,4,128,51,0.6595847606658936,0.11820849031209946
1,4,128,52,0.3775826692581177,0.26695704460144043
1,4,128,53,0.6790816187858582,0.07913327217102051
1,4,128,54,0.36477065086364746,0.14601506292819977
1,4,128,55,0.6792055368423462,0.16235165297985077
1,4,128,56,0.44529783725738525,0.07315737009048462
1,4,128,57,0.615852952003479,0.23255231976509094
1,4,128,58,0.4811820387840271,0.2576714754104614
1,4,128,59,0.3886445462703705,0.22010406851768494
1,4,128,60,0.6391632556915283,0.11152029037475586
1,4,128,61,0.4170648455619812,0.14321009814739227
1,4,128,62,0.7099373936653137,0.11622433364391327
1,4,128,63,0.6248605251312256,0.09206268191337585
1,4,128,64,0.6911765336990356,0.08867185562849045
1,4,128,65,0.7183215618133545,0.0856134369969368
1,4,128,66,0.39326587319374084,0.13067945837974548
1,4,128,67,0.5981047749519348,0.15414170920848846
1,4,128,68,0.6114905476570129,0.12562355399131775
1,4,128,69,0.5162670016288757,0.2805529534816742
1,4,128,70,0.46112704277038574,0.1791408807039261
1,4,128,71,0.43307191133499146,0.20041672885417938
1,4,128,72,0.5794165134429932,0.1576586365699768
1,4,128,73,0.43724969029426575,0.0901792123913765
1,4,128,74,0.5601286888122559,0.05097849294543266
1,4,128,75,0.6114591956138611,0.2707314193248749
1,4,128,76,0.5559222102165222,0.3092329204082489
1,4,128,77,0.3635224401950836,0.18480199575424194
1,4,128,78,0.5210414528846741,0.08526847511529922
1,4,128,79,0.7458001971244812,0.1318764090538025
1,4,128,80,0.7022233009338379,0.11935488879680634
1,4,128,81,0.6847842931747437,0.08789317309856415
1,4,128,82,0.552940845489502,0.14538529515266418
1,4,128,83,0.6996836066246033,0.13437649607658386
1,4,128,84,0.4549254775047302,0.043257176876068115
1,4,128,85,0.6224148869514465,0.1562018245458603
1,4,128,86,0.5985336899757385,0.25183162093162537
1,4,128,87,0.49663588404655457,0.15161210298538208
1,4,128,88,0.6584224104881287,0.21594569087028503
1,4,128,89,0.6781836748123169,0.1481950283050537
1,4,128,90,0.5463658571243286,0.13730834424495697
1,4,128,91,0.43842512369155884,0.16831311583518982
1,4,128,92,0.4236682057380676,0.05681733042001724
1,4,128,93,0.5506020784378052,0.20529048144817352
1,4,128,94,0.5200684070587158,0.20697236061096191
1,4,128,95,0.46000975370407104,0.13642169535160065
1,4,128,96,0.5771242380142212,0.16265225410461426
1,4,128,97,0.6053638458251953,0.24402976036071777
1,4,128,98,0.6497777700424194,0.14808432757854462
1,4,128,99,0.6027039885520935,0.24516306817531586
1,4,128,100,0.500281035900116,0.21854834258556366
1,4,128,101,0.4801599383354187,0.26381784677505493
1,4,128,102,0.6032162308692932,0.15544059872627258
1,4,128,103,0.7107718586921692,0.08909555524587631
1,4,128,104,0.42392241954803467,0.0957576334476471
1,4,128,105,0.47444525361061096,0.08797264099121094
1,4,128,106,0.5236933827400208,0.25142061710357666
1,4,128,107,0.5308643579483032,0.15809990465641022
1,4,128,108,0.680366039276123,0.11829528957605362
1,4,128,109,0.680383026599884,0.15941724181175232
1,4,128,110,0.3831140995025635,0.12852080166339874
1,4,128,111,0.4869309067726135,0.2538587749004364
1,4,128,112,0.662200391292572,0.1277085840702057
1,4,128,113,0.38192033767700195,0.09224767982959747
1,4,128,114,0.5604192018508911,0.2876039445400238
1,4,128,115,0.405203253030777,0.12768444418907166
1,4,128,116,0.4697696268558502,0.14250926673412323
1,4,128,117,0.33223453164100647,0.08041178435087204
1,4,128,118,0.5790237784385681,0.08248432725667953
1,4,128,119,0.7366321682929993,0.10677018016576767
1,4,128,120,0.4789380431175232,0.2907305359840393
1,4,128,121,0.7325800657272339,0.11611166596412659
1,4,128,122,0.6104958057403564,0.10358477383852005
1,4,128,123,0.5421701073646545,0.18577194213867188
1,4,128,124,0.4573998749256134,0.0799078568816185
1,4,128,125,0.36542633175849915,0.1204221323132515
1,4,128,126,0.45764607191085815,0.10474875569343567
1,4,128,127,0.6693350672721863,0.11797765642404556
1,5,128,0,0.6763873100280762,0.23935557901859283
1,5,128,1,0.7127984166145325,0.08758348226547241
1,5,128,2,0.7507127523422241,0.1640406996011734
1,5,128,3,0.7626258730888367,0.13761627674102783
1,5,128,4,0.5543785095214844,0.18346290290355682
1,5,128,5,0.6462004780769348,0.08250772953033447
1,5,128,6,0.8097273707389832,0.09860546886920929
1,5,128,7,0.6431082487106323,0.27304500341415405
1,5,128,8,0.5695174336433411,0.15246471762657166
1,5,128,9,0.754046618938446,0.08788032829761505
1,5,128,10,0.6803078055381775,0.20094189047813416
1,5,128,11,0.6905378103256226,0.22799742221832275
1,5,128,12,0.3974855840206146,0.18036699295043945
1,5,128,13,0.7751103043556213,0.0889524593949318
1,5,128,14,0.6738511323928833,0.17998270690441132
1,5,128,15,0.4367206394672394,0.16355183720588684
1,5,128,16,0.639761745929718,0.10099431127309799
1,5,128,17,0.6252343654632568,0.09032883495092392
1,5,128,18,0.7701595425605774,0.1284099817276001
1,5,128,19,0.5345592498779297,0.0750257596373558
1,5,128,20,0.41279882192611694,0.09662863612174988
1,5,128,21,0.2952839136123657,0.07189719378948212
1,5,128,22,0.7354039549827576,0.17854514718055725
1,5,128,23,0.42437151074409485,0.15408648550510406
1,5,128,24,0.7132216095924377,0.08314404636621475
1,5,128,25,0.6187503933906555,0.23105822503566742
1,5,128,26,0.746558427810669,0.0909331738948822
1,5,128,27,0.722419261932373,0.12670505046844482
1,5,128,28,0.6115620136260986,0.2528092861175537
1,5,128,29,0.6306358575820923,0.2757582664489746
1,5,128,30,0.6796364188194275,0.18469922244548798
1,5,128,31,0.5955955982208252,0.12685701251029968
1,5,128,32,0.7827337384223938,0.12743927538394928
1,5,128,33,0.6877163052558899,0.23588719964027405
1,5,128,34,0.6976602077484131,0.12399350106716156
1,5,128,35,0.7942361831665039,0.10404517501592636
1,5,128,36,0.6139448881149292,0.22166073322296143
1,5,128,37,0.7218596935272217,0.13040074706077576
1,5,128,38,0.3544943332672119,0.24825261533260345
1,5,128,39,0.3171165883541107,0.2621452808380127
1,5,128,40,0.7680571675300598,0.09633106738328934
1,5,128,41,0.5339875817298889,0.05895667150616646
1,5,128,42,0.6884734630584717,0.14675964415073395
1,5,128,43,0.4740672707557678,0.21445472538471222
1,5,128,44,0.43326690793037415,0.11862640082836151
1,5,128,45,0.6302655339241028,0.11292088776826859
1,5,128,46,0.6824230551719666,0.15497194230556488
1,5,128,47,0.7832988500595093,0.11607255041599274
1,5,128,48,0.6231135129928589,0.28085142374038696
1,5,128,49,0.7564672231674194,0.09311025589704514
1,5,128,50,0.5883057713508606,0.2440725564956665
1,5,128,51,0.8276234865188599,0.07568131387233734
1,5,128,52,0.4251560866832733,0.1571517288684845
1,5,128,53,0.6324298977851868,0.16594305634498596
1,5,128,54,0.6571003198623657,0.1085393875837326
1,5,128,55,0.617194652557373,0.1335725486278534
1,5,128,56,0.5790069699287415,0.1715463101863861
1,5,128,57,0.6436484456062317,0.27626609802246094
1,5,128,58,0.4056786894798279,0.22106848657131195
1,5,128,59,0.7952218651771545,0.10429415851831436
1,5,128,60,0.8385033011436462,0.09254319965839386
1,5,128,61,0.5099995136260986,0.0534621886909008
1,5,128,62,0.7632715106010437,0.08933079242706299
1,5,128,63,0.7963728904724121,0.08552689850330353
1,5,128,64,0.6681389212608337,0.14575138688087463
1,5,128,65,0.6366547346115112,0.2843703627586365
1,5,128,66,0.3874828517436981,0.25723445415496826
1,5,128,67,0.667259693145752,0.25946348905563354
1,5,128,68,0.6263962388038635,0.17728731036186218
1,5,128,69,0.6100515723228455,0.21568739414215088
1,5,128,70,0.692962646484375,0.16497206687927246
1,5,128,71,0.5935393571853638,0.16813041269779205
1,5,128,72,0.6595987677574158,0.09623552113771439
1,5,128,73,0.38505393266677856,0.15600918233394623
1,5,128,74,0.7023136615753174,0.15264470875263214
1,5,128,75,0.6320517063140869,0.17421558499336243
1,5,128,76,0.5482451915740967,0.07078961282968521
1,5,128,77,0.6465815305709839,0.1637004017829895
1,5,128,78,0.46280544996261597,0.2361675500869751
1,5,128,79,0.4151194393634796,0.070151686668396
1,5,128,80,0.6218445301055908,0.09062167257070541
1,5,128,81,0.7216899394989014,0.12861455976963043
1,5,128,82,0.6360448598861694,0.09165116399526596
1,5,128,83,0.5884771347045898,0.20363177359104156
1,5,128,84,0.3597853481769562,0.08649389445781708
1,5,128,85,0.75931316614151,0.14139670133590698
1,5,128,86,0.6085183620452881,0.2577008306980133
1,5,128,87,0.36027926206588745,0.2697388529777527
1,5,128,88,0.5982428193092346,0.20153971016407013
1,5,128,89,0.4224262535572052,0.10932080447673798
1,5,128,90,0.5167438983917236,0.19332700967788696
1,5,128,91,0.5360954999923706,0.11066658794879913
1,5,128,92,0.6475452184677124,0.2821565568447113
1,5,128,93,0.7168834209442139,0.08267319947481155
1,5,128,94,0.6550914645195007,0.07604437321424484
1,5,128,95,0.4070626199245453,0.23016205430030823
1,5,128,96,0.7644156217575073,0.0972013771533966
1,5,128,97,0.7121444940567017,0.11599808931350708
1,5,128,98,0.6466512680053711,0.17920684814453125
1,5,128,99,0.6879926919937134,0.08854328095912933
1,5,128,100,0.6413567066192627,0.24043573439121246
1,5,128,101,0.41548222303390503,0.24477365612983704
1,5,128,102,0.5904995799064636,0.09488146007061005
1,5,128,103,0.3668026030063629,0.19572310149669647
1,5,128,104,0.8351921439170837,0.09348344057798386
1,5,128,105,0.6877886652946472,0.21132658421993256
1,5,128,106,0.40348294377326965,0.139761283993721
1,5,128,107,0.5203220844268799,0.10146920382976532
1,5,128,108,0.6214801073074341,0.06430648267269135
1,5,128,109,0.6180803179740906,0.28632596135139465
1,5,128,110,0.3635340631008148,0.22271673381328583
1,5,128,111,0.600888729095459,0.11400914937257767
1,5,128,112,0.6023933291435242,0.07352758198976517
1,5,128,113,0.39544788002967834,0.18783441185951233
1,5,128,114,0.6218205094337463,0.15215080976486206
1,5,128,115,0.6013959646224976,0.10157373547554016
1,5,128,116,0.5526817440986633,0.048090726137161255
1,5,128,117,0.3517824411392212,0.09310410171747208
1,5,128,118,0.6245599985122681,0.30407094955444336
1,5,128,119,0.35401299595832825,0.14514783024787903
1,5,128,120,0.7839687466621399,0.1364484280347824
1,5,128,121,0.501613438129425,0.20569488406181335
1,5,128,122,0.5312951803207397,0.17992369830608368
1,5,128,123,0.4933413863182068,0.1426457315683365
1,5,128,124,0.675460159778595,0.24409876763820648
1,5,128,125,0.7540214657783508,0.15775392949581146
1,5,128,126,0.542400062084198,0.159001424908638
1,5,128,127,0.8025685548782349,0.1188763976097107
2,0,32,0,0.5134648680686951,0.07542474567890167
2,0,32,1,0.4446134865283966,0.12258174270391464
2,0,32,2,0.5320566892623901,0.03417942672967911
2,0,32,3,0.34064731001853943,0.06766552478075027
2,0,32,4,0.32407286763191223,0.07220080494880676
2,0,32,5,0.3536142110824585,0.07713522762060165
2,0,32,6,0.4311901926994324,0.12062162905931473
2,0,32,7,0.5513248443603516,0.07595543563365936
2,0,32,8,0.5932461619377136,0.018006475642323494
2,0,32,9,0.5863985419273376,0.030789237469434738
2,0,32,10,0.4780693054199219,0.0393715538084507
2,0,32,11,0.5940048098564148,0.04034598916769028
2,0,32,12,0.5929636359214783,0.09926930069923401
2,0,32,13,0.4986867308616638,0.10533330589532852
2,0,32,14,0.48658040165901184,0.030111365020275116
2,0,32,15,0.3971078097820282,0.054718293249607086
2,0,32,16,0.4414219558238983,0.11128535121679306
2,0,32,17,0.49297311902046204,0.13966475427150726
2,0,32,18,0.4246518015861511,0.10381869971752167
2,0,32,19,0.335085391998291,0.05214790254831314
2,0,32,20,0.4665714502334595,0.07864449173212051
2,0,32,21,0.4890820384025574,0.05101550742983818
2,0,32,22,0.41987207531929016,0.0528530590236187
2,0,32,23,0.5370804071426392,0.10452663898468018
2,0,32,24,0.643161952495575,0.03965245187282562
2,0,32,25,0.5533912777900696,0.06976865231990814
2,0,32,26,0.41663897037506104,0.03871939331293106
2,0,32,27,0.4160324037075043,0.04148175194859505
2,0,32,28,0.6143450140953064,0.05082214996218681
2,0,32,29,0.5015028119087219,0.06675546616315842
2,0,32,30,0.313058078289032,0.09182213246822357
2,0,32,31,0.40779390931129456,0.06304346024990082
2,1,32,0,0.4586975574493408,0.04915622994303703
2,1,32,1,0.5067482590675354,0.038145001977682114
2,1,32,2,0.46740081906318665,0.07810500264167786
2,1,32,3,0.4865866005420685,0.11197836697101593
2,1,32,4,0.5684553980827332,0.07399073243141174
2,1,32,5,0.3817973732948303,0.06654775887727737
2,1,32,6,0.5716261267662048,0.03386028856039047
2,1,32,7,0.5635242462158203,0.053614433854818344
2,1,32,8,0.6246619820594788,0.03262849152088165
2,1,32,9,0.4200930893421173,0.0542987696826458
2,1,32,10,0.4776536524295807,0.06543556600809097
2,1,32,11,0.6492077708244324,0.04192047193646431
2,1,32,12,0.46069344878196716,0.08604688942432404
2,1,32,13,0.5739390850067139,0.09157250821590424
2,1,32,14,0.48857489228248596,0.07573213428258896
2,1,32,15,0.6503627300262451,0.04462786763906479
2,1,32,16,0.4969817101955414,0.042132820934057236
2,1,32,17,0.36753323674201965,0.08184683322906494
2,1,32,18,0.5366553068161011,0.08578962832689285
2,1,32,19,0.4688752293586731,0.04623840004205704
2,1,32,20,0.6369752287864685,0.13561180233955383
2,1,32,21,0.590497612953186,0.06610901653766632
2,1,32,22,0.3930319845676422,0.026268962770700455
2,1,32,23,0.4950372278690338,0.07663880288600922
2,1,32,24,0.36798539757728577,0.06776971369981766
2,1,32,25,0.5736201405525208,0.07967919856309891
2,1,32,26,0.4070174992084503,0.048201724886894226
2,1,32,27,0.4867180287837982,0.08429467678070068
2,1,32,28,0.5504578351974487,0.0386408194899559
2,1,32,29,0.5220657587051392,0.11060705780982971
2,1,32,30,0.4329334497451782,0.10119467973709106
2,1,32,31,0.5802813768386841,0.07683514803647995
2,2,64,0,0.5362278819084167,0.21482160687446594
2,2,64,1,0.4047297537326813,0.09643317759037018
2,2,64,2,0.5252742171287537,0.1755634993314743
2,2,64,3,0.5486541986465454,0.11725495010614395
2,2,64,4,0.5237780809402466,0.08040299266576767
2,2,64,5,0.5085415840148926,0.08506137132644653
2,2,64,6,0.4879114329814911,0.13766644895076752
2,2,64,7,0.321368008852005,0.08895158022642136
2,2,64,8,0.5794214606285095,0.1484650820493698
2,2,64,9,0.4979786276817322,0.09706375747919083
2,2,64,10,0.4600328505039215,0.24237383902072906
2,2,64,11,0.34498119354248047,0.1403808891773224
2,2,64,12,0.6087625622749329,0.14393369853496552
2,2,64,13,0.33111047744750977,0.15434913337230682
2,2,64,14,0.4854336082935333,0.07989012449979782
2,2,64,15,0.3609921336174011,0.08131606876850128
2,2,64,16,0.4782181680202484,0.043554238975048065
2,2,64,17,0.46258342266082764,0.20853088796138763
2,2,64,18,0.6120617389678955,0.17995019257068634
2,2,64,19,0.3785581588745117,0.06741881370544434
2,2,64,20,0.5419014692306519,0.14754335582256317
2,2,64,21,0.4745713174343109,0.10736693441867828
2,2,64,22,0.5148441791534424,0.10073904693126678
2,2,64,23,0.4238358438014984,0.12610267102718353
2,2,64,24,0.29843899607658386,0.09541313350200653
2,2,64,25,0.5160696506500244,0.0716179683804512
2,2,64,26,0.5581918358802795,0.06276247650384903
2,2,64,27,0.5615636706352234,0.12202030420303345
2,2,64,28,0.4721921384334564,0.1120501309633255
2,2,64,29,0.3518730700016022,0.12076263129711151
2,2,64,30,0.4364107847213745,0.05373433232307434
2,2,64,31,0.5644223093986511,0.05787011981010437
2,2,64,32,0.48612654209136963,0.15598826110363007
2,2,64,33,0.4633098244667053,0.12020765990018845
2,2,64,34,0.5752912163734436,0.06734220683574677
2,2,64,35,0.5899564623832703,0.0839175283908844
2,2,64,36,0.5561826229095459,0.14327843487262726
2,2,64,37,0.4804367125034332,0.10918596386909485
2,2,64,38,0.504289984703064,0.10664422065019608
2,2,64,39,0.40631377696990967,0.0989602655172348
2,2,64,40,0.5962947607040405,0.1485413908958435
2,2,64,41,0.4701045751571655,0.04904523119330406
2,2,64,42,0.5776225924491882,0.09240773320198059
2,2,64,43,0.5472407341003418,0.13701346516609192
2,2,64,44,0.5312716960906982,0.13902133703231812
2,2,64,45,0.44404083490371704,0.1825571209192276
2,2,64,46,0.5646218061447144,0.21336007118225098
2,2,64,47,0.5554787516593933,0.11546994745731354
2,2,64,48,0.4866107106208801,0.12901674211025238
2,2,64,49,0.5130438208580017,0.05415138602256775
2,2,64,50,0.5716218948364258,0.09280285984277725
2,2,64,51,0.5431774854660034,0.10352856665849686
2,2,64,52,0.47077280282974243,0.09816279262304306
2,2,64,53,0.4840067923069,0.09161195158958435
2,2,64,54,0.6398070454597473,0.09983985871076584
2,2,64,55,0.54100102186203,0.14531300961971283
2,2,64,56,0.4478451609611511,0.07916165888309479
2,2,64,57,0.4413321018218994,0.07427624613046646
2,2,64,58,0.5003966689109802,0.0970219299197197
2,2,64,59,0.6102831959724426,0.12626446783542633
2,2,64,60,0.48060983419418335,0.10691016167402267
2,2,64,61,0.505420982837677,0.24435991048812866
2,2,64,62,0.4779164493083954,0.032995641231536865
2,2,64,63,0.49674326181411743,0.10179514437913895
2,3,64,0,0.5244731307029724,0.0717320516705513
2,3,64,1,0.5668052434921265,0.13776861131191254
2,3,64,2,0.7660772204399109,0.15958821773529053
2,3,64,3,0.5301434993743896,0.21380022168159485
2,3,64,4,0.32692208886146545,0.08473759889602661
2,3,64,5,0.44548630714416504,0.035554248839616776
2,3,64,6,0.30101463198661804,0.058176252990961075
2,3,64,7,0.2124093621969223,0.10819900780916214
2,3,64,8,0.5852680206298828,0.019786696881055832
2,3,64,9,0.3886268734931946,0.195232093334198
2,3,64,10,0.4131494164466858,0.18715523183345795
2,3,64,11,0.6788187026977539,0.22080621123313904
2,3,64,12,0.4906160533428192,0.11950986832380295
2,3,64,13,0.5341240167617798,0.1104227602481842
2,3,64,14,0.5984960198402405,0.26406121253967285
2,3,64,15,0.5966981053352356,0.08502820879220963
2,3,64,16,0.4502309560775757,0.05851547420024872
2,3,64,17,0.5706220865249634,0.11935891956090927
2,3,64,18,0.7299220561981201,0.15082748234272003
2,3,64,19,0.3702510595321655,0.27706217765808105
2,3,64,20,0.581908643245697,0.13376082479953766
2,3,64,21,0.44162505865097046,0.06486400961875916
2,3,64,22,0.478099524974823,0.08144021034240723
2,3,64,23,0.7215161919593811,0.09030111879110336
2,3,64,24,0.6696478128433228,0.2839969992637634
2,3,64,25,0.6925283074378967,0.167847141623497
2,3,64,26,0.6241594552993774,0.10233239084482193
2,3,64,27,0.7866711020469666,0.11039558798074722
2,3,64,28,0.5996954441070557,0.08988554775714874
2,3,64,29,0.6694532036781311,0.08691436797380447
2,3,64,30,0.27468135952949524,0.23624581098556519
2,3,64,31,0.4655923545360565,0.13292455673217773
2,3,64,32,0.6053342223167419,0.2413264513015747
2,3,64,33,0.6250407099723816,0.21936064958572388
2,3,64,34,0.5713533759117126,0.1543014794588089
2,3,64,35,0.3884216845035553,0.10492606461048126
2,3,64,36,0.6168565154075623,0.11781609803438187
2,3,64,37,0.5979846119880676,0.15302008390426636
2,3,64,38,0.5502778887748718,0.040046870708465576
2,3,64,39,0.6655028462409973,0.20282693207263947
2,3,64,40,0.642800509929657,0.3138466775417328
2,3,64,41,0.6816515922546387,0.07891390472650528
2,3,64,42,0.2933228313922882,0.13222558796405792
2,3,64,43,0.4169079661369324,0.14012685418128967
2,3,64,44,0.6457418203353882,0.23858776688575745
2,3,64,45,0.38535717129707336,0.10444747656583786
2,3,64,46,0.45853596925735474,0.10149624198675156
2,3,64,47,0.3863936960697174,0.16489802300930023
2,3,64,48,0.49543049931526184,0.14484164118766785
2,3,64,49,0.4551398754119873,0.09979218244552612
2,3,64,50,0.5276996493339539,0.07086724787950516
2,3,64,51,0.4084004759788513,0.11696651577949524
2,3,64,52,0.29371851682662964,0.20076008141040802
2,3,64,53,0.5934023857116699,0.2942362427711487
2,3,64,54,0.28311043977737427,0.24721257388591766
2,3,64,55,0.4899817407131195,0.09810715913772583
2,3,64,56,0.45478516817092896,0.16263742744922638
2,3,64,57,0.3938828408718109,0.09090234339237213
2,3,64,58,0.6704471111297607,0.2580670118331909
2,3,64,59,0.6401079297065735,0.054376598447561264
2,3,64,60,0.5612026453018188,0.029487285763025284
2,3,64,61,0.3222619295120239,0.15119905769824982
2,3,64,62,0.5611804127693176,0.049006663262844086
2,3,64,63,0.5532003045082092,0.11732132732868195
2,4,128,0,0.6215333342552185,0.048121802508831024
2,4,128,1,0.47428151965141296,0.05584295466542244
2,4,128,2,0.2459513396024704,0.1384633183479309
2,4,128,3,0.33201777935028076,0.0840974748134613
2,4,128,4,0.5738001465797424,0.04892272129654884
2,4,128,5,0.6667812466621399,0.1074240431189537
2,4,128,6,0.5761298537254333,0.1462971419095993
2,4,128,7,0.7368110418319702,0.13868235051631927
2,4,128,8,0.25063830614089966,0.16079697012901306
2,4,128,9,0.40538501739501953,0.3468591272830963
2,4,128,10,0.476767897605896,0.2499864399433136
2,4,128,11,0.521029531955719,0.1599728763103485
2,4,128,12,0.6878403425216675,0.10875926911830902
2,4,128,13,0.6536990404129028,0.18517369031906128
2,4,128,14,0.6649872064590454,0.2696237564086914
2,4,128,15,0.7465221881866455,0.17941822111606598
2,4,128,16,0.6417436599731445,0.2796144485473633
2,4,128,17,0.6505674719810486,0.24283140897750854
2,4,128,18,0.5970051288604736,0.12849825620651245
2,4,128,19,0.6394554376602173,0.3484298884868622
2,4,128,20,0.6543471217155457,0.23377321660518646
2,4,128,21,0.6333643794059753,0.08453774452209473
2,4,128,22,0.5343536734580994,0.17307178676128387
2,4,128,23,0.6055365800857544,0.24637426435947418
2,4,128,24,0.47955480217933655,0.25001540780067444
2,4,128,25,0.6759657859802246,0.19361449778079987
2,4,128,26,0.5920171141624451,0.32338520884513855
2,4,128,27,0.5341049432754517,0.21363042294979095
2,4,128,28,0.28736603260040283,0.16193334758281708
2,4,128,29,0.6980276107788086,0.11245884001255035
2,4,128,30,0.6330472826957703,0.16644398868083954
2,4,128,31,0.5916662216186523,0.3039320111274719
2,4,128,32,0.3879483938217163,0.17630426585674286
2,4,128,33,0.32355964183807373,0.16568785905838013
2,4,128,34,0.7946426868438721,0.11216440051794052
2,4,128,35,0.6999492645263672,0.23458531498908997
2,4,128,36,0.6517788171768188,0.1582527756690979
2,4,128,37,0.5616744160652161,0.14314474165439606
2,4,128,38,0.6487789750099182,0.26855698227882385
2,4,128,39,0.5665284991264343,0.11681593209505081
2,4,128,40,0.606052577495575,0.2230554074048996
2,4,128,41,0.48481878638267517,0.1325756162405014
2,4,128,42,0.37488117814064026,0.20065003633499146
2,4,128,43,0.6309652924537659,0.3361624777317047
2,4,128,44,0.3787039518356323,0.335850328207016
2,4,128,45,0.5350918173789978,0.15190665423870087
2,4,128,46,0.3367672860622406,0.23843131959438324
2,4,128,47,0.6638947129249573,0.08902860432863235
2,4,128,48,0.6250520944595337,0.10958604514598846
2,4,128,49,0.3284526765346527,0.23745276033878326
2,4,128,50,0.46142715215682983,0.13635317981243134
2,4,128,51,0.4165821373462677,0.17990249395370483
2,4,128,52,0.7044121026992798,0.212022066116333
2,4,128,53,0.6193771362304688,0.20910361409187317
2,4,128,54,0.3934969902038574,0.1282854676246643
2,4,128,55,0.6620807647705078,0.21980290114879608
2,4,128,56,0.6346192359924316,0.07546691596508026
2,4,128,57,0.7061004638671875,0.14820517599582672
2,4,128,58,0.673273503780365,0.14439329504966736
2,4,128,59,0.4935261011123657,0.2837218940258026
2,4,128,60,0.6206138134002686,0.3613300621509552
2,4,128,61,0.22886888682842255,0.1085130125284195
2,4,128,62,0.5769455432891846,0.2565627098083496
2,4,128,63,0.4910426735877991,0.17636287212371826
2,4,128,64,0.2974950671195984,0.23992474377155304
2,4,128,65,0.44147369265556335,0.1845814287662506
2,4,128,66,0.7467374205589294,0.09288190305233002
2,4,128,67,0.5858769416809082,0.08483219146728516
2,4,128,68,0.5399572849273682,0.1007215678691864
2,4,128,69,0.6499249339103699,0.09307370334863663
2,4,128,70,0.45728641748428345,0.235565647482872
2,4,128,71,0.5076189041137695,0.19069664180278778
2,4,128,72,0.5127508640289307,0.1987784057855606
2,4,128,73,0.7447953224182129,0.07666096091270447
2,4,128,74,0.6647590398788452,0.09031317383050919
2,4,128,75,0.5905008912086487,0.2663191854953766
2,4,128,76,0.40386685729026794,0.27893248200416565
2,4,128,77,0.3842564523220062,0.11397384107112885
2,4,128,78,0.7441779971122742,0.08952230215072632
2,4,128,79,0.49559128284454346,0.05857009068131447
2,4,128,80,0.52484130859375,0.2736299932003021
2,4,128,81,0.5766271948814392,0.03991900756955147
2,4,128,82,0.676845908164978,0.15908938646316528
2,4,128,83,0.7128944396972656,0.07160130888223648
2,4,128,84,0.6208478808403015,0.21568620204925537
2,4,128,85,0.6299784183502197,0.3862449824810028
2,4,128,86,0.6827650666236877,0.11498236656188965
2,4,128,87,0.5502682328224182,0.06050317734479904
2,4,128,88,0.5284454226493835,0.14955145120620728
2,4,128,89,0.5918142795562744,0.2755541503429413
2,4,128,90,0.32756727933883667,0.08913791179656982
2,4,128,91,0.7008694410324097,0.137656569480896
2,4,128,92,0.37347662448883057,0.29516586661338806
2,4,128,93,0.5953177213668823,0.17317096889019012
2,4,128,94,0.3942144215106964,0.27712053060531616
2,4,128,95,0.5556506514549255,0.1338958591222763
2,4,128,96,0.5335370302200317,0.263355016708374
2,4,128,97,0.6979718804359436,0.15714412927627563
2,4,128,98,0.6116735339164734,0.30029618740081787
2,4,128,99,0.3773261606693268,0.17892087996006012
2,4,128,100,0.5366122126579285,0.08808301389217377
2,4,128,101,0.6746792793273926,0.21664227545261383
2,4,128,102,0.6843146085739136,0.1965125948190689
2,4,128,103,0.4008379578590393,0.19260439276695251
2,4,128,104,0.39955586194992065,0.14665712416172028
2,4,128,105,0.6897852420806885,0.09662862867116928
2,4,128,106,0.4174475371837616,0.29229649901390076
2,4,128,107,0.6513208150863647,0.3028848171234131
2,4,128,108,0.3343457579612732,0.08835402876138687
2,4,128,109,0.4736289083957672,0.1101556196808815
2,4,128,110,0.5991490483283997,0.34456807374954224
2,4,128,111,0.5321053862571716,0.15867382287979126
2,4,128,112,0.5758087038993835,0.17049351334571838
2,4,128,113,0.4353811740875244,0.2718179523944855
2,4,128,114,0.6996513605117798,0.07409784197807312
2,4,128,115,0.33573436737060547,0.25179946422576904
2,4,128,116,0.5887228846549988,0.1149749606847763
2,4,128,117,0.6438709497451782,0.33346816897392273
2,4,128,118,0.31929871439933777,0.10876169800758362
2,4,128,119,0.35781610012054443,0.06322219222784042
2,4,128,120,0.6518687009811401,0.04997512325644493
2,4,128,121,0.6163932085037231,0.27804845571517944
2,4,128,122,0.6362703442573547,0.2160339653491974
2,4,128,123,0.3621905446052551,0.24372568726539612
2,4,128,124,0.753273069858551,0.09552988409996033
2,4,128,125,0.6742842793464661,0.2733340859413147
2,4,128,126,0.6072062253952026,0.2988491952419281
2,4,128,127,0.6239532828330994,0.19309717416763306
2,5,128,0,0.5747843384742737,0.08617822825908661
2,5,128,1,0.3539260923862457,0.11362425237894058
2,5,128,2,0.7531442046165466,0.15969616174697876
2,5,128,3,0.28965073823928833,0.3021267354488373
2,5,128,4,0.6236570477485657,0.09507980197668076
2,5,128,5,0.6725109219551086,0.21033021807670593
2,5,128,6,0.6215478777885437,0.09547825902700424
2,5,128,7,0.6255022287368774,0.03270939737558365
2,5,128,8,0.4053865969181061,0.16141144931316376
2,5,128,9,0.6729808449745178,0.08924827724695206
2,5,128,10,0.6621020436286926,0.12585029006004333
2,5,128,11,0.38784059882164,0.09400440752506256
2,5,128,12,0.7560120820999146,0.15616720914840698
2,5,128,13,0.752284824848175,0.13236740231513977
2,5,128,14,0.8116491436958313,0.11262994259595871
2,5,128,15,0.6162801384925842,0.10540879517793655
2,5,128,16,0.685599684715271,0.15756039321422577
2,5,128,17,0.7627931833267212,0.1462993025779724
2,5,128,18,0.4638628661632538,0.21962037682533264
2,5,128,19,0.5050584673881531,0.061005301773548126
2,5,128,20,0.763659656047821,0.12306317687034607
2,5,128,21,0.713711678981781,0.2016439437866211
2,5,128,22,0.42759761214256287,0.056932080537080765
2,5,128,23,0.5183767080307007,0.15681619942188263
2,5,128,24,0.8092325925827026,0.10503873974084854
2,5,128,25,0.7068556547164917,0.2883317470550537
2,5,128,26,0.6859214901924133,0.2266341596841812
2,5,128,27,0.7812070846557617,0.1849457025527954
2,5,128,28,0.5577848553657532,0.07837651669979095
2,5,128,29,0.5390926599502563,0.13375303149223328
2,5,128,30,0.728213369846344,0.18504482507705688
2,5,128,31,0.5628892779350281,0.21966862678527832
2,5,128,32,0.6631415486335754,0.09192272275686264
2,5,128,33,0.44760972261428833,0.08805648237466812
2,5,128,34,0.67850261926651,0.21149371564388275
2,5,128,35,0.6612528562545776,0.24706119298934937
2,5,128,36,0.7610329985618591,0.12292315065860748
2,5,128,37,0.7524211406707764,0.0834885984659195
2,5,128,38,0.8102890849113464,0.08576558530330658
2,5,128,39,0.5708790421485901,0.0990043431520462
2,5,128,40,0.650656521320343,0.28575795888900757
2,5,128,41,0.6112092733383179,0.20828498899936676
2,5,128,42,0.7503361701965332,0.1066381111741066
2,5,128,43,0.5739332437515259,0.09477555751800537
2,5,128,44,0.6371541023254395,0.08793183416128159
2,5,128,45,0.7635875344276428,0.06573788076639175
2,5,128,46,0.5713605880737305,0.08376068621873856
2,5,128,47,0.6239044070243835,0.3207426071166992
2,5,128,48,0.46254968643188477,0.164192795753479
2,5,128,49,0.48287633061408997,0.18549951910972595
2,5,128,50,0.7896448969841003,0.09870550036430359
2,5,128,51,0.47540342807769775,0.18017348647117615
2,5,128,52,0.7040481567382812,0.23346327245235443
2,5,128,53,0.7225086688995361,0.26169756054878235
2,5,128,54,0.7225027084350586,0.14401812851428986
2,5,128,55,0.6773797869682312,0.2177092432975769
2,5,128,56,0.5835816860198975,0.08864202350378036
2,5,128,57,0.650829553604126,0.36406439542770386
2,5,128,58,0.8313958048820496,0.10855377465486526
2,5,128,59,0.7644699811935425,0.09148131310939789
2,5,128,60,0.7275302410125732,0.26370736956596375
2,5,128,61,0.44962477684020996,0.10445260256528854
2,5,128,62,0.7327450513839722,0.10336245596408844
2,5,128,63,0.6746477484703064,0.09289318323135376
2,5,128,64,0.7042521834373474,0.18385790288448334
2,5,128,65,0.5887157917022705,0.08119125664234161
2,5,128,66,0.6938887238502502,0.058334581553936005
2,5,128,67,0.6910234093666077,0.08204906433820724
2,5,128,68,0.601604700088501,0.18148398399353027
2,5,128,69,0.6242298483848572,0.22015897929668427
2,5,128,70,0.5352864265441895,0.1540914624929428
2,5,128,71,0.30713212490081787,0.19564314186573029
2,5,128,72,0.630165159702301,0.14290659129619598
2,5,128,73,0.7002976536750793,0.2717718482017517
2,5,128,74,0.5712843537330627,0.2545071840286255
2,5,128,75,0.7324910759925842,0.1631634533405304
2,5,128,76,0.7654144167900085,0.17358335852622986
2,5,128,77,0.27077600359916687,0.21786729991436005
2,5,128,78,0.698238730430603,0.1327017992734909
2,5,128,79,0.3855918347835541,0.2658652365207672
2,5,128,80,0.7013522982597351,0.25781795382499695
2,5,128,81,0.7030501365661621,0.10842060297727585
2,5,128,82,0.7154556512832642,0.26775920391082764
2,5,128,83,0.6145326495170593,0.15393255650997162
2,5,128,84,0.7528511881828308,0.19961507618427277
2,5,128,85,0.7318193316459656,0.21931025385856628
2,5,128,86,0.7032062411308289,0.23943886160850525
2,5,128,87,0.7291247248649597,0.13107198476791382
2,5,128,88,0.6549358367919922,0.10366833209991455
2,5,128,89,0.6519331932067871,0.20989234745502472
2,5,128,90,0.4052724242210388,0.10434867441654205
2,5,128,91,0.8505001664161682,0.11869721114635468
2,5,128,92,0.6635662317276001,0.05517047643661499
2,5,128,93,0.715182363986969,0.2259710282087326
2,5,128,94,0.5546949505805969,0.10340087115764618
2,5,128,95,0.5848289728164673,0.1737816035747528
2,5,128,96,0.7303107380867004,0.07322730869054794
2,5,128,97,0.5716394186019897,0.1869507133960724
2,5,128,98,0.7746779322624207,0.17242950201034546
2,5,128,99,0.5298231840133667,0.07461417466402054
2,5,128,100,0.4064418375492096,0.05714314430952072
2,5,128,101,0.803139865398407,0.13921399414539337
2,5,128,102,0.7020623683929443,0.06655141711235046
2,5,128,103,0.7467140555381775,0.11429984122514725
2,5,128,104,0.6237257122993469,0.07886171340942383
2,5,128,105,0.6661604642868042,0.26975002884864807
2,5,128,106,0.4180659055709839,0.25584685802459717
2,5,128,107,0.6761449575424194,0.15129436552524567
2,5,128,108,0.5645308494567871,0.11456805467605591
2,5,128,109,0.6113301515579224,0.15647679567337036
2,5,128,110,0.7888625860214233,0.14623601734638214
2,5,128,111,0.5845471620559692,0.11265213042497635
2,5,128,112,0.7243090867996216,0.21541017293930054
2,5,128,113,0.6566663384437561,0.2220970243215561
2,5,128,114,0.6681298613548279,0.2933339774608612
2,5,128,115,0.46921640634536743,0.055337511003017426
2,5,128,116,0.762323260307312,0.09159626066684723
2,5,128,117,0.719222903251648,0.2273915857076645
2,5,128,118,0.4834587574005127,0.14397071301937103
2,5,128,119,0.5747674107551575,0.3159106373786926
2,5,128,120,0.8165724873542786,0.11458463966846466
2,5,128,121,0.3158845007419586,0.2928214371204376
2,5,128,122,0.5224385857582092,0.10995994508266449
2,5,128,123,0.6620838046073914,0.3343219459056854
2,5,128,124,0.7573013305664062,0.10024400800466537
2,5,128,125,0.5728960633277893,0.06894154846668243
2,5,128,126,0.6982506513595581,0.15283603966236115
2,5,128,127,0.5470293760299683,0.10814722627401352
3,0,32,0,0.40055131912231445,0.057788267731666565
3,0,32,1,0.48284170031547546,0.10267070680856705
3,0,32,2,0.42743754386901855,0.06500088423490524
3,0,32,3,0.38090211153030396,0.10864768922328949
3,0,32,4,0.5740392208099365,0.08898524194955826
3,0,32,5,0.35969048738479614,0.09041336178779602
3,0,32,6,0.5287017822265625,0.13274379074573517
3,0,32,7,0.44980183243751526,0.03836122900247574
3,0,32,8,0.5323848128318787,0.09363210201263428
3,0,32,9,0.46621501445770264,0.07992062717676163
3,0,32,10,0.3619888722896576,0.06409835815429688
3,0,32,11,0.38600367307662964,0.03750091418623924
3,0,32,12,0.6357355713844299,0.08211337774991989
3,0,32,13,0.5346090793609619,0.09324067831039429
3,0,32,14,0.41877269744873047,0.07459523528814316
3,0,32,15,0.44749540090560913,0.07274121046066284
3,0,32,16,0.4315045177936554,0.07940936088562012
3,0,32,17,0.3805575370788574,0.10133632272481918
3,0,32,18,0.5059787034988403,0.11997844278812408
3,0,32,19,0.5072916150093079,0.09840477257966995
3,0,32,20,0.5076326727867126,0.09284725785255432
3,0,32,21,0.5353065729141235,0.09281149506568909
3,0,32,22,0.5753984451293945,0.04418376460671425
3,0,32,23,0.5112060308456421,0.05902966484427452
3,0,32,24,0.5691226124763489,0.05558358505368233
3,0,32,25,0.548328697681427,0.09497977793216705
3,0,32,26,0.45308488607406616,0.1105116754770279
3,0,32,27,0.522182047367096,0.0808541551232338
3,0,32,28,0.5966451168060303,0.05747023969888687
3,0,32,29,0.4997560381889343,0.12772201001644135
3,0,32,30,0.5709788203239441,0.06536032259464264
3,0,32,31,0.5466490983963013,0.09412796795368195
3,1,32,0,0.535782516002655,0.16921915113925934
3,1,32,1,0.42527398467063904,0.09908884763717651
3,1,32,2,0.4275650680065155,0.09697665274143219
3,1,32,3,0.6936061382293701,0.09519072622060776
3,1,32,4,0.5670824646949768,0.1080431118607521
3,1,32,5,0.7047504782676697,0.0895392894744873
3,1,32,6,0.6591991186141968,0.07312210649251938
3,1,32,7,0.620265543460846,0.12163538485765457
3,1,32,8,0.32980674505233765,0.042853374034166336
3,1,32,9,0.49652501940727234,0.12528085708618164
3,1,32,10,0.42925119400024414,0.09708598256111145
3,1,32,11,0.4136323630809784,0.13633032143115997
3,1,32,12,0.6587409973144531,0.10722237080335617
3,1,32,13,0.474772572517395,0.07027019560337067
3,1,32,14,0.5326991677284241,0.0862271785736084
3,1,32,15,0.43696802854537964,0.19236749410629272
3,1,32,16,0.4028471112251282,0.11154105514287949
3,1,32,17,0.5111962556838989,0.1631893664598465
3,1,32,18,0.35717833042144775,0.1556520015001297
3,1,32,19,0.5870546698570251,0.08859434723854065
3,1,32,20,0.47707098722457886,0.11496713757514954
3,1,32,21,0.5953207015991211,0.08107750862836838
3,1,32,22,0.6018201112747192,0.09853386878967285
3,1,32,23,0.4014354348182678,0.14788751304149628
3,1,32,24,0.47056254744529724,0.125750333070755
3,1,32,25,0.41841110587120056,0.07603317499160767
3,1,32,26,0.4927414357662201,0.08882635831832886
3,1,32,27,0.44379958510398865,0.04245460033416748
3,1,32,28,0.611777663230896,0.09081678837537766
3,1,32,29,0.5089029669761658,0.10527846962213516
3,1,32,30,0.5532598495483398,0.13493213057518005
3,1,32,31,0.40233179926872253,0.16697849333286285
3,2,64,0,0.43643519282341003,0.09854799509048462
3,2,64,1,0.4694586992263794,0.08420175313949585
3,2,64,2,0.4761238396167755,0.040227748453617096
3,2,64,3,0.6073803305625916,0.14270010590553284
3,2,64,4,0.4769631624221802,0.08365799486637115
3,2,64,5,0.48630622029304504,0.05289589986205101
3,2,64,6,0.46035096049308777,0.11708232760429382
3,2,64,7,0.29334357380867004,0.10523512214422226
3,2,64,8,0.4207528531551361,0.11900610476732254
3,2,64,9,0.48989731073379517,0.08541683107614517
3,2,64,10,0.4793073534965515,0.13456788659095764
3,2,64,11,0.5022473335266113,0.10499384999275208
3,2,64,12,0.6049634218215942,0.07438872754573822
3,2,64,13,0.4003949761390686,0.10149801522493362
3,2,64,14,0.5153939127922058,0.2412116974592209
3,2,64,15,0.6009418964385986,0.10307107865810394
3,2,64,16,0.6126652359962463,0.06644658744335175
3,2,64,17,0.599203884601593,0.16595153510570526
3,2,64,18,0.4741896390914917,0.11704838275909424
3,2,64,19,0.42353177070617676,0.14128078520298004
3,2,64,20,0.5163708925247192,0.23715095221996307
3,2,64,21,0.5255174040794373,0.07701114565134048
3,2,64,22,0.44032037258148193,0.12479659914970398
3,2,64,23,0.42813363671302795,0.16483445465564728
3,2,64,24,0.39361003041267395,0.16379743814468384
3,2,64,25,0.5447918176651001,0.17056995630264282
3,2,64,26,0.4193790853023529,0.07124505192041397
3,2,64,27,0.5904414653778076,0.0924287661910057
3,2,64,28,0.5789979696273804,0.14939934015274048
3,2,64,29,0.5670907497406006,0.0608486607670784
3,2,64,30,0.5676066279411316,0.13170678913593292
3,2,64,31,0.4761368930339813,0.2352588176727295
3,2,64,32,0.5305207371711731,0.10137572884559631
3,2,64,33,0.4089951813220978,0.15545828640460968
3,2,64,34,0.5241146087646484,0.19055873155593872
3,2,64,35,0.46224960684776306,0.11723094433546066
3,2,64,36,0.4228791892528534,0.20257335901260376
3,2,64,37,0.4997944235801697,0.1130656972527504
3,2,64,38,0.5740067362785339,0.1246112585067749
3,2,64,39,0.5283690094947815,0.112955242395401
3,2,64,40,0.4240434765815735,0.041055887937545776
3,2,64,41,0.47642019391059875,0.1509215235710144
3,2,64,42,0.4975098669528961,0.19494982063770294
3,2,64,43,0.6977567076683044,0.10854507237672806
3,2,64,44,0.4541778564453125,0.08141925185918808
3,2,64,45,0.40138739347457886,0.14236858487129211
3,2,64,46,0.3718782365322113,0.08360960334539413
3,2,64,47,0.48026350140571594,0.12744766473770142
3,2,64,48,0.6273033022880554,0.07401230931282043
3,2,64,49,0.5813750624656677,0.08442024141550064
3,2,64,50,0.43420201539993286,0.11713989078998566
3,2,64,51,0.6189860701560974,0.09336447715759277
3,2,64,52,0.499262273311615,0.24013647437095642
3,2,64,53,0.4198338985443115,0.13920040428638458
3,2,64,54,0.5890466570854187,0.1255096197128296
3,2,64,55,0.42931729555130005,0.14669355750083923
3,2,64,56,0.6535496711730957,0.0917212963104248
3,2,64,57,0.6810347437858582,0.11342581361532211
3,2,64,58,0.4793165922164917,0.12237291038036346
3,2,64,59,0.42296674847602844,0.11902657151222229
3,2,64,60,0.5509637594223022,0.07032237946987152
3,2,64,61,0.503128170967102,0.07425793260335922
3,2,64,62,0.5141329169273376,0.11826881766319275
3,2,64,63,0.4704432785511017,0.08498295396566391
3,3,64,0,0.41399118304252625,0.06952616572380066
3,3,64,1,0.43752971291542053,0.024977127090096474
3,3,64,2,0.4511146545410156,0.09160950779914856
3,3,64,3,0.4504518508911133,0.1504460573196411
3,3,64,4,0.381946861743927,0.10624364763498306
3,3,64,5,0.504159152507782,0.10113269090652466
3,3,64,6,0.5365638732910156,0.05965187028050423
3,3,64,7,0.5958429574966431,0.16499389708042145
3,3,64,8,0.6079215407371521,0.07463795691728592
3,3,64,9,0.6871838569641113,0.11070356518030167
3,3,64,10,0.4032072424888611,0.16919197142124176
3,3,64,11,0.4562385678291321,0.19041484594345093
3,3,64,12,0.5238447785377502,0.06821506470441818
3,3,64,13,0.5365077257156372,0.08481650799512863
3,3,64,14,0.43184736371040344,0.02832142449915409
3,3,64,15,0.4288468658924103,0.1442909836769104
3,3,64,16,0.4823252558708191,0.08265965431928635
3,3,64,17,0.5665497779846191,0.061102285981178284
3,3,64,18,0.6510046720504761,0.20071165263652802
3,3,64,19,0.560163140296936,0.09184817224740982
3,3,64,20,0.6026986241340637,0.09211927652359009
3,3,64,21,0.5967811346054077,0.09120147675275803
3,3,64,22,0.6600129008293152,0.122585229575634
3,3,64,23,0.5730380415916443,0.1313333362340927
3,3,64,24,0.5256471633911133,0.058779168874025345
3,3,64,25,0.6951677203178406,0.09563256800174713
3,3,64,26,0.4895550608634949,0.07509703189134598
3,3,64,27,0.44439804553985596,0.1039804220199585
3,3,64,28,0.6146987080574036,0.1896117627620697
3,3,64,29,0.38427579402923584,0.08495831489562988
3,3,64,30,0.49507343769073486,0.12224583327770233
3,3,64,31,0.624480128288269,0.13706713914871216
3,3,64,32,0.5370115637779236,0.16715718805789948
3,3,64,33,0.6211042404174805,0.14763732254505157
3,3,64,34,0.4919605255126953,0.15024325251579285
3,3,64,35,0.4729532301425934,0.11375202238559723
3,3,64,36,0.3789561092853546,0.08276743441820145
3,3,64,37,0.4276508688926697,0.07564030587673187
3,3,64,38,0.5302819609642029,0.0654822438955307
3,3,64,39,0.3444663882255554,0.09562984108924866
3,3,64,40,0.37729471921920776,0.08335278183221817
3,3,64,41,0.38125845789909363,0.08931035548448563
3,3,64,42,0.46857911348342896,0.07762239873409271
3,3,64,43,0.6126055121421814,0.10200729966163635
3,3,64,44,0.4285934865474701,0.09147963672876358
3,3,64,45,0.40725183486938477,0.09561971575021744
3,3,64,46,0.6157961487770081,0.15648508071899414
3,3,64,47,0.49765294790267944,0.0621119849383831
3,3,64,48,0.6083642244338989,0.14484861493110657
3,3,64,49,0.5120273232460022,0.08301408588886261
3,3,64,50,0.48779261112213135,0.16042669117450714
3,3,64,51,0.48444676399230957,0.08934514224529266
3,3,64,52,0.4281933307647705,0.14697971940040588
3,3,64,53,0.35663264989852905,0.19127622246742249
3,3,64,54,0.40630465745925903,0.12309496104717255
3,3,64,55,0.4707123041152954,0.10576876997947693
3,3,64,56,0.6217153668403625,0.12716814875602722
3,3,64,57,0.5727560520172119,0.0926625207066536
3,3,64,58,0.43453770875930786,0.051265887916088104
3,3,64,59,0.39630696177482605,0.1515459418296814
3,3,64,60,0.3477000892162323,0.07927429676055908
3,3,64,61,0.32678353786468506,0.09239459037780762
3,3,64,62,0.41721367835998535,0.16800260543823242
3,3,64,63,0.5145795941352844,0.09268161654472351
3,4,128,0,0.8020881414413452,0.11203785240650177
3,4,128,1,0.5113149285316467,0.18046195805072784
3,4,128,2,0.7536157965660095,0.23186828196048737
3,4,128,3,0.5879204273223877,0.09304766356945038
3,4,128,4,0.8417100310325623,0.11669659614562988
3,4,128,5,0.4203830361366272,0.08927789330482483
3,4,128,6,0.38094353675842285,0.092335045337677
3,4,128,7,0.2500203251838684,0.10229963064193726
3,4,128,8,0.35082384943962097,0.24211978912353516
3,4,128,9,0.3115149140357971,0.30382397770881653
3,4,128,10,0.44066745042800903,0.22207596898078918
3,4,128,11,0.2739318907260895,0.2616187632083893
3,4,128,12,0.7280020117759705,0.34461477398872375
3,4,128,13,0.7857938408851624,0.2442152351140976
3,4,128,14,0.6236597299575806,0.044702205806970596
3,4,128,15,0.5957850217819214,0.13001058995723724
3,4,128,16,0.7011486887931824,0.25132134556770325
3,4,128,17,0.726719319820404,0.3011590540409088
3,4,128,18,0.5870984196662903,0.07284445315599442
3,4,128,19,0.3147406280040741,0.12726569175720215
3,4,128,20,0.7193633317947388,0.2917262613773346
3,4,128,21,0.6292725801467896,0.1628432422876358
3,4,128,22,0.7353216409683228,0.2476145327091217
3,4,128,23,0.6907094120979309,0.17005561292171478
3,4,128,24,0.4293804168701172,0.06246457248926163
3,4,128,25,0.7909722328186035,0.17600570619106293
3,4,128,26,0.7392456531524658,0.25849661231040955
3,4,128,27,0.398550420999527,0.1090356633067131
3,4,128,28,0.7499324083328247,0.3268047571182251
3,4,128,29,0.7115743160247803,0.13165704905986786
3,4,128,30,0.7052857875823975,0.27583929896354675
3,4,128,31,0.24754926562309265,0.3190569579601288
3,4,128,32,0.3505276143550873,0.19322486221790314
3,4,128,33,0.41077330708503723,0.28108859062194824
3,4,128,34,0.6987946033477783,0.3121953010559082
3,4,128,35,0.753315269947052,0.2959362864494324
3,4,128,36,0.7926130294799805,0.16848193109035492
3,4,128,37,0.8401657938957214,0.12202553451061249
3,4,128,38,0.8147827386856079,0.18856187164783478
3,4,128,39,0.3099466562271118,0.336825966835022
3,4,128,40,0.28342029452323914,0.20020021498203278
3,4,128,41,0.7483054995536804,0.23026636242866516
3,4,128,42,0.5224379897117615,0.048661377280950546
3,4,128,43,0.6802580952644348,0.2805342674255371
3,4,128,44,0.7210333943367004,0.24069662392139435
3,4,128,45,0.2899554669857025,0.22293676435947418
3,4,128,46,0.7345892786979675,0.2535414397716522
3,4,128,47,0.7580098509788513,0.14052064716815948
3,4,128,48,0.3937653601169586,0.27616098523139954
3,4,128,49,0.694404125213623,0.18738381564617157
3,4,128,50,0.8063905239105225,0.10346890240907669
3,4,128,51,0.7947127819061279,0.17038176953792572
3,4,128,52,0.29616788029670715,0.28065311908721924
3,4,128,53,0.6048637628555298,0.201593279838562
3,4,128,54,0.7805195450782776,0.09623092412948608
3,4,128,55,0.45298922061920166,0.13461165130138397
3,4,128,56,0.6483551263809204,0.16049449145793915
3,4,128,57,0.5549256801605225,0.10117848217487335
3,4,128,58,0.791728675365448,0.09152349829673767
3,4,128,59,0.7973520755767822,0.22841210663318634
3,4,128,60,0.31017789244651794,0.3170749843120575
3,4,128,61,0.7206586599349976,0.08881141990423203
3,4,128,62,0.26948630809783936,0.29635924100875854
3,4,128,63,0.30025798082351685,0.09966366738080978
3,4,128,64,0.4293803870677948,0.11412347853183746
3,4,128,65,0.7250755429267883,0.27082887291908264
3,4,128,66,0.7541646361351013,0.2634648382663727
3,4,128,67,0.4277980923652649,0.1536298245191574
3,4,128,68,0.7214667201042175,0.29747313261032104
3,4,128,69,0.7466592788696289,0.249582439661026
3,4,128,70,0.789531409740448,0.08335021138191223
3,4,128,71,0.37625062465667725,0.2327805459499359
3,4,128,72,0.7888303399085999,0.08854673057794571
3,4,128,73,0.7873120307922363,0.1868816614151001
3,4,128,74,0.7298343777656555,0.17708882689476013
3,4,128,75,0.6612278819084167,0.17207379639148712
3,4,128,76,0.2679738700389862,0.33376047015190125
3,4,128,77,0.5056938529014587,0.14083944261074066
3,4,128,78,0.40805959701538086,0.20993870496749878
3,4,128,79,0.2642020285129547,0.1432759314775467
3,4,128,80,0.4574500322341919,0.11955640465021133
3,4,128,81,0.7433101534843445,0.32340046763420105
3,4,128,82,0.6109458208084106,0.0895199105143547
3,4,128,83,0.642586886882782,0.22056293487548828
3,4,128,84,0.6905491352081299,0.1539934277534485
3,4,128,85,0.7625824809074402,0.18593008816242218
3,4,128,86,0.7925581932067871,0.13612999022006989
3,4,128,87,0.7027648091316223,0.25025418400764465
3,4,128,88,0.2945769131183624,0.10315393656492233
3,4,128,89,0.29295915365219116,0.16378267109394073
3,4,128,90,0.6979358792304993,0.13499540090560913
3,4,128,91,0.7607541680335999,0.24163773655891418
3,4,128,92,0.6703265905380249,0.2501335144042969
3,4,128,93,0.2189585119485855,0.09090365469455719
3,4,128,94,0.693871021270752,0.16886849701404572
3,4,128,95,0.7465335726737976,0.22355914115905762
3,4,128,96,0.7700818181037903,0.07965096086263657
3,4,128,97,0.19927114248275757,0.1401153802871704
3,4,128,98,0.7000482678413391,0.2701319754123688
3,4,128,99,0.6450042724609375,0.10573451220989227
3,4,128,100,0.7451240420341492,0.09462517499923706
3,4,128,101,0.74784916639328,0.2328636646270752
3,4,128,102,0.28289273381233215,0.0927748754620552
3,4,128,103,0.6436063051223755,0.29330241680145264
3,4,128,104,0.795590877532959,0.09479383379220963
3,4,128,105,0.48097464442253113,0.08446010947227478
3,4,128,106,0.6268965005874634,0.12455879151821136
3,4,128,107,0.7059446573257446,0.2583256959915161
3,4,128,108,0.7276753783226013,0.2947220206260681
3,4,128,109,0.7633610963821411,0.17537140846252441
3,4,128,110,0.7661154270172119,0.08656248450279236
3,4,128,111,0.669821560382843,0.2644975781440735
3,4,128,112,0.6892473101615906,0.1803005337715149
3,4,128,113,0.5516806840896606,0.15110044181346893
3,4,128,114,0.7003440260887146,0.27253735065460205
3,4,128,115,0.7336159944534302,0.3294880986213684
3,4,128,116,0.712827205657959,0.20564639568328857
3,4,128,117,0.5930494666099548,0.08925885707139969
3,4,128,118,0.664908230304718,0.28326261043548584
3,4,128,119,0.3011404275894165,0.33311596512794495
3,4,128,120,0.4579898715019226,0.05922924354672432
3,4,128,121,0.3966938257217407,0.0977213904261589
3,4,128,122,0.379686176776886,0.10514024645090103
3,4,128,123,0.7276883125305176,0.3280527591705322
3,4,128,124,0.7463067173957825,0.2129138708114624
3,4,128,125,0.6219449639320374,0.21848520636558533
3,4,128,126,0.6939080357551575,0.15850324928760529
3,4,128,127,0.8285252451896667,0.1409667283296585
3,5,128,0,0.4744083285331726,0.14693784713745117
3,5,128,1,0.6724210381507874,0.23139892518520355
3,5,128,2,0.7510200142860413,0.11993889510631561
3,5,128,3,0.7093005776405334,0.1864723116159439
3,5,128,4,0.377628356218338,0.20267334580421448
3,5,128,5,0.7566104531288147,0.18030698597431183
3,5,128,6,0.5776482224464417,0.12137788534164429
3,5,128,7,0.3240075409412384,0.23263224959373474
3,5,128,8,0.6672728657722473,0.08638086169958115
3,5,128,9,0.38360124826431274,0.25663259625434875
3,5,128,10,0.7818438410758972,0.07494565844535828
3,5,128,11,0.28460049629211426,0.1702197790145874
3,5,128,12,0.6120928525924683,0.09677515923976898
3,5,128,13,0.6844422817230225,0.3190867602825165
3,5,128,14,0.2508312165737152,0.10830891132354736
3,5,128,15,0.6936876773834229,0.09928326308727264
3,5,128,16,0.7487784624099731,0.16930532455444336
3,5,128,17,0.8113260269165039,0.16989482939243317
3,5,128,18,0.7892993688583374,0.17093348503112793
3,5,128,19,0.7275644540786743,0.10137250274419785
3,5,128,20,0.4231494069099426,0.18505236506462097
3,5,128,21,0.2998912036418915,0.1805608719587326
3,5,128,22,0.7225878834724426,0.18128295242786407
3,5,128,23,0.6520861387252808,0.12436985224485397
3,5,128,24,0.6487037539482117,0.10284622758626938
3,5,128,25,0.4181676208972931,0.12907154858112335
3,5,128,26,0.3964376449584961,0.12073943763971329
3,5,128,27,0.6160484552383423,0.07480254769325256
3,5,128,28,0.7733614444732666,0.16760365664958954
3,5,128,29,0.590485692024231,0.10400740057229996
3,5,128,30,0.7401508688926697,0.15431375801563263
3,5,128,31,0.33035001158714294,0.177798330783844
3,5,128,32,0.3449486196041107,0.15542899072170258
3,5,128,33,0.8078209161758423,0.15159186720848083
3,5,128,34,0.5605176091194153,0.08683124929666519
3,5,128,35,0.6587127447128296,0.17136868834495544
3,5,128,36,0.7854692935943604,0.0960049033164978
3,5,128,37,0.7793596982955933,0.10367504507303238
3,5,128,38,0.6569477319717407,0.0763549730181694
3,5,128,39,0.48188579082489014,0.06755221635103226
3,5,128,40,0.7386407852172852,0.13135646283626556
3,5,128,41,0.8172598481178284,0.16638065874576569
3,5,128,42,0.7034325003623962,0.08033771067857742
3,5,128,43,0.27209746837615967,0.2876139283180237
3,5,128,44,0.7274982333183289,0.04869518801569939
3,5,128,45,0.39682984352111816,0.04246871918439865
3,5,128,46,0.6959108710289001,0.09405893832445145
3,5,128,47,0.7729455828666687,0.11131825298070908
3,5,128,48,0.48255354166030884,0.10341712832450867
3,5,128,49,0.806656539440155,0.15639983117580414
3,5,128,50,0.5739947557449341,0.07556719332933426
3,5,128,51,0.77534419298172,0.11247523874044418
3,5,128,52,0.42698192596435547,0.11447252333164215
3,5,128,53,0.7077911496162415,0.2802274525165558
3,5,128,54,0.5405184626579285,0.16307593882083893
3,5,128,55,0.5792033672332764,0.09898468106985092
3,5,128,56,0.7872517108917236,0.18279138207435608
3,5,128,57,0.5253153443336487,0.06923866271972656
3,5,128,58,0.6874213218688965,0.14520220458507538
3,5,128,59,0.7021641135215759,0.21962857246398926
3,5,128,60,0.42467406392097473,0.08262795954942703
3,5,128,61,0.8137993216514587,0.10891756415367126
3,5,128,62,0.7235878705978394,0.10133804380893707
3,5,128,63,0.4448813199996948,0.131487637758255
3,5,128,64,0.4692353308200836,0.11621730774641037
3,5,128,65,0.7025724053382874,0.1781402826309204
3,5,128,66,0.7758527398109436,0.1952778697013855
3,5,128,67,0.6477814316749573,0.10408377647399902
3,5,128,68,0.7344024181365967,0.1345914751291275
3,5,128,69,0.700893759727478,0.07191669940948486
3,5,128,70,0.7634552717208862,0.1881464719772339
3,5,128,71,0.7717525959014893,0.1965235471725464
3,5,128,72,0.6921826601028442,0.15570302307605743
3,5,128,73,0.38998377323150635,0.1113855168223381
3,5,128,74,0.7505587935447693,0.1033804714679718
3,5,128,75,0.6824349164962769,0.18075931072235107
3,5,128,76,0.5284169912338257,0.1123533695936203
3,5,128,77,0.458843469619751,0.07363470643758774
3,5,128,78,0.70396488904953,0.10563533753156662
3,5,128,79,0.7988091111183167,0.1984645277261734
3,5,128,80,0.7103658318519592,0.1277824342250824
3,5,128,81,0.8495758771896362,0.1096775010228157
3,5,128,82,0.6409462690353394,0.0337553396821022
3,5,128,83,0.5418063402175903,0.09181871265172958
3,5,128,84,0.734749972820282,0.29827919602394104
3,5,128,85,0.6874820590019226,0.2304510772228241
3,5,128,86,0.5198421478271484,0.07805907726287842
3,5,128,87,0.5760722160339355,0.2074078619480133
3,5,128,88,0.7242198586463928,0.05326947942376137
3,5,128,89,0.7032067179679871,0.13036204874515533
3,5,128,90,0.7802531719207764,0.16468586027622223
3,5,128,91,0.48520785570144653,0.1338643729686737
3,5,128,92,0.7144611477851868,0.06888765096664429
3,5,128,93,0.6394259929656982,0.0394456647336483
3,5,128,94,0.7894039750099182,0.18074995279312134
3,5,128,95,0.7399874329566956,0.12759838998317719
3,5,128,96,0.7498559951782227,0.10316156595945358
3,5,128,97,0.49226412177085876,0.06250565499067307
3,5,128,98,0.5821447372436523,0.09203588217496872
3,5,128,99,0.7312449812889099,0.07488636672496796
3,5,128,100,0.7168919444084167,0.11500383168458939
3,5,128,101,0.6800566911697388,0.16633643209934235
3,5,128,102,0.4824155867099762,0.16184835135936737
3,5,128,103,0.6714826822280884,0.2451310157775879
3,5,128,104,0.3850678503513336,0.04466569051146507
3,5,128,105,0.6089662313461304,0.11761268228292465
3,5,128,106,0.8112180829048157,0.15718314051628113
3,5,128,107,0.7189874649047852,0.24033454060554504
3,5,128,108,0.4016208350658417,0.17650094628334045
3,5,128,109,0.7161684036254883,0.20348547399044037
3,5,128,110,0.5550713539123535,0.1297074556350708
3,5,128,111,0.7632730603218079,0.09526610374450684
3,5,128,112,0.8439540266990662,0.12157999724149704
3,5,128,113,0.4627715051174164,0.04169127717614174
3,5,128,114,0.7001189589500427,0.07687751203775406
3,5,128,115,0.43273961544036865,0.13151736557483673
3,5,128,116,0.801513671875,0.11528623849153519
3,5,128,117,0.38858938217163086,0.08537054061889648
3,5,128,118,0.7297192215919495,0.20964179933071136
3,5,128,119,0.3970845937728882,0.18025170266628265
3,5,128,120,0.6717341542243958,0.053673047572374344
3,5,128,121,0.7038788199424744,0.23779453337192535
3,5,128,122,0.3502846658229828,0.0846652090549469
3,5,128,123,0.8043708205223083,0.1100190207362175
3,5,128,124,0.7384761571884155,0.10073912888765335
3,5,128,125,0.2704484760761261,0.2080039232969284
3,5,128,126,0.448201060295105,0.09169255197048187
3,5,128,127,0.6682947278022766,0.11382587254047394
4,0,32,0,0.4630560874938965,0.1315678060054779
4,0,32,1,0.5678563117980957,0.13286162912845612
4,0,32,2,0.5083101391792297,0.1168607622385025
4,0,32,3,0.493204265832901,0.03556305170059204
4,0,32,4,0.5056332945823669,0.09928048402070999
4,0,32,5,0.6354675889015198,0.09203080832958221
4,0,32,6,0.39781710505485535,0.050210919231176376
4,0,32,7,0.5240653157234192,0.04889699071645737
4,0,32,8,0.5563808679580688,0.15316812694072723
4,0,32,9,0.3225550949573517,0.15036115050315857
4,0,32,10,0.46331721544265747,0.09943324327468872
4,0,32,11,0.49507439136505127,0.14807912707328796
4,0,32,12,0.6892039179801941,0.09403593838214874
4,0,32,13,0.5784807801246643,0.08021039515733719
4,0,32,14,0.48496273159980774,0.1782696694135666
4,0,32,15,0.3998090922832489,0.04775946959853172
4,0,32,16,0.5034700632095337,0.11831638962030411
4,0,32,17,0.3909229040145874,0.0826168805360794
4,0,32,18,0.4516247808933258,0.06863474100828171
4,0,32,19,0.37004393339157104,0.10079197585582733
4,0,32,20,0.43065279722213745,0.057917915284633636
4,0,32,21,0.37999624013900757,0.10181736201047897
4,0,32,22,0.40037983655929565,0.14748774468898773
4,0,32,23,0.32300490140914917,0.13784320652484894
4,0,32,24,0.5241039395332336,0.09165363013744354
4,0,32,25,0.5857658982276917,0.2028191238641739
4,0,32,26,0.5117153525352478,0.01214425079524517
4,0,32,27,0.39264920353889465,0.026117486879229546
4,0,32,28,0.4329804480075836,0.05409301072359085
4,0,32,29,0.42482224106788635,0.03167121484875679
4,0,32,30,0.5709822773933411,0.07523453235626221
4,0,32,31,0.47140344977378845,0.07355755567550659
4,1,32,0,0.373075932264328,0.07274986058473587
4,1,32,1,0.45772555470466614,0.028801389038562775
4,1,32,2,0.3583184480667114,0.05383885279297829
4,1,32,3,0.4328596293926239,0.13818007707595825
4,1,32,4,0.6111598014831543,0.056906577199697495
4,1,32,5,0.4718009829521179,0.11201630532741547
4,1,32,6,0.49080100655555725,0.12824368476867676
4,1,32,7,0.4432072639465332,0.08027715981006622
4,1,32,8,0.5914689302444458,0.07830877602100372
4,1,32,9,0.6594340801239014,0.036412592977285385
4,1,32,10,0.6189229488372803,0.07311375439167023
4,1,32,11,0.5099673271179199,0.04884030669927597
4,1,32,12,0.5669976472854614,0.07176658511161804
4,1,32,13,0.40787452459335327,0.03304404765367508
4,1,32,14,0.39666178822517395,0.0703587532043457
4,1,32,15,0.47270920872688293,0.08480516076087952
4,1,32,16,0.4128199815750122,0.11814671754837036
4,1,32,17,0.6370705366134644,0.06374312192201614
4,1,32,18,0.6065725088119507,0.036529313772916794
4,1,32,19,0.6060259342193604,0.05761489272117615
4,1,32,20,0.45379167795181274,0.054771751165390015
4,1,32,21,0.46145957708358765,0.0945887416601181
4,1,32,22,0.4967767000198364,0.06373539566993713
4,1,32,23,0.5234259963035583,0.14518322050571442
4,1,32,24,0.6217931509017944,0.08945479989051819
4,1,32,25,0.5739560723304749,0.04188784584403038
4,1,32,26,0.40687280893325806,0.05776792764663696
4,1,32,27,0.5998645424842834,0.07112588733434677
4,1,32,28,0.5620182156562805,0.061622969806194305
4,1,32,29,0.5302433967590332,0.05510633811354637
4,1,32,30,0.5176593065261841,0.11365136504173279
4,1,32,31,0.43447163701057434,0.09712395071983337
4,2,64,0,0.4041467607021332,0.07893690466880798
4,2,64,1,0.5007210969924927,0.11616039276123047
4,2,64,2,0.40768569707870483,0.11940261721611023
4,2,64,3,0.4660273790359497,0.06094193458557129
4,2,64,4,0.6462022662162781,0.0733858272433281
4,2,64,5,0.5730999112129211,0.14465712010860443
4,2,64,6,0.656467854976654,0.1320047378540039
4,2,64,7,0.5751209855079651,0.10146225243806839
4,2,64,8,0.460478276014328,0.23417003452777863
4,2,64,9,0.5636612176895142,0.2605684995651245
4,2,64,10,0.4499473571777344,0.1111535057425499
4,2,64,11,0.5071452856063843,0.14145785570144653
4,2,64,12,0.5062263011932373,0.2699572741985321
4,2,64,13,0.3861270248889923,0.1279270499944687
4,2,64,14,0.5665283203125,0.12975972890853882
4,2,64,15,0.6095269918441772,0.19771170616149902
4,2,64,16,0.34126606583595276,0.10768917948007584
4,2,64,17,0.6118028163909912,0.14814825356006622
4,2,64,18,0.5073991417884827,0.09206376224756241
4,2,64,19,0.5326361060142517,0.2764507830142975
4,2,64,20,0.38216203451156616,0.14302733540534973
4,2,64,21,0.5425371527671814,0.22963657975196838
4,2,64,22,0.2784706652164459,0.13904646039009094
4,2,64,23,0.5351772308349609,0.20473431050777435
4,2,64,24,0.4228009879589081,0.09764651209115982
4,2,64,25,0.3712945282459259,0.07838023453950882
4,2,64,26,0.3981691300868988,0.23586197197437286
4,2,64,27,0.5769042372703552,0.17333945631980896
4,2,64,28,0.4770371913909912,0.08833587169647217
4,2,64,29,0.4606929421424866,0.11520448327064514
4,2,64,30,0.6319791674613953,0.12134376168251038
4,2,64,31,0.5326257348060608,0.16593968868255615
4,2,64,32,0.39942142367362976,0.13942581415176392
4,2,64,33,0.37192922830581665,0.17749863862991333
4,2,64,34,0.5569558143615723,0.20063364505767822
4,2,64,35,0.7133287787437439,0.08284171670675278
4,2,64,36,0.629233181476593,0.08914342522621155
4,2,64,37,0.4114353358745575,0.12650728225708008
4,2,64,38,0.41885337233543396,0.18408174812793732
4,2,64,39,0.5139272212982178,0.058778293430805206
4,2,64,40,0.6863641738891602,0.13015687465667725
4,2,64,41,0.5846788883209229,0.21070432662963867
4,2,64,42,0.5033133029937744,0.09037194401025772
4,2,64,43,0.5759618878364563,0.1999405473470688
4,2,64,44,0.5274800062179565,0.1709003895521164
4,2,64,45,0.5492954254150391,0.20525158941745758
4,2,64,46,0.48899251222610474,0.16489237546920776
4,2,64,47,0.47914522886276245,0.25220224261283875
4,2,64,48,0.4374665915966034,0.07973165810108185
4,2,64,49,0.6213557720184326,0.08484934270381927
4,2,64,50,0.377050518989563,0.13935871422290802
4,2,64,51,0.583234429359436,0.12454400956630707
4,2,64,52,0.5407222509384155,0.1743129938840866
4,2,64,53,0.5287876129150391,0.14548572897911072
4,2,64,54,0.5406549572944641,0.21910862624645233
4,2,64,55,0.4803493916988373,0.24385501444339752
4,2,64,56,0.5517823696136475,0.14112384617328644
4,2,64,57,0.4373687505722046,0.11277559399604797
4,2,64,58,0.514617383480072,0.05435634031891823
4,2,64,59,0.7159148454666138,0.1269085854291916
4,2,64,60,0.5547214150428772,0.13992707431316376
4,2,64,61,0.5055888295173645,0.11224808543920517
4,2,64,62,0.5173494815826416,0.19738620519638062
4,2,64,63,0.6168003678321838,0.16384683549404144
4,3,64,0,0.44354888796806335,0.048250824213027954
4,3,64,1,0.354351282119751,0.0560075081884861
4,3,64,2,0.5219357013702393,0.17593146860599518
4,3,64,3,0.6279215812683105,0.06811705231666565
4,3,64,4,0.6186392903327942,0.20420950651168823
4,3,64,5,0.4820648431777954,0.15826603770256042
4,3,64,6,0.18733955919742584,0.11836076527833939
4,3,64,7,0.46010562777519226,0.10462230443954468
4,3,64,8,0.40383341908454895,0.05786148086190224
4,3,64,9,0.6464532017707825,0.20573289692401886
4,3,64,10,0.6795925498008728,0.08758445829153061
4,3,64,11,0.6991578340530396,0.2124757021665573
4,3,64,12,0.4686192274093628,0.11994031816720963
4,3,64,13,0.3156357407569885,0.2647496461868286
4,3,64,14,0.36167633533477783,0.22927896678447723
4,3,64,15,0.3029901087284088,0.2476690709590912
4,3,64,16,0.25783950090408325,0.11297354847192764
4,3,64,17,0.6166885495185852,0.21719156205654144
4,3,64,18,0.3071703314781189,0.06294158101081848
4,3,64,19,0.4444988965988159,0.15179303288459778
4,3,64,20,0.4469405710697174,0.14769119024276733
4,3,64,21,0.5503419041633606,0.0694202333688736
4,3,64,22,0.3578014373779297,0.2960147261619568
4,3,64,23,0.39991670846939087,0.23493191599845886
4,3,64,24,0.6349284648895264,0.07671524584293365
4,3,64,25,0.7027220129966736,0.18738679587841034
4,3,64,26,0.5217468738555908,0.13466040790081024
4,3,64,27,0.6538674235343933,0.13870882987976074
4,3,64,28,0.31945040822029114,0.18076032400131226
4,3,64,29,0.3862977921962738,0.20967049896717072
4,3,64,30,0.579590380191803,0.08365140110254288
4,3,64,31,0.39920610189437866,0.21462896466255188
4,3,64,32,0.419258177280426,0.10764428973197937
4,3,64,33,0.6993578672409058,0.21910539269447327
4,3,64,34,0.6968903541564941,0.07507182657718658
4,3,64,35,0.6839163899421692,0.08413055539131165
4,3,64,36,0.42243972420692444,0.24901296198368073
4,3,64,37,0.44571417570114136,0.0827779620885849
4,3,64,38,0.3748142719268799,0.27315983176231384
4,3,64,39,0.3098104000091553,0.15336953103542328
4,3,64,40,0.48180344700813293,0.08064866811037064
4,3,64,41,0.334268718957901,0.20438294112682343
4,3,64,42,0.46104854345321655,0.1858559399843216
4,3,64,43,0.5929114818572998,0.07339435070753098
4,3,64,44,0.5810226202011108,0.21189981698989868
4,3,64,45,0.6096624135971069,0.06570910662412643
4,3,64,46,0.6532384753227234,0.13117806613445282
4,3,64,47,0.5465865135192871,0.25282663106918335
4,3,64,48,0.4757564961910248,0.04856059327721596
4,3,64,49,0.6443602442741394,0.1423357129096985
4,3,64,50,0.7285372614860535,0.18180523812770844
4,3,64,51,0.25005578994750977,0.10865596681833267
4,3,64,52,0.3299584984779358,0.26975467801094055
4,3,64,53,0.4161415100097656,0.2421216368675232
4,3,64,54,0.5223492383956909,0.048220518976449966
4,3,64,55,0.6479175090789795,0.3146219551563263
4,3,64,56,0.20556581020355225,0.17106857895851135
4,3,64,57,0.5863655805587769,0.09817658364772797
4,3,64,58,0.32837745547294617,0.08332192897796631
4,3,64,59,0.38144201040267944,0.2255139797925949
4,3,64,60,0.29381468892097473,0.1597740799188614
4,3,64,61,0.4638069272041321,0.2005060464143753
4,3,64,62,0.4636588394641876,0.1447230875492096
4,3,64,63,0.21815714240074158,0.1636185646057129
4,4,128,0,0.30317336320877075,0.12298574298620224
4,4,128,1,0.5973351001739502,0.08637259155511856
4,4,128,2,0.545482873916626,0.18583305180072784
4,4,128,3,0.4281969368457794,0.1553160846233368
4,4,128,4,0.3797534108161926,0.27831411361694336
4,4,128,5,0.37767207622528076,0.2403540462255478
4,4,128,6,0.6353750228881836,0.09251155704259872
4,4,128,7,0.42457109689712524,0.12025047093629837
4,4,128,8,0.40411582589149475,0.10836116224527359
4,4,128,9,0.7252312302589417,0.17634955048561096
4,4,128,10,0.4979439675807953,0.0680592954158783
4,4,128,11,0.6713693737983704,0.12907280027866364
4,4,128,12,0.7061026096343994,0.148615300655365
4,4,128,13,0.27995049953460693,0.14132742583751678
4,4,128,14,0.6398116946220398,0.3106314241886139
4,4,128,15,0.625221312046051,0.20455124974250793
4,4,128,16,0.7087497115135193,0.0901416465640068
4,4,128,17,0.6202310919761658,0.18654337525367737
4,4,128,18,0.49146297574043274,0.1643507480621338
4,4,128,19,0.5019519925117493,0.1536109894514084
4,4,128,20,0.6752023100852966,0.19628961384296417
4,4,128,21,0.6206836700439453,0.13231822848320007
4,4,128,22,0.736644983291626,0.22074364125728607
4,4,128,23,0.6280303001403809,0.2519908547401428
4,4,128,24,0.5023314356803894,0.06085626780986786
4,4,128,25,0.36352217197418213,0.2294493019580841
4,4,128,26,0.5015643835067749,0.15318258106708527
4,4,128,27,0.39443883299827576,0.2431284636259079
4,4,128,28,0.5737990736961365,0.16828040778636932
4,4,128,29,0.6008895039558411,0.11675543338060379
4,4,128,30,0.3712784945964813,0.13648079335689545
4,4,128,31,0.6705137491226196,0.1461440771818161
4,4,128,32,0.5034744739532471,0.21664442121982574
4,4,128,33,0.4190317392349243,0.12055327743291855
4,4,128,34,0.5416523814201355,0.20432816445827484
4,4,128,35,0.5666271448135376,0.2621379792690277
4,4,128,36,0.6607114672660828,0.1216210201382637
4,4,128,37,0.6048203706741333,0.07659092545509338
4,4,128,38,0.6435282826423645,0.12994346022605896
4,4,128,39,0.5223819017410278,0.12009785324335098
4,4,128,40,0.6540603041648865,0.23908860981464386
4,4,128,41,0.4361443817615509,0.1785001903772354
4,4,128,42,0.45085209608078003,0.10021942853927612
4,4,128,43,0.6968221068382263,0.1245945543050766
4,4,128,44,0.3284410834312439,0.19181129336357117
4,4,128,45,0.5912039875984192,0.17253202199935913
4,4,128,46,0.6421632170677185,0.26560261845588684
4,4,128,47,0.49497419595718384,0.12604504823684692
4,4,128,48,0.7099887728691101,0.2022651582956314
4,4,128,49,0.3880484998226166,0.30539366602897644
4,4,128,50,0.3879980146884918,0.17490796744823456
4,4,128,51,0.7994162440299988,0.10746767371892929
4,4,128,52,0.37644436955451965,0.17877811193466187
4,4,128,53,0.6333020329475403,0.09457381814718246
4,4,128,54,0.6601423025131226,0.17388448119163513
4,4,128,55,0.7477798461914062,0.12717051804065704
4,4,128,56,0.6712378263473511,0.20660817623138428
4,4,128,57,0.5404751896858215,0.18030503392219543
4,4,128,58,0.3939525783061981,0.23822803795337677
4,4,128,59,0.6843717098236084,0.1672624945640564
4,4,128,60,0.691823422908783,0.15487012267112732
4,4,128,61,0.37946346402168274,0.19442473351955414
4,4,128,62,0.6973284482955933,0.15155480802059174
4,4,128,63,0.45409876108169556,0.09294530749320984
4,4,128,64,0.3528923988342285,0.2767549753189087
4,4,128,65,0.6334114670753479,0.27269241213798523
4,4,128,66,0.5917607545852661,0.20585094392299652
4,4,128,67,0.6796033382415771,0.2918349504470825
4,4,128,68,0.4995371103286743,0.1341896951198578
4,4,128,69,0.4526450037956238,0.1763596087694168
4,4,128,70,0.4074910581111908,0.14273153245449066
4,4,128,71,0.8051775097846985,0.10374832153320312
4,4,128,72,0.3545230031013489,0.11119323968887329
4,4,128,73,0.47030192613601685,0.26278480887413025
4,4,128,74,0.5192312002182007,0.16759856045246124
4,4,128,75,0.505268931388855,0.18191410601139069
4,4,128,76,0.40713372826576233,0.10856655985116959
4,4,128,77,0.33258193731307983,0.10313967615365982
4,4,128,78,0.5851858854293823,0.12241784483194351
4,4,128,79,0.36848410964012146,0.11477813869714737
4,4,128,80,0.5655307173728943,0.06901097297668457
4,4,128,81,0.4180552065372467,0.09737583994865417
4,4,128,82,0.6297934651374817,0.13425298035144806
4,4,128,83,0.4694173336029053,0.07960682362318039
4,4,128,84,0.6656134724617004,0.2764334976673126
4,4,128,85,0.43336740136146545,0.10137629508972168
4,4,128,86,0.7094400525093079,0.2125643491744995
4,4,128,87,0.5241460204124451,0.1558217853307724
4,4,128,88,0.7633833289146423,0.13881483674049377
4,4,128,89,0.6268143653869629,0.2320074588060379
4,4,128,90,0.4847122132778168,0.09018722176551819
4,4,128,91,0.4211818277835846,0.06357656419277191
4,4,128,92,0.686378538608551,0.2659982144832611
4,4,128,93,0.6388250589370728,0.3042367696762085
4,4,128,94,0.466825932264328,0.12445946782827377
4,4,128,95,0.6004390120506287,0.290718138217926
4,4,128,96,0.4186061918735504,0.2456640750169754
4,4,128,97,0.5276318192481995,0.058591682463884354
4,4,128,98,0.45557981729507446,0.19683077931404114
4,4,128,99,0.6719455122947693,0.09745175391435623
4,4,128,100,0.655112087726593,0.1369694024324417
4,4,128,101,0.7524977922439575,0.1207268089056015
4,4,128,102,0.6595337986946106,0.20206524431705475
4,4,128,103,0.6287791728973389,0.24206428229808807
4,4,128,104,0.5734629034996033,0.296429842710495
4,4,128,105,0.6236746907234192,0.11743904650211334
4,4,128,106,0.4810614287853241,0.12156656384468079
4,4,128,107,0.5192893147468567,0.22774061560630798
4,4,128,108,0.5218726396560669,0.19335632026195526
4,4,128,109,0.690460205078125,0.09667445719242096
4,4,128,110,0.5279309749603271,0.18168416619300842
4,4,128,111,0.6824758052825928,0.10997577011585236
4,4,128,112,0.6247350573539734,0.09591162204742432
4,4,128,113,0.3637032210826874,0.07454363256692886
4,4,128,114,0.7100088596343994,0.09926306456327438
4,4,128,115,0.2829352617263794,0.10796863585710526
4,4,128,116,0.4560498297214508,0.19562160968780518
4,4,128,117,0.49942702054977417,0.1492134928703308
4,4,128,118,0.6535640358924866,0.23089545965194702
4,4,128,119,0.48011156916618347,0.21896034479141235
4,4,128,120,0.7096340656280518,0.17238576710224152
4,4,128,121,0.24502834677696228,0.11616422235965729
4,4,128,122,0.6381588578224182,0.27508997917175293
4,4,128,123,0.5172204971313477,0.14232277870178223
4,4,128,124,0.5957297086715698,0.19356493651866913
4,4,128,125,0.6488462090492249,0.18412667512893677
4,4,128,126,0.5046418309211731,0.1400132030248642
4,4,128,127,0.6270363926887512,0.20198580622673035
4,5,128,0,0.2266714721918106,0.09780708700418472
4,5,128,1,0.5606247186660767,0.13366441428661346
4,5,128,2,0.5087711811065674,0.15431900322437286
4,5,128,3,0.6334783434867859,0.12557078897953033
4,5,128,4,0.7391506433486938,0.10378532856702805
4,5,128,5,0.3654323220252991,0.2046942263841629
4,5,128,6,0.6437777876853943,0.14951425790786743
4,5,128,7,0.6379257440567017,0.2213371843099594
4,5,128,8,0.4418153464794159,0.1161603182554245
4,5,128,9,0.738631010055542,0.17897288501262665
4,5,128,10,0.696157693862915,0.13758982717990875
4,5,128,11,0.6901333928108215,0.07370927184820175
4,5,128,12,0.5838608145713806,0.08122861385345459
4,5,128,13,0.49597325921058655,0.04782331362366676
4,5,128,14,0.6285902261734009,0.1286712884902954
4,5,128,15,0.7033467292785645,0.12948355078697205
4,5,128,16,0.8151494860649109,0.10735192149877548
4,5,128,17,0.6994355916976929,0.12135346233844757
4,5,128,18,0.5904300212860107,0.09286528825759888
4,5,128,19,0.6897042989730835,0.06691686809062958
4,5,128,20,0.5102569460868835,0.23521895706653595
4,5,128,21,0.6335009932518005,0.13884182274341583
4,5,128,22,0.7410246729850769,0.09470313042402267
4,5,128,23,0.6042301058769226,0.32051289081573486
4,5,128,24,0.6157996654510498,0.09455762803554535
4,5,128,25,0.4520406424999237,0.21901236474514008
4,5,128,26,0.46650010347366333,0.022746050730347633
4,5,128,27,0.6629009246826172,0.11696728318929672
4,5,128,28,0.35406383872032166,0.2273445427417755
4,5,128,29,0.5681647658348083,0.17401142418384552
4,5,128,30,0.5375328063964844,0.22340676188468933
4,5,128,31,0.6199762225151062,0.2368413656949997
4,5,128,32,0.6860238909721375,0.14371119439601898
4,5,128,33,0.4185967743396759,0.08766043931245804
4,5,128,34,0.6260046362876892,0.13730603456497192
4,5,128,35,0.3836389482021332,0.14339078962802887
4,5,128,36,0.7824074029922485,0.13819250464439392
4,5,128,37,0.6689414381980896,0.1999751478433609
4,5,128,38,0.7086009979248047,0.20330668985843658
4,5,128,39,0.5903125405311584,0.12127560377120972
4,5,128,40,0.7233813405036926,0.1452232003211975
4,5,128,41,0.6759276390075684,0.1396017074584961
4,5,128,42,0.5727187991142273,0.07839975506067276
4,5,128,43,0.4604809582233429,0.2301441878080368
4,5,128,44,0.4878263473510742,0.2599729001522064
4,5,128,45,0.5332701206207275,0.07045799493789673
4,5,128,46,0.7870491743087769,0.1574157029390335
4,5,128,47,0.7128558158874512,0.11348389089107513
4,5,128,48,0.7634931206703186,0.11765231937170029
4,5,128,49,0.6401841640472412,0.1314077526330948
4,5,128,50,0.6731173992156982,0.12373505532741547
4,5,128,51,0.8002604842185974,0.1324276328086853
4,5,128,52,0.610710859298706,0.1567467451095581
4,5,128,53,0.5892015695571899,0.2168256789445877
4,5,128,54,0.7769917249679565,0.10807660222053528
4,5,128,55,0.761142373085022,0.11249524354934692
4,5,128,56,0.7038628458976746,0.11395740509033203
4,5,128,57,0.5363473892211914,0.20280811190605164
4,5,128,58,0.7144086360931396,0.08310747146606445
4,5,128,59,0.7349274158477783,0.18130898475646973
4,5,128,60,0.7865473031997681,0.10056908428668976
4,5,128,61,0.5126323103904724,0.19519689679145813
4,5,128,62,0.7676899433135986,0.15712863206863403
4,5,128,63,0.3965650796890259,0.07779818028211594
4,5,128,64,0.7448754906654358,0.1142459437251091
4,5,128,65,0.6686558723449707,0.2871556282043457
4,5,128,66,0.5515795350074768,0.17860399186611176
4,5,128,67,0.8257337808609009,0.13750633597373962
4,5,128,68,0.5090591907501221,0.14687488973140717
4,5,128,69,0.655483603477478,0.23954737186431885
4,5,128,70,0.5570250749588013,0.17781342566013336
4,5,128,71,0.6647851467132568,0.290600061416626
4,5,128,72,0.670914888381958,0.10349226742982864
4,5,128,73,0.5175762176513672,0.21852126717567444
4,5,128,74,0.6922867894172668,0.11742057651281357
4,5,128,75,0.48445969820022583,0.2593744993209839
4,5,128,76,0.5698967576026917,0.12667295336723328
4,5,128,77,0.5141868591308594,0.03990635648369789
4,5,128,78,0.3133658170700073,0.16680383682250977
4,5,128,79,0.6887003779411316,0.21947979927062988
4,5,128,80,0.5757064819335938,0.10914968699216843
4,5,128,81,0.646012544631958,0.23218008875846863
4,5,128,82,0.6880907416343689,0.08613139390945435
4,5,128,83,0.5087600946426392,0.05383440852165222
4,5,128,84,0.7807618975639343,0.14457064867019653
4,5,128,85,0.7403789758682251,0.10327231884002686
4,5,128,86,0.7427478432655334,0.1589481383562088
4,5,128,87,0.7113073468208313,0.10284074395895004
4,5,128,88,0.6862666606903076,0.2208685725927353
4,5,128,89,0.746122419834137,0.1023896336555481
4,5,128,90,0.5887219905853271,0.1037655770778656
4,5,128,91,0.5757033228874207,0.1529804915189743
4,5,128,92,0.7561822533607483,0.10015483945608139
4,5,128,93,0.7021117210388184,0.07753205299377441
4,5,128,94,0.4635249674320221,0.04900599271059036
4,5,128,95,0.6713678240776062,0.07746399194002151
4,5,128,96,0.8113601803779602,0.1193908229470253
4,5,128,97,0.7026606798171997,0.11007565259933472
4,5,128,98,0.6928560137748718,0.1440161168575287
4,5,128,99,0.770707368850708,0.1815408617258072
4,5,128,100,0.4529707431793213,0.10019347071647644
4,5,128,101,0.7819708585739136,0.12755607068538666
4,5,128,102,0.6790759563446045,0.2323288768529892
4,5,128,103,0.6389594674110413,0.18248629570007324
4,5,128,104,0.5406960248947144,0.09818309545516968
4,5,128,105,0.25818461179733276,0.0820915549993515
4,5,128,106,0.7781846523284912,0.09977483749389648
4,5,128,107,0.7001380324363708,0.10433346033096313
4,5,128,108,0.7072707414627075,0.1235983744263649
4,5,128,109,0.561621904373169,0.13777878880500793
4,5,128,110,0.7859446406364441,0.11167450249195099
4,5,128,111,0.608135998249054,0.14936836063861847
4,5,128,112,0.6668850183486938,0.18365895748138428
4,5,128,113,0.769686758518219,0.1006687581539154
4,5,128,114,0.7411952614784241,0.09221955388784409
4,5,128,115,0.5218319296836853,0.20963770151138306
4,5,128,116,0.44661107659339905,0.3005830943584442
4,5,128,117,0.7389435172080994,0.08998807519674301
4,5,128,118,0.7086818814277649,0.14376074075698853
4,5,128,119,0.4179443120956421,0.10677120089530945
4,5,128,120,0.6860678791999817,0.07556678354740143
4,5,128,121,0.6535931825637817,0.1439797729253769
4,5,128,122,0.5018851161003113,0.15406635403633118
4,5,128,123,0.5399488210678101,0.10226701945066452
4,5,128,124,0.7861639261245728,0.10959063470363617
4,5,128,125,0.7075361013412476,0.24107778072357178
4,5,128,126,0.44769057631492615,0.11459828913211823
4,5,128,127,0.6471021175384521,0.2234732210636139
5,0,32,0,0.5297706127166748,0.12283267825841904
5,0,32,1,0.44919905066490173,0.16522766649723053
5,0,32,2,0.5605593323707581,0.05420921742916107
5,0,32,3,0.3313864767551422,0.11840265244245529
5,0,32,4,0.30389565229415894,0.06175079196691513
5,0,32,5,0.3140663802623749,0.08776786923408508
5,0,32,6,0.425721138715744,0.13756093382835388
5,0,32,7,0.5465680360794067,0.1273336112499237
5,0,32,8,0.5955452919006348,0.017852049320936203
5,0,32,9,0.6033624410629272,0.0313909538090229
5,0,32,10,0.43659350275993347,0.05492120608687401
5,0,32,11,0.6124014854431152,0.05890415608882904
5,0,32,12,0.6105305552482605,0.11643267422914505
5,0,32,13,0.5189952254295349,0.13494333624839783
5,0,32,14,0.4914533793926239,0.05333323031663895
5,0,32,15,0.38709425926208496,0.09996243566274643
5,0,32,16,0.42116063833236694,0.1066756397485733
5,0,32,17,0.48276105523109436,0.14819397032260895
5,0,32,18,0.3634096384048462,0.10758034884929657
5,0,32,19,0.32708433270454407,0.08416611701250076
5,0,32,20,0.4682829976081848,0.09434472024440765
5,0,32,21,0.4755136966705322,0.10097219794988632
5,0,32,22,0.37541472911834717,0.07724203914403915
5,0,32,23,0.5480274558067322,0.11706497520208359
5,0,32,24,0.6262831091880798,0.02507917582988739
5,0,32,25,0.5881795883178711,0.10336878150701523
5,0,32,26,0.4258224070072174,0.06003526225686073
5,0,32,27,0.40154895186424255,0.07189334183931351
5,0,32,28,0.6149948239326477,0.08490034192800522
5,0,32,29,0.4888472557067871,0.06402112543582916
5,0,32,30,0.31430384516716003,0.09808190912008286
5,0,32,31,0.38902029395103455,0.08471104502677917
5,1,32,0,0.4441852271556854,0.0182858444750309
5,1,32,1,0.5038155317306519,0.056737568229436874
5,1,32,2,0.5104878544807434,0.0966014489531517
5,1,32,3,0.5003219246864319,0.09313378483057022
5,1,32,4,0.5686739683151245,0.07818911969661713
5,1,32,5,0.376676082611084,0.05898338556289673
5,1,32,6,0.5671473145484924,0.043862760066986084
5,1,32,7,0.5810633897781372,0.034499213099479675
5,1,32,8,0.6435356140136719,0.03920138627290726
5,1,32,9,0.41835230588912964,0.03391600772738457
5,1,32,10,0.4334772229194641,0.08224073797464371
5,1,32,11,0.6330814361572266,0.06421671062707901
5,1,32,12,0.41730624437332153,0.03570272773504257
5,1,32,13,0.5436810255050659,0.08404508233070374
5,1,32,14,0.498025506734848,0.07165965437889099
5,1,32,15,0.6541765332221985,0.06374164670705795
5,1,32,16,0.5126987099647522,0.05408516526222229
5,1,32,17,0.39292600750923157,0.06481237709522247
5,1,32,18,0.5008367300033569,0.06888861954212189
5,1,32,19,0.46073657274246216,0.04208996519446373
5,1,32,20,0.6629351377487183,0.050099313259124756
5,1,32,21,0.6088100075721741,0.03875257819890976
5,1,32,22,0.36212530732154846,0.045772749930620193
5,1,32,23,0.5006433129310608,0.05107304826378822
5,1,32,24,0.39022719860076904,0.05176294222474098
5,1,32,25,0.5775582790374756,0.03804529085755348
5,1,32,26,0.39501678943634033,0.051105696707963943
5,1,32,27,0.5251004695892334,0.0505814291536808
5,1,32,28,0.5534034967422485,0.05410083383321762
5,1,32,29,0.5583615303039551,0.050519365817308426
5,1,32,30,0.4422365725040436,0.08218982815742493
5,1,32,31,0.5771474242210388,0.08430652320384979
5,2,64,0,0.5310617685317993,0.23002830147743225
5,2,64,1,0.3679787218570709,0.09372033178806305
5,2,64,2,0.5275355577468872,0.13742254674434662
5,2,64,3,0.5444936156272888,0.11555919796228409
5,2,64,4,0.4610441327095032,0.12249784916639328
5,2,64,5,0.5132117867469788,0.09456077218055725
5,2,64,6,0.5271058082580566,0.1497921198606491
5,2,64,7,0.2692837119102478,0.14950209856033325
5,2,64,8,0.6357267498970032,0.19136495888233185
5,2,64,9,0.4667200446128845,0.1015465036034584
5,2,64,10,0.5309727191925049,0.18080246448516846
5,2,64,11,0.22319012880325317,0.12830697000026703
5,2,64,12,0.597633957862854,0.13299807906150818
5,2,64,13,0.265793114900589,0.13407765328884125
5,2,64,14,0.49732571840286255,0.10070712119340897
5,2,64,15,0.43603718280792236,0.1418384462594986
5,2,64,16,0.5260857939720154,0.09187091886997223
5,2,64,17,0.3453468680381775,0.1700761765241623
5,2,64,18,0.6341912150382996,0.11710523068904877
5,2,64,19,0.4012139141559601,0.1433562934398651
5,2,64,20,0.5689890384674072,0.1902540624141693
5,2,64,21,0.5197584629058838,0.15050552785396576
5,2,64,22,0.5445465445518494,0.083511121571064
5,2,64,23,0.4939872920513153,0.18412339687347412
5,2,64,24,0.22060872614383698,0.12055661529302597
5,2,64,25,0.5011113882064819,0.11557510495185852
5,2,64,26,0.6111491918563843,0.10760723799467087
5,2,64,27,0.5940949320793152,0.1501491516828537
5,2,64,28,0.407164603471756,0.05427781119942665
5,2,64,29,0.2746920883655548,0.12389400601387024
5,2,64,30,0.45313769578933716,0.06541165709495544
5,2,64,31,0.6645002961158752,0.12423498183488846
5,2,64,32,0.6192262172698975,0.15839150547981262
5,2,64,33,0.49902379512786865,0.10174190253019333
5,2,64,34,0.5380833745002747,0.11393874138593674
5,2,64,35,0.5876563787460327,0.13304364681243896
5,2,64,36,0.6135352849960327,0.12260068207979202
5,2,64,37,0.4255823493003845,0.10273686796426773
5,2,64,38,0.4605913758277893,0.09935946762561798
5,2,64,39,0.3714139759540558,0.1064496636390686
5,2,64,40,0.6130605340003967,0.1730881631374359
5,2,64,41,0.5043867230415344,0.08368689566850662
5,2,64,42,0.6213034987449646,0.13035349547863007
5,2,64,43,0.5134156942367554,0.16701991856098175
5,2,64,44,0.5503562688827515,0.09846655279397964
5,2,64,45,0.5449345707893372,0.1278286725282669
5,2,64,46,0.5544939041137695,0.24017755687236786
5,2,64,47,0.592181384563446,0.11236358433961868
5,2,64,48,0.5682798624038696,0.2585369348526001
5,2,64,49,0.4812915027141571,0.039745479822158813
5,2,64,50,0.633225679397583,0.14277257025241852
5,2,64,51,0.5551760196685791,0.10989689826965332
5,2,64,52,0.4963797628879547,0.19817335903644562
5,2,64,53,0.4279550015926361,0.11929788440465927
5,2,64,54,0.6720166802406311,0.1304527223110199
5,2,64,55,0.4824836552143097,0.1299307495355606
5,2,64,56,0.3981667757034302,0.11338482797145844
5,2,64,57,0.4964589476585388,0.1257026046514511
5,2,64,58,0.4991133213043213,0.1263526976108551
5,2,64,59,0.5427167415618896,0.21155159175395966
5,2,64,60,0.5021678805351257,0.12510265409946442
5,2,64,61,0.4378170073032379,0.12231803685426712
5,2,64,62,0.5010148286819458,0.08280622959136963
5,2,64,63,0.4611247777938843,0.10837499797344208
5,3,64,0,0.4350176155567169,0.10724961012601852
5,3,64,1,0.6116189956665039,0.09502489119768143
5,3,64,2,0.7132619619369507,0.15087908506393433
5,3,64,3,0.4418768286705017,0.1091286912560463
5,3,64,4,0.39504608511924744,0.08108469098806381
5,3,64,5,0.4000667631626129,0.0767408236861229
5,3,64,6,0.2802497148513794,0.09598731249570847
5,3,64,7,0.2508756220340729,0.08881773799657822
5,3,64,8,0.6646828055381775,0.06679970026016235
5,3,64,9,0.41871941089630127,0.19517730176448822
5,3,64,10,0.47757014632225037,0.1606726348400116
5,3,64,11,0.5551873445510864,0.2511088252067566
5,3,64,12,0.5006284117698669,0.14211300015449524
5,3,64,13,0.49358227849006653,0.08600877970457077
5,3,64,14,0.5234183669090271,0.13138015568256378
5,3,64,15,0.5933057069778442,0.1040133461356163
5,3,64,16,0.4445444345474243,0.09370779246091843
5,3,64,17,0.517501950263977,0.05225253477692604
5,3,64,18,0.6390544176101685,0.1822270303964615
5,3,64,19,0.4202404022216797,0.2416626363992691
5,3,64,20,0.46722790598869324,0.1056470200419426
5,3,64,21,0.3765730559825897,0.10333443433046341
5,3,64,22,0.5904627442359924,0.0655762255191803
5,3,64,23,0.6437879800796509,0.09991464763879776
5,3,64,24,0.6066712737083435,0.2455596774816513
5,3,64,25,0.5786884427070618,0.1810402125120163
5,3,64,26,0.5378936529159546,0.10472127050161362
5,3,64,27,0.7342967987060547,0.11722589284181595
5,3,64,28,0.5712828040122986,0.0929919183254242
5,3,64,29,0.5785627961158752,0.11447208374738693
5,3,64,30,0.30878746509552,0.17096610367298126
5,3,64,31,0.5940147638320923,0.09293090552091599
5,3,64,32,0.5641223192214966,0.20488516986370087
5,3,64,33,0.5876353979110718,0.20671677589416504
5,3,64,34,0.4556712210178375,0.17658716440200806
5,3,64,35,0.4807422459125519,0.11543416976928711
5,3,64,36,0.5696374773979187,0.17067186534404755
5,3,64,37,0.532982349395752,0.0995413213968277
5,3,64,38,0.5376554727554321,0.09300357848405838
5,3,64,39,0.6150522232055664,0.17344455420970917
5,3,64,40,0.58991938829422,0.2771698832511902
5,3,64,41,0.6629855632781982,0.11935675144195557
5,3,64,42,0.31210726499557495,0.140254408121109
5,3,64,43,0.3606484830379486,0.08168807625770569
5,3,64,44,0.5587350130081177,0.20626285672187805
5,3,64,45,0.4343033730983734,0.11881179362535477
5,3,64,46,0.5698711276054382,0.11180944740772247
5,3,64,47,0.4219077527523041,0.14715084433555603
5,3,64,48,0.5045281052589417,0.1500607132911682
5,3,64,49,0.47291550040245056,0.06699202209711075
5,3,64,50,0.5112407207489014,0.08509019017219543
5,3,64,51,0.2878890037536621,0.10355401039123535
5,3,64,52,0.379270076751709,0.17948202788829803
5,3,64,53,0.47564321756362915,0.21584452688694
5,3,64,54,0.360546737909317,0.23814550042152405
5,3,64,55,0.4207727611064911,0.07506860047578812
5,3,64,56,0.5640854835510254,0.0628892257809639
5,3,64,57,0.4711805582046509,0.1293935328722
5,3,64,58,0.6090669631958008,0.2540457248687744
5,3,64,59,0.6692480444908142,0.14453385770320892
5,3,64,60,0.6276666522026062,0.052745942026376724
5,3,64,61,0.3591670095920563,0.1262841820716858
5,3,64,62,0.5324504375457764,0.07398046553134918
5,3,64,63,0.6290144920349121,0.05009651929140091
5,4,128,0,0.688957929611206,0.09054389595985413
5,4,128,1,0.4968630373477936,0.1413944959640503
5,4,128,2,0.4225045442581177,0.041321542114019394
5,4,128,3,0.2834344208240509,0.12050673365592957
5,4,128,4,0.5901737213134766,0.1109374612569809
5,4,128,5,0.5577768683433533,0.07908917218446732
5,4,128,6,0.5958775281906128,0.1404603272676468
5,4,128,7,0.7187737226486206,0.13639339804649353
5,4,128,8,0.373208612203598,0.09298954159021378
5,4,128,9,0.5498260259628296,0.20386803150177002
5,4,128,10,0.5889734029769897,0.10709751397371292
5,4,128,11,0.5652294754981995,0.18411993980407715
5,4,128,12,0.7117277979850769,0.08298995345830917
5,4,128,13,0.4788285195827484,0.16667364537715912
5,4,128,14,0.6714992523193359,0.2003539651632309
5,4,128,15,0.6067830920219421,0.17349272966384888
5,4,128,16,0.5460178852081299,0.10164694488048553
5,4,128,17,0.6124324798583984,0.21512329578399658
5,4,128,18,0.6176803708076477,0.16613911092281342
5,4,128,19,0.5846333503723145,0.27203279733657837
5,4,128,20,0.5953820943832397,0.23283492028713226
5,4,128,21,0.5922338366508484,0.17355374991893768
5,4,128,22,0.4954182207584381,0.14517153799533844
5,4,128,23,0.6218203902244568,0.1350359469652176
5,4,128,24,0.4723410904407501,0.26080554723739624
5,4,128,25,0.5565786957740784,0.2663760185241699
5,4,128,26,0.5853679180145264,0.24089591205120087
5,4,128,27,0.6117128729820251,0.2555626630783081
5,4,128,28,0.24070103466510773,0.11830702424049377
5,4,128,29,0.7044057846069336,0.0989098772406578
5,4,128,30,0.6943061351776123,0.0828036367893219
5,4,128,31,0.5686019062995911,0.33371928334236145
5,4,128,32,0.3552819788455963,0.12083955854177475
5,4,128,33,0.3580101430416107,0.1697932630777359
5,4,128,34,0.7085647583007812,0.09613439440727234
5,4,128,35,0.7084138989448547,0.17735984921455383
5,4,128,36,0.6724027991294861,0.1916518211364746
5,4,128,37,0.5747014284133911,0.2417699247598648
5,4,128,38,0.6406358480453491,0.18522599339485168
5,4,128,39,0.6373055577278137,0.08201797306537628
5,4,128,40,0.5569847822189331,0.14182445406913757
5,4,128,41,0.5859701037406921,0.0839638039469719
5,4,128,42,0.385282427072525,0.14381913840770721
5,4,128,43,0.5853508710861206,0.19059030711650848
5,4,128,44,0.47297731041908264,0.2505781650543213
5,4,128,45,0.4415728449821472,0.25697067379951477
5,4,128,46,0.3479464650154114,0.090726837515831
5,4,128,47,0.6877443790435791,0.087408646941185
5,4,128,48,0.6507552266120911,0.11651179194450378
5,4,128,49,0.3683372139930725,0.20790031552314758
5,4,128,50,0.5904436111450195,0.16248342394828796
5,4,128,51,0.5316066145896912,0.11934711784124374
5,4,128,52,0.7244545221328735,0.11645808070898056
5,4,128,53,0.5492991209030151,0.21547408401966095
5,4,128,54,0.5004173517227173,0.1581021547317505
5,4,128,55,0.5743180513381958,0.24533815681934357
5,4,128,56,0.5756974220275879,0.05415761470794678
5,4,128,57,0.6476883292198181,0.2232174426317215
5,4,128,58,0.4325614273548126,0.23083411157131195
5,4,128,59,0.5243062973022461,0.12147074937820435
5,4,128,60,0.6473873257637024,0.25090914964675903
5,4,128,61,0.275268018245697,0.07737042754888535
5,4,128,62,0.5371196269989014,0.19902865588665009
5,4,128,63,0.6659934520721436,0.09783750772476196
5,4,128,64,0.4415449798107147,0.2514852285385132
5,4,128,65,0.24926882982254028,0.10438739508390427
5,4,128,66,0.7148578763008118,0.09090480208396912
5,4,128,67,0.4466910660266876,0.2800810933113098
5,4,128,68,0.6047167778015137,0.0938933789730072
5,4,128,69,0.6794825792312622,0.13675260543823242
5,4,128,70,0.4821219742298126,0.20257626473903656
5,4,128,71,0.3928678631782532,0.0632171481847763
5,4,128,72,0.5006985068321228,0.1234770342707634
5,4,128,73,0.7188863754272461,0.11432456970214844
5,4,128,74,0.530205488204956,0.21286337077617645
5,4,128,75,0.6206659078598022,0.22549226880073547
5,4,128,76,0.2948908805847168,0.1942923218011856
5,4,128,77,0.5238044857978821,0.1279178261756897
5,4,128,78,0.6810542941093445,0.17205294966697693
5,4,128,79,0.6275301575660706,0.08098732680082321
5,4,128,80,0.5095549821853638,0.2347031980752945
5,4,128,81,0.5816925764083862,0.14706410467624664
5,4,128,82,0.6413396596908569,0.13075800240039825
5,4,128,83,0.6839065551757812,0.10591237246990204
5,4,128,84,0.5252395272254944,0.2285623401403427
5,4,128,85,0.6465378999710083,0.3093770444393158
5,4,128,86,0.6335489749908447,0.08880972862243652
5,4,128,87,0.5829682946205139,0.2033921778202057
5,4,128,88,0.4868292510509491,0.12966901063919067
5,4,128,89,0.578850507736206,0.24129442870616913
5,4,128,90,0.28289687633514404,0.08423817157745361
5,4,128,91,0.655413806438446,0.22873243689537048
5,4,128,92,0.4231330156326294,0.2871805727481842
5,4,128,93,0.34814438223838806,0.15521061420440674
5,4,128,94,0.49168702960014343,0.1761634200811386
5,4,128,95,0.4672158360481262,0.15179197490215302
5,4,128,96,0.7438396215438843,0.08921251446008682
5,4,128,97,0.6316511034965515,0.07752232253551483
5,4,128,98,0.5836830735206604,0.21160294115543365
5,4,128,99,0.32117021083831787,0.16629913449287415
5,4,128,100,0.4629630446434021,0.1640634834766388
5,4,128,101,0.6700414419174194,0.05078946053981781
5,4,128,102,0.6132909059524536,0.2607443630695343
5,4,128,103,0.3481558561325073,0.14420223236083984
5,4,128,104,0.3783831000328064,0.17667962610721588
5,4,128,105,0.5554162859916687,0.0792071744799614
5,4,128,106,0.4397830367088318,0.23881801962852478
5,4,128,107,0.6038321256637573,0.12948527932167053
5,4,128,108,0.3984462022781372,0.14262254536151886
5,4,128,109,0.5925486087799072,0.13282844424247742
5,4,128,110,0.5410105586051941,0.17371854186058044
5,4,128,111,0.48384520411491394,0.19146348536014557
5,4,128,112,0.524168848991394,0.14737194776535034
5,4,128,113,0.4874113202095032,0.21363765001296997
5,4,128,114,0.6240949630737305,0.11262616515159607
5,4,128,115,0.435730516910553,0.2270241677761078
5,4,128,116,0.4880211651325226,0.25315025448799133
5,4,128,117,0.6030882596969604,0.17583227157592773
5,4,128,118,0.4650344252586365,0.2237597107887268
5,4,128,119,0.35588401556015015,0.16220049560070038
5,4,128,120,0.6167519092559814,0.26954784989356995
5,4,128,121,0.45595312118530273,0.22965160012245178
5,4,128,122,0.6103111505508423,0.15840941667556763
5,4,128,123,0.6719270944595337,0.17752854526042938
5,4,128,124,0.7315965294837952,0.10263068228960037
5,4,128,125,0.5938988327980042,0.15586037933826447
5,4,128,126,0.6989213228225708,0.18456685543060303
5,4,128,127,0.5872136354446411,0.27811112999916077
5,5,128,0,0.5174606442451477,0.0897684395313263
5,5,128,1,0.2870679199695587,0.1161770224571228
5,5,128,2,0.718086838722229,0.16280294954776764
5,5,128,3,0.3381671905517578,0.2943963408470154
5,5,128,4,0.5856425762176514,0.12337400764226913
5,5,128,5,0.6218897104263306,0.08663447946310043
5,5,128,6,0.6122449636459351,0.16097743809223175
5,5,128,7,0.7618989944458008,0.13817322254180908
5,5,128,8,0.54313063621521,0.21847793459892273
5,5,128,9,0.5386897921562195,0.0969584584236145
5,5,128,10,0.6021232008934021,0.08629347383975983
5,5,128,11,0.49022746086120605,0.06994315981864929
5,5,128,12,0.7242812514305115,0.18694959580898285
5,5,128,13,0.7473541498184204,0.15120185911655426
5,5,128,14,0.7244837880134583,0.09907953441143036
5,5,128,15,0.6066647171974182,0.12484860420227051
5,5,128,16,0.6054995059967041,0.11708129942417145
5,5,128,17,0.7079330682754517,0.1819973737001419
5,5,128,18,0.5246948599815369,0.13693149387836456
5,5,128,19,0.5458343625068665,0.12986144423484802
5,5,128,20,0.7313598990440369,0.13839073479175568
5,5,128,21,0.6362400650978088,0.11330276727676392
5,5,128,22,0.45336204767227173,0.09197769314050674
5,5,128,23,0.5637102127075195,0.078919917345047
5,5,128,24,0.8087562322616577,0.11507634073495865
5,5,128,25,0.7726942300796509,0.1439826935529709
5,5,128,26,0.695909857749939,0.2372208535671234
5,5,128,27,0.7481304407119751,0.13698600232601166
5,5,128,28,0.5563406348228455,0.05842391774058342
5,5,128,29,0.6685470938682556,0.16970154643058777
5,5,128,30,0.7026420831680298,0.21169041097164154
5,5,128,31,0.6673426628112793,0.2088397890329361
5,5,128,32,0.6495732069015503,0.11588075757026672
5,5,128,33,0.5157405138015747,0.09831244498491287
5,5,128,34,0.7646973729133606,0.1019592136144638
5,5,128,35,0.6126562356948853,0.18678170442581177
5,5,128,36,0.716842770576477,0.17746643722057343
5,5,128,37,0.7271429896354675,0.08445683121681213
5,5,128,38,0.7860636711120605,0.11063104122877121
5,5,128,39,0.5311812162399292,0.10122845321893692
5,5,128,40,0.6494964957237244,0.24765877425670624
5,5,128,41,0.6507052779197693,0.11950311809778214
5,5,128,42,0.6862665414810181,0.11579003930091858
5,5,128,43,0.542868971824646,0.16223876178264618
5,5,128,44,0.5837430953979492,0.12332921475172043
5,5,128,45,0.5855696797370911,0.10547268390655518
5,5,128,46,0.522243857383728,0.09942580759525299
5,5,128,47,0.5520554780960083,0.17898216843605042
5,5,128,48,0.5388151407241821,0.1634746491909027
5,5,128,49,0.5008212924003601,0.19255195558071136
5,5,128,50,0.7426916360855103,0.09446807205677032
5,5,128,51,0.49015486240386963,0.17615574598312378
5,5,128,52,0.7237250804901123,0.20384205877780914
5,5,128,53,0.7732762098312378,0.15445445477962494
5,5,128,54,0.5954809188842773,0.09243396669626236
5,5,128,55,0.6317773461341858,0.1500609964132309
5,5,128,56,0.5195263624191284,0.0755232721567154
5,5,128,57,0.6641479134559631,0.24814829230308533
5,5,128,58,0.8220356106758118,0.08384896069765091
5,5,128,59,0.7178775668144226,0.10551746189594269
5,5,128,60,0.7111696600914001,0.15083123743534088
5,5,128,61,0.5061759948730469,0.0803789421916008
5,5,128,62,0.7329201102256775,0.15519863367080688
5,5,128,63,0.6010714173316956,0.06011408567428589
5,5,128,64,0.7121633887290955,0.16061647236347198
5,5,128,65,0.3832351267337799,0.2590906023979187
5,5,128,66,0.7433650493621826,0.12702608108520508
5,5,128,67,0.6806185841560364,0.1021408960223198
5,5,128,68,0.5294584631919861,0.13168752193450928
5,5,128,69,0.5786795616149902,0.12211915105581284
5,5,128,70,0.49006590247154236,0.15344250202178955
5,5,128,71,0.40439045429229736,0.08000479638576508
5,5,128,72,0.5769834518432617,0.03797581419348717
5,5,128,73,0.6751733422279358,0.24320724606513977
5,5,128,74,0.5803960561752319,0.2837296724319458
5,5,128,75,0.7096368670463562,0.2082567662000656
5,5,128,76,0.7489662170410156,0.15371184051036835
5,5,128,77,0.40035611391067505,0.2636954188346863
5,5,128,78,0.6484598517417908,0.14027687907218933
5,5,128,79,0.39765551686286926,0.2540648281574249
5,5,128,80,0.6852470636367798,0.22839070856571198
5,5,128,81,0.683552622795105,0.07873871177434921
5,5,128,82,0.7217186689376831,0.20842453837394714
5,5,128,83,0.6391626596450806,0.04947006329894066
5,5,128,84,0.6961307525634766,0.19084230065345764
5,5,128,85,0.7396754026412964,0.10853088647127151
5,5,128,86,0.7050943374633789,0.17697389423847198
5,5,128,87,0.5250812768936157,0.1395772397518158
5,5,128,88,0.6665715575218201,0.1209421157836914
5,5,128,89,0.6313876509666443,0.18090912699699402
5,5,128,90,0.47693100571632385,0.16232533752918243
5,5,128,91,0.8106592297554016,0.12989242374897003
5,5,128,92,0.6405254602432251,0.07561053335666656
5,5,128,93,0.7010252475738525,0.22730353474617004
5,5,128,94,0.47094106674194336,0.12196239829063416
5,5,128,95,0.5615353584289551,0.17811354994773865
5,5,128,96,0.7557225823402405,0.09914880245923996
5,5,128,97,0.5957164764404297,0.127229705452919
5,5,128,98,0.7568766474723816,0.12043357640504837
5,5,128,99,0.554514467716217,0.080776646733284
5,5,128,100,0.3902716636657715,0.17966309189796448
5,5,128,101,0.7092181444168091,0.10711712390184402
5,5,128,102,0.4454386830329895,0.2408798187971115
5,5,128,103,0.7815912365913391,0.08120810985565186
5,5,128,104,0.6408398747444153,0.0877455398440361
5,5,128,105,0.6108680963516235,0.23207306861877441
5,5,128,106,0.5416053533554077,0.10281088203191757
5,5,128,107,0.6989945769309998,0.1471271961927414
5,5,128,108,0.7852703928947449,0.07862631231546402
5,5,128,109,0.5574008226394653,0.07538635283708572
5,5,128,110,0.702782154083252,0.1979064792394638
5,5,128,111,0.589628279209137,0.18212482333183289
5,5,128,112,0.7375615239143372,0.1549266278743744
5,5,128,113,0.6976107954978943,0.1320926398038864
5,5,128,114,0.6141682267189026,0.1813507229089737
5,5,128,115,0.4800039827823639,0.09011285752058029
5,5,128,116,0.6584976315498352,0.08512537181377411
5,5,128,117,0.6872968673706055,0.11872036010026932
5,5,128,118,0.4171113073825836,0.10690579563379288
5,5,128,119,0.5263611078262329,0.24714355170726776
5,5,128,120,0.7496163249015808,0.12689682841300964
5,5,128,121,0.4106435477733612,0.28885602951049805
5,5,128,122,0.5919655561447144,0.08232685923576355
5,5,128,123,0.6747626066207886,0.2455591857433319
5,5,128,124,0.7218418717384338,0.13359220325946808
5,5,128,125,0.5519773960113525,0.11852884292602539
5,5,128,126,0.7154489755630493,0.19019362330436707
5,5,128,127,0.5769160389900208,0.11790592223405838
6,0,32,0,0.5130622982978821,0.07135874032974243
6,0,32,1,0.44548192620277405,0.09584135562181473
6,0,32,2,0.533060610294342,0.05175407603383064
6,0,32,3,0.3367435336112976,0.0962904542684555
6,0,32,4,0.3222472667694092,0.06463796645402908
6,0,32,5,0.34872350096702576,0.052355557680130005
6,0,32,6,0.4273408353328705,0.09039562195539474
6,0,32,7,0.5331524610519409,0.08634152263402939
6,0,32,8,0.5962497591972351,0.014827804639935493
6,0,32,9,0.5852457880973816,0.015901071950793266
6,0,32,10,0.4788953363895416,0.04913831502199173
6,0,32,11,0.6301136016845703,0.045482490211725235
6,0,32,12,0.5833150148391724,0.0766836553812027
6,0,32,13,0.5029535293579102,0.0559813566505909
6,0,32,14,0.4719267189502716,0.045526959002017975
6,0,32,15,0.412484347820282,0.08915942907333374
6,0,32,16,0.4438951909542084,0.08250408619642258
6,0,32,17,0.48509007692337036,0.07843092828989029
6,0,32,18,0.40600377321243286,0.07667527347803116
6,0,32,19,0.3391472399234772,0.049113377928733826
6,0,32,20,0.4684857726097107,0.051614876836538315
6,0,32,21,0.5141007900238037,0.07116924971342087
6,0,32,22,0.3953893482685089,0.05076279491186142
6,0,32,23,0.555043637752533,0.06687486916780472
6,0,32,24,0.675670862197876,0.03563658148050308
6,0,32,25,0.5250492095947266,0.04508040100336075
6,0,32,26,0.4122963547706604,0.054455168545246124
6,0,32,27,0.38882455229759216,0.04944894462823868
6,0,32,28,0.622196614742279,0.06889807432889938
6,0,32,29,0.4964481592178345,0.03937190771102905
6,0,32,30,0.29159313440322876,0.08095940202474594
6,0,32,31,0.38599592447280884,0.03581162169575691
6,1,32,0,0.4719330370426178,0.06636623293161392
6,1,32,1,0.49654078483581543,0.039594296365976334
6,1,32,2,0.5228939652442932,0.08111818134784698
6,1,32,3,0.5070116519927979,0.06682058423757553
6,1,32,4,0.5616830587387085,0.09426579624414444
6,1,32,5,0.38647112250328064,0.057045768946409225
6,1,32,6,0.5635102987289429,0.05321574956178665
6,1,32,7,0.5607693195343018,0.07237933576107025
6,1,32,8,0.6329020261764526,0.035240139812231064
6,1,32,9,0.4179742932319641,0.0394386351108551
6,1,32,10,0.45096373558044434,0.04971812665462494
6,1,32,11,0.619252622127533,0.04507322236895561
6,1,32,12,0.44443944096565247,0.08271684497594833
6,1,32,13,0.5398122668266296,0.04441690444946289
6,1,32,14,0.49474987387657166,0.06276734173297882
6,1,32,15,0.6526843309402466,0.04296217858791351
6,1,32,16,0.4758368134498596,0.02781481109559536
6,1,32,17,0.4011615514755249,0.06599726527929306
6,1,32,18,0.5258482098579407,0.08501579612493515
6,1,32,19,0.4870530664920807,0.0815589502453804
6,1,32,20,0.6696544289588928,0.053509507328271866
6,1,32,21,0.5897862911224365,0.034834206104278564
6,1,32,22,0.39310190081596375,0.02949891798198223
6,1,32,23,0.5059168934822083,0.04144146665930748
6,1,32,24,0.39422938227653503,0.04120805859565735
6,1,32,25,0.5512661933898926,0.052830375730991364
6,1,32,26,0.38885968923568726,0.04418975114822388
6,1,32,27,0.4829111695289612,0.07785045355558395
6,1,32,28,0.5499378442764282,0.054449647665023804
6,1,32,29,0.5255433320999146,0.06966052204370499
6,1,32,30,0.3991440236568451,0.057912882417440414
6,1,32,31,0.5643072128295898,0.06245994195342064
6,2,64,0,0.5587745308876038,0.22245879471302032
6,2,64,1,0.47774019837379456,0.08778060972690582
6,2,64,2,0.5232797861099243,0.22477196156978607
6,2,64,3,0.4956071674823761,0.11177409440279007
6,2,64,4,0.5106849670410156,0.10466213524341583
6,2,64,5,0.5717375874519348,0.13123522698879242
6,2,64,6,0.5504883527755737,0.11069948226213455
6,2,64,7,0.2487591952085495,0.07750076800584793
6,2,64,8,0.5621917843818665,0.15272237360477448
6,2,64,9,0.5053392052650452,0.1621873527765274
6,2,64,10,0.40868863463401794,0.2677348256111145
6,2,64,11,0.3021920621395111,0.11544264107942581
6,2,64,12,0.6453474164009094,0.20679956674575806
6,2,64,13,0.29252421855926514,0.13050593435764313
6,2,64,14,0.45335862040519714,0.10459544509649277
6,2,64,15,0.3657836318016052,0.07291146367788315
6,2,64,16,0.49606266617774963,0.09390858560800552
6,2,64,17,0.43132615089416504,0.1820974498987198
6,2,64,18,0.666405439376831,0.20768003165721893
6,2,64,19,0.44506341218948364,0.08648332208395004
6,2,64,20,0.5575388073921204,0.18470875918865204
6,2,64,21,0.4659383296966553,0.055946629494428635
6,2,64,22,0.5448866486549377,0.10315954685211182
6,2,64,23,0.44251886010169983,0.18295466899871826
6,2,64,24,0.321556955575943,0.09434115141630173
6,2,64,25,0.4822632074356079,0.043847132474184036
6,2,64,26,0.6136815547943115,0.07781966030597687
6,2,64,27,0.579609215259552,0.11116973310709
6,2,64,28,0.44194653630256653,0.12605023384094238
6,2,64,29,0.38054460287094116,0.15573224425315857
6,2,64,30,0.43445977568626404,0.1442430019378662
6,2,64,31,0.6245794296264648,0.06984876841306686
6,2,64,32,0.5007685422897339,0.1867285966873169
6,2,64,33,0.46311789751052856,0.12318886816501617
6,2,64,34,0.5927549004554749,0.16906382143497467
6,2,64,35,0.5619758367538452,0.0713125616312027
6,2,64,36,0.5786380171775818,0.0926852822303772
6,2,64,37,0.465600848197937,0.08801984786987305
6,2,64,38,0.5205076336860657,0.17246916890144348
6,2,64,39,0.3512372076511383,0.12473520636558533
6,2,64,40,0.5700749754905701,0.19176961481571198
6,2,64,41,0.42864567041397095,0.08254190534353256
6,2,64,42,0.5833562016487122,0.09649059921503067
6,2,64,43,0.557328462600708,0.17774321138858795
6,2,64,44,0.5854952931404114,0.07083380967378616
6,2,64,45,0.4521765112876892,0.2087474763393402
6,2,64,46,0.594838559627533,0.19139188528060913
6,2,64,47,0.48450565338134766,0.06902246177196503
6,2,64,48,0.48016035556793213,0.13396601378917694
6,2,64,49,0.5094507932662964,0.10464664548635483
6,2,64,50,0.6403734087944031,0.09805888682603836
6,2,64,51,0.5536729693412781,0.10296953469514847
6,2,64,52,0.44818323850631714,0.09396274387836456
6,2,64,53,0.5051372051239014,0.13157638907432556
6,2,64,54,0.6252739429473877,0.14957575500011444
6,2,64,55,0.5640918612480164,0.12206032127141953
6,2,64,56,0.4220399856567383,0.07930407673120499
6,2,64,57,0.42709171772003174,0.05505413934588432
6,2,64,58,0.5197962522506714,0.07736217230558395
6,2,64,59,0.6555188894271851,0.12090303748846054
6,2,64,60,0.49477988481521606,0.17370359599590302
6,2,64,61,0.5309609770774841,0.18938301503658295
6,2,64,62,0.48241126537323,0.11681660264730453
6,2,64,63,0.4354988932609558,0.07752758264541626
6,3,64,0,0.3959740102291107,0.04858238995075226
6,3,64,1,0.5482658743858337,0.06155575439333916
6,3,64,2,0.7161133289337158,0.19774986803531647
6,3,64,3,0.5786234140396118,0.17723985016345978
6,3,64,4,0.415353000164032,0.05926994979381561
6,3,64,5,0.5250304341316223,0.1334606558084488
6,3,64,6,0.3190326988697052,0.08772537112236023
6,3,64,7,0.22847966849803925,0.08583304286003113
6,3,64,8,0.7349366545677185,0.14032229781150818
6,3,64,9,0.5226253271102905,0.14802953600883484
6,3,64,10,0.3968241810798645,0.1472361981868744
6,3,64,11,0.5981043577194214,0.30714258551597595
6,3,64,12,0.4779320955276489,0.037351127713918686
6,3,64,13,0.5611876845359802,0.15872348845005035
6,3,64,14,0.5738680362701416,0.10863316804170609
6,3,64,15,0.4540591835975647,0.09496747702360153
6,3,64,16,0.4696280062198639,0.030335266143083572
6,3,64,17,0.4931774437427521,0.057485878467559814
6,3,64,18,0.5260288119316101,0.17634321749210358
6,3,64,19,0.36306411027908325,0.18798436224460602
6,3,64,20,0.4233292043209076,0.17057117819786072
6,3,64,21,0.3557043671607971,0.12189221382141113
6,3,64,22,0.48414146900177,0.17357057332992554
6,3,64,23,0.6576083302497864,0.058211855590343475
6,3,64,24,0.602337121963501,0.27256616950035095
6,3,64,25,0.5126876831054688,0.08113892376422882
6,3,64,26,0.4733118712902069,0.09248469769954681
6,3,64,27,0.7272170782089233,0.10677940398454666
6,3,64,28,0.5107040405273438,0.07240169495344162
6,3,64,29,0.671089768409729,0.17351225018501282
6,3,64,30,0.26873350143432617,0.130229651927948
6,3,64,31,0.5552842020988464,0.10121391713619232
6,3,64,32,0.5373062491416931,0.20468862354755402
6,3,64,33,0.5990039110183716,0.14587482810020447
6,3,64,34,0.5126767754554749,0.2302856594324112
6,3,64,35,0.3936709463596344,0.11495886743068695
6,3,64,36,0.5834285020828247,0.1429174393415451
6,3,64,37,0.5825960636138916,0.12278283387422562
6,3,64,38,0.5798884034156799,0.11975499242544174
6,3,64,39,0.5870842337608337,0.27131083607673645
6,3,64,40,0.6219840049743652,0.24197618663311005
6,3,64,41,0.6352831721305847,0.07564213126897812
6,3,64,42,0.31865188479423523,0.17717131972312927
6,3,64,43,0.3872216045856476,0.0641101524233818
6,3,64,44,0.6389545202255249,0.1851596236228943
6,3,64,45,0.39863520860671997,0.14009305834770203
6,3,64,46,0.5329199433326721,0.14899861812591553
6,3,64,47,0.5446150898933411,0.17297238111495972
6,3,64,48,0.5397958755493164,0.1576903611421585
6,3,64,49,0.33877530694007874,0.12031037360429764
6,3,64,50,0.43069323897361755,0.09198740869760513
6,3,64,51,0.29516658186912537,0.11789096891880035
6,3,64,52,0.30027663707733154,0.08919483423233032
6,3,64,53,0.4653904438018799,0.15152904391288757
6,3,64,54,0.30124181509017944,0.16689659655094147
6,3,64,55,0.37268316745758057,0.07764815539121628
6,3,64,56,0.5658444762229919,0.10776931047439575
6,3,64,57,0.5421698093414307,0.07214462757110596
6,3,64,58,0.5871124267578125,0.2695334553718567
6,3,64,59,0.6566753387451172,0.17676103115081787
