subject,block,block_width,feature_channel,gate_mean,gate_sd
1,0,32,0,0.5416589379310608,0.038340527564287186
1,0,32,1,0.4486411213874817,0.03796958550810814
1,0,32,2,0.6205105781555176,0.05431452766060829
1,0,32,3,0.48607924580574036,0.04387148842215538
1,0,32,4,0.5374986529350281,0.03864229843020439
1,0,32,5,0.6351773738861084,0.036238983273506165
1,0,32,6,0.39884310960769653,0.05014072731137276
1,0,32,7,0.6431055665016174,0.029640110209584236
1,0,32,8,0.446461021900177,0.012381436303257942
1,0,32,9,0.3676058053970337,0.031097358092665672
1,0,32,10,0.5602859258651733,0.023693891242146492
1,0,32,11,0.5187404751777649,0.02927303873002529
1,0,32,12,0.39048755168914795,0.05986535921692848
1,0,32,13,0.47687828540802,0.03526457026600838
1,0,32,14,0.5225287675857544,0.05152982473373413
1,0,32,15,0.5258008241653442,0.04364563524723053
1,0,32,16,0.5201611518859863,0.04754628241062164
1,0,32,17,0.5596407055854797,0.04303690418601036
1,0,32,18,0.5281187295913696,0.02906685508787632
1,0,32,19,0.4436602294445038,0.04178953170776367
1,0,32,20,0.5413935780525208,0.031005866825580597
1,0,32,21,0.6423729658126831,0.027078106999397278
1,0,32,22,0.5283150672912598,0.025181898847222328
1,0,32,23,0.4935173988342285,0.04865822196006775
1,0,32,24,0.5955172777175903,0.031114066019654274
1,0,32,25,0.4205944538116455,0.05090704932808876
1,0,32,26,0.6421880125999451,0.041632745414972305
1,0,32,27,0.5957539081573486,0.0378839410841465
1,0,32,28,0.5652451515197754,0.033984288573265076
1,0,32,29,0.5183180570602417,0.03512239083647728
1,0,32,30,0.5437512397766113,0.03323318809270859
1,0,32,31,0.5496273636817932,0.04706370830535889
1,1,32,0,0.47893866896629333,0.022141702473163605
1,1,32,1,0.4444640576839447,0.041348014026880264
1,1,32,2,0.39948534965515137,0.02895476296544075
1,1,32,3,0.6307281851768494,0.0313839390873909
1,1,32,4,0.5892171859741211,0.007384380325675011
1,1,32,5,0.41090476512908936,0.04730822518467903
1,1,32,6,0.5359230637550354,0.0542331300675869
1,1,32,7,0.5156326293945312,0.03357549384236336
1,1,32,8,0.40325024724006653,0.017525983974337578
1,1,32,9,0.6341171860694885,0.051517553627491
1,1,32,10,0.5722571611404419,0.04105134308338165
1,1,32,11,0.552070677280426,0.024977661669254303
1,1,32,12,0.3764495551586151,0.03603195771574974
1,1,32,13,0.4095807373523712,0.03590639308094978
1,1,32,14,0.5543559789657593,0.0329330675303936
1,1,32,15,0.557299017906189,0.024377811700105667
1,1,32,16,0.479180246591568,0.04847708344459534
1,1,32,17,0.5896233916282654,0.04104958847165108
1,1,32,18,0.47274357080459595,0.028695622459053993
1,1,32,19,0.37538793683052063,0.04096958041191101
1,1,32,20,0.43891724944114685,0.05174548923969269
1,1,32,21,0.4519348442554474,0.07628429681062698
1,1,32,22,0.45385685563087463,0.042188387364149094
1,1,32,23,0.549217939376831,0.03398515284061432
1,1,32,24,0.5691325068473816,0.029763024300336838
1,1,32,25,0.5781675577163696,0.033634815365076065
1,1,32,26,0.5202605724334717,0.03318701684474945
1,1,32,27,0.46053361892700195,0.02113012783229351
1,1,32,28,0.6053421497344971,0.02693318761885166
1,1,32,29,0.5996401906013489,0.03446170315146446
1,1,32,30,0.465853750705719,0.05570779740810394
1,1,32,31,0.5472610592842102,0.06701986491680145
1,2,64,0,0.4717828631401062,0.027454033493995667
1,2,64,1,0.5295531153678894,0.04004618525505066
1,2,64,2,0.4663502871990204,0.025794608518481255
1,2,64,3,0.42549580335617065,0.05436667799949646
1,2,64,4,0.40094229578971863,0.031924135982990265
1,2,64,5,0.5502485036849976,0.042639970779418945
1,2,64,6,0.6046611666679382,0.049581196159124374
1,2,64,7,0.44556814432144165,0.027323903515934944
1,2,64,8,0.5907331705093384,0.030829066410660744
1,2,64,9,0.5849528908729553,0.0509101003408432
1,2,64,10,0.6080460548400879,0.034444380551576614
1,2,64,11,0.4188816547393799,0.045768823474645615
1,2,64,12,0.5718254446983337,0.03974227234721184
1,2,64,13,0.5254896879196167,0.047150809317827225
1,2,64,14,0.5142790675163269,0.005860080011188984
1,2,64,15,0.439632773399353,0.045503802597522736
1,2,64,16,0.5268263816833496,0.035444024950265884
1,2,64,17,0.5600284934043884,0.05999075993895531
1,2,64,18,0.568534791469574,0.023617656901478767
1,2,64,19,0.44026979804039,0.028165725991129875
1,2,64,20,0.5999804139137268,0.017052019014954567
1,2,64,21,0.5449769496917725,0.03342653810977936
1,2,64,22,0.4201570749282837,0.02771405316889286
1,2,64,23,0.5291749835014343,0.041460514068603516
1,2,64,24,0.5157836675643921,0.04519209638237953
1,2,64,25,0.5496805906295776,0.028134014457464218
1,2,64,26,0.47230029106140137,0.040588997304439545
1,2,64,27,0.6207231879234314,0.05163632705807686
1,2,64,28,0.4858635365962982,0.023518584668636322
1,2,64,29,0.4564160704612732,0.024235181510448456
1,2,64,30,0.4917334020137787,0.07428751140832901
1,2,64,31,0.4496716856956482,0.036388982087373734
1,2,64,32,0.5440839529037476,0.01983288675546646
1,2,64,33,0.45563700795173645,0.06511292606592178
1,2,64,34,0.5135549902915955,0.042020924389362335
1,2,64,35,0.4676046669483185,0.04349702224135399
1,2,64,36,0.5089235305786133,0.05229489505290985
1,2,64,37,0.5102037787437439,0.053232185542583466
1,2,64,38,0.5677263140678406,0.048272352665662766
1,2,64,39,0.437894731760025,0.018593575805425644
1,2,64,40,0.45137864351272583,0.04310653731226921
1,2,64,41,0.5393611192703247,0.04159114137291908
1,2,64,42,0.5353809595108032,0.03865388035774231
1,2,64,43,0.40638092160224915,0.03454219177365303
1,2,64,44,0.39767593145370483,0.019009115174412727
1,2,64,45,0.5377110838890076,0.04285259172320366
1,2,64,46,0.43010732531547546,0.018089771270751953
1,2,64,47,0.49440962076187134,0.034142132848501205
1,2,64,48,0.476924866437912,0.03512006998062134
1,2,64,49,0.43005743622779846,0.05263413116335869
1,2,64,50,0.5159204602241516,0.02402561530470848
1,2,64,51,0.529921293258667,0.040477391332387924
1,2,64,52,0.41506558656692505,0.021576646715402603
1,2,64,53,0.5479145646095276,0.04430690407752991
1,2,64,54,0.43722057342529297,0.05039053410291672
1,2,64,55,0.5769379138946533,0.02246113121509552
1,2,64,56,0.4588741660118103,0.036384813487529755
1,2,64,57,0.5677616000175476,0.029195278882980347
1,2,64,58,0.5142170786857605,0.02968764677643776
1,2,64,59,0.4760286509990692,0.01550059113651514
1,2,64,60,0.46250468492507935,0.028243642300367355
1,2,64,61,0.5204545259475708,0.017747269943356514
1,2,64,62,0.46509090065956116,0.051427777856588364
1,2,64,63,0.4253060519695282,0.039359476417303085
1,3,64,0,0.5613800883293152,0.0224386528134346
1,3,64,1,0.48678964376449585,0.059574924409389496
1,3,64,2,0.4793456494808197,0.034531574696302414
1,3,64,3,0.37173596024513245,0.11767774075269699
1,3,64,4,0.47339335083961487,0.0243670791387558
1,3,64,5,0.3526899814605713,0.053561192005872726
1,3,64,6,0.45928505063056946,0.06877295672893524
1,3,64,7,0.47915202379226685,0.08178873360157013
1,3,64,8,0.5740420818328857,0.021531006321310997
1,3,64,9,0.4700421392917633,0.06671329587697983
1,3,64,10,0.4881735146045685,0.024708041921257973
1,3,64,11,0.44809260964393616,0.08375867456197739
1,3,64,12,0.4810071289539337,0.08730526268482208
1,3,64,13,0.4905012547969818,0.036256540566682816
1,3,64,14,0.6482515931129456,0.09969332814216614
1,3,64,15,0.4454468786716461,0.03729803487658501
1,3,64,16,0.44349798560142517,0.05231098830699921
1,3,64,17,0.48814550042152405,0.0864376574754715
1,3,64,18,0.5001890063285828,0.035588186234235764
1,3,64,19,0.5108112096786499,0.1198025569319725
1,3,64,20,0.47598350048065186,0.09382960945367813
1,3,64,21,0.4702270030975342,0.034238867461681366
1,3,64,22,0.5552089810371399,0.03456783667206764
1,3,64,23,0.4914083778858185,0.07639294862747192
1,3,64,24,0.5336782336235046,0.04246539622545242
1,3,64,25,0.457139253616333,0.034609850496053696
1,3,64,26,0.5342862606048584,0.07337958365678787
1,3,64,27,0.44182702898979187,0.08933486044406891
1,3,64,28,0.4851178526878357,0.08396574854850769
1,3,64,29,0.47733449935913086,0.05871313065290451
1,3,64,30,0.5308033227920532,0.04910983517765999
1,3,64,31,0.5021056532859802,0.08055491000413895
1,3,64,32,0.6111688017845154,0.09295414388179779
1,3,64,33,0.5568772554397583,0.05126873776316643
1,3,64,34,0.3898497223854065,0.10914172232151031
1,3,64,35,0.5079689025878906,0.09605313092470169
1,3,64,36,0.3930457830429077,0.09282713383436203
1,3,64,37,0.38178959488868713,0.07165117561817169
1,3,64,38,0.45545411109924316,0.06652569770812988
1,3,64,39,0.4673381447792053,0.06125977262854576
1,3,64,40,0.5540190935134888,0.03638509288430214
1,3,64,41,0.5076519250869751,0.036168843507766724
1,3,64,42,0.49455955624580383,0.020718539133667946
1,3,64,43,0.477183997631073,0.029536474496126175
1,3,64,44,0.5234396457672119,0.12098117172718048
1,3,64,45,0.5902999639511108,0.03894919157028198
1,3,64,46,0.4639540910720825,0.05815057456493378
1,3,64,47,0.555572509765625,0.09121955931186676
1,3,64,48,0.5447208881378174,0.035060010850429535
1,3,64,49,0.5692912936210632,0.04642053321003914
1,3,64,50,0.468716025352478,0.12574413418769836
1,3,64,51,0.45374977588653564,0.048722680658102036
1,3,64,52,0.4858935475349426,0.12176802009344101
1,3,64,53,0.4688611924648285,0.0843360498547554
1,3,64,54,0.547977864742279,0.01789797469973564
1,3,64,55,0.4698207676410675,0.048951003700494766
1,3,64,56,0.6495778560638428,0.052138954401016235
1,3,64,57,0.6144980192184448,0.03701323643326759
1,3,64,58,0.5535531044006348,0.041390519589185715
1,3,64,59,0.5470470190048218,0.028663594275712967
1,3,64,60,0.5283762812614441,0.04735604301095009
1,3,64,61,0.420843243598938,0.062412794679403305
1,3,64,62,0.5050230026245117,0.038164589554071426
1,3,64,63,0.5905069708824158,0.04373311996459961
1,4,128,0,0.4219692051410675,0.06396988779306412
1,4,128,1,0.4176075756549835,0.05152882635593414
1,4,128,2,0.46403002738952637,0.08918234705924988
1,4,128,3,0.5525637269020081,0.060428909957408905
1,4,128,4,0.40105608105659485,0.08815731853246689
1,4,128,5,0.5820990800857544,0.08115549385547638
1,4,128,6,0.586344301700592,0.043026071041822433
1,4,128,7,0.4843007028102875,0.08072706311941147
1,4,128,8,0.4568661153316498,0.07325117290019989
1,4,128,9,0.6499381065368652,0.14161603152751923
1,4,128,10,0.4875020384788513,0.11275560408830643
1,4,128,11,0.5672438740730286,0.09954136610031128
1,4,128,12,0.43121400475502014,0.17573194205760956
1,4,128,13,0.6200569868087769,0.12764665484428406
1,4,128,14,0.5087407827377319,0.07538244128227234
1,4,128,15,0.6227976679801941,0.05650736019015312
1,4,128,16,0.4211714565753937,0.11467616260051727
1,4,128,17,0.4895976781845093,0.20879121124744415
1,4,128,18,0.47419875860214233,0.09387192130088806
1,4,128,19,0.38444754481315613,0.14759817719459534
1,4,128,20,0.5416862368583679,0.10761746019124985
1,4,128,21,0.5961743593215942,0.17551013827323914
1,4,128,22,0.5918960571289062,0.08630528301000595
1,4,128,23,0.41326943039894104,0.1270190179347992
1,4,128,24,0.45442092418670654,0.06976648420095444
1,4,128,25,0.600443959236145,0.0693751871585846
1,4,128,26,0.49684634804725647,0.06619080901145935
1,4,128,27,0.663209855556488,0.1568598449230194
1,4,128,28,0.5289586782455444,0.0633578822016716
1,4,128,29,0.6123737692832947,0.11678526550531387
1,4,128,30,0.6339676380157471,0.06401224434375763
1,4,128,31,0.4247305691242218,0.07790946960449219
1,4,128,32,0.6227405071258545,0.12479478865861893
1,4,128,33,0.5505456328392029,0.036457110196352005
1,4,128,34,0.5792591571807861,0.05911213159561157
1,4,128,35,0.5153041481971741,0.05277881771326065
1,4,128,36,0.6078333258628845,0.08303940296173096
1,4,128,37,0.5172023773193359,0.07497884333133698
1,4,128,38,0.6369461417198181,0.10267779231071472
1,4,128,39,0.4793786108493805,0.06178632006049156
1,4,128,40,0.36027461290359497,0.0935330018401146
1,4,128,41,0.5850358605384827,0.06875650584697723
1,4,128,42,0.36943942308425903,0.06605019420385361
1,4,128,43,0.4404102563858032,0.11406458169221878
1,4,128,44,0.6204869747161865,0.06658043712377548
1,4,128,45,0.5414389967918396,0.04077940806746483
1,4,128,46,0.33803263306617737,0.0489087738096714
1,4,128,47,0.5322346687316895,0.03322026878595352
1,4,128,48,0.42766833305358887,0.11517511308193207
1,4,128,49,0.5122606158256531,0.09185883402824402
1,4,128,50,0.5957606434822083,0.12622499465942383
1,4,128,51,0.5969055891036987,0.10907256603240967
1,4,128,52,0.42639368772506714,0.08221326023340225
1,4,128,53,0.6067917346954346,0.20655971765518188
1,4,128,54,0.5094749927520752,0.08948896825313568
1,4,128,55,0.5563538670539856,0.05748656764626503
1,4,128,56,0.5594421625137329,0.1669086068868637
1,4,128,57,0.5638288259506226,0.15616758167743683
1,4,128,58,0.7135456800460815,0.10276118665933609
1,4,128,59,0.43931129574775696,0.048466913402080536
1,4,128,60,0.4777746796607971,0.09914208948612213
1,4,128,61,0.372661828994751,0.06401143223047256
1,4,128,62,0.6790326833724976,0.06161660701036453
1,4,128,63,0.5688693523406982,0.13997092843055725
1,4,128,64,0.5503705143928528,0.048578232526779175
1,4,128,65,0.5428493618965149,0.12235375493764877
1,4,128,66,0.424945205450058,0.13629479706287384
1,4,128,67,0.585856556892395,0.04415874183177948
1,4,128,68,0.5026969313621521,0.19048869609832764
1,4,128,69,0.5396506190299988,0.03855729103088379
1,4,128,70,0.4617995619773865,0.12422964721918106
1,4,128,71,0.6253750324249268,0.06711364537477493
1,4,128,72,0.3556354343891144,0.07994987070560455
1,4,128,73,0.45977693796157837,0.10981277376413345
1,4,128,74,0.38047197461128235,0.08084151893854141
1,4,128,75,0.5106633305549622,0.16029812395572662
1,4,128,76,0.4958377480506897,0.16458100080490112
1,4,128,77,0.6183813214302063,0.1463039219379425
1,4,128,78,0.601394534111023,0.0882037803530693
1,4,128,79,0.5862683653831482,0.03753218427300453
1,4,128,80,0.3360259532928467,0.054250720888376236
1,4,128,81,0.5517155528068542,0.06571607291698456
1,4,128,82,0.5302539467811584,0.06807800382375717
1,4,128,83,0.5076781511306763,0.07507356256246567
1,4,128,84,0.5213746428489685,0.0727703869342804
1,4,128,85,0.6341511011123657,0.09230535477399826
1,4,128,86,0.5912020206451416,0.1602548211812973
1,4,128,87,0.47146421670913696,0.07715737819671631
1,4,128,88,0.5943917632102966,0.06612589955329895
1,4,128,89,0.457710325717926,0.0978202298283577
1,4,128,90,0.5677287578582764,0.05575898662209511
1,4,128,91,0.5058251023292542,0.08901998400688171
1,4,128,92,0.5629903078079224,0.09679341316223145
1,4,128,93,0.576975405216217,0.21756651997566223
1,4,128,94,0.6230214238166809,0.06197185069322586
1,4,128,95,0.40657839179039,0.03815745562314987
1,4,128,96,0.35765543580055237,0.09655404835939407
1,4,128,97,0.48394060134887695,0.049271129071712494
1,4,128,98,0.5843709707260132,0.0991225317120552
1,4,128,99,0.5358123183250427,0.04304487630724907
1,4,128,100,0.5288215279579163,0.14248813688755035
1,4,128,101,0.4093967080116272,0.09706767648458481
1,4,128,102,0.5051783919334412,0.052490271627902985
1,4,128,103,0.6410427689552307,0.14022251963615417
1,4,128,104,0.478882759809494,0.02803168259561062
1,4,128,105,0.408474326133728,0.045620959252119064
1,4,128,106,0.433397114276886,0.05110349878668785
1,4,128,107,0.5790975093841553,0.09618879109621048
1,4,128,108,0.4859890341758728,0.05666200816631317
1,4,128,109,0.5378364324569702,0.1598307341337204
1,4,128,110,0.4882042109966278,0.12939263880252838
1,4,128,111,0.6364967823028564,0.0787855014204979
1,4,128,112,0.656524658203125,0.13885657489299774
1,4,128,113,0.5690829157829285,0.11863621324300766
1,4,128,114,0.3506872355937958,0.04307131841778755
1,4,128,115,0.48739951848983765,0.05454683676362038
1,4,128,116,0.5457907319068909,0.030979447066783905
1,4,128,117,0.5429063439369202,0.14531685411930084
1,4,128,118,0.38756847381591797,0.03612235561013222
1,4,128,119,0.5216813087463379,0.06558509916067123
1,4,128,120,0.38558971881866455,0.15550729632377625
1,4,128,121,0.5898023843765259,0.06787101924419403
1,4,128,122,0.601543664932251,0.06563740223646164
1,4,128,123,0.5015963912010193,0.06935017555952072
1,4,128,124,0.3838663697242737,0.10143490880727768
1,4,128,125,0.6312208771705627,0.11660747230052948
1,4,128,126,0.3856726586818695,0.09569954127073288
1,4,128,127,0.6050518155097961,0.06562208384275436
1,5,128,0,0.5209999680519104,0.09504188597202301
1,5,128,1,0.6913678646087646,0.12005841732025146
1,5,128,2,0.55103600025177,0.061354417353868484
1,5,128,3,0.3084489107131958,0.06948424130678177
1,5,128,4,0.6476898789405823,0.10914517194032669
1,5,128,5,0.6358748078346252,0.17367853224277496
1,5,128,6,0.70521479845047,0.08553097397089005
1,5,128,7,0.5856825709342957,0.043457992374897
1,5,128,8,0.6028317213058472,0.1507020741701126
1,5,128,9,0.43845781683921814,0.041735149919986725
1,5,128,10,0.6558746695518494,0.1875094771385193
1,5,128,11,0.3673591911792755,0.04529275372624397
1,5,128,12,0.38654759526252747,0.16541849076747894
1,5,128,13,0.6179969906806946,0.1271812617778778
1,5,128,14,0.6512724757194519,0.0747780129313469
1,5,128,15,0.3595249354839325,0.1432858258485794
1,5,128,16,0.24629808962345123,0.14493048191070557
1,5,128,17,0.4986400604248047,0.07701834291219711
1,5,128,18,0.3724234402179718,0.1323571354150772
1,5,128,19,0.5209662914276123,0.03241048380732536
1,5,128,20,0.5881152749061584,0.0467647947371006
1,5,128,21,0.5780728459358215,0.0828719362616539
1,5,128,22,0.5816982388496399,0.07300922274589539
1,5,128,23,0.4001689553260803,0.057487305253744125
1,5,128,24,0.3917548954486847,0.0437685027718544
1,5,128,25,0.6741083264350891,0.16371332108974457
1,5,128,26,0.41440021991729736,0.09729539602994919
1,5,128,27,0.6379843950271606,0.08717475086450577
1,5,128,28,0.6037176847457886,0.1552838385105133
1,5,128,29,0.6456822752952576,0.13132025301456451
1,5,128,30,0.562615156173706,0.054151903837919235
1,5,128,31,0.4183034598827362,0.03967149183154106
1,5,128,32,0.4790996313095093,0.07932616770267487
1,5,128,33,0.43402522802352905,0.061291906982660294
1,5,128,34,0.5068709850311279,0.06021416559815407
1,5,128,35,0.5425891876220703,0.055393286049366
1,5,128,36,0.46472248435020447,0.07320888340473175
1,5,128,37,0.5540665984153748,0.09972304850816727
1,5,128,38,0.406366229057312,0.11569066345691681
1,5,128,39,0.5947138667106628,0.11600323766469955
1,5,128,40,0.7072858214378357,0.10530804097652435
1,5,128,41,0.5640981197357178,0.057678863406181335
1,5,128,42,0.5431934595108032,0.08058635145425797
1,5,128,43,0.5658680200576782,0.15055117011070251
1,5,128,44,0.4913943111896515,0.09157267957925797
1,5,128,45,0.5666740536689758,0.027930516749620438
1,5,128,46,0.43141239881515503,0.06929096579551697
1,5,128,47,0.678183376789093,0.16989418864250183
1,5,128,48,0.499802827835083,0.06263678520917892
1,5,128,49,0.4388360381126404,0.055999353528022766
1,5,128,50,0.5126721262931824,0.13057389855384827
1,5,128,51,0.5521930456161499,0.08784745633602142
1,5,128,52,0.7205485701560974,0.06885666400194168
1,5,128,53,0.637048602104187,0.06031719967722893
1,5,128,54,0.41123250126838684,0.07575686275959015
1,5,128,55,0.5220807790756226,0.07743372768163681
1,5,128,56,0.45016252994537354,0.0648864284157753
1,5,128,57,0.5293288826942444,0.02725800685584545
1,5,128,58,0.6158772110939026,0.05713147297501564
1,5,128,59,0.6522294282913208,0.04615726321935654
1,5,128,60,0.6094361543655396,0.15824857354164124
1,5,128,61,0.6108633279800415,0.13779112696647644
1,5,128,62,0.5442208647727966,0.0827140137553215
1,5,128,63,0.47924381494522095,0.04943690448999405
1,5,128,64,0.3813426196575165,0.04786697402596474
1,5,128,65,0.7000423073768616,0.12892703711986542
1,5,128,66,0.34106501936912537,0.08819694072008133
1,5,128,67,0.42072975635528564,0.03583451360464096
1,5,128,68,0.6160097718238831,0.08524248003959656
1,5,128,69,0.6743642687797546,0.16876164078712463
1,5,128,70,0.5918543934822083,0.07991454005241394
1,5,128,71,0.5582965612411499,0.12774959206581116
1,5,128,72,0.38762012124061584,0.0557556077837944
1,5,128,73,0.6101426482200623,0.08216410875320435
1,5,128,74,0.5626651644706726,0.032814182341098785
1,5,128,75,0.34299835562705994,0.11830204725265503
1,5,128,76,0.6447559595108032,0.060468897223472595
1,5,128,77,0.44572970271110535,0.03352992981672287
1,5,128,78,0.6066079139709473,0.10142166167497635
1,5,128,79,0.4908296465873718,0.09637092053890228
1,5,128,80,0.4276813566684723,0.08683907240629196
1,5,128,81,0.5834760069847107,0.05844605714082718
1,5,128,82,0.5134899020195007,0.08820085227489471
1,5,128,83,0.6370686888694763,0.15015658736228943
1,5,128,84,0.5400751829147339,0.13886769115924835
1,5,128,85,0.4614664614200592,0.049077849835157394
1,5,128,86,0.5750654339790344,0.12060698866844177
1,5,128,87,0.5537036061286926,0.04997942969202995
1,5,128,88,0.5114694237709045,0.13933703303337097
1,5,128,89,0.271341472864151,0.12163238227367401
1,5,128,90,0.5796673893928528,0.059640251100063324
1,5,128,91,0.7195377945899963,0.10358966141939163
1,5,128,92,0.4601937234401703,0.06366265565156937
1,5,128,93,0.6438481211662292,0.09577380120754242
1,5,128,94,0.5562368035316467,0.03824805095791817
1,5,128,95,0.5363477468490601,0.12174417823553085
1,5,128,96,0.599507212638855,0.1069565862417221
1,5,128,97,0.5882303714752197,0.10230891406536102
1,5,128,98,0.5027175545692444,0.03728626295924187
1,5,128,99,0.5548840761184692,0.15674984455108643
1,5,128,100,0.4714258313179016,0.037429600954055786
1,5,128,101,0.6125089526176453,0.06309725344181061
1,5,128,102,0.3644307553768158,0.06301400065422058
1,5,128,103,0.5863671898841858,0.11762373894453049
1,5,128,104,0.5269659757614136,0.06120367720723152
1,5,128,105,0.5256603360176086,0.053984206169843674
1,5,128,106,0.6382977366447449,0.09468218684196472
1,5,128,107,0.45457524061203003,0.057981472462415695
1,5,128,108,0.5641619563102722,0.11693887412548065
1,5,128,109,0.6114115118980408,0.1547439694404602
1,5,128,110,0.6736174821853638,0.08303450047969818
1,5,128,111,0.6871474385261536,0.20256133377552032
1,5,128,112,0.6473474502563477,0.07144684344530106
1,5,128,113,0.5950595140457153,0.06001913547515869
1,5,128,114,0.5457337498664856,0.0799899771809578
1,5,128,115,0.5400000810623169,0.0617067888379097
1,5,128,116,0.4170086979866028,0.059107426553964615
1,5,128,117,0.6164629459381104,0.06852629035711288
1,5,128,118,0.4937107264995575,0.08806774765253067
1,5,128,119,0.6110540628433228,0.044774919748306274
1,5,128,120,0.5716039538383484,0.1785631775856018
1,5,128,121,0.5586860179901123,0.1106417328119278
1,5,128,122,0.6052728891372681,0.1387360841035843
1,5,128,123,0.7308182120323181,0.1158662810921669
1,5,128,124,0.4187387526035309,0.11021219193935394
1,5,128,125,0.607029378414154,0.060236893594264984
1,5,128,126,0.40347883105278015,0.07002179324626923
1,5,128,127,0.48317405581474304,0.11006113141775131
