subject,channel,alpha,f1,drop_pp
156,0,1.0,0.715692409625533,0.0
156,0,0.75,0.7310862613255856,-1.5393851700052585
156,0,0.5,0.7151140932418341,0.057831638369898464
156,0,0.25,0.6857251907780249,2.9967218847508192
156,0,0.0,0.6590726528085717,5.66197568169613
156,1,1.0,0.715692409625533,0.0
156,1,0.75,0.7084466635333729,0.724574609216011
156,1,0.5,0.6967786850922776,1.891372453325546
156,1,0.25,0.6786470136225189,3.7045396003014153
156,1,0.0,0.6469720254320558,6.872038419347726
156,2,1.0,0.715692409625533,0.0
156,2,0.75,0.720482807089517,-0.47903974639839086
156,2,0.5,0.7097820112011997,0.5910398424333385
156,2,0.25,0.7024406710292929,1.3251738596240181
156,2,0.0,0.6974514538223417,1.8240955803191294
156,3,1.0,0.715692409625533,0.0
156,3,0.75,0.7163926603960573,-0.07002507705242689
156,3,0.5,0.70906233251554,0.6630077109993082
156,3,0.25,0.7090752477286143,0.6617161896918744
156,3,0.0,0.6959877394336171,1.9704670191915907
156,4,1.0,0.715692409625533,0.0
156,4,0.75,0.7215862613726478,-0.5893851747114764
156,4,0.5,0.7180829111488635,-0.2390501523330424
156,4,0.25,0.7054045220639064,1.0287887561626685
156,4,0.0,0.6871046805581376,2.8587729067395484
156,5,1.0,0.715692409625533,0.0
156,5,0.75,0.7109328244383942,0.4759585187138815
156,5,0.5,0.6862650152780424,2.9427394347490643
156,5,0.25,0.6688483126231088,4.68440970024242
156,5,0.0,0.6265101111813564,8.918229844417668
156,6,1.0,0.715692409625533,0.0
156,6,0.75,0.713090671793199,0.26017378323340834
156,6,0.5,0.7080606120534537,0.7631797572079324
156,6,0.25,0.7044012918700464,1.1291117755486635
156,6,0.0,0.7003563961491662,1.5336013476366817
185,0,1.0,0.6453296287112626,0.0
185,0,0.75,0.6444113174017198,0.09183113095428963
185,0,0.5,0.6329124368910576,1.2417191820205065
185,0,0.25,0.6111953662946054,3.413426241665729
185,0,0.0,0.5891121249677385,5.621750374352419
185,1,1.0,0.6453296287112626,0.0
185,1,0.75,0.6474595783802597,-0.21299496689970443
185,1,0.5,0.6514128815299113,-0.6083252818648632
185,1,0.25,0.6488879934390506,-0.35583647277879216
185,1,0.0,0.6326725396110389,1.2657089100223784
185,2,1.0,0.6453296287112626,0.0
185,2,0.75,0.6351979946310424,1.013163408022022
185,2,0.5,0.6215092577486008,2.3820370962661874
185,2,0.25,0.605152756803315,4.017687190794761
185,2,0.0,0.5803559180721543,6.4973710639108395
185,3,1.0,0.6453296287112626,0.0
185,3,0.75,0.642142693291342,0.31869354199206557
185,3,0.5,0.6307439217688374,1.4585706942425225
185,3,0.25,0.6221184814860794,2.321114722518325
185,3,0.0,0.6121002422666451,3.3229386444617592
185,4,1.0,0.6453296287112626,0.0
185,4,0.75,0.6460804662338981,-0.07508375226354946
185,4,0.5,0.6365569744474399,0.8772654263822788
185,4,0.25,0.6258226886282345,1.9506940083028113
185,4,0.0,0.6117740810889964,3.35555476222662
185,5,1.0,0.6453296287112626,0.0
185,5,0.75,0.6633438138204388,-1.8014185109176184
185,5,0.5,0.6645804619288996,-1.9250833217636987
185,5,0.25,0.6506219098435786,-0.5292281132315946
185,5,0.0,0.6226328604362766,2.2696768274986012
185,6,1.0,0.6453296287112626,0.0
185,6,0.75,0.6455010417415475,-0.017141303028489485
185,6,0.5,0.6450320239888856,0.029760472237705393
185,6,0.25,0.6456576539555511,-0.03280252442884324
185,6,0.0,0.6459318804180145,-0.060225170675187734
186,0,1.0,0.7456616933268045,0.0
186,0,0.75,0.7340089070223736,1.1652786304430895
186,0,0.5,0.7053530751241268,4.030861820267773
186,0,0.25,0.6797746207430025,6.5887072583802
186,0,0.0,0.661047228791174,8.46144645356306
186,1,1.0,0.7456616933268045,0.0
186,1,0.75,0.7363851191536308,0.9276574173173735
186,1,0.5,0.7278515304039235,1.7810162922881068
186,1,0.25,0.712090528195634,3.3571165131170533
186,1,0.0,0.6736099242916647,7.205176903513988
186,2,1.0,0.7456616933268045,0.0
186,2,0.75,0.7456593801583233,0.00023131684812049969
186,2,0.5,0.7355398295445479,1.0121863782256657
186,2,0.25,0.7125756997461632,3.308599358064135
186,2,0.0,0.7027539740899746,4.29077192368299
186,3,1.0,0.7456616933268045,0.0
186,3,0.75,0.7467568401985061,-0.10951468717015356
186,3,0.5,0.7429527556434008,0.2708937683403745
186,3,0.25,0.7354536555020615,1.0208037824743
186,3,0.0,0.7259054432569568,1.9756250069847714
186,4,1.0,0.7456616933268045,0.0
186,4,0.75,0.7378149140210241,0.7846779305780482
186,4,0.5,0.725150544641453,2.0511148685351532
186,4,0.25,0.6995474964210394,4.611419690576513
186,4,0.0,0.6635957475328729,8.206594579393167
186,5,1.0,0.7456616933268045,0.0
186,5,0.75,0.7508921187867776,-0.5230425459973098
186,5,0.5,0.7407084158613852,0.49532774654192924
186,5,0.25,0.7158432821697442,2.98184111570603
186,5,0.0,0.6752195107503186,7.044218257648593
186,6,1.0,0.7456616933268045,0.0
186,6,0.75,0.7535866680163358,-0.7924974689531239
186,6,0.5,0.7510209333221496,-0.5359239995345044
186,6,0.25,0.7450508348806627,0.06108584461418376
186,6,0.0,0.7408341234624711,0.4827569864333414
188,0,1.0,0.5941399934603235,0.0
188,0,0.75,0.5770722686908039,1.7067724769519677
188,0,0.5,0.5531541016833628,4.098589177696077
188,0,0.25,0.5285400132306941,6.559998022962943
188,0,0.0,0.5213790881037326,7.276090535659097
188,1,1.0,0.5941399934603235,0.0
188,1,0.75,0.5904606584083854,0.3679335051938182
188,1,0.5,0.5780679016655397,1.607209179478386
188,1,0.25,0.5626878412607432,3.1452152199580308
188,1,0.0,0.5363222872689427,5.781770619138083
188,2,1.0,0.5941399934603235,0.0
188,2,0.75,0.5827998280096752,1.134016545064831
188,2,0.5,0.5667306492051477,2.7409344255175827
188,2,0.25,0.5450152744897241,4.912471897059945
188,2,0.0,0.5329826862979423,6.115730716238121
188,3,1.0,0.5941399934603235,0.0
188,3,0.75,0.5820844601439799,1.205553331634368
188,3,0.5,0.5675027954888123,2.6637197971511206
188,3,0.25,0.5512263628934815,4.291363056684205
188,3,0.0,0.5330906825615864,6.104931089873711
188,4,1.0,0.5941399934603235,0.0
188,4,0.75,0.5901503448453357,0.3989648614987851
188,4,0.5,0.5864220035968646,0.7717989863458952
188,4,0.25,0.5781102477472495,1.6029745713074028
188,4,0.0,0.5647177740226529,2.942221943767065
188,5,1.0,0.5941399934603235,0.0
188,5,0.75,0.5917442065846555,0.23957868756679934
188,5,0.5,0.569759761689881,2.4380231770442573
188,5,0.25,0.5489879903492978,4.515200311102574
188,5,0.0,0.5237347492061925,7.040524425413109
188,6,1.0,0.5941399934603235,0.0
188,6,0.75,0.5968232402466747,-0.26832467863511233
188,6,0.5,0.5992834063760701,-0.5143412915746604
188,6,0.25,0.6014981127224047,-0.7358119262081186
188,6,0.0,0.6050718678647445,-1.0931874404421005
189,0,1.0,0.6723385421943795,0.0
189,0,0.75,0.6655277271940494,0.6810815000330095
189,0,0.5,0.6424080293579071,2.993051283647241
189,0,0.25,0.6118383588696858,6.050018332469365
189,0,0.0,0.5865287720338644,8.580977016051506
189,1,1.0,0.6723385421943795,0.0
189,1,0.75,0.6792541121664539,-0.6915569972074431
189,1,0.5,0.6761654941993026,-0.3826952004923112
189,1,0.25,0.6645468864909632,0.7791655703416334
189,1,0.0,0.6364935173221504,3.584502487222907
189,2,1.0,0.6723385421943795,0.0
189,2,0.75,0.6877197299030108,-1.5381187708631283
189,2,0.5,0.685107672360555,-1.2769130166175535
189,2,0.25,0.6771805154316186,-0.48419732372391167
189,2,0.0,0.6687383262197817,0.3600215974597809
189,3,1.0,0.6723385421943795,0.0
189,3,0.75,0.677273612321325,-0.49350701269454955
189,3,0.5,0.6712124877008742,0.11260544935053352
189,3,0.25,0.6684432672743544,0.389527492002506
189,3,0.0,0.6503709961570776,2.196754603730189
189,4,1.0,0.6723385421943795,0.0
189,4,0.75,0.6711450576134297,0.11934845809498107
189,4,0.5,0.6596288345620175,1.270970763236201
189,4,0.25,0.6473528113586258,2.4985730835753728
189,4,0.0,0.6251521145688876,4.718642762549186
189,5,1.0,0.6723385421943795,0.0
189,5,0.75,0.6572353735190055,1.510316867537398
189,5,0.5,0.6150904928962166,5.724804929816285
189,5,0.25,0.5657720826783164,10.656645951606315
189,5,0.0,0.5254171387415331,14.692140345284644
189,6,1.0,0.6723385421943795,0.0
189,6,0.75,0.6911364368896848,-1.879789469530535
189,6,0.5,0.7124393337685635,-4.0100791574184
189,6,0.25,0.7265259898188886,-5.4187447624509115
189,6,0.0,0.7298053832259616,-5.746684103158206
190,0,1.0,0.6469750386076875,0.0
190,0,0.75,0.6748451656731287,-2.787012706544123
190,0,0.5,0.680683770044029,-3.3708731436341566
190,0,0.25,0.6508960836395915,-0.3921045031904047
190,0,0.0,0.6278897830770844,1.908525553060303
190,1,1.0,0.6469750386076875,0.0
190,1,0.75,0.637504177201002,0.9470861406685405
190,1,0.5,0.6143727658991934,3.260227270849403
190,1,0.25,0.5900134932973407,5.696154531034681
190,1,0.0,0.5751914832570766,7.178355535061087
190,2,1.0,0.6469750386076875,0.0
190,2,0.75,0.6396796357753516,0.7295402832335873
190,2,0.5,0.6028581181667007,4.411692044098681
190,2,0.25,0.5731339521723757,7.384108643531173
190,2,0.0,0.5363262563657153,11.064878224197216
190,3,1.0,0.6469750386076875,0.0
190,3,0.75,0.6514808968008137,-0.4505858193126211
190,3,0.5,0.6449942173106429,0.1980821297044577
190,3,0.25,0.6338731624206997,1.310187618698777
190,3,0.0,0.6202774229580292,2.6697615649658224
190,4,1.0,0.6469750386076875,0.0
190,4,0.75,0.6634896914696762,-1.6514652861988721
190,4,0.5,0.6631434184992657,-1.6168379891578266
190,4,0.25,0.6420584898375937,0.49165487700937316
190,4,0.0,0.5961716530856533,5.080338552203411
190,5,1.0,0.6469750386076875,0.0
190,5,0.75,0.6567269794075915,-0.9751940799904046
190,5,0.5,0.6354690885427343,1.150595006495314
190,5,0.25,0.6117317517050784,3.524328690260903
190,5,0.0,0.5771058090910549,6.986922951663255
190,6,1.0,0.6469750386076875,0.0
190,6,0.75,0.644636474133796,0.2338564473891469
190,6,0.5,0.6369644711425388,1.0010567465148612
190,6,0.25,0.6272772705667451,1.9697768040942365
190,6,0.0,0.6170480985435647,2.9926940064122776
191,0,1.0,0.6218412433121788,0.0
191,0,0.75,0.6213936911304918,0.04475521816870165
191,0,0.5,0.604761198630404,1.708004468177482
191,0,0.25,0.5607550111108659,6.108623220131292
191,0,0.0,0.5527844084331706,6.905683487900827
191,1,1.0,0.6218412433121788,0.0
191,1,0.75,0.6086151899536711,1.3226053358507683
191,1,0.5,0.5906573655531698,3.1183877759008993
191,1,0.25,0.5730780255325624,4.876321777961645
191,1,0.0,0.542846172348769,7.899507096340985
191,2,1.0,0.6218412433121788,0.0
191,2,0.75,0.6219214773441131,-0.008023403193424539
191,2,0.5,0.6310019749319946,-0.9160731619815787
191,2,0.25,0.6440344728148629,-2.2193229502684098
191,2,0.0,0.6349424550004881,-1.3101211688309244
191,3,1.0,0.6218412433121788,0.0
191,3,0.75,0.6481376849147071,-2.629644160252831
191,3,0.5,0.6747391402859245,-5.2897896973745695
191,3,0.25,0.6924400152434159,-7.059877193123709
191,3,0.0,0.7053077289452561,-8.346648563307724
191,4,1.0,0.6218412433121788,0.0
191,4,0.75,0.6308188396156735,-0.8977596303494706
191,4,0.5,0.6355565210166552,-1.3715277704476336
191,4,0.25,0.6316772296447644,-0.9835986332585533
191,4,0.0,0.6327357475932095,-1.089450428103067
191,5,1.0,0.6218412433121788,0.0
191,5,0.75,0.6148684221042973,0.6972821207881563
191,5,0.5,0.5941040415397019,2.773720177247696
191,5,0.25,0.5627072769019354,5.913396641024338
191,5,0.0,0.5157242437936289,10.611699951854991
191,6,1.0,0.6218412433121788,0.0
191,6,0.75,0.6219157211041456,-0.007447779196678717
191,6,0.5,0.6235376629776279,-0.16964196654490893
191,6,0.25,0.6210436721716435,0.0797571140535358
191,6,0.0,0.6145135890832205,0.7327654228958314
192,0,1.0,0.45083857014888085,0.0
192,0,0.75,0.45520287751058836,-0.4364307361707509
192,0,0.5,0.4530279806522184,-0.2189410503337541
192,0,0.25,0.4273099350317783,2.352863511710257
192,0,0.0,0.404766254872873,4.607231527600786
192,1,1.0,0.45083857014888085,0.0
192,1,0.75,0.4500330082784474,0.08055618704334577
192,1,0.5,0.4445343394633766,0.6304230685504231
192,1,0.25,0.4344912053840535,1.6347364764827343
192,1,0.0,0.42527356141875783,2.5565008730123018
192,2,1.0,0.45083857014888085,0.0
192,2,0.75,0.4373383200479669,1.3500250100913935
192,2,0.5,0.4207067271071676,3.0131843041713235
192,2,0.25,0.4073670081144491,4.347156203443175
192,2,0.0,0.3947585934213691,5.607997672751175
192,3,1.0,0.45083857014888085,0.0
192,3,0.75,0.4507122089195663,0.012636122931453109
192,3,0.5,0.4531475447210829,-0.23089745722020272
192,3,0.25,0.4507393864093665,0.009918373951434134
192,3,0.0,0.4467736695977812,0.40649005510996483
192,4,1.0,0.45083857014888085,0.0
192,4,0.75,0.44736696884664506,0.3471601302235783
192,4,0.5,0.44313718095768867,0.7701389191192176
192,4,0.25,0.43979535887672255,1.1043211272158293
192,4,0.0,0.42677052581278424,2.4068044336096603
192,5,1.0,0.45083857014888085,0.0
192,5,0.75,0.452105053066273,-0.12664829173921754
192,5,0.5,0.4513417307483114,-0.050316059943056324
192,5,0.25,0.4424185975948506,0.8419972554030264
192,5,0.0,0.43817589688065306,1.2662673268227786
192,6,1.0,0.45083857014888085,0.0
192,6,0.75,0.446395379315785,0.4443190833095856
192,6,0.5,0.44597830323348325,0.4860266915397593
192,6,0.25,0.4422131855422588,0.8625384606622044
192,6,0.0,0.4410129071938174,0.982566295506343
193,0,1.0,0.6318727415007135,0.0
193,0,0.75,0.6336089001852804,-0.17361586845668908
193,0,0.5,0.621207650540388,1.066509096032553
193,0,0.25,0.5777906312647285,5.408211023598497
193,0,0.0,0.546336704449464,8.553603705124946
193,1,1.0,0.6318727415007135,0.0
193,1,0.75,0.6158772617920542,1.5995479708659333
193,1,0.5,0.6040247876491721,2.7847953851541374
193,1,0.25,0.5844352131516419,4.743752834907156
193,1,0.0,0.5589498806707889,7.292286082992461
193,2,1.0,0.6318727415007135,0.0
193,2,0.75,0.6139634674688971,1.7909274031816413
193,2,0.5,0.5927609274937464,3.911181400696706
193,2,0.25,0.5727043072826672,5.9168434218046295
193,2,0.0,0.5686077503396668,6.326499116104667
193,3,1.0,0.6318727415007135,0.0
193,3,0.75,0.6336955627688813,-0.18228212681677958
193,3,0.5,0.6356367126864979,-0.37639711857844205
193,3,0.25,0.6323487943630464,-0.047605286233287636
193,3,0.0,0.6280286074635394,0.3844134037174096
193,4,1.0,0.6318727415007135,0.0
193,4,0.75,0.6511893401591857,-1.931659865847224
193,4,0.5,0.663154082939397,-3.128134143868355
193,4,0.25,0.6706089780283234,-3.8736236527609935
193,4,0.0,0.6609382576543735,-2.9065516153660043
193,5,1.0,0.6318727415007135,0.0
193,5,0.75,0.6162046427891792,1.5668098711534295
193,5,0.5,0.5913356411544155,4.053710034629798
193,5,0.25,0.549964911541632,8.190782995908153
193,5,0.0,0.5499940454100269,8.187869609068654
193,6,1.0,0.6318727415007135,0.0
193,6,0.75,0.6340980558951377,-0.22253143944241938
193,6,0.5,0.6304350606354157,0.143768086529783
193,6,0.25,0.6238008898015371,0.8071851699176347
193,6,0.0,0.626177986256404,0.5694755244309513
194,0,1.0,0.7248129192801085,0.0
194,0,0.75,0.7344803477089532,-0.9667428428844715
194,0,0.5,0.7283272023684952,-0.35142830883867493
194,0,0.25,0.707801896007865,1.7011023272243464
194,0,0.0,0.6810341810141665,4.377873826594203
194,1,1.0,0.7248129192801085,0.0
194,1,0.75,0.7218674527662399,0.2945466513868622
194,1,0.5,0.7118569671685834,1.2955952111525115
194,1,0.25,0.696044324829393,2.8768594450715446
194,1,0.0,0.6622171982761282,6.259572100398025
194,2,1.0,0.7248129192801085,0.0
194,2,0.75,0.7307402933551299,-0.5927374075021419
194,2,0.5,0.7293329425952129,-0.4520023315104371
194,2,0.25,0.7231454628077898,0.16674564723186958
194,2,0.0,0.7039971438203392,2.0815775459769315
194,3,1.0,0.7248129192801085,0.0
194,3,0.75,0.7161201275464593,0.869279173364923
194,3,0.5,0.7067242142786573,1.808870500145121
194,3,0.25,0.6982049451302845,2.6607974149823965
194,3,0.0,0.6886514117564488,3.6161507523659653
194,4,1.0,0.7248129192801085,0.0
194,4,0.75,0.7269696609927843,-0.21567417126757693
194,4,0.5,0.7282151757070219,-0.3402256426913386
194,4,0.25,0.7199574469545535,0.48554723255549437
194,4,0.0,0.699741364232215,2.507155504789349
194,5,1.0,0.7248129192801085,0.0
194,5,0.75,0.7271354155876992,-0.2322496307590738
194,5,0.5,0.7074701138052717,1.7342805474836798
194,5,0.25,0.6781875014496731,4.6625417830435385
194,5,0.0,0.6646817056637745,6.0131213616334005
194,6,1.0,0.7248129192801085,0.0
194,6,0.75,0.7382932870046743,-1.3480367724565845
194,6,0.5,0.7466283547100038,-2.181543542989528
194,6,0.25,0.753183593551566,-2.8370674271457563
194,6,0.0,0.7522270498460975,-2.741413056598896
