subject,block,block_width,feature_channel,gate_mean,gate_sd
156,0,32,0,0.5114622712135315,0.043321602046489716
156,0,32,1,0.566192626953125,0.11006324738264084
156,0,32,2,0.6402930617332458,0.09021539986133575
156,0,32,3,0.3168987035751343,0.09609173983335495
156,0,32,4,0.4472629725933075,0.06505867838859558
156,0,32,5,0.4078177511692047,0.07146890461444855
156,0,32,6,0.495583176612854,0.04621683061122894
156,0,32,7,0.5052178502082825,0.07401050627231598
156,0,32,8,0.446196049451828,0.1631241887807846
156,0,32,9,0.6312287449836731,0.14075037837028503
156,0,32,10,0.48420095443725586,0.11659442633390427
156,0,32,11,0.4878508448600769,0.1330920159816742
156,0,32,12,0.5146856904029846,0.07682035863399506
156,0,32,13,0.6104869246482849,0.15342067182064056
156,0,32,14,0.5517712831497192,0.22778379917144775
156,0,32,15,0.5500257611274719,0.15242378413677216
156,0,32,16,0.4418254792690277,0.11295479536056519
156,0,32,17,0.5486162304878235,0.11006104201078415
156,0,32,18,0.4705658257007599,0.1270729899406433
156,0,32,19,0.5339378714561462,0.10861179977655411
156,0,32,20,0.2748817801475525,0.08535082638263702
156,0,32,21,0.43907395005226135,0.06301198154687881
156,0,32,22,0.30803245306015015,0.056007158011198044
156,0,32,23,0.446074515581131,0.0962403193116188
156,0,32,24,0.5255880355834961,0.05792763829231262
156,0,32,25,0.5510680675506592,0.063019298017025
156,0,32,26,0.5306748747825623,0.1824665665626526
156,0,32,27,0.6125708222389221,0.09660903364419937
156,0,32,28,0.7031746506690979,0.16074222326278687
156,0,32,29,0.5722707509994507,0.16739729046821594
156,0,32,30,0.6134589910507202,0.09437987208366394
156,0,32,31,0.45168328285217285,0.0548231266438961
156,1,32,0,0.522162675857544,0.047571416944265366
156,1,32,1,0.47953322529792786,0.11611930280923843
156,1,32,2,0.5175241231918335,0.051253218203783035
156,1,32,3,0.45925387740135193,0.21695534884929657
156,1,32,4,0.5015697479248047,0.054998740553855896
156,1,32,5,0.579456090927124,0.11300136148929596
156,1,32,6,0.6623859405517578,0.12303151190280914
156,1,32,7,0.5250891447067261,0.11738097667694092
156,1,32,8,0.6107255220413208,0.09234239906072617
156,1,32,9,0.5635173916816711,0.03545428439974785
156,1,32,10,0.3682711124420166,0.16315031051635742
156,1,32,11,0.43370309472084045,0.09769611060619354
156,1,32,12,0.6785683035850525,0.07687556743621826
156,1,32,13,0.4415038526058197,0.08990897238254547
156,1,32,14,0.5612276792526245,0.03050330840051174
156,1,32,15,0.6019771695137024,0.09248515963554382
156,1,32,16,0.3468272089958191,0.07735861092805862
156,1,32,17,0.6218140125274658,0.152970552444458
156,1,32,18,0.5920433402061462,0.06174604967236519
156,1,32,19,0.49717381596565247,0.06247725337743759
156,1,32,20,0.4738900661468506,0.13940183818340302
156,1,32,21,0.4751355051994324,0.04865507036447525
156,1,32,22,0.46896418929100037,0.05384621396660805
156,1,32,23,0.5152234435081482,0.16738609969615936
156,1,32,24,0.5028185248374939,0.21400870382785797
156,1,32,25,0.5039582848548889,0.045856498181819916
156,1,32,26,0.3735530376434326,0.0325990691781044
156,1,32,27,0.24678412079811096,0.11667978018522263
156,1,32,28,0.39654025435447693,0.12615668773651123
156,1,32,29,0.47272953391075134,0.05329427123069763
156,1,32,30,0.39096692204475403,0.19429482519626617
156,1,32,31,0.49659815430641174,0.16723237931728363
156,2,64,0,0.48732665181159973,0.11540938913822174
156,2,64,1,0.4551225006580353,0.14443129301071167
156,2,64,2,0.43475010991096497,0.11026585847139359
156,2,64,3,0.6440064907073975,0.14170223474502563
156,2,64,4,0.4713524878025055,0.14376109838485718
156,2,64,5,0.5257632732391357,0.1257820874452591
156,2,64,6,0.518334686756134,0.23427891731262207
156,2,64,7,0.6914781928062439,0.06333515793085098
156,2,64,8,0.32874932885169983,0.1583501398563385
156,2,64,9,0.5146394371986389,0.13780078291893005
156,2,64,10,0.5492734909057617,0.08595974743366241
156,2,64,11,0.4934719502925873,0.16427616775035858
156,2,64,12,0.5097116231918335,0.1617317795753479
156,2,64,13,0.5426562428474426,0.16183367371559143
156,2,64,14,0.6927832365036011,0.11347703635692596
156,2,64,15,0.3931242823600769,0.09171229600906372
156,2,64,16,0.4075595736503601,0.13656455278396606
156,2,64,17,0.5306431651115417,0.1172136515378952
156,2,64,18,0.5338213443756104,0.12078019231557846
156,2,64,19,0.41505616903305054,0.09576347470283508
156,2,64,20,0.5739465355873108,0.2017754763364792
156,2,64,21,0.4772636592388153,0.20319460332393646
156,2,64,22,0.5301007628440857,0.18178163468837738
156,2,64,23,0.2515224814414978,0.11504221707582474
156,2,64,24,0.43835771083831787,0.10469614714384079
156,2,64,25,0.5543569326400757,0.25916582345962524
156,2,64,26,0.6171719431877136,0.09533146023750305
156,2,64,27,0.6673023700714111,0.10478481650352478
156,2,64,28,0.6928548216819763,0.1265677809715271
156,2,64,29,0.542969286441803,0.21483416855335236
156,2,64,30,0.6138237118721008,0.10275259613990784
156,2,64,31,0.48801523447036743,0.0953187495470047
156,2,64,32,0.5753899812698364,0.10882808268070221
156,2,64,33,0.5431943535804749,0.16660399734973907
156,2,64,34,0.49756234884262085,0.07566306740045547
156,2,64,35,0.5572333931922913,0.2051849365234375
156,2,64,36,0.5514285564422607,0.11403869092464447
156,2,64,37,0.62908536195755,0.1038011685013771
156,2,64,38,0.4468032419681549,0.1873447149991989
156,2,64,39,0.6465198993682861,0.11188673228025436
156,2,64,40,0.4577851891517639,0.19288958609104156
156,2,64,41,0.3866320848464966,0.20841380953788757
156,2,64,42,0.4037535786628723,0.17868338525295258
156,2,64,43,0.526544988155365,0.15951453149318695
156,2,64,44,0.5734079480171204,0.16620607674121857
156,2,64,45,0.5043396949768066,0.09984762221574783
156,2,64,46,0.42822200059890747,0.06300429254770279
156,2,64,47,0.4897868037223816,0.18002623319625854
156,2,64,48,0.45096349716186523,0.0899859294295311
156,2,64,49,0.4955712854862213,0.1453782021999359
156,2,64,50,0.4668143689632416,0.13315057754516602
156,2,64,51,0.5001755356788635,0.22065773606300354
156,2,64,52,0.374970018863678,0.22511151432991028
156,2,64,53,0.48959195613861084,0.22515688836574554
156,2,64,54,0.5028401017189026,0.2083471119403839
156,2,64,55,0.3233667314052582,0.11662601679563522
156,2,64,56,0.47989988327026367,0.11518669128417969
156,2,64,57,0.5151323080062866,0.12167422473430634
156,2,64,58,0.5163658857345581,0.08350585401058197
156,2,64,59,0.5133252739906311,0.16707876324653625
156,2,64,60,0.424076646566391,0.2376905083656311
156,2,64,61,0.5231671929359436,0.2222951054573059
156,2,64,62,0.5180633068084717,0.18300805985927582
156,2,64,63,0.4538796544075012,0.07511963695287704
156,3,64,0,0.4682500660419464,0.11474016308784485
156,3,64,1,0.6284879446029663,0.2607475221157074
156,3,64,2,0.4246021509170532,0.07973795384168625
156,3,64,3,0.49866533279418945,0.2873365581035614
156,3,64,4,0.5450489521026611,0.10781155526638031
156,3,64,5,0.5254531502723694,0.07829056680202484
156,3,64,6,0.4706710875034332,0.18269142508506775
156,3,64,7,0.37371185421943665,0.12816078960895538
156,3,64,8,0.548943042755127,0.20361600816249847
156,3,64,9,0.49575138092041016,0.15449011325836182
156,3,64,10,0.474893182516098,0.138204887509346
156,3,64,11,0.46033814549446106,0.1609257459640503
156,3,64,12,0.45939701795578003,0.10421424359083176
156,3,64,13,0.43966954946517944,0.15321625769138336
156,3,64,14,0.5385848879814148,0.1468944400548935
156,3,64,15,0.5759591460227966,0.13316620886325836
156,3,64,16,0.35902169346809387,0.19735443592071533
156,3,64,17,0.5464642643928528,0.07521460950374603
156,3,64,18,0.6276693940162659,0.07582852989435196
156,3,64,19,0.4490509331226349,0.17409901320934296
156,3,64,20,0.3860033452510834,0.1431780457496643
156,3,64,21,0.441196471452713,0.15018031001091003
156,3,64,22,0.5219113826751709,0.07420925050973892
156,3,64,23,0.5723457932472229,0.18729931116104126
156,3,64,24,0.4902106821537018,0.14412523806095123
156,3,64,25,0.4485397934913635,0.12681400775909424
156,3,64,26,0.38891032338142395,0.18721112608909607
156,3,64,27,0.5605289340019226,0.17661307752132416
156,3,64,28,0.5270788669586182,0.13966204226016998
156,3,64,29,0.4242076277732849,0.052957307547330856
156,3,64,30,0.4046165347099304,0.18620805442333221
156,3,64,31,0.4777611792087555,0.07673105597496033
156,3,64,32,0.47719496488571167,0.06832806766033173
156,3,64,33,0.4879930913448334,0.0286225788295269
156,3,64,34,0.5708392262458801,0.0825837254524231
156,3,64,35,0.37466350197792053,0.07349154353141785
156,3,64,36,0.42920371890068054,0.04787962883710861
156,3,64,37,0.2535010874271393,0.1357727348804474
156,3,64,38,0.5690271854400635,0.11697699874639511
156,3,64,39,0.46219396591186523,0.2028864324092865
156,3,64,40,0.43678367137908936,0.17877158522605896
156,3,64,41,0.5204770565032959,0.11449484527111053
156,3,64,42,0.5812191367149353,0.04156453534960747
156,3,64,43,0.504593014717102,0.2255726456642151
156,3,64,44,0.5076742768287659,0.09330486506223679
156,3,64,45,0.4501244127750397,0.1252383440732956
156,3,64,46,0.362627774477005,0.12699362635612488
156,3,64,47,0.5993344187736511,0.2241549789905548
156,3,64,48,0.37739619612693787,0.234848752617836
156,3,64,49,0.39837220311164856,0.10062773525714874
156,3,64,50,0.456661581993103,0.19929373264312744
156,3,64,51,0.5072567462921143,0.056086666882038116
156,3,64,52,0.4270981550216675,0.1933143138885498
156,3,64,53,0.4595506489276886,0.21754670143127441
156,3,64,54,0.5165907740592957,0.10300735384225845
156,3,64,55,0.5529890656471252,0.1067766547203064
156,3,64,56,0.29114264249801636,0.13997143507003784
156,3,64,57,0.4481908679008484,0.16390086710453033
156,3,64,58,0.5874220728874207,0.22591806948184967
156,3,64,59,0.497910737991333,0.25659438967704773
156,3,64,60,0.49459078907966614,0.06389924883842468
156,3,64,61,0.4697577655315399,0.05789545923471451
156,3,64,62,0.7220590710639954,0.08351428806781769
156,3,64,63,0.6643761396408081,0.08272978663444519
156,4,128,0,0.5724797248840332,0.264746755361557
156,4,128,1,0.41849154233932495,0.08573231846094131
156,4,128,2,0.46502989530563354,0.12656302750110626
156,4,128,3,0.5642461180686951,0.23242691159248352
156,4,128,4,0.5410433411598206,0.31845030188560486
156,4,128,5,0.4269391596317291,0.20308518409729004
156,4,128,6,0.29394543170928955,0.12404923141002655
156,4,128,7,0.5437991619110107,0.28928449749946594
156,4,128,8,0.6334017515182495,0.18557383120059967
156,4,128,9,0.6099104881286621,0.12256535142660141
156,4,128,10,0.5089302659034729,0.3142967224121094
156,4,128,11,0.44904032349586487,0.16832910478115082
156,4,128,12,0.5148303508758545,0.2673730254173279
156,4,128,13,0.5824397206306458,0.288609117269516
156,4,128,14,0.5107759833335876,0.22360561788082123
156,4,128,15,0.4413175582885742,0.25384455919265747
156,4,128,16,0.620517909526825,0.12426640838384628
156,4,128,17,0.785007655620575,0.10967598110437393
156,4,128,18,0.5677801370620728,0.25431421399116516
156,4,128,19,0.5756940245628357,0.18849864602088928
156,4,128,20,0.5607802867889404,0.2109045684337616
156,4,128,21,0.39900124073028564,0.2172021120786667
156,4,128,22,0.4201504588127136,0.13058309257030487
156,4,128,23,0.4013310670852661,0.23508070409297943
156,4,128,24,0.4138583838939667,0.12097287178039551
156,4,128,25,0.4439871907234192,0.2938756048679352
156,4,128,26,0.5755554437637329,0.16118498146533966
156,4,128,27,0.5128406286239624,0.2852563261985779
156,4,128,28,0.6569007635116577,0.17711715400218964
156,4,128,29,0.551873505115509,0.2877177298069
156,4,128,30,0.6355143785476685,0.08238839358091354
156,4,128,31,0.4712049663066864,0.32504650950431824
156,4,128,32,0.5628263354301453,0.19107289612293243
156,4,128,33,0.38911381363868713,0.1929916888475418
156,4,128,34,0.5272826552391052,0.12696419656276703
156,4,128,35,0.6375370621681213,0.19239458441734314
156,4,128,36,0.4671880006790161,0.2955318093299866
156,4,128,37,0.5144791007041931,0.20057037472724915
156,4,128,38,0.5916073322296143,0.23282921314239502
156,4,128,39,0.5639695525169373,0.09909844398498535
156,4,128,40,0.5247976779937744,0.2544648349285126
156,4,128,41,0.5830361247062683,0.17095452547073364
156,4,128,42,0.4919193387031555,0.1774691343307495
156,4,128,43,0.41232433915138245,0.07602612674236298
156,4,128,44,0.5826969146728516,0.13337258994579315
156,4,128,45,0.48090535402297974,0.105316661298275
156,4,128,46,0.6431399583816528,0.20630355179309845
156,4,128,47,0.7619079351425171,0.13831044733524323
156,4,128,48,0.49184757471084595,0.18266429007053375
156,4,128,49,0.5917891263961792,0.09252456575632095
156,4,128,50,0.3783032298088074,0.07838046550750732
156,4,128,51,0.6725995540618896,0.16068050265312195
156,4,128,52,0.4768998324871063,0.23373320698738098
156,4,128,53,0.5204347372055054,0.31189388036727905
156,4,128,54,0.43988460302352905,0.27830734848976135
156,4,128,55,0.5778520703315735,0.19300678372383118
156,4,128,56,0.5330259203910828,0.25821131467819214
156,4,128,57,0.4955238699913025,0.10154912620782852
156,4,128,58,0.5188838243484497,0.28291186690330505
156,4,128,59,0.5301539301872253,0.21904723346233368
156,4,128,60,0.36289581656455994,0.13676227629184723
156,4,128,61,0.5836727619171143,0.22196081280708313
156,4,128,62,0.5136587023735046,0.22257745265960693
156,4,128,63,0.5194307565689087,0.22118070721626282
156,4,128,64,0.49313613772392273,0.14424797892570496
156,4,128,65,0.5650641918182373,0.22510455548763275
156,4,128,66,0.5047914981842041,0.2568359673023224
156,4,128,67,0.5487683415412903,0.1674850583076477
156,4,128,68,0.39310362935066223,0.2716009020805359
156,4,128,69,0.6128742694854736,0.22514422237873077
156,4,128,70,0.5449849367141724,0.29335910081863403
156,4,128,71,0.4207218885421753,0.3113863170146942
156,4,128,72,0.6194506883621216,0.09232015162706375
156,4,128,73,0.4083930253982544,0.16120857000350952
156,4,128,74,0.4756673276424408,0.16542331874370575
156,4,128,75,0.4358668625354767,0.2688637971878052
156,4,128,76,0.6056643724441528,0.14491990208625793
156,4,128,77,0.4925035238265991,0.2508886456489563
156,4,128,78,0.6458503603935242,0.12447941303253174
156,4,128,79,0.6588683724403381,0.20078694820404053
156,4,128,80,0.5658852458000183,0.1576041281223297
156,4,128,81,0.6203117966651917,0.29954519867897034
156,4,128,82,0.6107265949249268,0.24756976962089539
156,4,128,83,0.4977698028087616,0.11309365928173065
156,4,128,84,0.410451740026474,0.15864771604537964
156,4,128,85,0.4761066436767578,0.22479408979415894
156,4,128,86,0.5160007476806641,0.26169225573539734
156,4,128,87,0.49409666657447815,0.3104674220085144
156,4,128,88,0.45369043946266174,0.19381509721279144
156,4,128,89,0.4892876148223877,0.2292095422744751
156,4,128,90,0.5171188712120056,0.3024767339229584
156,4,128,91,0.4613952040672302,0.2798154950141907
156,4,128,92,0.4256197512149811,0.0692967101931572
156,4,128,93,0.5940906405448914,0.20002253353595734
156,4,128,94,0.6011295318603516,0.12970522046089172
156,4,128,95,0.5605809688568115,0.21237260103225708
156,4,128,96,0.6723000407218933,0.07689573615789413
156,4,128,97,0.5475068092346191,0.19256684184074402
156,4,128,98,0.42066022753715515,0.13793909549713135
156,4,128,99,0.6481981873512268,0.3043014407157898
156,4,128,100,0.41165488958358765,0.16835330426692963
156,4,128,101,0.4381749629974365,0.19850817322731018
156,4,128,102,0.6206419467926025,0.2772767245769501
156,4,128,103,0.5495790839195251,0.18657296895980835
156,4,128,104,0.5473118424415588,0.2347029447555542
156,4,128,105,0.5713065266609192,0.21684402227401733
156,4,128,106,0.6359838247299194,0.1569487452507019
156,4,128,107,0.5226694345474243,0.23945225775241852
156,4,128,108,0.531177282333374,0.061809442937374115
156,4,128,109,0.5038391351699829,0.2738475799560547
156,4,128,110,0.5777155160903931,0.14047931134700775
156,4,128,111,0.6288110613822937,0.25495457649230957
156,4,128,112,0.5939428210258484,0.2996136546134949
156,4,128,113,0.4705558717250824,0.1238962933421135
156,4,128,114,0.5652276873588562,0.2220119684934616
156,4,128,115,0.3930146396160126,0.22571595013141632
156,4,128,116,0.5792999267578125,0.2958524525165558
156,4,128,117,0.6600986123085022,0.11662871390581131
156,4,128,118,0.5581415295600891,0.27057087421417236
156,4,128,119,0.560421884059906,0.2439168244600296
156,4,128,120,0.4852990508079529,0.20152971148490906
156,4,128,121,0.4535486698150635,0.2843925952911377
156,4,128,122,0.43149617314338684,0.25809532403945923
156,4,128,123,0.5471969842910767,0.13470695912837982
156,4,128,124,0.4480048418045044,0.13519707322120667
156,4,128,125,0.5471588373184204,0.27497002482414246
156,4,128,126,0.6226599812507629,0.20270505547523499
156,4,128,127,0.6068055629730225,0.27933284640312195
156,5,128,0,0.7389663457870483,0.20186208188533783
156,5,128,1,0.5947974920272827,0.1284852921962738
156,5,128,2,0.8341366648674011,0.11659643799066544
156,5,128,3,0.705718457698822,0.26981261372566223
156,5,128,4,0.7245041131973267,0.15550975501537323
156,5,128,5,0.4606744647026062,0.1507338136434555
156,5,128,6,0.6854687929153442,0.16517499089241028
156,5,128,7,0.5275420546531677,0.2848167419433594
156,5,128,8,0.2825905680656433,0.10867289453744888
156,5,128,9,0.7367814183235168,0.1412860006093979
156,5,128,10,0.8418549299240112,0.14264047145843506
156,5,128,11,0.802609384059906,0.09660381078720093
156,5,128,12,0.4364023208618164,0.11867635697126389
156,5,128,13,0.704554557800293,0.2458716332912445
156,5,128,14,0.3005738854408264,0.10436470806598663
156,5,128,15,0.2955109179019928,0.24388448894023895
156,5,128,16,0.7803110480308533,0.17512835562229156
156,5,128,17,0.7181898951530457,0.1990244835615158
156,5,128,18,0.6933432221412659,0.1739259660243988
156,5,128,19,0.6925911903381348,0.20012617111206055
156,5,128,20,0.721542477607727,0.22416222095489502
156,5,128,21,0.8052462339401245,0.16155102849006653
156,5,128,22,0.41386404633522034,0.26228758692741394
156,5,128,23,0.5561096668243408,0.2568812966346741
156,5,128,24,0.7251733541488647,0.14596185088157654
156,5,128,25,0.5726439952850342,0.22439491748809814
156,5,128,26,0.6241175532341003,0.18372716009616852
156,5,128,27,0.25626420974731445,0.21951378881931305
156,5,128,28,0.8067466616630554,0.09879953414201736
156,5,128,29,0.6768165826797485,0.25151148438453674
156,5,128,30,0.67938631772995,0.15938512980937958
156,5,128,31,0.7482463717460632,0.21273931860923767
156,5,128,32,0.7816977500915527,0.1637803018093109
156,5,128,33,0.3308252990245819,0.23814517259597778
156,5,128,34,0.5153728723526001,0.18682032823562622
156,5,128,35,0.4400772452354431,0.2417711317539215
156,5,128,36,0.40766412019729614,0.10658533871173859
156,5,128,37,0.48069968819618225,0.29396897554397583
156,5,128,38,0.7849463820457458,0.14747194945812225
156,5,128,39,0.6410031318664551,0.1188032403588295
156,5,128,40,0.6793340444564819,0.09360063076019287
156,5,128,41,0.6951053738594055,0.14302100241184235
156,5,128,42,0.4428116977214813,0.15314775705337524
156,5,128,43,0.3258117437362671,0.16821976006031036
156,5,128,44,0.389018177986145,0.18034246563911438
156,5,128,45,0.7388948798179626,0.23851162195205688
156,5,128,46,0.6750813126564026,0.22909724712371826
156,5,128,47,0.36239176988601685,0.18917988240718842
156,5,128,48,0.6908406019210815,0.17121660709381104
156,5,128,49,0.562724769115448,0.07687652856111526
156,5,128,50,0.7709769606590271,0.150785893201828
156,5,128,51,0.7279573082923889,0.19137276709079742
156,5,128,52,0.29904934763908386,0.18720251321792603
156,5,128,53,0.7961156368255615,0.14328575134277344
156,5,128,54,0.7549171447753906,0.149517223238945
156,5,128,55,0.7623752951622009,0.19491225481033325
156,5,128,56,0.6944209337234497,0.14363770186901093
156,5,128,57,0.4531232714653015,0.17092089354991913
156,5,128,58,0.5376914739608765,0.16406236588954926
156,5,128,59,0.40897682309150696,0.25429868698120117
156,5,128,60,0.7152042388916016,0.17606677114963531
156,5,128,61,0.36683547496795654,0.16460856795310974
156,5,128,62,0.3849596381187439,0.27794110774993896
156,5,128,63,0.7071702480316162,0.27272820472717285
156,5,128,64,0.7630361914634705,0.14749100804328918
156,5,128,65,0.7373617887496948,0.27232322096824646
156,5,128,66,0.42504701018333435,0.20005644857883453
156,5,128,67,0.7733938097953796,0.13741996884346008
156,5,128,68,0.6301883459091187,0.1971806436777115
156,5,128,69,0.7053803205490112,0.21019582450389862
156,5,128,70,0.5798336863517761,0.19714492559432983
156,5,128,71,0.3187114894390106,0.22739653289318085
156,5,128,72,0.4277794063091278,0.1386692225933075
156,5,128,73,0.4649454355239868,0.29570379853248596
156,5,128,74,0.8358800411224365,0.13418476283550262
156,5,128,75,0.6246418952941895,0.2159399837255478
156,5,128,76,0.4118296205997467,0.26944872736930847
156,5,128,77,0.5212928652763367,0.17003419995307922
156,5,128,78,0.7995682954788208,0.16656367480754852
156,5,128,79,0.42361980676651,0.20220385491847992
156,5,128,80,0.6505264639854431,0.20984038710594177
156,5,128,81,0.7582127451896667,0.15671871602535248
156,5,128,82,0.7060889601707458,0.1562667191028595
156,5,128,83,0.6677587628364563,0.1939443051815033
156,5,128,84,0.714831531047821,0.14179885387420654
156,5,128,85,0.6022214293479919,0.07831764221191406
156,5,128,86,0.545369565486908,0.17668940126895905
156,5,128,87,0.6895213723182678,0.18209944665431976
156,5,128,88,0.5273619890213013,0.19357401132583618
156,5,128,89,0.5499429106712341,0.15795724093914032
156,5,128,90,0.2446228712797165,0.18277917802333832
156,5,128,91,0.5188303589820862,0.32528480887413025
156,5,128,92,0.36765414476394653,0.21818310022354126
156,5,128,93,0.5245087742805481,0.2751854658126831
156,5,128,94,0.4404579699039459,0.1273239105939865
156,5,128,95,0.4915817081928253,0.28079953789711
156,5,128,96,0.664560079574585,0.17184478044509888
156,5,128,97,0.7334822416305542,0.24717599153518677
156,5,128,98,0.554410994052887,0.19578084349632263
156,5,128,99,0.48432400822639465,0.30389946699142456
156,5,128,100,0.6916325688362122,0.1812785267829895
156,5,128,101,0.6002011895179749,0.18890875577926636
156,5,128,102,0.7005489468574524,0.1883699744939804
156,5,128,103,0.821727454662323,0.13923422992229462
156,5,128,104,0.6657947897911072,0.2564072906970978
156,5,128,105,0.3139630854129791,0.20766861736774445
156,5,128,106,0.6484173536300659,0.1719290018081665
156,5,128,107,0.7948422431945801,0.1599777340888977
156,5,128,108,0.7470316886901855,0.22762800753116608
156,5,128,109,0.3927037715911865,0.26891109347343445
156,5,128,110,0.6834297180175781,0.29952046275138855
156,5,128,111,0.8067554235458374,0.1250287890434265
156,5,128,112,0.7639368772506714,0.20611366629600525
156,5,128,113,0.5755225419998169,0.19585812091827393
156,5,128,114,0.7828323245048523,0.11042091250419617
156,5,128,115,0.506262481212616,0.176349937915802
156,5,128,116,0.7604247331619263,0.16506178677082062
156,5,128,117,0.8354032039642334,0.11654461175203323
156,5,128,118,0.6200404763221741,0.2070595920085907
156,5,128,119,0.38976284861564636,0.26412466168403625
156,5,128,120,0.6283047199249268,0.2461899369955063
156,5,128,121,0.7499655485153198,0.1595970094203949
156,5,128,122,0.5271506309509277,0.2467389553785324
156,5,128,123,0.7211478352546692,0.1430702656507492
156,5,128,124,0.5815998911857605,0.2672767639160156
156,5,128,125,0.43473872542381287,0.28387513756752014
156,5,128,126,0.7711109519004822,0.1355074793100357
156,5,128,127,0.7084199786186218,0.24998612701892853
185,0,32,0,0.5796992778778076,0.023663850501179695
185,0,32,1,0.5207481980323792,0.03318957984447479
185,0,32,2,0.5842099785804749,0.032248664647340775
185,0,32,3,0.616249680519104,0.04295719042420387
185,0,32,4,0.37896841764450073,0.08142698556184769
185,0,32,5,0.4379993975162506,0.05438576266169548
185,0,32,6,0.48083698749542236,0.09875363856554031
185,0,32,7,0.4958549737930298,0.1349364072084427
185,0,32,8,0.5870772004127502,0.04979550465941429
185,0,32,9,0.4692758321762085,0.048332568258047104
185,0,32,10,0.5265130400657654,0.09004299342632294
185,0,32,11,0.4324171245098114,0.10251915454864502
185,0,32,12,0.6050949096679688,0.017527442425489426
185,0,32,13,0.5361694693565369,0.10124421864748001
185,0,32,14,0.6484500765800476,0.0948638990521431
185,0,32,15,0.6213880181312561,0.08849522471427917
185,0,32,16,0.5112156271934509,0.06908392906188965
185,0,32,17,0.4896426498889923,0.12838278710842133
185,0,32,18,0.4728584587574005,0.05415304750204086
185,0,32,19,0.5323930382728577,0.11704743653535843
185,0,32,20,0.42139819264411926,0.049519896507263184
185,0,32,21,0.4920842945575714,0.09694654494524002
185,0,32,22,0.495497465133667,0.0732785239815712
185,0,32,23,0.5953160524368286,0.03568076342344284
185,0,32,24,0.49116387963294983,0.06400082260370255
185,0,32,25,0.41237613558769226,0.03822552040219307
185,0,32,26,0.3995417356491089,0.0580267533659935
185,0,32,27,0.4591033160686493,0.057032451033592224
185,0,32,28,0.5613501667976379,0.07294429838657379
185,0,32,29,0.5325945019721985,0.06128964573144913
185,0,32,30,0.468222975730896,0.014598889276385307
185,0,32,31,0.43610328435897827,0.07330171763896942
185,1,32,0,0.4957679808139801,0.08037526160478592
185,1,32,1,0.394328236579895,0.12125123292207718
185,1,32,2,0.3514501452445984,0.05797224119305611
185,1,32,3,0.5248029828071594,0.18847215175628662
185,1,32,4,0.4539520740509033,0.08353084325790405
185,1,32,5,0.4256887435913086,0.18653453886508942
185,1,32,6,0.39422714710235596,0.14698070287704468
185,1,32,7,0.5344119071960449,0.18828833103179932
185,1,32,8,0.6880478262901306,0.08368641883134842
185,1,32,9,0.5899247527122498,0.08913253247737885
185,1,32,10,0.505338728427887,0.07425284385681152
185,1,32,11,0.4094531536102295,0.11611884832382202
185,1,32,12,0.4160372316837311,0.11621619015932083
185,1,32,13,0.46304598450660706,0.051842279732227325
185,1,32,14,0.48576483130455017,0.09517185389995575
185,1,32,15,0.4780450165271759,0.08239930123090744
185,1,32,16,0.6345033645629883,0.0788893848657608
185,1,32,17,0.41350704431533813,0.07836738228797913
185,1,32,18,0.42738187313079834,0.0342387892305851
185,1,32,19,0.4340212643146515,0.08688987791538239
185,1,32,20,0.5167393684387207,0.12159652262926102
185,1,32,21,0.5711274743080139,0.08826867491006851
185,1,32,22,0.3700002431869507,0.11806342750787735
185,1,32,23,0.5994642972946167,0.13823302090168
185,1,32,24,0.3927595019340515,0.07565152645111084
185,1,32,25,0.49061349034309387,0.10089097917079926
185,1,32,26,0.5701665282249451,0.08982110768556595
185,1,32,27,0.5001353621482849,0.1985720694065094
185,1,32,28,0.44351109862327576,0.16344861686229706
185,1,32,29,0.5015978217124939,0.15367324650287628
185,1,32,30,0.5242408514022827,0.11700385063886642
185,1,32,31,0.2898026704788208,0.09156288951635361
185,2,64,0,0.6455480456352234,0.142790287733078
185,2,64,1,0.5719435214996338,0.20634512603282928
185,2,64,2,0.4890427887439728,0.1442236453294754
185,2,64,3,0.2960902750492096,0.14008121192455292
185,2,64,4,0.39410674571990967,0.14309167861938477
185,2,64,5,0.44977501034736633,0.08470561355352402
185,2,64,6,0.5683411359786987,0.0983428880572319
185,2,64,7,0.5126400589942932,0.051138270646333694
185,2,64,8,0.5230834484100342,0.2238348126411438
185,2,64,9,0.7434395551681519,0.11912741512060165
185,2,64,10,0.4247559905052185,0.07220737636089325
185,2,64,11,0.4037892818450928,0.07599342614412308
185,2,64,12,0.714415967464447,0.14786012470722198
185,2,64,13,0.6111151576042175,0.07726506143808365
185,2,64,14,0.44364553689956665,0.0865410715341568
185,2,64,15,0.2946912348270416,0.1261613816022873
185,2,64,16,0.5834950804710388,0.16143254935741425
185,2,64,17,0.4334039092063904,0.09719815850257874
185,2,64,18,0.4549567401409149,0.08872974663972855
185,2,64,19,0.48088395595550537,0.18620464205741882
185,2,64,20,0.61780846118927,0.14800229668617249
185,2,64,21,0.44353872537612915,0.11943855881690979
185,2,64,22,0.5917769074440002,0.11622411757707596
185,2,64,23,0.582671046257019,0.07196395844221115
185,2,64,24,0.6730292439460754,0.17106367647647858
185,2,64,25,0.4796578884124756,0.15649135410785675
185,2,64,26,0.6446161866188049,0.08573108166456223
185,2,64,27,0.5416703224182129,0.05529498681426048
185,2,64,28,0.5351801514625549,0.13950379192829132
185,2,64,29,0.44070056080818176,0.12891899049282074
185,2,64,30,0.6185134053230286,0.09051685780286789
185,2,64,31,0.34703120589256287,0.21235424280166626
185,2,64,32,0.4717105031013489,0.0545378252863884
185,2,64,33,0.4389722943305969,0.12952150404453278
185,2,64,34,0.5054509043693542,0.08994342386722565
185,2,64,35,0.6207026243209839,0.14314581453800201
185,2,64,36,0.4734353721141815,0.24003268778324127
185,2,64,37,0.6100155711174011,0.07475102692842484
185,2,64,38,0.500612199306488,0.07806327939033508
185,2,64,39,0.6003671288490295,0.1192580983042717
185,2,64,40,0.3990485668182373,0.1265513151884079
185,2,64,41,0.45674002170562744,0.13367405533790588
185,2,64,42,0.6238959431648254,0.21165774762630463
185,2,64,43,0.4348791539669037,0.15229012072086334
185,2,64,44,0.41527730226516724,0.178890198469162
185,2,64,45,0.7001633644104004,0.08540429919958115
185,2,64,46,0.472356915473938,0.19281747937202454
185,2,64,47,0.5731870532035828,0.10927270352840424
185,2,64,48,0.6241605877876282,0.16234439611434937
185,2,64,49,0.41380444169044495,0.0985671803355217
185,2,64,50,0.2817043960094452,0.1746746301651001
185,2,64,51,0.43902352452278137,0.1329250931739807
185,2,64,52,0.5362128615379333,0.18775351345539093
185,2,64,53,0.4432527422904968,0.15408442914485931
185,2,64,54,0.35593223571777344,0.07294018566608429
185,2,64,55,0.6219825744628906,0.1194445937871933
185,2,64,56,0.45086830854415894,0.10250432789325714
185,2,64,57,0.399905800819397,0.2122269868850708
185,2,64,58,0.37152037024497986,0.11319999396800995
185,2,64,59,0.62212735414505,0.12312516570091248
185,2,64,60,0.5565001964569092,0.05377162992954254
185,2,64,61,0.7222968935966492,0.12307603657245636
185,2,64,62,0.4364738166332245,0.130276158452034
185,2,64,63,0.514332115650177,0.19140370190143585
185,3,64,0,0.43401584029197693,0.11930032819509506
185,3,64,1,0.7194308042526245,0.15317650139331818
185,3,64,2,0.6601255536079407,0.1249808669090271
185,3,64,3,0.3933221101760864,0.137595534324646
185,3,64,4,0.4785185158252716,0.14528094232082367
185,3,64,5,0.6133291721343994,0.15445077419281006
185,3,64,6,0.4129965007305145,0.1451406329870224
185,3,64,7,0.5980610847473145,0.08837337046861649
185,3,64,8,0.3363431990146637,0.08738990128040314
185,3,64,9,0.5284621715545654,0.18347512185573578
185,3,64,10,0.47721657156944275,0.18802602589130402
185,3,64,11,0.536841630935669,0.07933788746595383
185,3,64,12,0.33758556842803955,0.09840166568756104
185,3,64,13,0.31635650992393494,0.11649902909994125
185,3,64,14,0.3522273600101471,0.1429535150527954
185,3,64,15,0.4949221909046173,0.11642923206090927
185,3,64,16,0.47294485569000244,0.23152221739292145
185,3,64,17,0.4255901277065277,0.17348282039165497
185,3,64,18,0.6700116395950317,0.16017712652683258
185,3,64,19,0.6051830649375916,0.22555093467235565
185,3,64,20,0.4107651114463806,0.1414630115032196
185,3,64,21,0.42842158675193787,0.14893455803394318
185,3,64,22,0.46724388003349304,0.18739399313926697
185,3,64,23,0.48591452836990356,0.0863330066204071
185,3,64,24,0.4644761085510254,0.10334563255310059
185,3,64,25,0.3785325884819031,0.10040152072906494
185,3,64,26,0.5775403380393982,0.10318316519260406
185,3,64,27,0.5406394004821777,0.16813533008098602
185,3,64,28,0.5447508692741394,0.22121430933475494
185,3,64,29,0.3991529643535614,0.15593630075454712
185,3,64,30,0.4457935392856598,0.17110612988471985
185,3,64,31,0.5410075187683105,0.2162964791059494
185,3,64,32,0.5662621855735779,0.1618545949459076
185,3,64,33,0.4292263090610504,0.1820400059223175
185,3,64,34,0.5374545454978943,0.08694838732481003
185,3,64,35,0.5336476564407349,0.13352243602275848
185,3,64,36,0.5526652336120605,0.15993764996528625
185,3,64,37,0.60533207654953,0.14763373136520386
185,3,64,38,0.6016906499862671,0.07012224197387695
185,3,64,39,0.5385985970497131,0.138044536113739
185,3,64,40,0.41047441959381104,0.1599123775959015
185,3,64,41,0.3021075427532196,0.10970260202884674
185,3,64,42,0.6128280758857727,0.13324126601219177
185,3,64,43,0.6333427429199219,0.13710664212703705
185,3,64,44,0.4558085501194,0.19142715632915497
185,3,64,45,0.5511859059333801,0.1796952784061432
185,3,64,46,0.5430132150650024,0.09279824793338776
185,3,64,47,0.3648727536201477,0.21825145184993744
185,3,64,48,0.368818998336792,0.08191467076539993
185,3,64,49,0.5733212232589722,0.16943256556987762
185,3,64,50,0.39911627769470215,0.18675754964351654
185,3,64,51,0.557379961013794,0.10097619891166687
185,3,64,52,0.5553038120269775,0.12490731477737427
185,3,64,53,0.605819582939148,0.12603816390037537
185,3,64,54,0.30327704548835754,0.1859569102525711
185,3,64,55,0.6127998232841492,0.05856986343860626
185,3,64,56,0.6027090549468994,0.11084826290607452
185,3,64,57,0.4932721257209778,0.10815731436014175
185,3,64,58,0.5871505737304688,0.08111221343278885
185,3,64,59,0.43976452946662903,0.10478976368904114
185,3,64,60,0.40683725476264954,0.12799198925495148
185,3,64,61,0.49394190311431885,0.1346249133348465
185,3,64,62,0.5129071474075317,0.11709719151258469
185,3,64,63,0.4506814181804657,0.16527599096298218
185,4,128,0,0.5166869163513184,0.20504909753799438
185,4,128,1,0.397882342338562,0.15179817378520966
185,4,128,2,0.5911328196525574,0.2962419390678406
185,4,128,3,0.5080302953720093,0.2221449762582779
185,4,128,4,0.7307159900665283,0.10487698763608932
185,4,128,5,0.3885267972946167,0.276223361492157
185,4,128,6,0.5795745849609375,0.1516905128955841
185,4,128,7,0.5766245126724243,0.20990747213363647
185,4,128,8,0.541142463684082,0.10620824992656708
185,4,128,9,0.5014140605926514,0.17773224413394928
185,4,128,10,0.5811449289321899,0.2213134616613388
185,4,128,11,0.5044651031494141,0.19435153901576996
185,4,128,12,0.44937366247177124,0.10568598657846451
185,4,128,13,0.43474334478378296,0.33102181553840637
185,4,128,14,0.5713304281234741,0.1488514542579651
185,4,128,15,0.5008630156517029,0.1893737018108368
185,4,128,16,0.700618326663971,0.15878139436244965
185,4,128,17,0.5374484658241272,0.22709587216377258
185,4,128,18,0.64449143409729,0.06168876960873604
185,4,128,19,0.7040141224861145,0.0977485254406929
185,4,128,20,0.324151873588562,0.12281700223684311
185,4,128,21,0.38881927728652954,0.2897167503833771
185,4,128,22,0.5376976728439331,0.23182611167430878
185,4,128,23,0.4872278869152069,0.1392466276884079
185,4,128,24,0.7241430282592773,0.1425131857395172
185,4,128,25,0.6624516844749451,0.11524453014135361
185,4,128,26,0.5643570423126221,0.09665683656930923
185,4,128,27,0.5419623255729675,0.1495683342218399
185,4,128,28,0.7537980675697327,0.1333560347557068
185,4,128,29,0.3200039565563202,0.1345890611410141
185,4,128,30,0.4701160788536072,0.08145800977945328
185,4,128,31,0.4155976474285126,0.14952918887138367
185,4,128,32,0.5425689220428467,0.19285069406032562
185,4,128,33,0.6180158853530884,0.12953980267047882
185,4,128,34,0.46742933988571167,0.15566980838775635
185,4,128,35,0.4708670377731323,0.18388226628303528
185,4,128,36,0.4908141791820526,0.1995411366224289
185,4,128,37,0.36970382928848267,0.1529843658208847
185,4,128,38,0.6968287825584412,0.11418604105710983
185,4,128,39,0.2905932366847992,0.13117870688438416
185,4,128,40,0.3018072843551636,0.11689157783985138
185,4,128,41,0.7320552468299866,0.09935926645994186
185,4,128,42,0.7268428802490234,0.07694709300994873
185,4,128,43,0.44665729999542236,0.15272186696529388
185,4,128,44,0.4464430809020996,0.20288631319999695
185,4,128,45,0.5694245100021362,0.1818784773349762
185,4,128,46,0.589727520942688,0.17075194418430328
185,4,128,47,0.5386874079704285,0.2330547571182251
185,4,128,48,0.400924414396286,0.1762269288301468
185,4,128,49,0.45355281233787537,0.21007676422595978
185,4,128,50,0.5214390754699707,0.13651658594608307
185,4,128,51,0.2626713514328003,0.11798511445522308
185,4,128,52,0.4616251587867737,0.1486051082611084
185,4,128,53,0.5772658586502075,0.1308390200138092
185,4,128,54,0.35168346762657166,0.23744189739227295
185,4,128,55,0.6103615760803223,0.12146396189928055
185,4,128,56,0.5358045697212219,0.3081965148448944
185,4,128,57,0.6919178366661072,0.15257443487644196
185,4,128,58,0.3891937732696533,0.29060840606689453
185,4,128,59,0.5911721587181091,0.14604195952415466
185,4,128,60,0.7612751126289368,0.09215804934501648
185,4,128,61,0.5005688667297363,0.25747838616371155
185,4,128,62,0.5062689781188965,0.17820481956005096
185,4,128,63,0.32895463705062866,0.3302946388721466
185,4,128,64,0.5681672096252441,0.20578844845294952
185,4,128,65,0.5584520101547241,0.21440182626247406
185,4,128,66,0.3978548049926758,0.22928139567375183
185,4,128,67,0.5724294185638428,0.13002131879329681
185,4,128,68,0.40205591917037964,0.24742527306079865
185,4,128,69,0.5139468908309937,0.2069511115550995
185,4,128,70,0.5351855158805847,0.12013933062553406
185,4,128,71,0.755817711353302,0.12619327008724213
185,4,128,72,0.48502638936042786,0.3379577696323395
185,4,128,73,0.4513265788555145,0.19561341404914856
185,4,128,74,0.403181791305542,0.13705973327159882
185,4,128,75,0.5808879733085632,0.18202675879001617
185,4,128,76,0.354908287525177,0.13568036258220673
185,4,128,77,0.46048980951309204,0.27251091599464417
185,4,128,78,0.5230482220649719,0.15463785827159882
185,4,128,79,0.5741304159164429,0.1314670741558075
185,4,128,80,0.6623910069465637,0.22266294062137604
185,4,128,81,0.485121488571167,0.07705067098140717
185,4,128,82,0.5296260118484497,0.18780949711799622
185,4,128,83,0.7594905495643616,0.16060006618499756
185,4,128,84,0.47995394468307495,0.3005025386810303
185,4,128,85,0.6056809425354004,0.2702808082103729
185,4,128,86,0.4435518980026245,0.13002458214759827
185,4,128,87,0.3906901478767395,0.2138885110616684
185,4,128,88,0.36680305004119873,0.16597774624824524
185,4,128,89,0.5612192749977112,0.24617759883403778
185,4,128,90,0.5923832654953003,0.1874040961265564
185,4,128,91,0.5339651703834534,0.16346532106399536
185,4,128,92,0.5028859376907349,0.22133024036884308
185,4,128,93,0.556058406829834,0.13576839864253998
185,4,128,94,0.35072362422943115,0.09689146280288696
185,4,128,95,0.4355789124965668,0.2583114206790924
185,4,128,96,0.4022160768508911,0.28461724519729614
185,4,128,97,0.44541946053504944,0.18597200512886047
185,4,128,98,0.45797935128211975,0.15452715754508972
185,4,128,99,0.5463812351226807,0.17765042185783386
185,4,128,100,0.458914577960968,0.13652385771274567
185,4,128,101,0.5857775807380676,0.21403871476650238
185,4,128,102,0.4212759733200073,0.16164179146289825
185,4,128,103,0.6580772995948792,0.10751282423734665
185,4,128,104,0.5795159339904785,0.13508246839046478
185,4,128,105,0.6945932507514954,0.16705021262168884
185,4,128,106,0.6178653240203857,0.1208261176943779
185,4,128,107,0.4478502869606018,0.22866863012313843
185,4,128,108,0.36928272247314453,0.10269361734390259
185,4,128,109,0.48479342460632324,0.26954716444015503
185,4,128,110,0.6008652448654175,0.13903267681598663
185,4,128,111,0.38532382249832153,0.2432847023010254
185,4,128,112,0.4288191497325897,0.3131818175315857
185,4,128,113,0.4719272553920746,0.2247907668352127
185,4,128,114,0.6766899228096008,0.12766098976135254
185,4,128,115,0.6452028155326843,0.07549112290143967
185,4,128,116,0.5786672830581665,0.10300035029649734
185,4,128,117,0.6928094029426575,0.11379963159561157
185,4,128,118,0.32830503582954407,0.1808478981256485
185,4,128,119,0.3857670724391937,0.16350285708904266
185,4,128,120,0.34418079257011414,0.1371152251958847
185,4,128,121,0.4207885265350342,0.11083488911390305
185,4,128,122,0.6829883456230164,0.25433844327926636
185,4,128,123,0.31442558765411377,0.1267922967672348
185,4,128,124,0.3907690942287445,0.2031073272228241
185,4,128,125,0.5282449722290039,0.19321401417255402
185,4,128,126,0.7392723560333252,0.10793191939592361
185,4,128,127,0.6752119064331055,0.12633763253688812
185,5,128,0,0.5986999273300171,0.24158348143100739
185,5,128,1,0.5224136114120483,0.14984466135501862
185,5,128,2,0.6099305748939514,0.19526146352291107
185,5,128,3,0.4848693311214447,0.19266855716705322
185,5,128,4,0.6024187207221985,0.13212276995182037
185,5,128,5,0.4488389790058136,0.22042544186115265
185,5,128,6,0.6374438405036926,0.12436123937368393
185,5,128,7,0.5113195180892944,0.11325284093618393
185,5,128,8,0.6189066767692566,0.1778520941734314
185,5,128,9,0.6579299569129944,0.13559922575950623
185,5,128,10,0.47569236159324646,0.13499212265014648
185,5,128,11,0.6210566759109497,0.12120413780212402
185,5,128,12,0.4695248603820801,0.16140738129615784
185,5,128,13,0.5618155598640442,0.22001628577709198
185,5,128,14,0.40717029571533203,0.1748354285955429
185,5,128,15,0.6826685667037964,0.14231181144714355
185,5,128,16,0.3168955147266388,0.10117290914058685
185,5,128,17,0.5857980251312256,0.15253406763076782
185,5,128,18,0.6205472350120544,0.08988276869058609
185,5,128,19,0.4272780418395996,0.18824924528598785
185,5,128,20,0.5484453439712524,0.11887147277593613
185,5,128,21,0.7187629342079163,0.13061678409576416
185,5,128,22,0.30727535486221313,0.11247715353965759
185,5,128,23,0.6917157173156738,0.13420507311820984
185,5,128,24,0.5990213751792908,0.11642026156187057
185,5,128,25,0.46548014879226685,0.05205004662275314
185,5,128,26,0.42823541164398193,0.17562484741210938
185,5,128,27,0.5083041191101074,0.051600705832242966
185,5,128,28,0.6787436008453369,0.10301798582077026
185,5,128,29,0.6444929242134094,0.13050904870033264
185,5,128,30,0.6213052272796631,0.1750773936510086
185,5,128,31,0.7152044177055359,0.09302707761526108
185,5,128,32,0.6425839066505432,0.15465232729911804
185,5,128,33,0.5798513889312744,0.15691779553890228
185,5,128,34,0.3066183924674988,0.13606543838977814
185,5,128,35,0.6604489088058472,0.10987505316734314
185,5,128,36,0.6638182401657104,0.12967944145202637
185,5,128,37,0.5285818576812744,0.26607584953308105
185,5,128,38,0.5300740599632263,0.1935952603816986
185,5,128,39,0.42063939571380615,0.13657303154468536
185,5,128,40,0.605742871761322,0.18161149322986603
185,5,128,41,0.6746476888656616,0.13099855184555054
185,5,128,42,0.6821431517601013,0.0662660002708435
185,5,128,43,0.5689647793769836,0.16046568751335144
185,5,128,44,0.5504106879234314,0.12777186930179596
185,5,128,45,0.7938515543937683,0.1072259172797203
185,5,128,46,0.5965836048126221,0.17479486763477325
185,5,128,47,0.5581618547439575,0.24193698167800903
185,5,128,48,0.5841214060783386,0.14513468742370605
185,5,128,49,0.6076479554176331,0.13618159294128418
185,5,128,50,0.5802883505821228,0.19426074624061584
185,5,128,51,0.46116650104522705,0.08769936114549637
185,5,128,52,0.6651362180709839,0.18256379663944244
185,5,128,53,0.5867331027984619,0.1380005031824112
185,5,128,54,0.4637707471847534,0.097458116710186
185,5,128,55,0.4943064749240875,0.22227691113948822
185,5,128,56,0.6617924571037292,0.13228388130664825
185,5,128,57,0.7021270990371704,0.10426655411720276
185,5,128,58,0.5395491719245911,0.15612880885601044
185,5,128,59,0.5559677481651306,0.21342352032661438
185,5,128,60,0.5439690947532654,0.20875784754753113
185,5,128,61,0.6788370609283447,0.14156587421894073
185,5,128,62,0.4880504608154297,0.24998162686824799
185,5,128,63,0.6279462575912476,0.14482632279396057
185,5,128,64,0.5781692862510681,0.19379980862140656
185,5,128,65,0.5176263451576233,0.11984050273895264
185,5,128,66,0.6646760106086731,0.08662138879299164
185,5,128,67,0.6885339021682739,0.13378165662288666
185,5,128,68,0.5413923859596252,0.20702379941940308
185,5,128,69,0.5930244326591492,0.14367370307445526
185,5,128,70,0.5082176327705383,0.17236725986003876
185,5,128,71,0.7387642860412598,0.10877559334039688
185,5,128,72,0.489172101020813,0.15998122096061707
185,5,128,73,0.5615571737289429,0.19494588673114777
185,5,128,74,0.3711773157119751,0.1237027645111084
185,5,128,75,0.5746088624000549,0.1532163769006729
185,5,128,76,0.6038976311683655,0.1283053457736969
185,5,128,77,0.5537658929824829,0.07834749668836594
185,5,128,78,0.5421414375305176,0.2002723664045334
185,5,128,79,0.6352080702781677,0.11473352462053299
185,5,128,80,0.5963565111160278,0.15010309219360352
185,5,128,81,0.6324671506881714,0.1133522316813469
185,5,128,82,0.6540015339851379,0.08084199577569962
185,5,128,83,0.5419818758964539,0.08815287798643112
185,5,128,84,0.6322286128997803,0.21630072593688965
185,5,128,85,0.48575085401535034,0.21715956926345825
185,5,128,86,0.4591587483882904,0.1994551569223404
185,5,128,87,0.5230790376663208,0.20107722282409668
185,5,128,88,0.5622877478599548,0.175001859664917
185,5,128,89,0.7447755336761475,0.10300957411527634
185,5,128,90,0.6088984608650208,0.15164151787757874
185,5,128,91,0.5727670192718506,0.13622650504112244
185,5,128,92,0.5877164602279663,0.13265249133110046
185,5,128,93,0.5745533108711243,0.13208329677581787
185,5,128,94,0.5536009073257446,0.10038677603006363
185,5,128,95,0.5743672847747803,0.23425476253032684
185,5,128,96,0.6311803460121155,0.16904529929161072
185,5,128,97,0.7293445467948914,0.11072978377342224
185,5,128,98,0.5935067534446716,0.10922301560640335
185,5,128,99,0.7031430602073669,0.12984487414360046
185,5,128,100,0.45382973551750183,0.1257513463497162
185,5,128,101,0.6021384000778198,0.20516608655452728
185,5,128,102,0.7318347692489624,0.08217649906873703
185,5,128,103,0.586530864238739,0.11126907169818878
185,5,128,104,0.6706950068473816,0.1235184296965599
185,5,128,105,0.5583789944648743,0.06707417964935303
185,5,128,106,0.7346514463424683,0.11760270595550537
185,5,128,107,0.7354151010513306,0.08988232165575027
185,5,128,108,0.5810467600822449,0.11904159188270569
185,5,128,109,0.6177750825881958,0.21783120930194855
185,5,128,110,0.5952425003051758,0.13682441413402557
185,5,128,111,0.5526459813117981,0.19636373221874237
185,5,128,112,0.6490522623062134,0.1203555092215538
185,5,128,113,0.6546897292137146,0.14281712472438812
185,5,128,114,0.681560754776001,0.08284588158130646
185,5,128,115,0.5678219795227051,0.2047848403453827
185,5,128,116,0.6962998509407043,0.11686016619205475
185,5,128,117,0.4759092330932617,0.1721598207950592
185,5,128,118,0.38768085837364197,0.15554705262184143
185,5,128,119,0.5034826993942261,0.06917989999055862
185,5,128,120,0.507976233959198,0.14030849933624268
185,5,128,121,0.45339781045913696,0.2047959715127945
185,5,128,122,0.6888872385025024,0.1148604229092598
185,5,128,123,0.4424700140953064,0.21510997414588928
185,5,128,124,0.5913413763046265,0.12562446296215057
185,5,128,125,0.6022652387619019,0.12108847498893738
185,5,128,126,0.7201386094093323,0.11996421217918396
185,5,128,127,0.5838930606842041,0.2383425533771515
186,0,32,0,0.379002183675766,0.053742095828056335
186,0,32,1,0.3751375079154968,0.09855333715677261
186,0,32,2,0.4981938898563385,0.21784739196300507
186,0,32,3,0.357409805059433,0.09757957607507706
186,0,32,4,0.35310643911361694,0.07899594306945801
186,0,32,5,0.5302022099494934,0.07030024379491806
186,0,32,6,0.5053606033325195,0.16290850937366486
186,0,32,7,0.5107548832893372,0.15095458924770355
186,0,32,8,0.6216384768486023,0.09918148070573807
186,0,32,9,0.33107855916023254,0.1438552439212799
186,0,32,10,0.48284250497817993,0.03603748604655266
186,0,32,11,0.30182740092277527,0.05923356115818024
186,0,32,12,0.33515504002571106,0.14234484732151031
186,0,32,13,0.4473905861377716,0.08579197525978088
186,0,32,14,0.6267723441123962,0.09632886201143265
186,0,32,15,0.3628389537334442,0.13400715589523315
186,0,32,16,0.359468936920166,0.059654757380485535
186,0,32,17,0.6572519540786743,0.06599757075309753
186,0,32,18,0.40575745701789856,0.11748694628477097
186,0,32,19,0.32762256264686584,0.07042407244443893
186,0,32,20,0.47908705472946167,0.10737646371126175
186,0,32,21,0.6053581833839417,0.12428604811429977
186,0,32,22,0.7316140532493591,0.16255678236484528
186,0,32,23,0.4102775454521179,0.22701402008533478
186,0,32,24,0.5916244387626648,0.1248113214969635
186,0,32,25,0.5471236109733582,0.16016094386577606
186,0,32,26,0.38928475975990295,0.03420301899313927
186,0,32,27,0.5566145777702332,0.038294993340969086
186,0,32,28,0.6173484325408936,0.23417407274246216
186,0,32,29,0.46579819917678833,0.20589575171470642
186,0,32,30,0.4686306118965149,0.03568068519234657
186,0,32,31,0.42039334774017334,0.11418251693248749
186,1,32,0,0.4798155725002289,0.22243092954158783
186,1,32,1,0.47575995326042175,0.19354784488677979
186,1,32,2,0.5529018640518188,0.17757081985473633
186,1,32,3,0.4818127155303955,0.1260671615600586
186,1,32,4,0.48149773478507996,0.11390891671180725
186,1,32,5,0.5353385806083679,0.04614558815956116
186,1,32,6,0.47173213958740234,0.16368192434310913
186,1,32,7,0.44414597749710083,0.15391139686107635
186,1,32,8,0.47591501474380493,0.10835973918437958
186,1,32,9,0.5065646767616272,0.09066930413246155
186,1,32,10,0.4052842855453491,0.06922536343336105
186,1,32,11,0.4413492977619171,0.16378217935562134
186,1,32,12,0.26186540722846985,0.08606383949518204
186,1,32,13,0.6080036163330078,0.07816755026578903
186,1,32,14,0.6660951972007751,0.0763172134757042
186,1,32,15,0.37601524591445923,0.17635013163089752
186,1,32,16,0.38194188475608826,0.12386409193277359
186,1,32,17,0.31448251008987427,0.07625626772642136
186,1,32,18,0.4607251286506653,0.2110760360956192
186,1,32,19,0.3353150188922882,0.13434132933616638
186,1,32,20,0.38896211981773376,0.17894384264945984
186,1,32,21,0.4760461151599884,0.1703488826751709
186,1,32,22,0.5079834461212158,0.2507699728012085
186,1,32,23,0.5385469198226929,0.16173893213272095
186,1,32,24,0.6187023520469666,0.09172257781028748
186,1,32,25,0.5041600465774536,0.058888889849185944
186,1,32,26,0.4870050549507141,0.10270611941814423
186,1,32,27,0.3876052796840668,0.10177318751811981
186,1,32,28,0.49326586723327637,0.14457795023918152
186,1,32,29,0.5578765869140625,0.11555033922195435
186,1,32,30,0.3858090341091156,0.19954541325569153
186,1,32,31,0.5563080310821533,0.1695011407136917
186,2,64,0,0.5571287870407104,0.22826197743415833
186,2,64,1,0.3609045147895813,0.09882012009620667
186,2,64,2,0.5350419282913208,0.23996372520923615
186,2,64,3,0.35474175214767456,0.16265222430229187
186,2,64,4,0.5358976125717163,0.0916297659277916
186,2,64,5,0.37326642870903015,0.08718127757310867
186,2,64,6,0.6023980975151062,0.09923407435417175
186,2,64,7,0.37503671646118164,0.07848319411277771
186,2,64,8,0.5299577116966248,0.16958512365818024
186,2,64,9,0.3994740843772888,0.13511784374713898
186,2,64,10,0.3992868661880493,0.119569331407547
186,2,64,11,0.4547732472419739,0.1867738515138626
186,2,64,12,0.3947376310825348,0.07448640465736389
186,2,64,13,0.4509308934211731,0.1735139936208725
186,2,64,14,0.5683543086051941,0.04419153928756714
186,2,64,15,0.5286795496940613,0.1419571489095688
186,2,64,16,0.49021396040916443,0.10986974090337753
186,2,64,17,0.42048341035842896,0.07229765504598618
186,2,64,18,0.40096980333328247,0.09322135150432587
186,2,64,19,0.44303277134895325,0.1562492847442627
186,2,64,20,0.6528432369232178,0.11775404959917068
186,2,64,21,0.5793224573135376,0.09843498468399048
186,2,64,22,0.4083194136619568,0.21969595551490784
186,2,64,23,0.6185523271560669,0.13889940083026886
186,2,64,24,0.572331964969635,0.0866432934999466
186,2,64,25,0.42739197611808777,0.24026918411254883
186,2,64,26,0.5967624187469482,0.19286251068115234
186,2,64,27,0.44619983434677124,0.21251007914543152
186,2,64,28,0.5333076119422913,0.2571558356285095
186,2,64,29,0.4364427626132965,0.08327187597751617
186,2,64,30,0.5064169764518738,0.16847661137580872
186,2,64,31,0.6206124424934387,0.190302774310112
186,2,64,32,0.44679656624794006,0.12157710641622543
186,2,64,33,0.5011658668518066,0.11314045637845993
186,2,64,34,0.5970090627670288,0.23671725392341614
186,2,64,35,0.5814183354377747,0.15089520812034607
186,2,64,36,0.4741106629371643,0.21998807787895203
186,2,64,37,0.6034204959869385,0.17265012860298157
186,2,64,38,0.3076998293399811,0.16253194212913513
186,2,64,39,0.5591221451759338,0.15683376789093018
186,2,64,40,0.4592759609222412,0.07650154829025269
186,2,64,41,0.6095678210258484,0.10114730894565582
186,2,64,42,0.5564176440238953,0.16384975612163544
186,2,64,43,0.5681093335151672,0.1642240732908249
186,2,64,44,0.5899587273597717,0.14358405768871307
186,2,64,45,0.521491289138794,0.09512969851493835
186,2,64,46,0.5110279321670532,0.1361904889345169
186,2,64,47,0.5442560911178589,0.13669338822364807
186,2,64,48,0.4083574414253235,0.07884703576564789
186,2,64,49,0.4962786138057709,0.12047386169433594
186,2,64,50,0.5311686396598816,0.16484512388706207
186,2,64,51,0.44102251529693604,0.0679258480668068
186,2,64,52,0.6154720187187195,0.09611352533102036
186,2,64,53,0.5305084586143494,0.16252601146697998
186,2,64,54,0.5042315721511841,0.18657316267490387
186,2,64,55,0.47287777066230774,0.17125891149044037
186,2,64,56,0.6225484013557434,0.16537082195281982
186,2,64,57,0.34555286169052124,0.159730926156044
186,2,64,58,0.3496223986148834,0.08440970629453659
186,2,64,59,0.5140630602836609,0.19320495426654816
186,2,64,60,0.7334026098251343,0.07259692996740341
186,2,64,61,0.4029417037963867,0.08163630217313766
186,2,64,62,0.4873645603656769,0.19723904132843018
186,2,64,63,0.477155864238739,0.13231271505355835
186,3,64,0,0.2820126414299011,0.1150028333067894
186,3,64,1,0.5447502732276917,0.12467260658740997
186,3,64,2,0.43976521492004395,0.08141537010669708
186,3,64,3,0.649361252784729,0.16230256855487823
186,3,64,4,0.37914666533470154,0.15187892317771912
186,3,64,5,0.517356812953949,0.15931923687458038
186,3,64,6,0.442272812128067,0.20548757910728455
186,3,64,7,0.38728490471839905,0.1671326607465744
186,3,64,8,0.5805369019508362,0.2230740636587143
186,3,64,9,0.7471359372138977,0.10519082844257355
186,3,64,10,0.5147624015808105,0.12809979915618896
186,3,64,11,0.4841100573539734,0.18999989330768585
186,3,64,12,0.4717510938644409,0.19254308938980103
186,3,64,13,0.5507645606994629,0.2697875499725342
186,3,64,14,0.5226725935935974,0.17958682775497437
186,3,64,15,0.6685503125190735,0.11061029136180878
186,3,64,16,0.5607736706733704,0.09377128630876541
186,3,64,17,0.5113862752914429,0.2254016399383545
186,3,64,18,0.3769516944885254,0.21988430619239807
186,3,64,19,0.34765079617500305,0.10778434574604034
186,3,64,20,0.47498318552970886,0.2222873717546463
186,3,64,21,0.4254523813724518,0.19176927208900452
186,3,64,22,0.389880895614624,0.25798115134239197
186,3,64,23,0.47284263372421265,0.10806229710578918
186,3,64,24,0.32688912749290466,0.1517350673675537
186,3,64,25,0.5030630230903625,0.21517999470233917
186,3,64,26,0.508297860622406,0.2944153845310211
186,3,64,27,0.588236391544342,0.1811354160308838
186,3,64,28,0.5041451454162598,0.22061434388160706
186,3,64,29,0.5046424269676208,0.18493463099002838
186,3,64,30,0.43626171350479126,0.1219051256775856
186,3,64,31,0.46730196475982666,0.18262594938278198
186,3,64,32,0.425632119178772,0.22285044193267822
186,3,64,33,0.5903056263923645,0.1452542394399643
186,3,64,34,0.42654702067375183,0.15662918984889984
186,3,64,35,0.44452664256095886,0.2312176525592804
186,3,64,36,0.4147503077983856,0.2164633870124817
186,3,64,37,0.4092561602592468,0.2603662610054016
186,3,64,38,0.46580347418785095,0.24191972613334656
186,3,64,39,0.46533203125,0.1577095240354538
186,3,64,40,0.5283446311950684,0.22790056467056274
186,3,64,41,0.3878554105758667,0.1083448976278305
186,3,64,42,0.47972509264945984,0.1655874252319336
186,3,64,43,0.5088962912559509,0.15887053310871124
186,3,64,44,0.6962385177612305,0.16649135947227478
186,3,64,45,0.5304235816001892,0.1876702755689621
186,3,64,46,0.458687424659729,0.17967815697193146
186,3,64,47,0.3626570999622345,0.130733922123909
186,3,64,48,0.43972471356391907,0.1441131979227066
186,3,64,49,0.5137351155281067,0.13620902597904205
186,3,64,50,0.4274590015411377,0.21593958139419556
186,3,64,51,0.5754843354225159,0.16058717668056488
186,3,64,52,0.5094417929649353,0.2422669678926468
186,3,64,53,0.43580594658851624,0.19240891933441162
186,3,64,54,0.6062505841255188,0.20217952132225037
186,3,64,55,0.37731611728668213,0.11676281690597534
186,3,64,56,0.4600979685783386,0.15900596976280212
186,3,64,57,0.5365571975708008,0.14538608491420746
186,3,64,58,0.3828006982803345,0.15494072437286377
186,3,64,59,0.4499729573726654,0.210105761885643
186,3,64,60,0.44412562251091003,0.2049095779657364
186,3,64,61,0.6601302027702332,0.11839311569929123
186,3,64,62,0.4297238290309906,0.24693424999713898
186,3,64,63,0.5493406653404236,0.16318199038505554
186,4,128,0,0.29390597343444824,0.11801445484161377
186,4,128,1,0.6812463402748108,0.23974540829658508
186,4,128,2,0.3684441149234772,0.23186925053596497
186,4,128,3,0.6284668445587158,0.23165245354175568
186,4,128,4,0.6541690826416016,0.2835617661476135
186,4,128,5,0.2426413893699646,0.1822396069765091
186,4,128,6,0.5237129330635071,0.16042357683181763
186,4,128,7,0.480558305978775,0.21402141451835632
186,4,128,8,0.3716522455215454,0.08606480062007904
186,4,128,9,0.318278044462204,0.1914823055267334
186,4,128,10,0.44489791989326477,0.1410181075334549
186,4,128,11,0.5788049697875977,0.14811745285987854
186,4,128,12,0.7193040251731873,0.21729741990566254
186,4,128,13,0.6238875389099121,0.08311716467142105
186,4,128,14,0.6529325246810913,0.1644425392150879
186,4,128,15,0.6599291563034058,0.22645242512226105
186,4,128,16,0.4424076974391937,0.17628829181194305
186,4,128,17,0.6205700039863586,0.10379502922296524
186,4,128,18,0.4269585609436035,0.10605810582637787
186,4,128,19,0.673464298248291,0.21290427446365356
186,4,128,20,0.7092819809913635,0.2540511190891266
186,4,128,21,0.4513614773750305,0.1865742951631546
186,4,128,22,0.6332492232322693,0.22109033167362213
186,4,128,23,0.5823512077331543,0.10299351811408997
186,4,128,24,0.47767359018325806,0.1291361004114151
186,4,128,25,0.28597474098205566,0.105621837079525
186,4,128,26,0.4054616689682007,0.14235810935497284
186,4,128,27,0.5978831052780151,0.20659177005290985
186,4,128,28,0.6996079087257385,0.09326870739459991
186,4,128,29,0.721321165561676,0.18847765028476715
186,4,128,30,0.497866690158844,0.09165903925895691
186,4,128,31,0.362057626247406,0.13451647758483887
186,4,128,32,0.4263896048069,0.17828573286533356
186,4,128,33,0.6504117250442505,0.22795598208904266
186,4,128,34,0.6975579261779785,0.2565617859363556
186,4,128,35,0.4285389184951782,0.24734076857566833
186,4,128,36,0.3754847049713135,0.2743920683860779
186,4,128,37,0.7845803499221802,0.13634568452835083
186,4,128,38,0.3114350736141205,0.16369672119617462
186,4,128,39,0.3855466842651367,0.178645521402359
186,4,128,40,0.2745835781097412,0.14032518863677979
186,4,128,41,0.36793649196624756,0.15518870949745178
186,4,128,42,0.6638802886009216,0.13383126258850098
186,4,128,43,0.6684903502464294,0.33986762166023254
186,4,128,44,0.39037153124809265,0.1257777214050293
186,4,128,45,0.5797997713088989,0.11084239929914474
186,4,128,46,0.6745014786720276,0.11131299287080765
186,4,128,47,0.6198095679283142,0.28588953614234924
186,4,128,48,0.4028175175189972,0.2381001114845276
186,4,128,49,0.5679104924201965,0.088873952627182
186,4,128,50,0.5918350219726562,0.09951470047235489
186,4,128,51,0.46720704436302185,0.11727885901927948
186,4,128,52,0.5879095792770386,0.07787775993347168
186,4,128,53,0.4363141655921936,0.2417771965265274
186,4,128,54,0.40674489736557007,0.16387790441513062
186,4,128,55,0.6996501088142395,0.23083020746707916
186,4,128,56,0.46326786279678345,0.14255686104297638
186,4,128,57,0.595490574836731,0.23453952372074127
186,4,128,58,0.45378607511520386,0.1546401083469391
186,4,128,59,0.6559658050537109,0.1763177067041397
186,4,128,60,0.46301260590553284,0.11706868559122086
186,4,128,61,0.5105477571487427,0.09656322747468948
186,4,128,62,0.6368387937545776,0.2145400047302246
186,4,128,63,0.3698301911354065,0.20622460544109344
186,4,128,64,0.5701927542686462,0.07973498106002808
186,4,128,65,0.381348580121994,0.27994367480278015
186,4,128,66,0.32720643281936646,0.1581166833639145
186,4,128,67,0.42639413475990295,0.15284495055675507
186,4,128,68,0.4986743628978729,0.1526780128479004
186,4,128,69,0.7541143298149109,0.26343414187431335
186,4,128,70,0.6024717092514038,0.24461416900157928
186,4,128,71,0.6925017237663269,0.19604641199111938
186,4,128,72,0.5416443943977356,0.10165169090032578
186,4,128,73,0.5548275709152222,0.1845289021730423
186,4,128,74,0.69661545753479,0.1729525774717331
186,4,128,75,0.7231443524360657,0.15828630328178406
186,4,128,76,0.4001687169075012,0.08108148723840714
186,4,128,77,0.5546921491622925,0.1395987719297409
186,4,128,78,0.6227074265480042,0.15815037488937378
186,4,128,79,0.6326562166213989,0.23427225649356842
186,4,128,80,0.46180322766304016,0.16750957071781158
186,4,128,81,0.6651974320411682,0.2864038348197937
186,4,128,82,0.7375665903091431,0.12375950068235397
186,4,128,83,0.36133524775505066,0.08868030458688736
186,4,128,84,0.3523523211479187,0.1456068456172943
186,4,128,85,0.3748152554035187,0.10252097994089127
186,4,128,86,0.6417953968048096,0.22990797460079193
186,4,128,87,0.7419010996818542,0.1972419023513794
186,4,128,88,0.7506247758865356,0.17512600123882294
186,4,128,89,0.5024516582489014,0.10472524166107178
186,4,128,90,0.4430510401725769,0.12389104068279266
186,4,128,91,0.5888174176216125,0.17703139781951904
186,4,128,92,0.6969754695892334,0.22545301914215088
186,4,128,93,0.4666796028614044,0.162562295794487
186,4,128,94,0.28508785367012024,0.23175722360610962
186,4,128,95,0.723648190498352,0.17973323166370392
186,4,128,96,0.6229920387268066,0.060398731380701065
186,4,128,97,0.6138431429862976,0.24422688782215118
186,4,128,98,0.3663407564163208,0.1358589082956314
186,4,128,99,0.7187950611114502,0.32171353697776794
186,4,128,100,0.6060022711753845,0.20494091510772705
186,4,128,101,0.3713953495025635,0.1444578915834427
186,4,128,102,0.3842051327228546,0.2992120385169983
186,4,128,103,0.5409627556800842,0.11497602611780167
186,4,128,104,0.7918058037757874,0.19675058126449585
186,4,128,105,0.5484670996665955,0.1255127638578415
186,4,128,106,0.5914098620414734,0.11691636592149734
186,4,128,107,0.7548952102661133,0.11750861257314682
186,4,128,108,0.45228496193885803,0.1311539113521576
186,4,128,109,0.6341248154640198,0.07160710543394089
186,4,128,110,0.6490145921707153,0.2939586043357849
186,4,128,111,0.42303466796875,0.20445074141025543
186,4,128,112,0.4034695029258728,0.13955684006214142
186,4,128,113,0.640879213809967,0.09902545809745789
186,4,128,114,0.39361101388931274,0.19931650161743164
186,4,128,115,0.32671451568603516,0.1560937762260437
186,4,128,116,0.5756176114082336,0.18121133744716644
186,4,128,117,0.3748699724674225,0.15500514209270477
186,4,128,118,0.37630942463874817,0.23627273738384247
186,4,128,119,0.7018864750862122,0.28482046723365784
186,4,128,120,0.3773047924041748,0.2284969538450241
186,4,128,121,0.7079542279243469,0.1638834923505783
186,4,128,122,0.6763412952423096,0.3356471657752991
186,4,128,123,0.6687744855880737,0.25339972972869873
186,4,128,124,0.5574303269386292,0.1454657018184662
186,4,128,125,0.43532076478004456,0.144150048494339
186,4,128,126,0.49691087007522583,0.160743847489357
186,4,128,127,0.48827382922172546,0.13622502982616425
186,5,128,0,0.5263908505439758,0.10187394171953201
186,5,128,1,0.44818314909935,0.12268652021884918
186,5,128,2,0.6049330830574036,0.14519734680652618
186,5,128,3,0.5507253408432007,0.08864593505859375
186,5,128,4,0.8160967826843262,0.1514374166727066
186,5,128,5,0.7133546471595764,0.10954716056585312
186,5,128,6,0.6305442452430725,0.13188180327415466
186,5,128,7,0.697708010673523,0.21794964373111725
186,5,128,8,0.44334539771080017,0.08219233900308609
186,5,128,9,0.7548426389694214,0.1439894735813141
186,5,128,10,0.485581636428833,0.12047488242387772
186,5,128,11,0.650373637676239,0.22116084396839142
186,5,128,12,0.6124078631401062,0.16356733441352844
186,5,128,13,0.6728331446647644,0.18071448802947998
186,5,128,14,0.7640305161476135,0.09904906153678894
186,5,128,15,0.6949679851531982,0.16804127395153046
186,5,128,16,0.5682365298271179,0.0980520099401474
186,5,128,17,0.6579625606536865,0.16399146616458893
186,5,128,18,0.6244736313819885,0.20469050109386444
186,5,128,19,0.7480230927467346,0.24508801102638245
186,5,128,20,0.4725777208805084,0.22753700613975525
186,5,128,21,0.7541496157646179,0.08422097563743591
186,5,128,22,0.40982741117477417,0.1293887495994568
186,5,128,23,0.5203351378440857,0.2162621021270752
186,5,128,24,0.4383367598056793,0.21374578773975372
186,5,128,25,0.4980054199695587,0.06827164441347122
186,5,128,26,0.5482903122901917,0.23208360373973846
186,5,128,27,0.5763667225837708,0.153469055891037
186,5,128,28,0.8264988660812378,0.1252969652414322
186,5,128,29,0.6776232123374939,0.2236686646938324
186,5,128,30,0.5195440649986267,0.13788093626499176
186,5,128,31,0.6643520593643188,0.12590137124061584
186,5,128,32,0.6521914601325989,0.13292476534843445
186,5,128,33,0.6077337861061096,0.19739894568920135
186,5,128,34,0.7624330520629883,0.1756487488746643
186,5,128,35,0.8011866807937622,0.09315686672925949
186,5,128,36,0.5564842820167542,0.10986590385437012
186,5,128,37,0.5557749271392822,0.20461463928222656
186,5,128,38,0.6384480595588684,0.12530073523521423
186,5,128,39,0.6622717380523682,0.10320527106523514
186,5,128,40,0.4545741081237793,0.06837989389896393
186,5,128,41,0.6981936693191528,0.1319633573293686
186,5,128,42,0.6581375598907471,0.23854343593120575
186,5,128,43,0.7270719408988953,0.18105857074260712
186,5,128,44,0.7019379138946533,0.07914633303880692
186,5,128,45,0.536297082901001,0.2023889571428299
186,5,128,46,0.7809664607048035,0.08834297209978104
186,5,128,47,0.7985443472862244,0.17678271234035492
186,5,128,48,0.5980510115623474,0.10197509080171585
186,5,128,49,0.7696169018745422,0.16135498881340027
186,5,128,50,0.577904462814331,0.14779390394687653
186,5,128,51,0.7861732244491577,0.23304449021816254
186,5,128,52,0.7761684060096741,0.14718398451805115
186,5,128,53,0.7034098505973816,0.08670805394649506
186,5,128,54,0.46818259358406067,0.1225232481956482
186,5,128,55,0.7689957618713379,0.16744443774223328
186,5,128,56,0.7418229579925537,0.10943058878183365
186,5,128,57,0.5845913290977478,0.16307541728019714
186,5,128,58,0.5036476254463196,0.0786406397819519
186,5,128,59,0.7087445259094238,0.1873827427625656
186,5,128,60,0.5333529710769653,0.15722224116325378
186,5,128,61,0.456987589597702,0.10737942159175873
186,5,128,62,0.37309587001800537,0.2171560376882553
186,5,128,63,0.6070428490638733,0.13199159502983093
186,5,128,64,0.6561134457588196,0.24468129873275757
186,5,128,65,0.6724908351898193,0.18526190519332886
186,5,128,66,0.6869312524795532,0.1941792368888855
186,5,128,67,0.5794893503189087,0.10271134972572327
186,5,128,68,0.5708699226379395,0.1760939061641693
186,5,128,69,0.7536055445671082,0.11806050688028336
186,5,128,70,0.4443952143192291,0.19403131306171417
186,5,128,71,0.6122151613235474,0.14812688529491425
186,5,128,72,0.5755012631416321,0.13760337233543396
186,5,128,73,0.6943569183349609,0.24588485062122345
186,5,128,74,0.796392023563385,0.14164204895496368
186,5,128,75,0.3885408639907837,0.13943234086036682
186,5,128,76,0.5833709836006165,0.21633614599704742
186,5,128,77,0.5471920371055603,0.15267519652843475
186,5,128,78,0.7702309489250183,0.12906187772750854
186,5,128,79,0.6550293564796448,0.11757859587669373
186,5,128,80,0.6422693729400635,0.12972258031368256
186,5,128,81,0.7085525989532471,0.13464327156543732
186,5,128,82,0.5206208825111389,0.20952768623828888
186,5,128,83,0.44241613149642944,0.1385808289051056
186,5,128,84,0.7441388368606567,0.13246160745620728
186,5,128,85,0.7873679995536804,0.10972221195697784
186,5,128,86,0.6799679398536682,0.1729416400194168
186,5,128,87,0.6672223210334778,0.10749869793653488
186,5,128,88,0.7891454696655273,0.16788503527641296
186,5,128,89,0.7047308683395386,0.24346531927585602
186,5,128,90,0.5335010290145874,0.22214525938034058
186,5,128,91,0.7441689968109131,0.12673519551753998
186,5,128,92,0.634604275226593,0.24132880568504333
186,5,128,93,0.6450513601303101,0.18243606388568878
186,5,128,94,0.5969409942626953,0.1431456208229065
186,5,128,95,0.551980197429657,0.17675535380840302
186,5,128,96,0.5504059195518494,0.2757270634174347
186,5,128,97,0.23505686223506927,0.21092219650745392
186,5,128,98,0.6821529269218445,0.11589210480451584
186,5,128,99,0.7587875127792358,0.1782146841287613
186,5,128,100,0.6024876832962036,0.07469593733549118
186,5,128,101,0.8322280049324036,0.10145092010498047
186,5,128,102,0.580471396446228,0.12188196927309036
186,5,128,103,0.5933316349983215,0.1583922952413559
186,5,128,104,0.7586150169372559,0.1900012493133545
186,5,128,105,0.6252622604370117,0.20325101912021637
186,5,128,106,0.7880430817604065,0.11766044795513153
186,5,128,107,0.6061069369316101,0.15860365331172943
186,5,128,108,0.7358779311180115,0.11607851088047028
186,5,128,109,0.6732285618782043,0.14494378864765167
186,5,128,110,0.6087675094604492,0.16869094967842102
186,5,128,111,0.26721858978271484,0.15238690376281738
186,5,128,112,0.5976369380950928,0.12790365517139435
186,5,128,113,0.5343331694602966,0.19061532616615295
186,5,128,114,0.6826879978179932,0.12713852524757385
186,5,128,115,0.3471281826496124,0.09637367725372314
186,5,128,116,0.6692215204238892,0.24764344096183777
186,5,128,117,0.3737027645111084,0.19543783366680145
186,5,128,118,0.5387980937957764,0.08421829342842102
186,5,128,119,0.6980867385864258,0.2405165582895279
186,5,128,120,0.7175042629241943,0.11420763283967972
186,5,128,121,0.6102549433708191,0.1890023648738861
186,5,128,122,0.5419550538063049,0.19763904809951782
186,5,128,123,0.7888874411582947,0.11216823756694794
186,5,128,124,0.607380747795105,0.21874038875102997
186,5,128,125,0.5735750794410706,0.1473153978586197
186,5,128,126,0.8494837880134583,0.10675372183322906
186,5,128,127,0.6686398983001709,0.12416786700487137
188,0,32,0,0.6039905548095703,0.04478985443711281
188,0,32,1,0.5120607614517212,0.06851733475923538
188,0,32,2,0.579485297203064,0.04279300197958946
188,0,32,3,0.5855985283851624,0.03723179176449776
188,0,32,4,0.39238983392715454,0.03576570749282837
188,0,32,5,0.4259810149669647,0.022155629470944405
188,0,32,6,0.47296494245529175,0.0932254046201706
188,0,32,7,0.4932316541671753,0.07982467859983444
188,0,32,8,0.6046923398971558,0.0727514773607254
188,0,32,9,0.46408483386039734,0.0469469279050827
188,0,32,10,0.5343837141990662,0.060855425894260406
188,0,32,11,0.46799224615097046,0.04006607085466385
188,0,32,12,0.5674667358398438,0.04753953963518143
188,0,32,13,0.5423056483268738,0.0445745550096035
188,0,32,14,0.6346347332000732,0.04152732715010643
188,0,32,15,0.6137615442276001,0.05688730627298355
188,0,32,16,0.5077548027038574,0.05346116051077843
188,0,32,17,0.47192439436912537,0.06398651003837585
188,0,32,18,0.4447031021118164,0.048140622675418854
188,0,32,19,0.5588148236274719,0.0745154619216919
188,0,32,20,0.41816604137420654,0.0684807226061821
188,0,32,21,0.46723780035972595,0.08097705990076065
188,0,32,22,0.5122330784797668,0.032143231481313705
188,0,32,23,0.5632033944129944,0.07245837152004242
188,0,32,24,0.47975456714630127,0.08184291422367096
188,0,32,25,0.42472922801971436,0.026428163051605225
188,0,32,26,0.3886958658695221,0.05482635274529457
188,0,32,27,0.4481717050075531,0.044409144669771194
188,0,32,28,0.5919544696807861,0.028087953105568886
188,0,32,29,0.5376195311546326,0.06683240830898285
188,0,32,30,0.4691685736179352,0.02332398295402527
188,0,32,31,0.4195803999900818,0.03691030666232109
188,1,32,0,0.5399482250213623,0.05121520161628723
188,1,32,1,0.538775622844696,0.11505979299545288
188,1,32,2,0.39915168285369873,0.04864893853664398
188,1,32,3,0.5624954104423523,0.10670668631792068
188,1,32,4,0.5363220572471619,0.13390953838825226
188,1,32,5,0.36216625571250916,0.07807335257530212
188,1,32,6,0.3862444758415222,0.06273671239614487
188,1,32,7,0.5810897946357727,0.10313204675912857
188,1,32,8,0.6317854523658752,0.04436967521905899
188,1,32,9,0.6101742386817932,0.06111301854252815
188,1,32,10,0.49667802453041077,0.07786126434803009
188,1,32,11,0.3959701657295227,0.059568457305431366
188,1,32,12,0.46709880232810974,0.09419985860586166
188,1,32,13,0.4803500771522522,0.08093399554491043
188,1,32,14,0.3994562327861786,0.062456779181957245
188,1,32,15,0.4219221770763397,0.05095773935317993
188,1,32,16,0.619996964931488,0.028871402144432068
188,1,32,17,0.3690820336341858,0.04208768159151077
188,1,32,18,0.40533411502838135,0.03803329914808273
188,1,32,19,0.4269005358219147,0.08225039392709732
188,1,32,20,0.5268716812133789,0.06114738807082176
188,1,32,21,0.5161389708518982,0.06822726875543594
188,1,32,22,0.4685008227825165,0.13514280319213867
188,1,32,23,0.5357136130332947,0.06530093401670456
188,1,32,24,0.39843204617500305,0.0825604647397995
188,1,32,25,0.47971925139427185,0.09720014035701752
188,1,32,26,0.6217930912971497,0.1429881900548935
188,1,32,27,0.4996911883354187,0.06710094958543777
188,1,32,28,0.4688044488430023,0.03764783591032028
188,1,32,29,0.5295183658599854,0.08782823383808136
188,1,32,30,0.514739990234375,0.09593229740858078
188,1,32,31,0.3311786651611328,0.05729563534259796
188,2,64,0,0.5207078456878662,0.2249249666929245
188,2,64,1,0.56000816822052,0.09015022963285446
188,2,64,2,0.44726794958114624,0.11957196146249771
188,2,64,3,0.3109274208545685,0.205563023686409
188,2,64,4,0.4346323311328888,0.10660857707262039
188,2,64,5,0.5326263308525085,0.16511353850364685
188,2,64,6,0.5835376977920532,0.1547437310218811
188,2,64,7,0.49526968598365784,0.07412990927696228
188,2,64,8,0.5466480255126953,0.270440012216568
188,2,64,9,0.7381688356399536,0.118769071996212
188,2,64,10,0.3925809860229492,0.07768885046243668
188,2,64,11,0.37285271286964417,0.10041656345129013
188,2,64,12,0.6748664379119873,0.12228412181138992
188,2,64,13,0.5848689079284668,0.16101428866386414
188,2,64,14,0.42715099453926086,0.17065487802028656
188,2,64,15,0.4117940068244934,0.11176436394453049
188,2,64,16,0.6305526494979858,0.1330554038286209
188,2,64,17,0.5243881344795227,0.1620423048734665
188,2,64,18,0.5749587416648865,0.1445566713809967
188,2,64,19,0.42661765217781067,0.20357581973075867
188,2,64,20,0.5260427594184875,0.13893024623394012
188,2,64,21,0.4166148602962494,0.13201849162578583
188,2,64,22,0.560677170753479,0.16454198956489563
188,2,64,23,0.6013962626457214,0.18261896073818207
188,2,64,24,0.5331551432609558,0.0982651337981224
188,2,64,25,0.40875205397605896,0.0775596871972084
188,2,64,26,0.5861687660217285,0.19470979273319244
188,2,64,27,0.6789955496788025,0.16966478526592255
188,2,64,28,0.5944704413414001,0.16971631348133087
188,2,64,29,0.3952913284301758,0.21715497970581055
188,2,64,30,0.5259749889373779,0.0925930067896843
188,2,64,31,0.311752051115036,0.08328481763601303
188,2,64,32,0.434455931186676,0.12030953913927078
188,2,64,33,0.3812647759914398,0.1660197228193283
188,2,64,34,0.6440596580505371,0.18912488222122192
188,2,64,35,0.5966629385948181,0.09391500055789948
188,2,64,36,0.5384415984153748,0.18225015699863434
188,2,64,37,0.5593327283859253,0.11071803420782089
188,2,64,38,0.5304010510444641,0.10592823475599289
188,2,64,39,0.4721585512161255,0.10176358371973038
188,2,64,40,0.475479394197464,0.1509900987148285
188,2,64,41,0.4490961730480194,0.10261764377355576
188,2,64,42,0.6340763568878174,0.21846677362918854
188,2,64,43,0.5142233371734619,0.1128617450594902
188,2,64,44,0.5370100140571594,0.14854030311107635
188,2,64,45,0.6869890093803406,0.06612037122249603
188,2,64,46,0.5376037955284119,0.1592186987400055
188,2,64,47,0.5637452006340027,0.173181414604187
188,2,64,48,0.6805577278137207,0.09370549768209457
188,2,64,49,0.4705989956855774,0.11518952250480652
188,2,64,50,0.32785096764564514,0.20423026382923126
188,2,64,51,0.48499178886413574,0.15309424698352814
188,2,64,52,0.5577555298805237,0.13880634307861328
188,2,64,53,0.4441280663013458,0.18172934651374817
188,2,64,54,0.3250003159046173,0.11525005847215652
188,2,64,55,0.6621091961860657,0.09781625866889954
188,2,64,56,0.46613678336143494,0.11669181287288666
188,2,64,57,0.45635882019996643,0.1525023728609085
188,2,64,58,0.470930814743042,0.08513755351305008
188,2,64,59,0.5780783295631409,0.1295013129711151
188,2,64,60,0.6415013670921326,0.09219495952129364
188,2,64,61,0.7584672570228577,0.10056637972593307
188,2,64,62,0.41964247822761536,0.08809424936771393
188,2,64,63,0.5705302357673645,0.14970305562019348
188,3,64,0,0.384650319814682,0.0536014549434185
188,3,64,1,0.6324971318244934,0.12524846196174622
188,3,64,2,0.5833228826522827,0.09296470880508423
188,3,64,3,0.42809754610061646,0.056054145097732544
188,3,64,4,0.4807623028755188,0.06994015723466873
188,3,64,5,0.511749804019928,0.11946771293878555
188,3,64,6,0.48965033888816833,0.08478563278913498
188,3,64,7,0.5809283256530762,0.06551668792963028
188,3,64,8,0.4122444689273834,0.11378825455904007
188,3,64,9,0.5689917802810669,0.07827769219875336
188,3,64,10,0.5090792179107666,0.09711174666881561
188,3,64,11,0.4575237035751343,0.11040183901786804
188,3,64,12,0.39820829033851624,0.10022201389074326
188,3,64,13,0.43768563866615295,0.1373714953660965
188,3,64,14,0.43561986088752747,0.15596486628055573
188,3,64,15,0.4113415479660034,0.07036224007606506
188,3,64,16,0.5293440222740173,0.07288739085197449
188,3,64,17,0.4436749815940857,0.11614775657653809
188,3,64,18,0.5486195087432861,0.11486417800188065
188,3,64,19,0.6680228114128113,0.11498358845710754
188,3,64,20,0.46924281120300293,0.1210605800151825
188,3,64,21,0.4316279888153076,0.1220642551779747
188,3,64,22,0.41429388523101807,0.11664317548274994
188,3,64,23,0.48880112171173096,0.10594198852777481
188,3,64,24,0.47155097126960754,0.07597172260284424
188,3,64,25,0.4007421135902405,0.08404840528964996
188,3,64,26,0.5303127765655518,0.11058242619037628
188,3,64,27,0.5591317415237427,0.0959133580327034
188,3,64,28,0.45707273483276367,0.138395756483078
188,3,64,29,0.4566302001476288,0.09931456297636032
188,3,64,30,0.42436206340789795,0.10655152052640915
188,3,64,31,0.5735391974449158,0.09980179369449615
188,3,64,32,0.5325755476951599,0.09528900682926178
188,3,64,33,0.48927393555641174,0.09374736249446869
188,3,64,34,0.5342622995376587,0.09219169616699219
188,3,64,35,0.4116956293582916,0.06481163948774338
188,3,64,36,0.5171767473220825,0.06812477111816406
188,3,64,37,0.5907939672470093,0.1187867522239685
188,3,64,38,0.6257957220077515,0.07806306332349777
188,3,64,39,0.44813457131385803,0.1060703918337822
188,3,64,40,0.3564074635505676,0.06189567968249321
188,3,64,41,0.35637298226356506,0.07344987988471985
188,3,64,42,0.48204416036605835,0.05556878820061684
188,3,64,43,0.620507538318634,0.06814128905534744
188,3,64,44,0.5522042512893677,0.1204991564154625
188,3,64,45,0.5361541509628296,0.12883789837360382
188,3,64,46,0.5840404629707336,0.05889442563056946
188,3,64,47,0.3491480052471161,0.09920267760753632
188,3,64,48,0.40896132588386536,0.08624362200498581
188,3,64,49,0.5940595269203186,0.0885394811630249
188,3,64,50,0.4890560805797577,0.14353513717651367
188,3,64,51,0.4836815297603607,0.08888133615255356
188,3,64,52,0.6214996576309204,0.11461538076400757
188,3,64,53,0.5394397974014282,0.0626339539885521
188,3,64,54,0.399528831243515,0.09005787968635559
188,3,64,55,0.542902946472168,0.11391519010066986
188,3,64,56,0.5603256225585938,0.1165662482380867
188,3,64,57,0.5208290815353394,0.11126641929149628
188,3,64,58,0.5052721500396729,0.09988421946763992
188,3,64,59,0.3623192310333252,0.07809881120920181
188,3,64,60,0.4764818549156189,0.11758332699537277
188,3,64,61,0.5265402793884277,0.12701383233070374
188,3,64,62,0.4578593075275421,0.0701819583773613
188,3,64,63,0.5893360376358032,0.07996486872434616
188,4,128,0,0.5309426188468933,0.24746903777122498
188,4,128,1,0.342774361371994,0.18969786167144775
188,4,128,2,0.4491997957229614,0.2311238944530487
188,4,128,3,0.46881845593452454,0.09514065086841583
188,4,128,4,0.6824540495872498,0.08485560119152069
188,4,128,5,0.5813921093940735,0.2505521774291992
188,4,128,6,0.5676493644714355,0.08753393590450287
188,4,128,7,0.4821917414665222,0.17474474012851715
188,4,128,8,0.5325796008110046,0.18518966436386108
188,4,128,9,0.5943093299865723,0.08946066349744797
188,4,128,10,0.6580873727798462,0.09252938628196716
188,4,128,11,0.4999217092990875,0.13171693682670593
188,4,128,12,0.46713098883628845,0.22263851761817932
188,4,128,13,0.5014792084693909,0.2590274512767792
188,4,128,14,0.5778548121452332,0.16725416481494904
188,4,128,15,0.5919503569602966,0.23467810451984406
188,4,128,16,0.6250821352005005,0.13728927075862885
188,4,128,17,0.40520352125167847,0.19310881197452545
188,4,128,18,0.5650807619094849,0.10166635364294052
188,4,128,19,0.5927826166152954,0.20442405343055725
188,4,128,20,0.3437758684158325,0.1356946974992752
188,4,128,21,0.5400403141975403,0.2833240032196045
188,4,128,22,0.4300103187561035,0.237483948469162
188,4,128,23,0.5688653588294983,0.25469255447387695
188,4,128,24,0.6959929466247559,0.13698624074459076
188,4,128,25,0.6548802256584167,0.22038179636001587
188,4,128,26,0.5105355978012085,0.16156697273254395
188,4,128,27,0.4976457953453064,0.1799561232328415
188,4,128,28,0.5773321390151978,0.1660655438899994
188,4,128,29,0.5418016910552979,0.21127119660377502
188,4,128,30,0.5074047446250916,0.10639575868844986
188,4,128,31,0.42889344692230225,0.08552981913089752
188,4,128,32,0.6477687358856201,0.2148786038160324
188,4,128,33,0.682012140750885,0.16586355865001678
188,4,128,34,0.4129757881164551,0.2146902233362198
188,4,128,35,0.5230685472488403,0.12669406831264496
188,4,128,36,0.4744963049888611,0.16053472459316254
188,4,128,37,0.4192488193511963,0.15093807876110077
188,4,128,38,0.6171438097953796,0.07579989731311798
188,4,128,39,0.3907030522823334,0.09621534496545792
188,4,128,40,0.4829857349395752,0.23630239069461823
188,4,128,41,0.7265384793281555,0.10141540318727493
188,4,128,42,0.689735472202301,0.08064407110214233
188,4,128,43,0.5209295749664307,0.0808398500084877
188,4,128,44,0.33441558480262756,0.07252214848995209
188,4,128,45,0.5775846242904663,0.24957460165023804
188,4,128,46,0.5681280493736267,0.09852410852909088
188,4,128,47,0.43920791149139404,0.1584538370370865
188,4,128,48,0.47401079535484314,0.1012830063700676
188,4,128,49,0.40690910816192627,0.21320399641990662
188,4,128,50,0.5521818399429321,0.146552175283432
188,4,128,51,0.37672287225723267,0.09843023866415024
188,4,128,52,0.5173791646957397,0.10910800844430923
188,4,128,53,0.5888115763664246,0.2078835517168045
188,4,128,54,0.45538586378097534,0.15304644405841827
188,4,128,55,0.6043217182159424,0.10805987566709518
188,4,128,56,0.6631293296813965,0.13243721425533295
188,4,128,57,0.5855270028114319,0.1136891320347786
188,4,128,58,0.5217537879943848,0.21742470562458038
188,4,128,59,0.5860736966133118,0.19018620252609253
188,4,128,60,0.7114364504814148,0.09750751405954361
188,4,128,61,0.5752822160720825,0.18667691946029663
188,4,128,62,0.4163249731063843,0.18949639797210693
188,4,128,63,0.33115267753601074,0.11480620503425598
188,4,128,64,0.7173707485198975,0.08637234568595886
188,4,128,65,0.5576714277267456,0.14553987979888916
188,4,128,66,0.5311657786369324,0.16104690730571747
188,4,128,67,0.5889678597450256,0.12577912211418152
188,4,128,68,0.5926162004470825,0.09377329051494598
188,4,128,69,0.43766868114471436,0.13552191853523254
188,4,128,70,0.5829043984413147,0.15495377779006958
188,4,128,71,0.6093205213546753,0.13944612443447113
188,4,128,72,0.5762104392051697,0.3194478154182434
188,4,128,73,0.48588594794273376,0.19923165440559387
188,4,128,74,0.46886828541755676,0.26745137572288513
188,4,128,75,0.6838263273239136,0.09776196628808975
188,4,128,76,0.32615914940834045,0.1332147717475891
188,4,128,77,0.6449443697929382,0.2462223917245865
188,4,128,78,0.6018279194831848,0.05878201872110367
188,4,128,79,0.5094138979911804,0.14448176324367523
188,4,128,80,0.46927064657211304,0.14431621134281158
188,4,128,81,0.5959146022796631,0.063385508954525
188,4,128,82,0.4572189152240753,0.10361672937870026
188,4,128,83,0.7112875580787659,0.11860114336013794
188,4,128,84,0.6184686422348022,0.2515440583229065
188,4,128,85,0.5073621869087219,0.2615394592285156
188,4,128,86,0.34417805075645447,0.09521622210741043
188,4,128,87,0.5371972322463989,0.10765797644853592
188,4,128,88,0.4085387587547302,0.09116102755069733
188,4,128,89,0.6616083979606628,0.21779191493988037
188,4,128,90,0.42300131916999817,0.08952436596155167
188,4,128,91,0.6703028082847595,0.0868569165468216
188,4,128,92,0.5739029049873352,0.28291577100753784
188,4,128,93,0.6194039583206177,0.11788755655288696
188,4,128,94,0.4026687741279602,0.20417487621307373
188,4,128,95,0.6457415223121643,0.2670955955982208
188,4,128,96,0.5549018979072571,0.289203941822052
188,4,128,97,0.39351415634155273,0.19341595470905304
188,4,128,98,0.49436619877815247,0.26140838861465454
188,4,128,99,0.6737678647041321,0.07107927650213242
188,4,128,100,0.5324604511260986,0.15788082778453827
188,4,128,101,0.4876689314842224,0.06171545758843422
188,4,128,102,0.41001632809638977,0.15963521599769592
188,4,128,103,0.5261099934577942,0.22847339510917664
188,4,128,104,0.5643298625946045,0.06711708009243011
188,4,128,105,0.5531911849975586,0.1919884979724884
188,4,128,106,0.5159327983856201,0.06579721719026566
188,4,128,107,0.4428083300590515,0.3238086402416229
188,4,128,108,0.5434260964393616,0.09975872933864594
188,4,128,109,0.6530000567436218,0.19101987779140472
188,4,128,110,0.4950915277004242,0.08696883916854858
188,4,128,111,0.5785164833068848,0.2651959955692291
188,4,128,112,0.5772241353988647,0.32276007533073425
188,4,128,113,0.4165828824043274,0.13699078559875488
188,4,128,114,0.6293808817863464,0.2611462473869324
188,4,128,115,0.529191792011261,0.15232481062412262
188,4,128,116,0.5104126930236816,0.1611340194940567
188,4,128,117,0.558286726474762,0.14891181886196136
188,4,128,118,0.37189337611198425,0.1692437082529068
188,4,128,119,0.41198205947875977,0.19173136353492737
188,4,128,120,0.4579591155052185,0.12326972186565399
188,4,128,121,0.5457631349563599,0.15598328411579132
188,4,128,122,0.5063753724098206,0.24917875230312347
188,4,128,123,0.4537483751773834,0.09246678650379181
188,4,128,124,0.39265620708465576,0.17760969698429108
188,4,128,125,0.5150712132453918,0.11037237197160721
188,4,128,126,0.6491279006004333,0.10237482935190201
188,4,128,127,0.5610592365264893,0.22374893724918365
188,5,128,0,0.5440556406974792,0.06845761090517044
188,5,128,1,0.4760438799858093,0.05558329448103905
188,5,128,2,0.6803069710731506,0.13575683534145355
188,5,128,3,0.5951898097991943,0.1393224149942398
188,5,128,4,0.6722416877746582,0.19250161945819855
188,5,128,5,0.6281679272651672,0.1284579187631607
188,5,128,6,0.6055124402046204,0.11057726293802261
188,5,128,7,0.382315069437027,0.17770253121852875
188,5,128,8,0.7046600580215454,0.1181315928697586
188,5,128,9,0.556269645690918,0.1258169561624527
188,5,128,10,0.41259852051734924,0.1311085969209671
188,5,128,11,0.5823261737823486,0.10091381520032883
188,5,128,12,0.5574299097061157,0.17555734515190125
188,5,128,13,0.6926497220993042,0.19583308696746826
188,5,128,14,0.3386968672275543,0.12645545601844788
188,5,128,15,0.695243239402771,0.18499793112277985
188,5,128,16,0.45361194014549255,0.039493195712566376
188,5,128,17,0.5806893706321716,0.14802531898021698
188,5,128,18,0.4679589569568634,0.06415965408086777
188,5,128,19,0.37765970826148987,0.216119185090065
188,5,128,20,0.6469582915306091,0.16374720633029938
188,5,128,21,0.7551767826080322,0.1149626299738884
188,5,128,22,0.41510075330734253,0.05919316038489342
188,5,128,23,0.6783790588378906,0.20410776138305664
188,5,128,24,0.6340779066085815,0.06369178742170334
188,5,128,25,0.5009188055992126,0.06245972961187363
188,5,128,26,0.4599441587924957,0.0795009657740593
188,5,128,27,0.5357166528701782,0.12105065584182739
188,5,128,28,0.6063093543052673,0.10280735790729523
188,5,128,29,0.6229376196861267,0.07072486728429794
188,5,128,30,0.7391085624694824,0.1756761074066162
188,5,128,31,0.6236771941184998,0.09104784578084946
188,5,128,32,0.6524973511695862,0.1107167899608612
188,5,128,33,0.7351312041282654,0.19866600632667542
188,5,128,34,0.3411256670951843,0.1439174860715866
188,5,128,35,0.5765810608863831,0.1075996682047844
188,5,128,36,0.7518022060394287,0.1611822247505188
188,5,128,37,0.6800997853279114,0.2245163768529892
188,5,128,38,0.6353850960731506,0.08986572921276093
188,5,128,39,0.4202103316783905,0.13828173279762268
188,5,128,40,0.6983875036239624,0.1665772646665573
188,5,128,41,0.6740584969520569,0.16417819261550903
188,5,128,42,0.6223261952400208,0.0747515857219696
188,5,128,43,0.6351562738418579,0.12913085520267487
188,5,128,44,0.48586371541023254,0.07489746809005737
188,5,128,45,0.7938862442970276,0.1431150883436203
188,5,128,46,0.6737063527107239,0.13322953879833221
188,5,128,47,0.5304363369941711,0.06371011584997177
188,5,128,48,0.5977673530578613,0.11702150851488113
188,5,128,49,0.4256908595561981,0.08310201019048691
188,5,128,50,0.552497386932373,0.11620288342237473
188,5,128,51,0.6462785601615906,0.10821124911308289
188,5,128,52,0.7016078233718872,0.18693587183952332
188,5,128,53,0.6840269565582275,0.1341022402048111
188,5,128,54,0.48848745226860046,0.08853740245103836
188,5,128,55,0.4802153408527374,0.08649181574583054
188,5,128,56,0.6430128216743469,0.11705193668603897
188,5,128,57,0.6647220849990845,0.1152196004986763
188,5,128,58,0.44757699966430664,0.13830460608005524
188,5,128,59,0.668110191822052,0.2175920158624649
188,5,128,60,0.6562260389328003,0.14750730991363525
188,5,128,61,0.6922593116760254,0.10391171276569366
188,5,128,62,0.4937063455581665,0.11929342895746231
188,5,128,63,0.5123876929283142,0.03848928213119507
188,5,128,64,0.6934713125228882,0.17960141599178314
188,5,128,65,0.5924344658851624,0.10909401625394821
188,5,128,66,0.5843530893325806,0.07359304279088974
188,5,128,67,0.6676945090293884,0.1182653084397316
188,5,128,68,0.5323281288146973,0.12492486834526062
188,5,128,69,0.4731006622314453,0.047816649079322815
188,5,128,70,0.6190805435180664,0.16597016155719757
188,5,128,71,0.6775180101394653,0.15034717321395874
188,5,128,72,0.559710681438446,0.07174130529165268
188,5,128,73,0.6280002593994141,0.12780672311782837
188,5,128,74,0.3680337965488434,0.14229893684387207
188,5,128,75,0.516653299331665,0.0906357616186142
188,5,128,76,0.5883739590644836,0.0908636525273323
188,5,128,77,0.5471372008323669,0.07999254763126373
188,5,128,78,0.6337695121765137,0.20025604963302612
188,5,128,79,0.5836721062660217,0.21274961531162262
188,5,128,80,0.46788427233695984,0.09094475954771042
188,5,128,81,0.5899806022644043,0.08170109987258911
188,5,128,82,0.4515754282474518,0.07677750289440155
188,5,128,83,0.5278264284133911,0.10106367617845535
188,5,128,84,0.7786160111427307,0.1512426733970642
188,5,128,85,0.6268543004989624,0.20862165093421936
188,5,128,86,0.4796469807624817,0.08940649032592773
188,5,128,87,0.4103017747402191,0.15688398480415344
188,5,128,88,0.5891312956809998,0.08033955097198486
188,5,128,89,0.7513745427131653,0.1206405982375145
188,5,128,90,0.5027979612350464,0.04559776559472084
188,5,128,91,0.5616801977157593,0.0969916507601738
188,5,128,92,0.6637073755264282,0.07431479543447495
188,5,128,93,0.49229153990745544,0.12139365077018738
188,5,128,94,0.4959646761417389,0.0517716221511364
188,5,128,95,0.7382248044013977,0.15888291597366333
188,5,128,96,0.7217521071434021,0.1336810141801834
188,5,128,97,0.7414081692695618,0.1508818417787552
188,5,128,98,0.677850067615509,0.1643528938293457
188,5,128,99,0.7415913939476013,0.15614742040634155
188,5,128,100,0.45528820157051086,0.08434472233057022
188,5,128,101,0.708847165107727,0.1813107132911682
188,5,128,102,0.6524680852890015,0.11768994480371475
188,5,128,103,0.5615173578262329,0.06531833857297897
188,5,128,104,0.5781794786453247,0.15046057105064392
188,5,128,105,0.4250542223453522,0.09798295050859451
188,5,128,106,0.7307775020599365,0.17584162950515747
188,5,128,107,0.6383448243141174,0.09886536747217178
188,5,128,108,0.5300055146217346,0.18214234709739685
188,5,128,109,0.5215597748756409,0.06857188045978546
188,5,128,110,0.6255025863647461,0.06578654795885086
188,5,128,111,0.7171758413314819,0.19585566222667694
188,5,128,112,0.6656209826469421,0.19916410744190216
188,5,128,113,0.7055681943893433,0.15319819748401642
188,5,128,114,0.7312002778053284,0.13582231104373932
188,5,128,115,0.7168912887573242,0.20855489373207092
188,5,128,116,0.6705906391143799,0.09954805672168732
188,5,128,117,0.3791297972202301,0.11900338530540466
188,5,128,118,0.4975936710834503,0.062431298196315765
188,5,128,119,0.5019412636756897,0.06942614167928696
188,5,128,120,0.5476890206336975,0.11966370046138763
188,5,128,121,0.4839085340499878,0.09418097138404846
188,5,128,122,0.7490570545196533,0.13278713822364807
188,5,128,123,0.44379299879074097,0.06510171294212341
188,5,128,124,0.6417275071144104,0.20056377351284027
188,5,128,125,0.5769946575164795,0.17341680824756622
188,5,128,126,0.6811097264289856,0.14333629608154297
188,5,128,127,0.44291195273399353,0.11061133444309235
189,0,32,0,0.46155792474746704,0.08362992852926254
189,0,32,1,0.31002330780029297,0.06381091475486755
189,0,32,2,0.4986075460910797,0.13740503787994385
189,0,32,3,0.3579280972480774,0.07206134498119354
189,0,32,4,0.38369086384773254,0.0926976352930069
189,0,32,5,0.5363560318946838,0.03598785400390625
189,0,32,6,0.45740246772766113,0.05960842967033386
189,0,32,7,0.5167027115821838,0.11562028527259827
189,0,32,8,0.6378241777420044,0.12021499127149582
189,0,32,9,0.3522118031978607,0.06362665444612503
189,0,32,10,0.5549153089523315,0.02020884118974209
189,0,32,11,0.40126869082450867,0.07834585011005402
189,0,32,12,0.33169007301330566,0.10176607966423035
189,0,32,13,0.48279741406440735,0.054072946310043335
189,0,32,14,0.5752986073493958,0.056862641125917435
189,0,32,15,0.4409859776496887,0.02865467220544815
189,0,32,16,0.39027008414268494,0.05204463750123978
189,0,32,17,0.578524649143219,0.020216984674334526
189,0,32,18,0.5041621327400208,0.0384947806596756
189,0,32,19,0.34234419465065,0.06478251516819
189,0,32,20,0.4946350157260895,0.07968001812696457
189,0,32,21,0.49575093388557434,0.0559164360165596
189,0,32,22,0.7137857675552368,0.10243100672960281
189,0,32,23,0.5243478417396545,0.09392445534467697
189,0,32,24,0.5639050006866455,0.02454877272248268
189,0,32,25,0.576287031173706,0.11527404189109802
189,0,32,26,0.36807987093925476,0.07205235958099365
189,0,32,27,0.5582130551338196,0.04956256225705147
189,0,32,28,0.5899820327758789,0.13940683007240295
189,0,32,29,0.558976411819458,0.045817483216524124
189,0,32,30,0.5942713022232056,0.09826654195785522
189,0,32,31,0.39125970005989075,0.04924239218235016
189,1,32,0,0.5604656338691711,0.2312004268169403
189,1,32,1,0.4276426434516907,0.07175473123788834
189,1,32,2,0.500730574131012,0.0882498025894165
189,1,32,3,0.4189910292625427,0.09082755446434021
189,1,32,4,0.4843173623085022,0.0763578712940216
189,1,32,5,0.5015096068382263,0.041789617389440536
189,1,32,6,0.4581802785396576,0.059835776686668396
189,1,32,7,0.5114740133285522,0.09313088655471802
189,1,32,8,0.501553475856781,0.07349064201116562
189,1,32,9,0.5046764612197876,0.07042767107486725
189,1,32,10,0.43238312005996704,0.07240111380815506
189,1,32,11,0.44372236728668213,0.10703601688146591
189,1,32,12,0.3526156544685364,0.12301944941282272
189,1,32,13,0.5995578765869141,0.038668192923069
189,1,32,14,0.6099136471748352,0.0249776728451252
189,1,32,15,0.35740533471107483,0.07612963765859604
189,1,32,16,0.4614045321941376,0.14644202589988708
189,1,32,17,0.3898351788520813,0.08034630864858627
189,1,32,18,0.47261813282966614,0.13669070601463318
189,1,32,19,0.40126168727874756,0.16116440296173096
189,1,32,20,0.4139115512371063,0.11800967901945114
189,1,32,21,0.4830106198787689,0.1253565549850464
189,1,32,22,0.46509021520614624,0.13808324933052063
189,1,32,23,0.46934154629707336,0.08656740933656693
189,1,32,24,0.6375358700752258,0.037682343274354935
189,1,32,25,0.4962334930896759,0.11904759705066681
189,1,32,26,0.46536707878112793,0.14024949073791504
189,1,32,27,0.4470025300979614,0.09877816587686539
189,1,32,28,0.4668550491333008,0.1165638118982315
189,1,32,29,0.5010049939155579,0.10601337999105453
189,1,32,30,0.3868286609649658,0.0684283971786499
189,1,32,31,0.5612624883651733,0.08443466573953629
189,2,64,0,0.5115143060684204,0.09822164475917816
189,2,64,1,0.4320951998233795,0.08788380026817322
189,2,64,2,0.47079238295555115,0.14778698980808258
189,2,64,3,0.3341432809829712,0.09535606950521469
189,2,64,4,0.5199020504951477,0.06617537885904312
189,2,64,5,0.36843374371528625,0.11058471351861954
189,2,64,6,0.5322262048721313,0.11972087621688843
189,2,64,7,0.42598921060562134,0.08619231730699539
189,2,64,8,0.5679990649223328,0.11981064826250076
189,2,64,9,0.38043081760406494,0.13867679238319397
189,2,64,10,0.38842469453811646,0.12103772163391113
189,2,64,11,0.45413854718208313,0.10575161874294281
189,2,64,12,0.4680855870246887,0.08098945766687393
189,2,64,13,0.5349860191345215,0.07106973975896835
189,2,64,14,0.5351668000221252,0.06089123710989952
189,2,64,15,0.5423057675361633,0.06647345423698425
189,2,64,16,0.5318536758422852,0.12675195932388306
189,2,64,17,0.4642719328403473,0.11774252355098724
189,2,64,18,0.4369058907032013,0.06734694540500641
189,2,64,19,0.4982229173183441,0.09402535110712051
189,2,64,20,0.6341161131858826,0.12586361169815063
189,2,64,21,0.6065625548362732,0.0507468581199646
189,2,64,22,0.5122671127319336,0.19496506452560425
189,2,64,23,0.5753400921821594,0.03302844613790512
189,2,64,24,0.5124108791351318,0.11771432310342789
189,2,64,25,0.4263775944709778,0.11662787944078445
189,2,64,26,0.605858564376831,0.14439845085144043
189,2,64,27,0.4782221019268036,0.09241534769535065
189,2,64,28,0.5987216830253601,0.21358276903629303
189,2,64,29,0.4551112949848175,0.09810979664325714
189,2,64,30,0.5746017694473267,0.08838291466236115
189,2,64,31,0.665988028049469,0.0768887847661972
189,2,64,32,0.4636196196079254,0.08150049299001694
189,2,64,33,0.47474977374076843,0.12452512234449387
189,2,64,34,0.6177491545677185,0.07726707309484482
189,2,64,35,0.5387169122695923,0.13748496770858765
189,2,64,36,0.48810654878616333,0.18730348348617554
189,2,64,37,0.604120671749115,0.21273784339427948
189,2,64,38,0.3228335380554199,0.09477471560239792
189,2,64,39,0.5107788443565369,0.14428426325321198
189,2,64,40,0.5119630098342896,0.08140987157821655
189,2,64,41,0.5999231934547424,0.08908748626708984
189,2,64,42,0.5367902517318726,0.09839923679828644
189,2,64,43,0.5650858283042908,0.049771420657634735
189,2,64,44,0.479380339384079,0.13923148810863495
189,2,64,45,0.4797232151031494,0.11645127087831497
189,2,64,46,0.5200028419494629,0.096820168197155
189,2,64,47,0.5473892092704773,0.05443074181675911
189,2,64,48,0.5055820941925049,0.1425808221101761
189,2,64,49,0.5155223608016968,0.06803587824106216
189,2,64,50,0.4651371240615845,0.07400821149349213
189,2,64,51,0.4431783854961395,0.12310866266489029
189,2,64,52,0.633538544178009,0.08085113018751144
189,2,64,53,0.48641395568847656,0.11696571856737137
189,2,64,54,0.5584444999694824,0.07385765016078949
189,2,64,55,0.5168967247009277,0.1216026321053505
189,2,64,56,0.5452907681465149,0.12648865580558777
189,2,64,57,0.3584819734096527,0.09360472857952118
189,2,64,58,0.3305377662181854,0.12331780791282654
189,2,64,59,0.5425484776496887,0.18542946875095367
189,2,64,60,0.6889792084693909,0.08751659095287323
189,2,64,61,0.40698593854904175,0.1305227130651474
189,2,64,62,0.4548889398574829,0.10723758488893509
189,2,64,63,0.4850851893424988,0.08314521610736847
189,3,64,0,0.3075844347476959,0.11848670244216919
189,3,64,1,0.6052912473678589,0.097181536257267
189,3,64,2,0.4859429895877838,0.2610115706920624
189,3,64,3,0.7315139770507812,0.09630509465932846
189,3,64,4,0.5945847630500793,0.17242686450481415
189,3,64,5,0.4831371605396271,0.11953544616699219
189,3,64,6,0.46119415760040283,0.22527118027210236
189,3,64,7,0.3624376058578491,0.14462938904762268
189,3,64,8,0.555756688117981,0.1928190290927887
189,3,64,9,0.6216493248939514,0.11288231611251831
189,3,64,10,0.41375818848609924,0.24014884233474731
189,3,64,11,0.42768344283103943,0.23893143236637115
189,3,64,12,0.4830454885959625,0.12838469445705414
189,3,64,13,0.5060033798217773,0.31430909037590027
189,3,64,14,0.4782792925834656,0.18793442845344543
189,3,64,15,0.5272339582443237,0.19625519216060638
189,3,64,16,0.4824206233024597,0.1850353479385376
189,3,64,17,0.5555282235145569,0.12020717561244965
189,3,64,18,0.41093531250953674,0.18452809751033783
189,3,64,19,0.3394377827644348,0.12388130277395248
189,3,64,20,0.4447576105594635,0.2321833223104477
189,3,64,21,0.35175472497940063,0.10132238268852234
189,3,64,22,0.3795388340950012,0.2853390574455261
189,3,64,23,0.44671890139579773,0.16813963651657104
189,3,64,24,0.2841392457485199,0.14326514303684235
189,3,64,25,0.5668795704841614,0.2713846266269684
189,3,64,26,0.6077502965927124,0.24863244593143463
189,3,64,27,0.5557259917259216,0.13230177760124207
189,3,64,28,0.45065033435821533,0.22531455755233765
189,3,64,29,0.4974847733974457,0.2276797592639923
189,3,64,30,0.5201760530471802,0.23175060749053955
189,3,64,31,0.5421515107154846,0.20478340983390808
189,3,64,32,0.3940334618091583,0.24542146921157837
189,3,64,33,0.6162160038948059,0.14775143563747406
189,3,64,34,0.508807897567749,0.13153591752052307
189,3,64,35,0.419615775346756,0.2474278211593628
189,3,64,36,0.512816846370697,0.2248111367225647
189,3,64,37,0.37418466806411743,0.18795454502105713
189,3,64,38,0.6828819513320923,0.13079242408275604
189,3,64,39,0.3457101285457611,0.16430647671222687
189,3,64,40,0.5751109719276428,0.15555410087108612
189,3,64,41,0.546306848526001,0.1386425644159317
189,3,64,42,0.4548617899417877,0.09607646614313126
189,3,64,43,0.48729223012924194,0.19906699657440186
189,3,64,44,0.5908385515213013,0.15941455960273743
189,3,64,45,0.6193382740020752,0.15701499581336975
189,3,64,46,0.3761488199234009,0.1174459159374237
189,3,64,47,0.3946149945259094,0.10610393434762955
189,3,64,48,0.37708038091659546,0.11932695657014847
189,3,64,49,0.5778996348381042,0.13634954392910004
189,3,64,50,0.528624415397644,0.1866549551486969
189,3,64,51,0.6569731831550598,0.16447825729846954
189,3,64,52,0.5675299167633057,0.24001815915107727
189,3,64,53,0.490845263004303,0.17036686837673187
189,3,64,54,0.4754076302051544,0.18642626702785492
189,3,64,55,0.4643081724643707,0.22853004932403564
189,3,64,56,0.5251011252403259,0.07785464823246002
189,3,64,57,0.5497550964355469,0.19325149059295654
189,3,64,58,0.5157938599586487,0.0754096508026123
189,3,64,59,0.5484481453895569,0.13703303039073944
189,3,64,60,0.4086954891681671,0.18197347223758698
189,3,64,61,0.6127595901489258,0.051359280943870544
189,3,64,62,0.5027613043785095,0.15874436497688293
189,3,64,63,0.5590016841888428,0.11979798972606659
189,4,128,0,0.3580342233181,0.0732937902212143
189,4,128,1,0.700545608997345,0.1943766325712204
189,4,128,2,0.4533124566078186,0.1800522804260254
189,4,128,3,0.5386326909065247,0.125886008143425
189,4,128,4,0.5758401155471802,0.10282053053379059
189,4,128,5,0.2973824441432953,0.14420980215072632
189,4,128,6,0.4598117172718048,0.14354752004146576
189,4,128,7,0.572202205657959,0.11849577724933624
189,4,128,8,0.4482494294643402,0.07438139617443085
189,4,128,9,0.5881299376487732,0.1306248903274536
189,4,128,10,0.46234679222106934,0.12203995883464813
189,4,128,11,0.6227573752403259,0.12799936532974243
189,4,128,12,0.6739696264266968,0.21836750209331512
189,4,128,13,0.3621046543121338,0.2637838125228882
189,4,128,14,0.629808247089386,0.1485598236322403
189,4,128,15,0.6379197239875793,0.23775695264339447
189,4,128,16,0.4414813220500946,0.09557092189788818
189,4,128,17,0.6100530028343201,0.12195634841918945
189,4,128,18,0.45352059602737427,0.1127803698182106
189,4,128,19,0.6964387893676758,0.2092035859823227
189,4,128,20,0.5990145206451416,0.06965333223342896
189,4,128,21,0.4219365119934082,0.12737740576267242
189,4,128,22,0.6403246521949768,0.1765001267194748
189,4,128,23,0.6642016172409058,0.16691772639751434
189,4,128,24,0.5687437653541565,0.23978066444396973
189,4,128,25,0.5117049217224121,0.1931648701429367
189,4,128,26,0.45954424142837524,0.0909687876701355
189,4,128,27,0.4184395670890808,0.14233940839767456
189,4,128,28,0.5399059653282166,0.19222372770309448
189,4,128,29,0.6960259675979614,0.1843237429857254
189,4,128,30,0.5756503939628601,0.06611263006925583
189,4,128,31,0.5397816896438599,0.059798289090394974
189,4,128,32,0.4641776978969574,0.13558295369148254
189,4,128,33,0.730139434337616,0.1826375424861908
189,4,128,34,0.6826153993606567,0.14447830617427826
189,4,128,35,0.4772111177444458,0.16817764937877655
189,4,128,36,0.4409150779247284,0.21123020350933075
189,4,128,37,0.4454117715358734,0.16557377576828003
189,4,128,38,0.4359242618083954,0.12063547968864441
189,4,128,39,0.5159540176391602,0.12921053171157837
189,4,128,40,0.504447877407074,0.23468972742557526
189,4,128,41,0.43004170060157776,0.0815245658159256
189,4,128,42,0.7328919172286987,0.10328768193721771
189,4,128,43,0.5716401934623718,0.2770889103412628
189,4,128,44,0.41332313418388367,0.11496863514184952
189,4,128,45,0.7541084885597229,0.122259221971035
189,4,128,46,0.605148434638977,0.08016280829906464
189,4,128,47,0.5561109185218811,0.174790620803833
189,4,128,48,0.4198949337005615,0.24329540133476257
189,4,128,49,0.44615209102630615,0.20293910801410675
189,4,128,50,0.5537382364273071,0.13234871625900269
189,4,128,51,0.4490147829055786,0.11466719210147858
189,4,128,52,0.5558123588562012,0.09632937610149384
189,4,128,53,0.3632794916629791,0.14786578714847565
189,4,128,54,0.442343145608902,0.13042707741260529
189,4,128,55,0.6576927900314331,0.2582642436027527
189,4,128,56,0.40596649050712585,0.10072455555200577
189,4,128,57,0.5178934335708618,0.14702750742435455
189,4,128,58,0.4194573163986206,0.14539705216884613
189,4,128,59,0.7445943355560303,0.1028679832816124
189,4,128,60,0.49810346961021423,0.2022394835948944
189,4,128,61,0.42011553049087524,0.08126967400312424
189,4,128,62,0.5648679137229919,0.14914608001708984
189,4,128,63,0.39980852603912354,0.24147260189056396
189,4,128,64,0.6468780636787415,0.09405022114515305
189,4,128,65,0.6186460852622986,0.07833752036094666
189,4,128,66,0.32502657175064087,0.13273955881595612
189,4,128,67,0.2701915204524994,0.11723268777132034
189,4,128,68,0.6051068305969238,0.15894944965839386
189,4,128,69,0.7313019037246704,0.1523308902978897
189,4,128,70,0.5666942000389099,0.2050361931324005
189,4,128,71,0.6555830240249634,0.23243361711502075
189,4,128,72,0.6183961033821106,0.19469426572322845
189,4,128,73,0.6041610240936279,0.17922812700271606
189,4,128,74,0.715329110622406,0.1152670606970787
189,4,128,75,0.7429111003875732,0.08882228285074234
189,4,128,76,0.4345720410346985,0.09190887212753296
189,4,128,77,0.44738492369651794,0.07612548023462296
189,4,128,78,0.6332245469093323,0.1423816680908203
189,4,128,79,0.5805916786193848,0.2349439114332199
189,4,128,80,0.5138706564903259,0.18975771963596344
189,4,128,81,0.6984938979148865,0.26439037919044495
189,4,128,82,0.6095536351203918,0.12354954332113266
189,4,128,83,0.35362282395362854,0.10920216888189316
189,4,128,84,0.5041632056236267,0.11617035418748856
189,4,128,85,0.6628395915031433,0.23918674886226654
189,4,128,86,0.5688262581825256,0.1416136622428894
189,4,128,87,0.6871702671051025,0.09191633015871048
189,4,128,88,0.5442492961883545,0.09311976283788681
189,4,128,89,0.40019431710243225,0.11806979775428772
189,4,128,90,0.5628312230110168,0.1778547167778015
189,4,128,91,0.5537248253822327,0.19820305705070496
189,4,128,92,0.6890150904655457,0.19587621092796326
189,4,128,93,0.324621319770813,0.10596585273742676
189,4,128,94,0.49735793471336365,0.15586797893047333
189,4,128,95,0.7134027481079102,0.12546616792678833
189,4,128,96,0.6244993805885315,0.12423569709062576
189,4,128,97,0.5196380019187927,0.15016528964042664
189,4,128,98,0.39593568444252014,0.1801345944404602
189,4,128,99,0.6457586288452148,0.21622401475906372
189,4,128,100,0.6863596439361572,0.13512757420539856
189,4,128,101,0.3552792966365814,0.12406744807958603
189,4,128,102,0.37626680731773376,0.2176252156496048
189,4,128,103,0.5627343058586121,0.0682160034775734
189,4,128,104,0.6552108526229858,0.19012843072414398
189,4,128,105,0.7002763152122498,0.1874190866947174
189,4,128,106,0.6022051572799683,0.08830423653125763
189,4,128,107,0.5052254796028137,0.19789506494998932
189,4,128,108,0.6059701442718506,0.058267734944820404
189,4,128,109,0.6512772440910339,0.1204667016863823
189,4,128,110,0.5442196130752563,0.15429939329624176
189,4,128,111,0.453859806060791,0.1452023983001709
189,4,128,112,0.4575216770172119,0.08460475504398346
189,4,128,113,0.5277149677276611,0.08106929808855057
189,4,128,114,0.37294551730155945,0.24282531440258026
189,4,128,115,0.3473113477230072,0.18568596243858337
189,4,128,116,0.5504888296127319,0.10786216706037521
189,4,128,117,0.37657880783081055,0.18469353020191193
189,4,128,118,0.4164595901966095,0.23341798782348633
189,4,128,119,0.49692025780677795,0.10172898322343826
189,4,128,120,0.37177354097366333,0.20856614410877228
189,4,128,121,0.6559075713157654,0.11721446365118027
189,4,128,122,0.3595200181007385,0.1192210242152214
189,4,128,123,0.5384730696678162,0.129714697599411
189,4,128,124,0.4996436536312103,0.15673212707042694
189,4,128,125,0.5260551571846008,0.14523130655288696
189,4,128,126,0.5253028869628906,0.04544150456786156
189,4,128,127,0.5562676191329956,0.18613319098949432
189,5,128,0,0.5501899719238281,0.04691044241189957
189,5,128,1,0.5444002151489258,0.23653680086135864
189,5,128,2,0.5387017726898193,0.26743122935295105
189,5,128,3,0.6178528070449829,0.08355560153722763
189,5,128,4,0.6874595880508423,0.14411289989948273
189,5,128,5,0.534328043460846,0.11775466054677963
189,5,128,6,0.6572075486183167,0.10547181963920593
189,5,128,7,0.518423318862915,0.07057134807109833
189,5,128,8,0.41077500581741333,0.1613600254058838
189,5,128,9,0.7192535996437073,0.1351112723350525
189,5,128,10,0.41072553396224976,0.14975331723690033
189,5,128,11,0.5090901851654053,0.26134225726127625
189,5,128,12,0.6678759455680847,0.1532687246799469
189,5,128,13,0.7062735557556152,0.14917685091495514
189,5,128,14,0.6052229404449463,0.11747892946004868
189,5,128,15,0.7342426776885986,0.14307816326618195
189,5,128,16,0.5432383418083191,0.21075120568275452
189,5,128,17,0.488275945186615,0.06467418372631073
189,5,128,18,0.48814770579338074,0.25178101658821106
189,5,128,19,0.5527020692825317,0.2885049879550934
189,5,128,20,0.426795095205307,0.21110683679580688
189,5,128,21,0.7482128143310547,0.10871361941099167
189,5,128,22,0.5553377270698547,0.20518770813941956
189,5,128,23,0.4925466477870941,0.2789035439491272
189,5,128,24,0.5407006740570068,0.12752759456634521
189,5,128,25,0.6452457308769226,0.1521138846874237
189,5,128,26,0.5616848468780518,0.24554136395454407
189,5,128,27,0.6017690896987915,0.12121189385652542
189,5,128,28,0.648588240146637,0.11654093861579895
189,5,128,29,0.5806808471679688,0.26661139726638794
189,5,128,30,0.42071759700775146,0.09518074244260788
189,5,128,31,0.6388964653015137,0.1574956476688385
189,5,128,32,0.6093332767486572,0.13342922925949097
189,5,128,33,0.727505624294281,0.1554710865020752
189,5,128,34,0.6865217685699463,0.18298032879829407
189,5,128,35,0.7565096020698547,0.10866132378578186
189,5,128,36,0.6120567917823792,0.0911538153886795
189,5,128,37,0.5742694139480591,0.1809566169977188
189,5,128,38,0.5312080979347229,0.11770961433649063
189,5,128,39,0.6276818513870239,0.10990459471940994
189,5,128,40,0.5749320387840271,0.14954927563667297
189,5,128,41,0.5596996545791626,0.14726576209068298
189,5,128,42,0.6771968603134155,0.1732940822839737
189,5,128,43,0.6405227184295654,0.11011525243520737
189,5,128,44,0.6512755751609802,0.1380513459444046
189,5,128,45,0.6282933950424194,0.14865374565124512
189,5,128,46,0.6928362250328064,0.12468880414962769
189,5,128,47,0.6619144082069397,0.12130936235189438
189,5,128,48,0.6665772199630737,0.1116548553109169
189,5,128,49,0.6975895762443542,0.15482422709465027
189,5,128,50,0.5929376482963562,0.10571441054344177
189,5,128,51,0.5755351185798645,0.2982975244522095
189,5,128,52,0.693487823009491,0.11461759358644485
189,5,128,53,0.527809202671051,0.2737240493297577
189,5,128,54,0.45868393778800964,0.1827247142791748
189,5,128,55,0.5970059633255005,0.22907884418964386
189,5,128,56,0.738054096698761,0.13918359577655792
189,5,128,57,0.46984782814979553,0.11938972026109695
189,5,128,58,0.6075509786605835,0.14197883009910583
189,5,128,59,0.6077247858047485,0.12499068677425385
189,5,128,60,0.594874918460846,0.04361758008599281
189,5,128,61,0.3728164732456207,0.13254553079605103
189,5,128,62,0.4161955416202545,0.19845017790794373
189,5,128,63,0.4486197531223297,0.17318156361579895
189,5,128,64,0.585167407989502,0.10930810123682022
189,5,128,65,0.7082700729370117,0.1415744125843048
189,5,128,66,0.6388033032417297,0.15515901148319244
189,5,128,67,0.48840802907943726,0.076055146753788
189,5,128,68,0.5586438179016113,0.237558513879776
189,5,128,69,0.6798072457313538,0.12421131134033203
189,5,128,70,0.4856060743331909,0.25429871678352356
189,5,128,71,0.6715837717056274,0.13014672696590424
189,5,128,72,0.561872661113739,0.13993602991104126
189,5,128,73,0.579329252243042,0.2501963973045349
189,5,128,74,0.6866931319236755,0.08804582804441452
189,5,128,75,0.5227291584014893,0.3176672160625458
189,5,128,76,0.5459184050559998,0.08711123466491699
189,5,128,77,0.6160150170326233,0.15011513233184814
189,5,128,78,0.5779351592063904,0.1660027951002121
189,5,128,79,0.6147319078445435,0.06814168393611908
189,5,128,80,0.6589374542236328,0.13718773424625397
189,5,128,81,0.7675088047981262,0.11729524284601212
189,5,128,82,0.5739912390708923,0.049418166279792786
189,5,128,83,0.4958118796348572,0.12207887321710587
189,5,128,84,0.6096638441085815,0.1676647812128067
189,5,128,85,0.5180796384811401,0.1886913776397705
189,5,128,86,0.5087408423423767,0.17474274337291718
189,5,128,87,0.6926525235176086,0.12899260222911835
189,5,128,88,0.5440874099731445,0.18482862412929535
189,5,128,89,0.42242687940597534,0.17498847842216492
189,5,128,90,0.5670580267906189,0.2556554079055786
189,5,128,91,0.5633018016815186,0.20572076737880707
189,5,128,92,0.5523207783699036,0.2835417091846466
189,5,128,93,0.5241103768348694,0.2950020432472229
189,5,128,94,0.5931001901626587,0.0985262393951416
189,5,128,95,0.41376736760139465,0.11738909035921097
189,5,128,96,0.5220323801040649,0.2765083611011505
189,5,128,97,0.5041478872299194,0.262492299079895
189,5,128,98,0.6998001337051392,0.10887949913740158
189,5,128,99,0.5781892538070679,0.22262690961360931
189,5,128,100,0.6420151591300964,0.12626540660858154
189,5,128,101,0.7240445613861084,0.12730270624160767
189,5,128,102,0.6817135810852051,0.12415924668312073
189,5,128,103,0.6228508353233337,0.1680394560098648
189,5,128,104,0.5310758948326111,0.2255270630121231
189,5,128,105,0.6777275204658508,0.16427727043628693
189,5,128,106,0.6635137796401978,0.1459875851869583
189,5,128,107,0.681692361831665,0.10939539223909378
189,5,128,108,0.6887289881706238,0.1354132741689682
189,5,128,109,0.614802896976471,0.17264628410339355
189,5,128,110,0.6506280303001404,0.1625206172466278
189,5,128,111,0.5141035318374634,0.1317635178565979
189,5,128,112,0.5451388955116272,0.14217481017112732
189,5,128,113,0.7025665640830994,0.09730987995862961
189,5,128,114,0.5208190679550171,0.04984615370631218
189,5,128,115,0.4039653539657593,0.12121521681547165
189,5,128,116,0.5404638648033142,0.2621830105781555
189,5,128,117,0.6703998446464539,0.07322320342063904
189,5,128,118,0.6851925849914551,0.14701268076896667
189,5,128,119,0.5529679656028748,0.2967391908168793
189,5,128,120,0.6624305844306946,0.10968654602766037
189,5,128,121,0.6666034460067749,0.0990404337644577
189,5,128,122,0.5015522837638855,0.2619384825229645
189,5,128,123,0.6481902599334717,0.10909353941679001
189,5,128,124,0.5715794563293457,0.21822917461395264
189,5,128,125,0.45788440108299255,0.24054354429244995
189,5,128,126,0.6543096303939819,0.17749126255512238
189,5,128,127,0.708153247833252,0.12305744737386703
190,0,32,0,0.48204344511032104,0.08598637580871582
190,0,32,1,0.45850521326065063,0.05117299407720566
190,0,32,2,0.3722240924835205,0.08049210160970688
190,0,32,3,0.39351674914360046,0.06793726235628128
190,0,32,4,0.4469495415687561,0.07303685694932938
190,0,32,5,0.5440174341201782,0.07155138999223709
190,0,32,6,0.3521502912044525,0.06126800924539566
190,0,32,7,0.41779521107673645,0.08259479701519012
190,0,32,8,0.39997953176498413,0.047638945281505585
190,0,32,9,0.4049893617630005,0.07776519656181335
190,0,32,10,0.4843984544277191,0.08572229743003845
190,0,32,11,0.49277642369270325,0.038811296224594116
190,0,32,12,0.6039424538612366,0.09608043730258942
190,0,32,13,0.5141769647598267,0.09607114642858505
190,0,32,14,0.5656681656837463,0.11985970288515091
190,0,32,15,0.4794481098651886,0.12738703191280365
190,0,32,16,0.5484986305236816,0.07430069893598557
190,0,32,17,0.5209006071090698,0.10117709636688232
190,0,32,18,0.4399169683456421,0.1416821926832199
190,0,32,19,0.5359616279602051,0.054996561259031296
190,0,32,20,0.4281271994113922,0.06359373778104782
190,0,32,21,0.4185841977596283,0.06116654723882675
190,0,32,22,0.5033069252967834,0.08928009867668152
190,0,32,23,0.46078765392303467,0.06350334733724594
190,0,32,24,0.5284165143966675,0.11441268771886826
190,0,32,25,0.43500444293022156,0.08939125388860703
190,0,32,26,0.5121597647666931,0.10550841689109802
190,0,32,27,0.5296164155006409,0.10871587693691254
190,0,32,28,0.405652791261673,0.11507412791252136
190,0,32,29,0.4016517400741577,0.10732894390821457
190,0,32,30,0.3548992872238159,0.08383765071630478
190,0,32,31,0.34341275691986084,0.0519302561879158
190,1,32,0,0.6819827556610107,0.1484774947166443
190,1,32,1,0.5152841806411743,0.10172917693853378
190,1,32,2,0.39541375637054443,0.13111555576324463
190,1,32,3,0.28617769479751587,0.11252275854349136
190,1,32,4,0.6666451692581177,0.10366768389940262
190,1,32,5,0.5007125735282898,0.08237142115831375
190,1,32,6,0.36074650287628174,0.12031123042106628
190,1,32,7,0.5754165053367615,0.12606434524059296
190,1,32,8,0.4752669930458069,0.09398992359638214
190,1,32,9,0.5107133984565735,0.13748344779014587
190,1,32,10,0.4100024700164795,0.17036192119121552
190,1,32,11,0.3966391682624817,0.1701040416955948
190,1,32,12,0.4015346169471741,0.1581842005252838
190,1,32,13,0.5618677139282227,0.11896210163831711
190,1,32,14,0.5586806535720825,0.15638813376426697
190,1,32,15,0.663954496383667,0.1411614716053009
190,1,32,16,0.5556350350379944,0.14789828658103943
190,1,32,17,0.3181707262992859,0.13235332071781158
190,1,32,18,0.35200968384742737,0.1018064096570015
190,1,32,19,0.6314808130264282,0.12434976547956467
190,1,32,20,0.4158831238746643,0.12234530597925186
190,1,32,21,0.38429176807403564,0.08757271617650986
190,1,32,22,0.4753299653530121,0.06243608891963959
190,1,32,23,0.42375269532203674,0.10366560518741608
190,1,32,24,0.4915774166584015,0.06199561804533005
190,1,32,25,0.39127132296562195,0.16880373656749725
190,1,32,26,0.35516825318336487,0.10574816912412643
190,1,32,27,0.44120585918426514,0.11150390654802322
190,1,32,28,0.45014747977256775,0.13377031683921814
190,1,32,29,0.5355615019798279,0.10446951538324356
190,1,32,30,0.34287741780281067,0.09399235993623734
190,1,32,31,0.49928563833236694,0.18485139310359955
190,2,64,0,0.4596458971500397,0.11447490006685257
190,2,64,1,0.6395803689956665,0.16072358191013336
190,2,64,2,0.43018993735313416,0.1508961319923401
190,2,64,3,0.6190187931060791,0.19495564699172974
190,2,64,4,0.48907706141471863,0.14561626315116882
190,2,64,5,0.46906808018684387,0.21431134641170502
190,2,64,6,0.4076610505580902,0.14048562943935394
190,2,64,7,0.5115022659301758,0.17196375131607056
190,2,64,8,0.5966988801956177,0.15521784126758575
190,2,64,9,0.45633769035339355,0.09066739678382874
190,2,64,10,0.5943718552589417,0.08502095192670822
190,2,64,11,0.4178733825683594,0.13635313510894775
190,2,64,12,0.6576623320579529,0.16852234303951263
190,2,64,13,0.47929465770721436,0.25516730546951294
190,2,64,14,0.5514315366744995,0.211735337972641
190,2,64,15,0.5440964698791504,0.23263081908226013
190,2,64,16,0.7041441202163696,0.16543371975421906
190,2,64,17,0.37738507986068726,0.18445661664009094
190,2,64,18,0.3833079934120178,0.21580684185028076
190,2,64,19,0.49637967348098755,0.14051903784275055
190,2,64,20,0.36009442806243896,0.180867999792099
190,2,64,21,0.5084120035171509,0.10092101246118546
190,2,64,22,0.5492028594017029,0.24407970905303955
190,2,64,23,0.5826492309570312,0.17019274830818176
190,2,64,24,0.4149060547351837,0.1656375676393509
190,2,64,25,0.5862337350845337,0.13742834329605103
190,2,64,26,0.5428293943405151,0.22181786596775055
190,2,64,27,0.5538516044616699,0.12533432245254517
190,2,64,28,0.4738728702068329,0.1863221675157547
190,2,64,29,0.49097248911857605,0.23881588876247406
