subject,block,block_width,feature_channel,gate_mean,gate_sd
1,0,32,0,0.44631993770599365,0.3080627918243408
1,0,32,1,0.5651187300682068,0.2649531662464142
1,0,32,2,0.2846255600452423,0.08974112570285797
1,0,32,3,0.4531857371330261,0.22865580022335052
1,0,32,4,0.539729118347168,0.07303957641124725
1,0,32,5,0.35239577293395996,0.14055442810058594
1,0,32,6,0.5212064385414124,0.13893796503543854
1,0,32,7,0.5177692174911499,0.2908817529678345
1,0,32,8,0.29129719734191895,0.12168478220701218
1,0,32,9,0.48731252551078796,0.22611548006534576
1,0,32,10,0.5974608659744263,0.05830695480108261
1,0,32,11,0.5224975347518921,0.21270306408405304
1,0,32,12,0.6648774743080139,0.16506269574165344
1,0,32,13,0.21160583198070526,0.0846550315618515
1,0,32,14,0.5179377198219299,0.06596675515174866
1,0,32,15,0.49553751945495605,0.17855413258075714
1,0,32,16,0.3059665262699127,0.10397517681121826
1,0,32,17,0.4057537615299225,0.18224601447582245
1,0,32,18,0.5387958288192749,0.21366485953330994
1,0,32,19,0.519243597984314,0.15799318253993988
1,0,32,20,0.5390907526016235,0.1470990628004074
1,0,32,21,0.4974425733089447,0.11458855122327805
1,0,32,22,0.39398878812789917,0.13396210968494415
1,0,32,23,0.47354429960250854,0.2424376904964447
1,0,32,24,0.6053059697151184,0.09849625825881958
1,0,32,25,0.37000784277915955,0.1522107571363449
1,0,32,26,0.48339131474494934,0.17107410728931427
1,0,32,27,0.43563008308410645,0.08669506013393402
1,0,32,28,0.2952890396118164,0.11314335465431213
1,0,32,29,0.5072184801101685,0.08959446102380753
1,0,32,30,0.5984737277030945,0.13396324217319489
1,0,32,31,0.5653173327445984,0.06004326790571213
1,1,32,0,0.6380118131637573,0.07514606416225433
1,1,32,1,0.4254692494869232,0.1454300433397293
1,1,32,2,0.5327874422073364,0.18369160592556
1,1,32,3,0.48032593727111816,0.05396018922328949
1,1,32,4,0.5064352750778198,0.1435340791940689
1,1,32,5,0.48825961351394653,0.10445868968963623
1,1,32,6,0.5637869834899902,0.10269622504711151
1,1,32,7,0.5630196332931519,0.1359180510044098
1,1,32,8,0.43145203590393066,0.12387608736753464
1,1,32,9,0.4766767919063568,0.1055648997426033
1,1,32,10,0.43516430258750916,0.14400577545166016
1,1,32,11,0.46532079577445984,0.1581375151872635
1,1,32,12,0.3177160322666168,0.06176326796412468
1,1,32,13,0.6052521467208862,0.1551945060491562
1,1,32,14,0.3468683660030365,0.11955224722623825
1,1,32,15,0.5884824991226196,0.09407088905572891
1,1,32,16,0.39728933572769165,0.11491476744413376
1,1,32,17,0.5822705030441284,0.14998197555541992
1,1,32,18,0.4583269953727722,0.12142910063266754
1,1,32,19,0.2884465456008911,0.09399563074111938
1,1,32,20,0.5773705244064331,0.04915597289800644
1,1,32,21,0.6069549322128296,0.07259009033441544
1,1,32,22,0.38339051604270935,0.07587246596813202
1,1,32,23,0.5941620469093323,0.14222508668899536
1,1,32,24,0.4972674250602722,0.08173447847366333
1,1,32,25,0.5570067763328552,0.06309138983488083
1,1,32,26,0.5997939109802246,0.17875787615776062
1,1,32,27,0.44553259015083313,0.13872362673282623
1,1,32,28,0.4437439441680908,0.1540093719959259
1,1,32,29,0.4600875675678253,0.12962132692337036
1,1,32,30,0.6818515658378601,0.06255686283111572
1,1,32,31,0.6539209485054016,0.12181907147169113
1,2,64,0,0.5308433771133423,0.1900009661912918
1,2,64,1,0.5362181663513184,0.06679446250200272
1,2,64,2,0.4585421681404114,0.10928438603878021
1,2,64,3,0.4459857940673828,0.13570210337638855
1,2,64,4,0.49637553095817566,0.08927614241838455
1,2,64,5,0.5726979374885559,0.09233292192220688
1,2,64,6,0.2851752042770386,0.05989240109920502
1,2,64,7,0.5875840187072754,0.14457377791404724
1,2,64,8,0.598955512046814,0.09173741191625595
1,2,64,9,0.588167667388916,0.12424010038375854
1,2,64,10,0.539466917514801,0.1385047882795334
1,2,64,11,0.48792919516563416,0.08954278379678726
1,2,64,12,0.5595571994781494,0.13756148517131805
1,2,64,13,0.4878173768520355,0.15777401626110077
1,2,64,14,0.4240420162677765,0.08610690385103226
1,2,64,15,0.4835033118724823,0.1472758948802948
1,2,64,16,0.5286038517951965,0.14893490076065063
1,2,64,17,0.4954453706741333,0.14580076932907104
1,2,64,18,0.4794849455356598,0.11845477670431137
1,2,64,19,0.38707154989242554,0.07608399540185928
1,2,64,20,0.48539429903030396,0.17629948258399963
1,2,64,21,0.4886521100997925,0.10429678857326508
1,2,64,22,0.5453001260757446,0.1036657840013504
1,2,64,23,0.3894909918308258,0.07543222606182098
1,2,64,24,0.5621088147163391,0.07407717406749725
1,2,64,25,0.43884506821632385,0.06385526061058044
1,2,64,26,0.5533338189125061,0.1587335467338562
1,2,64,27,0.46389615535736084,0.16845710575580597
1,2,64,28,0.5192016959190369,0.14646558463573456
1,2,64,29,0.5267602801322937,0.22076790034770966
1,2,64,30,0.5405576229095459,0.15244965255260468
1,2,64,31,0.5070919990539551,0.11231659352779388
1,2,64,32,0.5552429556846619,0.07781802862882614
1,2,64,33,0.648475706577301,0.07782895863056183
1,2,64,34,0.5289807319641113,0.10653232783079147
1,2,64,35,0.3413020968437195,0.19790132343769073
1,2,64,36,0.4966668486595154,0.1304083913564682
1,2,64,37,0.5358096957206726,0.09582066535949707
1,2,64,38,0.3756597638130188,0.08984658122062683
1,2,64,39,0.6197322010993958,0.060276348143815994
1,2,64,40,0.46328628063201904,0.0789482370018959
1,2,64,41,0.6098649501800537,0.24306759238243103
1,2,64,42,0.6132778525352478,0.11041926592588425
1,2,64,43,0.36418044567108154,0.10188600420951843
1,2,64,44,0.5389217734336853,0.07401628792285919
1,2,64,45,0.6354849338531494,0.09270226955413818
1,2,64,46,0.4659317135810852,0.05306937173008919
1,2,64,47,0.4768381714820862,0.13616906106472015
1,2,64,48,0.49076467752456665,0.12920697033405304
1,2,64,49,0.474181592464447,0.12962155044078827
1,2,64,50,0.48905861377716064,0.09777463972568512
1,2,64,51,0.5140950679779053,0.09541653841733932
1,2,64,52,0.36875084042549133,0.06974884867668152
1,2,64,53,0.5626803636550903,0.07077609747648239
1,2,64,54,0.682662308216095,0.09964122623205185
1,2,64,55,0.36141666769981384,0.09741101413965225
1,2,64,56,0.4228390157222748,0.07408703863620758
1,2,64,57,0.3717862665653229,0.12731274962425232
1,2,64,58,0.43015486001968384,0.09774015098810196
1,2,64,59,0.6129051446914673,0.13536494970321655
1,2,64,60,0.5332676768302917,0.12828099727630615
1,2,64,61,0.46115294098854065,0.09652754664421082
1,2,64,62,0.5243778228759766,0.15436069667339325
1,2,64,63,0.4203391671180725,0.07783567160367966
1,3,64,0,0.5023142099380493,0.2034890353679657
1,3,64,1,0.6240901350975037,0.12616029381752014
1,3,64,2,0.642774760723114,0.10109657794237137
1,3,64,3,0.470281720161438,0.20462942123413086
1,3,64,4,0.5984781980514526,0.09301149845123291
1,3,64,5,0.4233440160751343,0.1873316913843155
1,3,64,6,0.5918447971343994,0.13663779199123383
1,3,64,7,0.6063204407691956,0.19256238639354706
1,3,64,8,0.3916569948196411,0.07322368770837784
1,3,64,9,0.6344673037528992,0.10666531324386597
1,3,64,10,0.5592706203460693,0.22948473691940308
1,3,64,11,0.4419388473033905,0.11295556277036667
1,3,64,12,0.42315831780433655,0.1529330462217331
1,3,64,13,0.6428580284118652,0.07989776879549026
1,3,64,14,0.5480951070785522,0.09450706094503403
1,3,64,15,0.5186864733695984,0.11800114065408707
1,3,64,16,0.5540941953659058,0.1101423054933548
1,3,64,17,0.6129572987556458,0.13766059279441833
1,3,64,18,0.5817714333534241,0.09039530158042908
1,3,64,19,0.37800124287605286,0.17958445847034454
1,3,64,20,0.5839173197746277,0.18919040262699127
1,3,64,21,0.5711639523506165,0.0983184203505516
1,3,64,22,0.5289180874824524,0.06502565741539001
1,3,64,23,0.5493618845939636,0.2395465224981308
1,3,64,24,0.5264188647270203,0.18065406382083893
1,3,64,25,0.47609031200408936,0.14624539017677307
1,3,64,26,0.4014955461025238,0.12204798310995102
1,3,64,27,0.6517916321754456,0.15636329352855682
1,3,64,28,0.5554929971694946,0.17448307573795319
1,3,64,29,0.5532986521720886,0.09895830601453781
1,3,64,30,0.39289775490760803,0.0700705349445343
1,3,64,31,0.6077194213867188,0.07931361347436905
1,3,64,32,0.5709584355354309,0.10842042416334152
1,3,64,33,0.556900680065155,0.06151270866394043
1,3,64,34,0.4672519266605377,0.17038382589817047
1,3,64,35,0.4781458377838135,0.20881511270999908
1,3,64,36,0.6036645174026489,0.07094889879226685
1,3,64,37,0.46905940771102905,0.1467423141002655
1,3,64,38,0.4658917784690857,0.14046061038970947
1,3,64,39,0.478837251663208,0.20185740292072296
1,3,64,40,0.5315578579902649,0.1468501091003418
1,3,64,41,0.3526802062988281,0.11870158463716507
1,3,64,42,0.5005099773406982,0.13297514617443085
1,3,64,43,0.5292775630950928,0.2157963663339615
1,3,64,44,0.41075217723846436,0.15939244627952576
1,3,64,45,0.46486204862594604,0.14514033496379852
1,3,64,46,0.5221540331840515,0.10243066400289536
1,3,64,47,0.6046192049980164,0.10293234884738922
1,3,64,48,0.5851351618766785,0.050124797970056534
1,3,64,49,0.4127388298511505,0.08018089085817337
1,3,64,50,0.545444667339325,0.07635024935007095
1,3,64,51,0.5212969183921814,0.0800100564956665
1,3,64,52,0.3976002037525177,0.1216687485575676
1,3,64,53,0.4410833418369293,0.10408683866262436
1,3,64,54,0.3798986077308655,0.08633023500442505
1,3,64,55,0.5234323740005493,0.1127222329378128
1,3,64,56,0.3578605353832245,0.12330737709999084
1,3,64,57,0.5679461359977722,0.0879988744854927
1,3,64,58,0.5861413478851318,0.2696674168109894
1,3,64,59,0.30582505464553833,0.07503518462181091
1,3,64,60,0.5349310040473938,0.1701652705669403
1,3,64,61,0.5676836371421814,0.16440877318382263
1,3,64,62,0.44707486033439636,0.13392890989780426
1,3,64,63,0.38652750849723816,0.10592087358236313
1,4,128,0,0.5218126773834229,0.12407013773918152
1,4,128,1,0.2988835573196411,0.1552819311618805
1,4,128,2,0.6775979995727539,0.23412443697452545
1,4,128,3,0.5849170088768005,0.06623538583517075
1,4,128,4,0.5624200105667114,0.1393163502216339
1,4,128,5,0.5114867687225342,0.1395556777715683
1,4,128,6,0.6708757281303406,0.21447955071926117
1,4,128,7,0.716907262802124,0.16455285251140594
1,4,128,8,0.3896760046482086,0.22316724061965942
1,4,128,9,0.49090391397476196,0.17246901988983154
1,4,128,10,0.3809480667114258,0.19950096309185028
1,4,128,11,0.6665846109390259,0.24110732972621918
1,4,128,12,0.4061134159564972,0.20547039806842804
1,4,128,13,0.533796489238739,0.20365162193775177
1,4,128,14,0.6888924241065979,0.30084577202796936
1,4,128,15,0.3483790159225464,0.22579921782016754
1,4,128,16,0.3708847761154175,0.1772056519985199
1,4,128,17,0.7158671021461487,0.22378429770469666
1,4,128,18,0.6133480072021484,0.15069809556007385
1,4,128,19,0.39085835218429565,0.1298294961452484
1,4,128,20,0.6086837649345398,0.13034126162528992
1,4,128,21,0.3190954029560089,0.285139799118042
1,4,128,22,0.6835340857505798,0.06475234776735306
1,4,128,23,0.4394216239452362,0.10290642082691193
1,4,128,24,0.4624813497066498,0.21942844986915588
1,4,128,25,0.6721336245536804,0.13140647113323212
1,4,128,26,0.5003007054328918,0.23691877722740173
1,4,128,27,0.32386767864227295,0.12681947648525238
1,4,128,28,0.6621499061584473,0.08906589448451996
1,4,128,29,0.6637457609176636,0.08727220445871353
1,4,128,30,0.7248420119285583,0.30275627970695496
1,4,128,31,0.5801699757575989,0.1870134174823761
1,4,128,32,0.527765154838562,0.24672451615333557
1,4,128,33,0.40735265612602234,0.12693345546722412
1,4,128,34,0.6897764205932617,0.18115536868572235
1,4,128,35,0.6210698485374451,0.32098498940467834
1,4,128,36,0.6894373297691345,0.2213248312473297
1,4,128,37,0.5043059587478638,0.17245127260684967
1,4,128,38,0.5811727046966553,0.2428406924009323
1,4,128,39,0.5188443064689636,0.13759391009807587
1,4,128,40,0.5602448582649231,0.12072212994098663
1,4,128,41,0.4939126670360565,0.09439922869205475
1,4,128,42,0.4452317953109741,0.1808079481124878
1,4,128,43,0.7741196155548096,0.08247698098421097
1,4,128,44,0.4356882870197296,0.14223521947860718
1,4,128,45,0.4061305820941925,0.23544329404830933
1,4,128,46,0.5895636081695557,0.17897729575634003
1,4,128,47,0.6764577031135559,0.14446008205413818
1,4,128,48,0.5692451596260071,0.19203859567642212
1,4,128,49,0.43329015374183655,0.1205303743481636
1,4,128,50,0.4754796624183655,0.19391310214996338
1,4,128,51,0.6663104295730591,0.09246303886175156
1,4,128,52,0.3788091242313385,0.14770632982254028
1,4,128,53,0.6216375827789307,0.157562717795372
1,4,128,54,0.3090420067310333,0.14464174211025238
1,4,128,55,0.7104260325431824,0.2242223173379898
1,4,128,56,0.44523483514785767,0.09470038115978241
1,4,128,57,0.6503037810325623,0.17921064794063568
1,4,128,58,0.4808375835418701,0.16465818881988525
1,4,128,59,0.28336575627326965,0.14144015312194824
1,4,128,60,0.6114310026168823,0.1333094835281372
1,4,128,61,0.46705159544944763,0.1754467636346817
1,4,128,62,0.7318049073219299,0.19483806192874908
1,4,128,63,0.7131969332695007,0.10921138525009155
1,4,128,64,0.6840587854385376,0.21662001311779022
1,4,128,65,0.6933382153511047,0.0816294401884079
1,4,128,66,0.4306625723838806,0.13390760123729706
1,4,128,67,0.680212676525116,0.12304548174142838
1,4,128,68,0.6220637559890747,0.1706789880990982
1,4,128,69,0.3706859052181244,0.28387388586997986
1,4,128,70,0.7268428206443787,0.16731400787830353
1,4,128,71,0.351042240858078,0.23684504628181458
1,4,128,72,0.7062485814094543,0.20834514498710632
1,4,128,73,0.5165280103683472,0.19842351973056793
1,4,128,74,0.5655071139335632,0.1289091557264328
1,4,128,75,0.6968527436256409,0.28339114785194397
1,4,128,76,0.3872646987438202,0.2341308295726776
1,4,128,77,0.675980806350708,0.2390129715204239
1,4,128,78,0.4030449092388153,0.2252701073884964
1,4,128,79,0.7619727253913879,0.22775857150554657
1,4,128,80,0.6079521775245667,0.06474585831165314
1,4,128,81,0.6593687534332275,0.12868353724479675
1,4,128,82,0.4618987739086151,0.1377861052751541
1,4,128,83,0.7114587426185608,0.23769329488277435
1,4,128,84,0.6264621615409851,0.0966506227850914
1,4,128,85,0.6839574575424194,0.1943255513906479
1,4,128,86,0.7359447479248047,0.16888689994812012
1,4,128,87,0.36294272541999817,0.22610361874103546
1,4,128,88,0.6669949889183044,0.19098743796348572
1,4,128,89,0.5783073306083679,0.08416610211133957
1,4,128,90,0.4379916787147522,0.11841586977243423
1,4,128,91,0.47327351570129395,0.14587831497192383
1,4,128,92,0.40034249424934387,0.06552259624004364
1,4,128,93,0.5506053566932678,0.19858917593955994
1,4,128,94,0.48546963930130005,0.2306065559387207
1,4,128,95,0.6707652807235718,0.22014769911766052
1,4,128,96,0.6242375373840332,0.18517273664474487
1,4,128,97,0.6863694190979004,0.23496131598949432
1,4,128,98,0.4626317620277405,0.20123928785324097
1,4,128,99,0.6889099478721619,0.2574378252029419
1,4,128,100,0.6832176446914673,0.23495523631572723
1,4,128,101,0.36107319593429565,0.2828209698200226
1,4,128,102,0.5780704021453857,0.11090419441461563
1,4,128,103,0.736025333404541,0.09009455144405365
1,4,128,104,0.34300681948661804,0.12334609776735306
1,4,128,105,0.6603469252586365,0.1071753203868866
1,4,128,106,0.527589738368988,0.1523943394422531
1,4,128,107,0.667267382144928,0.2093028724193573
1,4,128,108,0.6169459223747253,0.11268523335456848
1,4,128,109,0.7140265703201294,0.16424359381198883
1,4,128,110,0.39927899837493896,0.12507566809654236
1,4,128,111,0.38034898042678833,0.2751002609729767
1,4,128,112,0.6583362817764282,0.16345079243183136
1,4,128,113,0.2893005311489105,0.14807896316051483
1,4,128,114,0.601527750492096,0.3243437111377716
1,4,128,115,0.4218446910381317,0.24761074781417847
1,4,128,116,0.46180567145347595,0.13678397238254547
1,4,128,117,0.3683960437774658,0.12275086343288422
1,4,128,118,0.6167256832122803,0.1260976940393448
1,4,128,119,0.4961009621620178,0.06617951393127441
1,4,128,120,0.3757340908050537,0.12669847905635834
1,4,128,121,0.7228980660438538,0.10621663928031921
1,4,128,122,0.5771673917770386,0.18705631792545319
1,4,128,123,0.47279593348503113,0.14371101558208466
1,4,128,124,0.3844882547855377,0.15996113419532776
1,4,128,125,0.42327627539634705,0.15843990445137024
1,4,128,126,0.5385144948959351,0.16492512822151184
1,4,128,127,0.6995771527290344,0.13377484679222107
1,5,128,0,0.6960064172744751,0.20717878639698029
1,5,128,1,0.7815595865249634,0.0867261067032814
1,5,128,2,0.8161728978157043,0.0969618633389473
1,5,128,3,0.5253483653068542,0.27124080061912537
1,5,128,4,0.7133241295814514,0.14689069986343384
1,5,128,5,0.7432660460472107,0.09618138521909714
1,5,128,6,0.8203045129776001,0.10017193108797073
1,5,128,7,0.7211371660232544,0.14824196696281433
1,5,128,8,0.4875686466693878,0.31801754236221313
1,5,128,9,0.5062693357467651,0.26278263330459595
1,5,128,10,0.6566658616065979,0.1649627536535263
1,5,128,11,0.7446697950363159,0.24906596541404724
1,5,128,12,0.591637134552002,0.10942845046520233
1,5,128,13,0.8057401180267334,0.09065330773591995
1,5,128,14,0.7916781902313232,0.1708095669746399
1,5,128,15,0.6915590167045593,0.08130305260419846
1,5,128,16,0.7863295674324036,0.11776283383369446
1,5,128,17,0.6858166456222534,0.2385558933019638
1,5,128,18,0.7621585726737976,0.16415856778621674
1,5,128,19,0.708315908908844,0.20029376447200775
1,5,128,20,0.5601512789726257,0.1619909405708313
1,5,128,21,0.28055548667907715,0.07808448374271393
1,5,128,22,0.7110165953636169,0.15126176178455353
1,5,128,23,0.4752782881259918,0.12768243253231049
1,5,128,24,0.7053767442703247,0.17399519681930542
1,5,128,25,0.5930202603340149,0.21949486434459686
1,5,128,26,0.5910825133323669,0.1531101018190384
1,5,128,27,0.7685603499412537,0.08101741224527359
1,5,128,28,0.6654489040374756,0.0761796161532402
1,5,128,29,0.7303891777992249,0.1810663342475891
1,5,128,30,0.7739753127098083,0.17708708345890045
1,5,128,31,0.7280711531639099,0.09033427387475967
1,5,128,32,0.8122255802154541,0.12586134672164917
1,5,128,33,0.6477618217468262,0.2961719036102295
1,5,128,34,0.6517370939254761,0.17269395291805267
1,5,128,35,0.8452396392822266,0.09369485825300217
1,5,128,36,0.689358115196228,0.12371693551540375
1,5,128,37,0.7182604074478149,0.1295040100812912
1,5,128,38,0.6410164833068848,0.207463338971138
1,5,128,39,0.3572831153869629,0.16053332388401031
1,5,128,40,0.695578932762146,0.1502142995595932
1,5,128,41,0.7293762564659119,0.07083529233932495
1,5,128,42,0.7747558355331421,0.08978172391653061
1,5,128,43,0.5571956634521484,0.24777454137802124
1,5,128,44,0.5539171099662781,0.21723462641239166
1,5,128,45,0.5958463549613953,0.228566974401474
1,5,128,46,0.7728874683380127,0.1477007418870926
1,5,128,47,0.8030070066452026,0.08502750098705292
1,5,128,48,0.6020010709762573,0.2522432506084442
1,5,128,49,0.8176208734512329,0.08128057420253754
1,5,128,50,0.687939465045929,0.21967506408691406
1,5,128,51,0.8569406867027283,0.07006358355283737
1,5,128,52,0.5302709341049194,0.07636073231697083
1,5,128,53,0.5574682354927063,0.10699497163295746
1,5,128,54,0.7608612775802612,0.07186511158943176
1,5,128,55,0.6753413677215576,0.21892528235912323
1,5,128,56,0.5959982872009277,0.20935164391994476
1,5,128,57,0.7405019402503967,0.13963055610656738
1,5,128,58,0.5456019043922424,0.25876790285110474
1,5,128,59,0.7655109763145447,0.08984403312206268
1,5,128,60,0.7727483510971069,0.12175453454256058
1,5,128,61,0.5110737085342407,0.3106372654438019
1,5,128,62,0.7757546305656433,0.0989270955324173
1,5,128,63,0.8151329755783081,0.0877382680773735
1,5,128,64,0.8068047761917114,0.11190401017665863
1,5,128,65,0.7274305820465088,0.14623799920082092
1,5,128,66,0.5494937896728516,0.23690365254878998
1,5,128,67,0.7068275809288025,0.181321918964386
1,5,128,68,0.6232259273529053,0.2662077248096466
1,5,128,69,0.7911978363990784,0.08957253396511078
1,5,128,70,0.7938478589057922,0.113826222717762
1,5,128,71,0.5753765106201172,0.13878187537193298
1,5,128,72,0.760686993598938,0.09786060452461243
1,5,128,73,0.5060596466064453,0.16594332456588745
1,5,128,74,0.7726415395736694,0.1338411420583725
1,5,128,75,0.825819730758667,0.0844770073890686
1,5,128,76,0.6882506012916565,0.16670812666416168
1,5,128,77,0.7510861754417419,0.1938450187444687
1,5,128,78,0.5830230116844177,0.14692939817905426
1,5,128,79,0.678166389465332,0.2281871885061264
1,5,128,80,0.6243603825569153,0.13259999454021454
1,5,128,81,0.6707268953323364,0.1748371422290802
1,5,128,82,0.6995929479598999,0.16348481178283691
1,5,128,83,0.7833146452903748,0.11197232455015182
1,5,128,84,0.5125882625579834,0.17871558666229248
1,5,128,85,0.7441278100013733,0.1954927146434784
1,5,128,86,0.6349089741706848,0.10942424088716507
1,5,128,87,0.5216109752655029,0.18686507642269135
1,5,128,88,0.6943509578704834,0.19320827722549438
1,5,128,89,0.6775926947593689,0.26712557673454285
1,5,128,90,0.48099640011787415,0.11680804193019867
1,5,128,91,0.5598664879798889,0.21675333380699158
1,5,128,92,0.7672147154808044,0.15311500430107117
1,5,128,93,0.8077907562255859,0.11534947156906128
1,5,128,94,0.6017765402793884,0.18889589607715607
1,5,128,95,0.4847334623336792,0.2789060175418854
1,5,128,96,0.7744924426078796,0.11218075454235077
1,5,128,97,0.820016622543335,0.09197916835546494
1,5,128,98,0.5104845762252808,0.3279797434806824
1,5,128,99,0.7164502143859863,0.22525200247764587
1,5,128,100,0.5614973902702332,0.2437489628791809
1,5,128,101,0.535010814666748,0.23555035889148712
1,5,128,102,0.7105550765991211,0.24262529611587524
1,5,128,103,0.5530562400817871,0.1337531954050064
1,5,128,104,0.8843719959259033,0.07869508862495422
1,5,128,105,0.7343016862869263,0.14017613232135773
1,5,128,106,0.4276195466518402,0.31386110186576843
1,5,128,107,0.7582268118858337,0.12546251714229584
1,5,128,108,0.6941367983818054,0.10017941147089005
1,5,128,109,0.6258947253227234,0.23939743638038635
1,5,128,110,0.5371981859207153,0.1911979764699936
1,5,128,111,0.708329439163208,0.11695553362369537
1,5,128,112,0.41917476058006287,0.2152072787284851
1,5,128,113,0.4600193202495575,0.2480783462524414
1,5,128,114,0.6588189005851746,0.12058404833078384
1,5,128,115,0.6936943531036377,0.15755455195903778
1,5,128,116,0.7453805208206177,0.16761766374111176
1,5,128,117,0.43991637229919434,0.21526426076889038
1,5,128,118,0.6529524922370911,0.2516508996486664
1,5,128,119,0.6413897275924683,0.28042328357696533
1,5,128,120,0.810431182384491,0.13380493223667145
1,5,128,121,0.4538506865501404,0.1861896961927414
1,5,128,122,0.5929726362228394,0.26266077160835266
1,5,128,123,0.48274341225624084,0.24639934301376343
1,5,128,124,0.8127495646476746,0.09459692239761353
1,5,128,125,0.6348667144775391,0.272659569978714
1,5,128,126,0.5424606800079346,0.1519177407026291
1,5,128,127,0.7655148506164551,0.18638938665390015
2,0,32,0,0.44123682379722595,0.10475660860538483
2,0,32,1,0.4927483797073364,0.12408045679330826
2,0,32,2,0.5016905665397644,0.03995206579566002
2,0,32,3,0.5829402804374695,0.08428148180246353
2,0,32,4,0.42143872380256653,0.09548144787549973
2,0,32,5,0.555793285369873,0.06412672251462936
2,0,32,6,0.3368549942970276,0.1287514865398407
2,0,32,7,0.3320057690143585,0.07794065773487091
2,0,32,8,0.3106291592121124,0.0740024670958519
2,0,32,9,0.3929513990879059,0.11529188603162766
2,0,32,10,0.5706526041030884,0.13354083895683289
2,0,32,11,0.5030195116996765,0.03572759032249451
2,0,32,12,0.4531328082084656,0.04438642039895058
2,0,32,13,0.44403666257858276,0.07135356217622757
2,0,32,14,0.512293815612793,0.10924578458070755
2,0,32,15,0.4295082092285156,0.09869153052568436
2,0,32,16,0.46286702156066895,0.0785621777176857
2,0,32,17,0.43155163526535034,0.07039958238601685
2,0,32,18,0.44402796030044556,0.12919896841049194
2,0,32,19,0.3977832794189453,0.08097784966230392
2,0,32,20,0.6242796778678894,0.07492678612470627
2,0,32,21,0.46281811594963074,0.11541381478309631
2,0,32,22,0.34898439049720764,0.07273910939693451
2,0,32,23,0.5082730650901794,0.07739843428134918
2,0,32,24,0.5277264714241028,0.1202668771147728
2,0,32,25,0.39362072944641113,0.04598047211766243
2,0,32,26,0.5139561295509338,0.08300144970417023
2,0,32,27,0.39675581455230713,0.019370267167687416
2,0,32,28,0.5308660268783569,0.07481792569160461
2,0,32,29,0.481266051530838,0.11249132454395294
2,0,32,30,0.49767231941223145,0.15858788788318634
2,0,32,31,0.4469747543334961,0.08615649491548538
2,1,32,0,0.38257670402526855,0.17082616686820984
2,1,32,1,0.7034617066383362,0.11011870950460434
2,1,32,2,0.6407502889633179,0.15016746520996094
2,1,32,3,0.39206430315971375,0.057027749717235565
2,1,32,4,0.5833316445350647,0.05240368843078613
2,1,32,5,0.40502211451530457,0.1454995572566986
2,1,32,6,0.4447687566280365,0.22347651422023773
2,1,32,7,0.5355949401855469,0.2983725666999817
2,1,32,8,0.39012008905410767,0.10314921289682388
2,1,32,9,0.6166548728942871,0.06165122240781784
2,1,32,10,0.518848717212677,0.2125813364982605
2,1,32,11,0.5729337334632874,0.14733067154884338
2,1,32,12,0.5136784911155701,0.11966902762651443
2,1,32,13,0.6667672395706177,0.1459122598171234
2,1,32,14,0.6553729176521301,0.13342566788196564
2,1,32,15,0.588079035282135,0.08421256393194199
2,1,32,16,0.6520642042160034,0.1556602120399475
2,1,32,17,0.2765558063983917,0.11396927386522293
2,1,32,18,0.7196196913719177,0.10708951205015182
2,1,32,19,0.7138014435768127,0.1237282082438469
2,1,32,20,0.4770861864089966,0.19416148960590363
2,1,32,21,0.39941930770874023,0.33541956543922424
2,1,32,22,0.41319751739501953,0.1334499716758728
2,1,32,23,0.5320090055465698,0.2525431215763092
2,1,32,24,0.5433645844459534,0.16800345480442047
2,1,32,25,0.4461004137992859,0.21418285369873047
2,1,32,26,0.5217925310134888,0.2168341428041458
2,1,32,27,0.5138956904411316,0.22631870210170746
2,1,32,28,0.4393981993198395,0.07312468439340591
2,1,32,29,0.4012516140937805,0.18267974257469177
2,1,32,30,0.6497247219085693,0.2044905424118042
2,1,32,31,0.4009898006916046,0.170401468873024
2,2,64,0,0.4538630545139313,0.18909721076488495
2,2,64,1,0.5222059488296509,0.2613624036312103
2,2,64,2,0.5753405690193176,0.2484111189842224
2,2,64,3,0.4323372542858124,0.09491270780563354
2,2,64,4,0.5261989831924438,0.16116368770599365
2,2,64,5,0.4301500618457794,0.14972327649593353
2,2,64,6,0.566705048084259,0.16981661319732666
2,2,64,7,0.6673551797866821,0.12708252668380737
2,2,64,8,0.45134538412094116,0.1527899205684662
2,2,64,9,0.37921783328056335,0.12895892560482025
2,2,64,10,0.5321989059448242,0.19004687666893005
2,2,64,11,0.5203402638435364,0.050024036318063736
2,2,64,12,0.46945011615753174,0.15626947581768036
2,2,64,13,0.5328612923622131,0.10755813866853714
2,2,64,14,0.5060857534408569,0.2114025503396988
2,2,64,15,0.44757768511772156,0.1444312483072281
2,2,64,16,0.5570387840270996,0.13245731592178345
2,2,64,17,0.4150012731552124,0.1352636218070984
2,2,64,18,0.4065656065940857,0.10111124813556671
2,2,64,19,0.3708280026912689,0.17117424309253693
2,2,64,20,0.4766789376735687,0.12842904031276703
2,2,64,21,0.42617684602737427,0.18402066826820374
2,2,64,22,0.5150441527366638,0.20782922208309174
2,2,64,23,0.4922598898410797,0.16152092814445496
2,2,64,24,0.6369327306747437,0.11631321907043457
2,2,64,25,0.4262717664241791,0.1751781404018402
2,2,64,26,0.4804115891456604,0.12310898303985596
2,2,64,27,0.5571408867835999,0.10042557865381241
2,2,64,28,0.6326537728309631,0.08377023041248322
2,2,64,29,0.4623098075389862,0.1264968365430832
2,2,64,30,0.5479412078857422,0.18947358429431915
2,2,64,31,0.38289201259613037,0.1630571484565735
2,2,64,32,0.5338228940963745,0.11376548558473587
2,2,64,33,0.571386456489563,0.10932905972003937
2,2,64,34,0.47358420491218567,0.1826482117176056
2,2,64,35,0.3646203577518463,0.12650896608829498
2,2,64,36,0.6102814674377441,0.15684421360492706
2,2,64,37,0.5220177173614502,0.18110594153404236
2,2,64,38,0.49413934350013733,0.1359279602766037
2,2,64,39,0.4471445083618164,0.14995603263378143
2,2,64,40,0.40189626812934875,0.16513417661190033
2,2,64,41,0.3230368196964264,0.1839616298675537
2,2,64,42,0.42146480083465576,0.1127501055598259
2,2,64,43,0.5501623749732971,0.18398039042949677
2,2,64,44,0.5053779482841492,0.12064936012029648
2,2,64,45,0.4209344685077667,0.07292275130748749
2,2,64,46,0.659917950630188,0.15713031589984894
2,2,64,47,0.48054933547973633,0.08024866878986359
2,2,64,48,0.6045528650283813,0.09978844225406647
2,2,64,49,0.48980340361595154,0.13139428198337555
2,2,64,50,0.4187343120574951,0.10170550644397736
2,2,64,51,0.6682717204093933,0.14457149803638458
2,2,64,52,0.7327139973640442,0.1387542486190796
2,2,64,53,0.3592069447040558,0.1163780465722084
2,2,64,54,0.4656837582588196,0.10307888686656952
2,2,64,55,0.6025354266166687,0.11364825814962387
2,2,64,56,0.46242523193359375,0.15849462151527405
2,2,64,57,0.5088370442390442,0.10361070185899734
2,2,64,58,0.43328022956848145,0.15185146033763885
2,2,64,59,0.4364781677722931,0.06124230474233627
2,2,64,60,0.44946956634521484,0.1493721902370453
2,2,64,61,0.46059730648994446,0.12599483132362366
2,2,64,62,0.3752994239330292,0.1176944300532341
2,2,64,63,0.43559107184410095,0.18462879955768585
2,3,64,0,0.45263075828552246,0.1734306812286377
2,3,64,1,0.5028099417686462,0.10678637027740479
2,3,64,2,0.5222795009613037,0.14943158626556396
2,3,64,3,0.48012828826904297,0.12780159711837769
2,3,64,4,0.5245994329452515,0.13896407186985016
2,3,64,5,0.4910181760787964,0.14140956103801727
2,3,64,6,0.44275563955307007,0.10934057831764221
2,3,64,7,0.5004674196243286,0.08837928622961044
2,3,64,8,0.40860578417778015,0.11640797555446625
2,3,64,9,0.43973013758659363,0.13570468127727509
2,3,64,10,0.5407904386520386,0.08453654497861862
2,3,64,11,0.49230414628982544,0.1448490023612976
2,3,64,12,0.41843730211257935,0.1782754510641098
2,3,64,13,0.6026387214660645,0.12481077760457993
2,3,64,14,0.5693316459655762,0.08712276071310043
2,3,64,15,0.5986354947090149,0.07136091589927673
2,3,64,16,0.45639702677726746,0.11865381896495819
2,3,64,17,0.5310911536216736,0.06957552582025528
2,3,64,18,0.4002431333065033,0.12779223918914795
2,3,64,19,0.3851914405822754,0.08305447548627853
2,3,64,20,0.5623927116394043,0.12896811962127686
2,3,64,21,0.5462565422058105,0.07768689841032028
2,3,64,22,0.5305642485618591,0.0708458423614502
2,3,64,23,0.4770404100418091,0.1262492686510086
2,3,64,24,0.5382305383682251,0.117060586810112
2,3,64,25,0.5723332762718201,0.13257737457752228
2,3,64,26,0.5669949054718018,0.11238411068916321
2,3,64,27,0.582751452922821,0.08574137091636658
2,3,64,28,0.5442548990249634,0.11654019355773926
2,3,64,29,0.5563156604766846,0.031697828322649
2,3,64,30,0.48598170280456543,0.13370166718959808
2,3,64,31,0.37516194581985474,0.16809271275997162
2,3,64,32,0.42992961406707764,0.11182183027267456
2,3,64,33,0.3884321451187134,0.1320204734802246
2,3,64,34,0.618756890296936,0.09300781041383743
2,3,64,35,0.4502941966056824,0.07097143679857254
2,3,64,36,0.41800978779792786,0.10904788970947266
2,3,64,37,0.4939311742782593,0.13719387352466583
2,3,64,38,0.4792870283126831,0.13604237139225006
2,3,64,39,0.5790891051292419,0.1922270953655243
2,3,64,40,0.5126416087150574,0.09738446772098541
2,3,64,41,0.5123822093009949,0.06674516201019287
2,3,64,42,0.6368392705917358,0.10560833662748337
2,3,64,43,0.5098098516464233,0.14884322881698608
2,3,64,44,0.44193005561828613,0.12873713672161102
2,3,64,45,0.4722271263599396,0.1306389570236206
2,3,64,46,0.3707510828971863,0.08218798041343689
2,3,64,47,0.5761082768440247,0.16392965614795685
2,3,64,48,0.4526459276676178,0.06841421127319336
2,3,64,49,0.5001118183135986,0.06397280097007751
2,3,64,50,0.5803170204162598,0.12171108275651932
2,3,64,51,0.35002991557121277,0.18786178529262543
2,3,64,52,0.5043058395385742,0.12894241511821747
2,3,64,53,0.410123735666275,0.1424291878938675
2,3,64,54,0.4942595958709717,0.09518194198608398
2,3,64,55,0.4141705334186554,0.12230870127677917
2,3,64,56,0.38217422366142273,0.1184234470129013
2,3,64,57,0.5854073762893677,0.12938402593135834
2,3,64,58,0.5334007740020752,0.12043756246566772
2,3,64,59,0.5626696944236755,0.15783853828907013
2,3,64,60,0.42663878202438354,0.13723912835121155
2,3,64,61,0.5838418006896973,0.08951078355312347
2,3,64,62,0.5102123022079468,0.19011546671390533
2,3,64,63,0.4146885573863983,0.12133906036615372
2,4,128,0,0.7453271746635437,0.12632262706756592
2,4,128,1,0.6948390603065491,0.11948513239622116
2,4,128,2,0.6284698247909546,0.30897966027259827
2,4,128,3,0.3320333957672119,0.1265515387058258
2,4,128,4,0.6653239727020264,0.11358695477247238
2,4,128,5,0.5717904567718506,0.29218852519989014
2,4,128,6,0.3595879077911377,0.1455182284116745
2,4,128,7,0.6158232688903809,0.27068227529525757
2,4,128,8,0.7281107902526855,0.09887076169252396
2,4,128,9,0.6055158972740173,0.3309079110622406
2,4,128,10,0.4314901828765869,0.20933471620082855
2,4,128,11,0.7526023387908936,0.10920790582895279
2,4,128,12,0.6159536242485046,0.2556827962398529
2,4,128,13,0.5115894675254822,0.2069459706544876
2,4,128,14,0.549479603767395,0.1514192521572113
2,4,128,15,0.40088847279548645,0.20961026847362518
2,4,128,16,0.6445154547691345,0.1173165887594223
2,4,128,17,0.5299481153488159,0.12834475934505463
2,4,128,18,0.740827739238739,0.10533533990383148
2,4,128,19,0.4424896240234375,0.244773730635643
2,4,128,20,0.46965521574020386,0.2971835732460022
2,4,128,21,0.5742791891098022,0.1510562002658844
2,4,128,22,0.5593016147613525,0.11615603417158127
2,4,128,23,0.6007243990898132,0.2861349880695343
2,4,128,24,0.6390014290809631,0.27694636583328247
2,4,128,25,0.5602373480796814,0.06333355605602264
2,4,128,26,0.613977313041687,0.32208073139190674
2,4,128,27,0.5809972882270813,0.20804204046726227
2,4,128,28,0.6354297995567322,0.34311220049858093
2,4,128,29,0.7008625864982605,0.12057781219482422
2,4,128,30,0.45711350440979004,0.03766123950481415
2,4,128,31,0.5515397787094116,0.13558106124401093
2,4,128,32,0.6163817644119263,0.30514657497406006
2,4,128,33,0.5587852001190186,0.25824859738349915
2,4,128,34,0.615765392780304,0.2733578383922577
2,4,128,35,0.6191724538803101,0.28649216890335083
2,4,128,36,0.45335444808006287,0.24650345742702484
2,4,128,37,0.6399574279785156,0.11532700061798096
2,4,128,38,0.5084512233734131,0.22919577360153198
2,4,128,39,0.46474969387054443,0.2570992708206177
2,4,128,40,0.5602996945381165,0.29821744561195374
2,4,128,41,0.4083842635154724,0.30424606800079346
2,4,128,42,0.5616608262062073,0.23306936025619507
2,4,128,43,0.46856316924095154,0.06674071401357651
2,4,128,44,0.6939985156059265,0.1367606222629547
2,4,128,45,0.5472557544708252,0.273803174495697
2,4,128,46,0.7017989754676819,0.12656478583812714
2,4,128,47,0.6020341515541077,0.3200680911540985
2,4,128,48,0.6218989491462708,0.057820215821266174
2,4,128,49,0.6197687387466431,0.21486465632915497
2,4,128,50,0.6227984428405762,0.125188410282135
2,4,128,51,0.45489972829818726,0.03150828927755356
2,4,128,52,0.4396273195743561,0.15168267488479614
2,4,128,53,0.5963884592056274,0.21739663183689117
2,4,128,54,0.6073821187019348,0.1546391248703003
2,4,128,55,0.33268022537231445,0.08508997410535812
2,4,128,56,0.3983924090862274,0.23291383683681488
2,4,128,57,0.41431093215942383,0.13098272681236267
2,4,128,58,0.4512828588485718,0.23446543514728546
2,4,128,59,0.41338637471199036,0.09959045052528381
2,4,128,60,0.25655752420425415,0.12706851959228516
2,4,128,61,0.40671032667160034,0.26092785596847534
2,4,128,62,0.607854425907135,0.1584949791431427
2,4,128,63,0.7400456070899963,0.12154019623994827
2,4,128,64,0.7431843876838684,0.10386426001787186
2,4,128,65,0.44377532601356506,0.08182714134454727
2,4,128,66,0.3159042298793793,0.09827050566673279
2,4,128,67,0.5772005319595337,0.31339162588119507
2,4,128,68,0.4786525070667267,0.29030361771583557
2,4,128,69,0.6981237530708313,0.12437228858470917
2,4,128,70,0.5305621027946472,0.06750790029764175
2,4,128,71,0.47133246064186096,0.2645590901374817
2,4,128,72,0.7261654734611511,0.12141469866037369
2,4,128,73,0.5708970427513123,0.3005008399486542
2,4,128,74,0.7335468530654907,0.12511645257472992
2,4,128,75,0.5282549262046814,0.2241409569978714
2,4,128,76,0.5886608362197876,0.16049252450466156
2,4,128,77,0.3434809446334839,0.11160334199666977
2,4,128,78,0.5516879558563232,0.14887560904026031
2,4,128,79,0.4368356764316559,0.24401964247226715
2,4,128,80,0.5606368184089661,0.20828185975551605
2,4,128,81,0.4743017852306366,0.18161825835704803
2,4,128,82,0.6083129048347473,0.10554374009370804
2,4,128,83,0.3863442540168762,0.3561059534549713
2,4,128,84,0.5223090052604675,0.2056730091571808
2,4,128,85,0.735924243927002,0.1145167127251625
2,4,128,86,0.4461445212364197,0.2741554081439972
2,4,128,87,0.5707765817642212,0.2170284390449524
2,4,128,88,0.5974951982498169,0.34617093205451965
2,4,128,89,0.7024214267730713,0.1039009690284729
2,4,128,90,0.47783640027046204,0.264893114566803
2,4,128,91,0.38914167881011963,0.277178019285202
2,4,128,92,0.49488162994384766,0.26660290360450745
2,4,128,93,0.6793127059936523,0.2516351044178009
2,4,128,94,0.5845162868499756,0.10385297983884811
2,4,128,95,0.6592581272125244,0.08674120157957077
2,4,128,96,0.5715575814247131,0.22020098567008972
2,4,128,97,0.6273980140686035,0.06366728246212006
2,4,128,98,0.5312931537628174,0.2144831269979477
2,4,128,99,0.49148398637771606,0.24874871969223022
2,4,128,100,0.3548206686973572,0.10689365118741989
2,4,128,101,0.6327909827232361,0.19266842305660248
2,4,128,102,0.30766502022743225,0.11723935604095459
2,4,128,103,0.5884342193603516,0.2093285769224167
2,4,128,104,0.43667173385620117,0.21840590238571167
2,4,128,105,0.4393182098865509,0.2229916900396347
2,4,128,106,0.5028232336044312,0.05117780715227127
2,4,128,107,0.5893338322639465,0.28523653745651245
2,4,128,108,0.5887657999992371,0.17439723014831543
2,4,128,109,0.3962376117706299,0.3071669042110443
2,4,128,110,0.5750289559364319,0.24069459736347198
2,4,128,111,0.5008567571640015,0.2399795800447464
2,4,128,112,0.598669707775116,0.28257420659065247
2,4,128,113,0.42597827315330505,0.09939491003751755
2,4,128,114,0.6980021595954895,0.10410533100366592
2,4,128,115,0.5818275213241577,0.21377423405647278
2,4,128,116,0.47549524903297424,0.23465168476104736
2,4,128,117,0.5752680897712708,0.105171337723732
2,4,128,118,0.45618170499801636,0.2988892197608948
2,4,128,119,0.4403659403324127,0.2828778624534607
2,4,128,120,0.4866781234741211,0.30270394682884216
2,4,128,121,0.5164518356323242,0.07840599119663239
2,4,128,122,0.5175727009773254,0.16853192448616028
2,4,128,123,0.6106929779052734,0.30869224667549133
2,4,128,124,0.41138389706611633,0.17393675446510315
2,4,128,125,0.70556640625,0.10561071336269379
2,4,128,126,0.5557105541229248,0.2017262578010559
2,4,128,127,0.4637516140937805,0.2719634473323822
2,5,128,0,0.9130299091339111,0.06759654730558395
2,5,128,1,0.852472722530365,0.0881332978606224
2,5,128,2,0.8478183746337891,0.1272304803133011
2,5,128,3,0.3981896936893463,0.21361781656742096
2,5,128,4,0.7301623225212097,0.08038805425167084
2,5,128,5,0.8403612971305847,0.08220092207193375
2,5,128,6,0.656477153301239,0.22401171922683716
2,5,128,7,0.8205104470252991,0.1894562989473343
2,5,128,8,0.8490368127822876,0.10871437937021255
2,5,128,9,0.777243971824646,0.20759060978889465
2,5,128,10,0.23099811375141144,0.10768633335828781
2,5,128,11,0.8727027177810669,0.1301795095205307
2,5,128,12,0.7684651613235474,0.1183549091219902
2,5,128,13,0.7886518239974976,0.14536918699741364
2,5,128,14,0.6562535762786865,0.3276481628417969
2,5,128,15,0.5950665473937988,0.2625032663345337
2,5,128,16,0.7323112487792969,0.10591323673725128
2,5,128,17,0.7056542634963989,0.09328731894493103
2,5,128,18,0.4544801712036133,0.0800948217511177
2,5,128,19,0.8453686237335205,0.13968965411186218
2,5,128,20,0.4931949973106384,0.15752604603767395
2,5,128,21,0.7331692576408386,0.12815934419631958
2,5,128,22,0.5771297216415405,0.22141817212104797
2,5,128,23,0.7744487524032593,0.19769513607025146
2,5,128,24,0.7822359800338745,0.2051786333322525
2,5,128,25,0.8637153506278992,0.07693874835968018
2,5,128,26,0.7783195972442627,0.21171973645687103
2,5,128,27,0.7450393438339233,0.10344132781028748
2,5,128,28,0.8616421222686768,0.07002938538789749
2,5,128,29,0.8577155470848083,0.10842959582805634
2,5,128,30,0.6032885313034058,0.1458141952753067
2,5,128,31,0.6338176727294922,0.16537754237651825
2,5,128,32,0.8247671723365784,0.16437752544879913
2,5,128,33,0.8382369875907898,0.14513513445854187
2,5,128,34,0.7245224118232727,0.12145192921161652
2,5,128,35,0.6673375368118286,0.27499139308929443
2,5,128,36,0.7761166095733643,0.15476609766483307
2,5,128,37,0.7452030777931213,0.2240637093782425
2,5,128,38,0.7776824235916138,0.18466542661190033
2,5,128,39,0.9158684015274048,0.10254137217998505
2,5,128,40,0.8141024112701416,0.07523757964372635
2,5,128,41,0.7433617115020752,0.07219009101390839
2,5,128,42,0.7014191746711731,0.16385258734226227
2,5,128,43,0.6412080526351929,0.3720836043357849
2,5,128,44,0.8033117651939392,0.10786505788564682
2,5,128,45,0.8157795667648315,0.12138373404741287
2,5,128,46,0.8771889805793762,0.12053635716438293
2,5,128,47,0.8678018450737,0.05874722823500633
2,5,128,48,0.7769240736961365,0.1944383680820465
2,5,128,49,0.7077847719192505,0.1726386845111847
2,5,128,50,0.7758077383041382,0.13190007209777832
2,5,128,51,0.6519860029220581,0.12775668501853943
2,5,128,52,0.7665299773216248,0.1900666058063507
2,5,128,53,0.8596670031547546,0.06458350270986557
2,5,128,54,0.8691850900650024,0.0921839252114296
2,5,128,55,0.7142608165740967,0.2290022373199463
2,5,128,56,0.3384108543395996,0.30820396542549133
2,5,128,57,0.8994300961494446,0.05432974919676781
2,5,128,58,0.7302829027175903,0.2552506923675537
2,5,128,59,0.743533194065094,0.08826059848070145
2,5,128,60,0.8344850540161133,0.0753672644495964
2,5,128,61,0.7120394110679626,0.3126862645149231
2,5,128,62,0.840820848941803,0.08823424577713013
2,5,128,63,0.6993582844734192,0.08355429023504257
2,5,128,64,0.8781008124351501,0.08849289268255234
2,5,128,65,0.8601577877998352,0.1041094958782196
2,5,128,66,0.6141737103462219,0.18435832858085632
2,5,128,67,0.7027140855789185,0.24667637050151825
2,5,128,68,0.7097097635269165,0.12524285912513733
2,5,128,69,0.8178495764732361,0.1696530133485794
2,5,128,70,0.7392979860305786,0.1260938197374344
2,5,128,71,0.4701654016971588,0.36403340101242065
2,5,128,72,0.8634910583496094,0.1007687970995903
2,5,128,73,0.3827473521232605,0.3377330005168915
2,5,128,74,0.6071902513504028,0.3554713726043701
2,5,128,75,0.4339752197265625,0.10919291526079178
2,5,128,76,0.8085501790046692,0.18015235662460327
2,5,128,77,0.6740262508392334,0.10611502081155777
2,5,128,78,0.8022236227989197,0.07355278730392456
2,5,128,79,0.6819270253181458,0.28207001090049744
2,5,128,80,0.35518696904182434,0.22277022898197174
2,5,128,81,0.8696579337120056,0.10980144888162613
2,5,128,82,0.8221333026885986,0.07941186428070068
2,5,128,83,0.7242149710655212,0.20833100378513336
2,5,128,84,0.6480894684791565,0.15718528628349304
2,5,128,85,0.8301053047180176,0.10632240772247314
2,5,128,86,0.8009518384933472,0.09339078515768051
2,5,128,87,0.5265142321586609,0.2519529461860657
2,5,128,88,0.8516912460327148,0.11266212910413742
2,5,128,89,0.8944050669670105,0.06450268626213074
2,5,128,90,0.7942182421684265,0.10443449020385742
2,5,128,91,0.39593714475631714,0.37736400961875916
2,5,128,92,0.7164629101753235,0.23172996938228607
2,5,128,93,0.6353687047958374,0.21455593407154083
2,5,128,94,0.662237823009491,0.277065247297287
2,5,128,95,0.7943295240402222,0.15978458523750305
2,5,128,96,0.8932259678840637,0.08714894205331802
2,5,128,97,0.8294636607170105,0.11208965629339218
2,5,128,98,0.9051185250282288,0.08842132240533829
2,5,128,99,0.8792003393173218,0.08030369877815247
2,5,128,100,0.7936553359031677,0.17793336510658264
2,5,128,101,0.5900765657424927,0.35551464557647705
2,5,128,102,0.5430545806884766,0.14160582423210144
2,5,128,103,0.7961880564689636,0.11951596289873123
2,5,128,104,0.773186981678009,0.11935128271579742
2,5,128,105,0.7693560123443604,0.25666147470474243
2,5,128,106,0.6923912763595581,0.13983556628227234
2,5,128,107,0.7735891342163086,0.08286578953266144
2,5,128,108,0.7372826337814331,0.12758131325244904
2,5,128,109,0.5990758538246155,0.15278489887714386
2,5,128,110,0.743285596370697,0.21905702352523804
2,5,128,111,0.8739101886749268,0.07126867771148682
2,5,128,112,0.34789273142814636,0.3056073486804962
2,5,128,113,0.8436192274093628,0.16303764283657074
2,5,128,114,0.8237277269363403,0.1612701714038849
2,5,128,115,0.7978441715240479,0.10029871016740799
2,5,128,116,0.38511109352111816,0.3787013292312622
2,5,128,117,0.7926395535469055,0.09483661502599716
2,5,128,118,0.4716145098209381,0.3681339621543884
2,5,128,119,0.6784628629684448,0.28680843114852905
2,5,128,120,0.8619280457496643,0.062277816236019135
2,5,128,121,0.9130467176437378,0.06466777622699738
2,5,128,122,0.8184636235237122,0.11995863914489746
2,5,128,123,0.7488240003585815,0.08824365586042404
2,5,128,124,0.7346781492233276,0.25795337557792664
2,5,128,125,0.8298255205154419,0.12126480787992477
2,5,128,126,0.8510609865188599,0.0786915197968483
2,5,128,127,0.6959631443023682,0.09168419241905212
3,0,32,0,0.5094583034515381,0.09903663396835327
3,0,32,1,0.515970766544342,0.1274777352809906
3,0,32,2,0.45763686299324036,0.11017870157957077
3,0,32,3,0.5309807658195496,0.1272009015083313
3,0,32,4,0.45768263936042786,0.17456960678100586
3,0,32,5,0.45211169123649597,0.107028529047966
3,0,32,6,0.3186672627925873,0.12419368326663971
3,0,32,7,0.34362101554870605,0.16501577198505402
3,0,32,8,0.3325110077857971,0.12933282554149628
3,0,32,9,0.49248379468917847,0.2645816206932068
3,0,32,10,0.3909987211227417,0.026378924027085304
3,0,32,11,0.481094628572464,0.16044411063194275
3,0,32,12,0.5496692061424255,0.07321950048208237
3,0,32,13,0.5292556881904602,0.046600036323070526
3,0,32,14,0.583676278591156,0.19069857895374298
3,0,32,15,0.5648205876350403,0.20758377015590668
3,0,32,16,0.5103188753128052,0.11492123454809189
3,0,32,17,0.4472319185733795,0.09649346768856049
3,0,32,18,0.702356219291687,0.09003708511590958
3,0,32,19,0.30705851316452026,0.1190117821097374
3,0,32,20,0.2739357054233551,0.11144746094942093
3,0,32,21,0.32520514726638794,0.11125656962394714
3,0,32,22,0.2788524627685547,0.09377241134643555
3,0,32,23,0.42713284492492676,0.14959150552749634
3,0,32,24,0.5633673071861267,0.14189334213733673
3,0,32,25,0.3832511007785797,0.12668801844120026
3,0,32,26,0.4397680163383484,0.18767552077770233
3,0,32,27,0.6773806214332581,0.09792836010456085
3,0,32,28,0.37307432293891907,0.08611010760068893
3,0,32,29,0.48791828751564026,0.21834509074687958
3,0,32,30,0.6119630336761475,0.15805551409721375
3,0,32,31,0.5056282877922058,0.09278912842273712
3,1,32,0,0.7354920506477356,0.07899437099695206
3,1,32,1,0.5027980804443359,0.125348299741745
3,1,32,2,0.6900696158409119,0.040769562125205994
3,1,32,3,0.5372278094291687,0.11834120005369186
3,1,32,4,0.4804832935333252,0.06835398823022842
3,1,32,5,0.38386544585227966,0.1135103777050972
3,1,32,6,0.32201534509658813,0.07200806587934494
3,1,32,7,0.5747426748275757,0.06395816802978516
3,1,32,8,0.530721127986908,0.04382311925292015
3,1,32,9,0.5069012641906738,0.04087125137448311
3,1,32,10,0.6500442028045654,0.03638951852917671
3,1,32,11,0.4609677493572235,0.1938227117061615
3,1,32,12,0.5980103611946106,0.1797206699848175
3,1,32,13,0.5199750661849976,0.05824999138712883
3,1,32,14,0.6877767443656921,0.10230404138565063
3,1,32,15,0.5293539762496948,0.1804734766483307
3,1,32,16,0.3656969666481018,0.062167130410671234
3,1,32,17,0.6527529358863831,0.06581275165081024
3,1,32,18,0.5156082510948181,0.21962043642997742
3,1,32,19,0.44760364294052124,0.20160998404026031
3,1,32,20,0.6920310258865356,0.0743621364235878
3,1,32,21,0.7024955153465271,0.06869649142026901
3,1,32,22,0.38031110167503357,0.18944332003593445
3,1,32,23,0.4438462257385254,0.18572600185871124
3,1,32,24,0.5215184092521667,0.09984846413135529
3,1,32,25,0.37356993556022644,0.08215771615505219
3,1,32,26,0.46622270345687866,0.10552916675806046
3,1,32,27,0.5989072918891907,0.17611855268478394
3,1,32,28,0.41773277521133423,0.10060940682888031
3,1,32,29,0.39981839060783386,0.03594949096441269
3,1,32,30,0.464079886674881,0.10063493996858597
3,1,32,31,0.4369005858898163,0.1290813684463501
3,2,64,0,0.5402774214744568,0.15015192329883575
3,2,64,1,0.481659859418869,0.2158617377281189
3,2,64,2,0.4964928925037384,0.22933059930801392
3,2,64,3,0.509251594543457,0.17364904284477234
3,2,64,4,0.45507118105888367,0.09846089035272598
3,2,64,5,0.4333917796611786,0.17027464509010315
3,2,64,6,0.6214515566825867,0.13355551660060883
3,2,64,7,0.4554808735847473,0.10601261258125305
3,2,64,8,0.3778451085090637,0.14148418605327606
3,2,64,9,0.6273772120475769,0.12128245830535889
3,2,64,10,0.5950233340263367,0.09031575918197632
3,2,64,11,0.4413115084171295,0.23992902040481567
3,2,64,12,0.48644691705703735,0.2157498151063919
3,2,64,13,0.47759804129600525,0.19481109082698822
3,2,64,14,0.47243955731391907,0.08779968321323395
3,2,64,15,0.4379439353942871,0.07441563159227371
3,2,64,16,0.38813453912734985,0.152156263589859
3,2,64,17,0.36235836148262024,0.14566852152347565
3,2,64,18,0.4933772087097168,0.21285830438137054
3,2,64,19,0.47431719303131104,0.17375852167606354
3,2,64,20,0.5248365998268127,0.166855126619339
3,2,64,21,0.43418991565704346,0.20306991040706635
3,2,64,22,0.6196287870407104,0.10827759653329849
3,2,64,23,0.46852970123291016,0.10786860436201096
3,2,64,24,0.5199247002601624,0.21238118410110474
3,2,64,25,0.33412766456604004,0.14318907260894775
3,2,64,26,0.6445879936218262,0.16245286166667938
3,2,64,27,0.4688999056816101,0.18462501466274261
3,2,64,28,0.44361862540245056,0.10274538397789001
3,2,64,29,0.4362863302230835,0.16748574376106262
3,2,64,30,0.44378846883773804,0.1882258653640747
3,2,64,31,0.6030331254005432,0.08653051406145096
3,2,64,32,0.6259152293205261,0.13026876747608185
3,2,64,33,0.48621827363967896,0.16643458604812622
3,2,64,34,0.3861022889614105,0.046946439892053604
3,2,64,35,0.5787472724914551,0.15047460794448853
3,2,64,36,0.5023725628852844,0.21536368131637573
3,2,64,37,0.5082045793533325,0.22066886723041534
3,2,64,38,0.4497835338115692,0.238895446062088
3,2,64,39,0.49359413981437683,0.13536100089550018
3,2,64,40,0.41358041763305664,0.15426813066005707
3,2,64,41,0.4943842589855194,0.1669241338968277
3,2,64,42,0.47792983055114746,0.19237731397151947
3,2,64,43,0.5946879982948303,0.08344178646802902
3,2,64,44,0.43859046697616577,0.10643112659454346
3,2,64,45,0.5728370547294617,0.09420301020145416
3,2,64,46,0.5588157176971436,0.08535293489694595
3,2,64,47,0.5269970893859863,0.20065735280513763
3,2,64,48,0.49224406480789185,0.10015355795621872
3,2,64,49,0.4775311052799225,0.24043519794940948
3,2,64,50,0.6548840403556824,0.16411016881465912
3,2,64,51,0.6773386001586914,0.15851230919361115
3,2,64,52,0.4910834729671478,0.1765141636133194
3,2,64,53,0.3964637815952301,0.11338409781455994
3,2,64,54,0.6061195731163025,0.10610063374042511
3,2,64,55,0.5594477653503418,0.152247354388237
3,2,64,56,0.5204058289527893,0.1698775738477707
3,2,64,57,0.4931136667728424,0.13241051137447357
3,2,64,58,0.4125949442386627,0.1717895269393921
3,2,64,59,0.4812736213207245,0.15313638746738434
3,2,64,60,0.5824363827705383,0.16829808056354523
3,2,64,61,0.5858484506607056,0.0994117334485054
3,2,64,62,0.472088485956192,0.1965957134962082
3,2,64,63,0.44880035519599915,0.0942009910941124
3,3,64,0,0.4425537884235382,0.15663571655750275
3,3,64,1,0.537225067615509,0.09721620380878448
3,3,64,2,0.42765119671821594,0.29853177070617676
3,3,64,3,0.746052622795105,0.15083257853984833
3,3,64,4,0.6686586141586304,0.21050962805747986
3,3,64,5,0.43439921736717224,0.189127579331398
3,3,64,6,0.32812750339508057,0.1485443413257599
3,3,64,7,0.5305556058883667,0.2560431659221649
3,3,64,8,0.382065087556839,0.12749001383781433
3,3,64,9,0.47986066341400146,0.36218518018722534
3,3,64,10,0.4393109679222107,0.03633825108408928
3,3,64,11,0.35615190863609314,0.22327056527137756
3,3,64,12,0.5658755302429199,0.3095848560333252
3,3,64,13,0.5449987649917603,0.16227567195892334
3,3,64,14,0.5165121555328369,0.15029814839363098
3,3,64,15,0.5430418848991394,0.17243143916130066
3,3,64,16,0.5846845507621765,0.08274596184492111
3,3,64,17,0.4683321416378021,0.12873613834381104
3,3,64,18,0.5058680772781372,0.2405509352684021
3,3,64,19,0.6798439621925354,0.13770368695259094
3,3,64,20,0.4538443684577942,0.21110773086547852
3,3,64,21,0.48493582010269165,0.2756361663341522
3,3,64,22,0.5891516208648682,0.20753589272499084
3,3,64,23,0.5003066062927246,0.14364871382713318
3,3,64,24,0.5649771690368652,0.31116554141044617
3,3,64,25,0.6509791016578674,0.23800230026245117
3,3,64,26,0.5785838961601257,0.2689875066280365
3,3,64,27,0.6070903539657593,0.12330228835344315
3,3,64,28,0.4660804271697998,0.23437371850013733
3,3,64,29,0.6062296628952026,0.18075455725193024
3,3,64,30,0.30397841334342957,0.06565221399068832
3,3,64,31,0.40672045946121216,0.15316647291183472
3,3,64,32,0.410309761762619,0.17437487840652466
3,3,64,33,0.42801135778427124,0.1890483945608139
3,3,64,34,0.46606865525245667,0.20420622825622559
3,3,64,35,0.4637818932533264,0.13627587258815765
3,3,64,36,0.5508823990821838,0.2126176506280899
3,3,64,37,0.5668565034866333,0.07155853509902954
3,3,64,38,0.6370099782943726,0.1663532257080078
3,3,64,39,0.4138610363006592,0.0990266427397728
3,3,64,40,0.5453280806541443,0.2721463739871979
3,3,64,41,0.6320222020149231,0.15389515459537506
3,3,64,42,0.5988849401473999,0.20469465851783752
3,3,64,43,0.4043242037296295,0.19825777411460876
3,3,64,44,0.5574766993522644,0.28821736574172974
3,3,64,45,0.4379563629627228,0.2703789174556732
3,3,64,46,0.4758862257003784,0.2448996603488922
3,3,64,47,0.33020511269569397,0.21903155744075775
3,3,64,48,0.4502870738506317,0.10875619202852249
3,3,64,49,0.5260052680969238,0.12579971551895142
3,3,64,50,0.48015937209129333,0.2193181961774826
3,3,64,51,0.4615178406238556,0.13835974037647247
3,3,64,52,0.557838499546051,0.24184739589691162
3,3,64,53,0.4348490238189697,0.2559969425201416
3,3,64,54,0.39396435022354126,0.13787730038166046
3,3,64,55,0.3187199532985687,0.10304194688796997
3,3,64,56,0.5215961933135986,0.2977057993412018
3,3,64,57,0.4610781669616699,0.09887001663446426
3,3,64,58,0.4016945958137512,0.19140496850013733
3,3,64,59,0.579185426235199,0.12097075581550598
3,3,64,60,0.6271092891693115,0.1597585529088974
3,3,64,61,0.5154114365577698,0.20581893622875214
3,3,64,62,0.3516536355018616,0.16188271343708038
3,3,64,63,0.527190625667572,0.13316500186920166
3,4,128,0,0.6321689486503601,0.1091768890619278
3,4,128,1,0.6021516919136047,0.2134036272764206
3,4,128,2,0.5449738502502441,0.19100145995616913
3,4,128,3,0.4300372302532196,0.3036876320838928
3,4,128,4,0.2918548285961151,0.11542539298534393
3,4,128,5,0.7017896175384521,0.25519344210624695
3,4,128,6,0.5853677988052368,0.24344919621944427
3,4,128,7,0.6308001279830933,0.17343580722808838
3,4,128,8,0.4254777431488037,0.0919467881321907
3,4,128,9,0.4916232228279114,0.11035411059856415
3,4,128,10,0.7278819680213928,0.12719154357910156
3,4,128,11,0.612899661064148,0.18741357326507568
3,4,128,12,0.7635226249694824,0.10619407147169113
3,4,128,13,0.41461706161499023,0.293061763048172
3,4,128,14,0.6177189350128174,0.28792062401771545
3,4,128,15,0.6768028736114502,0.11340317130088806
3,4,128,16,0.4731791019439697,0.15260469913482666
3,4,128,17,0.6887257099151611,0.24762433767318726
3,4,128,18,0.6823569536209106,0.26619794964790344
3,4,128,19,0.6387921571731567,0.13981902599334717
3,4,128,20,0.5892145037651062,0.18172727525234222
3,4,128,21,0.6091557145118713,0.14906799793243408
3,4,128,22,0.6291648745536804,0.27610117197036743
3,4,128,23,0.6385544538497925,0.18064595758914948
3,4,128,24,0.6738418936729431,0.2313309609889984
3,4,128,25,0.5543385744094849,0.13966244459152222
3,4,128,26,0.5792869925498962,0.10139180719852448
3,4,128,27,0.6283061504364014,0.2816621661186218
3,4,128,28,0.41687801480293274,0.10341857373714447
3,4,128,29,0.6215656995773315,0.2381294220685959
3,4,128,30,0.6883040070533752,0.11198380589485168
3,4,128,31,0.4323822557926178,0.1477919965982437
3,4,128,32,0.5219404697418213,0.2279885858297348
3,4,128,33,0.6310257911682129,0.27709054946899414
3,4,128,34,0.6292364597320557,0.1456654965877533
3,4,128,35,0.6936055421829224,0.10756009817123413
3,4,128,36,0.6488845348358154,0.10884182155132294
3,4,128,37,0.4944826364517212,0.12164287269115448
3,4,128,38,0.5455033779144287,0.05932896211743355
3,4,128,39,0.548771858215332,0.12917716801166534
3,4,128,40,0.6900321841239929,0.09918399155139923
3,4,128,41,0.6878123879432678,0.24872761964797974
3,4,128,42,0.5663893222808838,0.07891860604286194
3,4,128,43,0.6744614243507385,0.20625270903110504
3,4,128,44,0.6491817235946655,0.2267763465642929
3,4,128,45,0.5973853468894958,0.1163962334394455
3,4,128,46,0.6369604468345642,0.18972274661064148
3,4,128,47,0.7302374839782715,0.13037699460983276
3,4,128,48,0.5150225162506104,0.2047746479511261
3,4,128,49,0.6252180933952332,0.1273730993270874
3,4,128,50,0.5371605157852173,0.1149534285068512
3,4,128,51,0.7036573886871338,0.13435140252113342
3,4,128,52,0.44677314162254333,0.3211139142513275
3,4,128,53,0.6263463497161865,0.3089953660964966
3,4,128,54,0.6551874876022339,0.14374184608459473
3,4,128,55,0.3664899468421936,0.21263229846954346
3,4,128,56,0.7007277011871338,0.15259264409542084
3,4,128,57,0.5823763012886047,0.2156924307346344
3,4,128,58,0.7025066018104553,0.16173377633094788
3,4,128,59,0.5620143413543701,0.23895667493343353
3,4,128,60,0.44150838255882263,0.08988754451274872
3,4,128,61,0.5292896032333374,0.24514316022396088
3,4,128,62,0.5580323338508606,0.15164467692375183
3,4,128,63,0.6619018912315369,0.19008199870586395
3,4,128,64,0.6145609617233276,0.19805920124053955
3,4,128,65,0.47522929310798645,0.060139354318380356
3,4,128,66,0.6584884524345398,0.26586002111434937
3,4,128,67,0.679481565952301,0.2236987054347992
3,4,128,68,0.49616381525993347,0.07138478755950928
3,4,128,69,0.7302024364471436,0.12459151446819305
3,4,128,70,0.48261526226997375,0.19699330627918243
3,4,128,71,0.3970801830291748,0.27363207936286926
3,4,128,72,0.5329211354255676,0.11450815200805664
3,4,128,73,0.5548586845397949,0.07025609910488129
3,4,128,74,0.5794805884361267,0.1763024628162384
3,4,128,75,0.6129491925239563,0.10574725270271301
3,4,128,76,0.637333869934082,0.12056948989629745
3,4,128,77,0.6203775405883789,0.23187576234340668
3,4,128,78,0.7019860744476318,0.15571331977844238
3,4,128,79,0.7558409571647644,0.0973786786198616
3,4,128,80,0.6018626689910889,0.11230947822332382
3,4,128,81,0.4835522472858429,0.23107518255710602
3,4,128,82,0.5343107581138611,0.050873711705207825
3,4,128,83,0.5150657296180725,0.06423448026180267
3,4,128,84,0.64146888256073,0.1319074034690857
3,4,128,85,0.4256526231765747,0.23375222086906433
3,4,128,86,0.437709778547287,0.16389654576778412
3,4,128,87,0.5507024526596069,0.07102374732494354
3,4,128,88,0.5975508689880371,0.15252064168453217
3,4,128,89,0.46545645594596863,0.09358961135149002
3,4,128,90,0.27319568395614624,0.11419732868671417
3,4,128,91,0.6257721781730652,0.28221067786216736
3,4,128,92,0.6113516688346863,0.26562097668647766
3,4,128,93,0.6543429493904114,0.1904250979423523
3,4,128,94,0.6239292621612549,0.11150328814983368
3,4,128,95,0.5877873301506042,0.11123901605606079
3,4,128,96,0.4610527753829956,0.10427141934633255
3,4,128,97,0.7630565762519836,0.12305711209774017
3,4,128,98,0.6764923930168152,0.22299641370773315
3,4,128,99,0.5938298106193542,0.26146453619003296
3,4,128,100,0.4454362690448761,0.16165581345558167
3,4,128,101,0.6726457476615906,0.2356499284505844
3,4,128,102,0.5645346641540527,0.16352532804012299
3,4,128,103,0.41393721103668213,0.23841753602027893
3,4,128,104,0.4663809835910797,0.25946953892707825
3,4,128,105,0.556723415851593,0.1582501381635666
3,4,128,106,0.6288161277770996,0.16111673414707184
3,4,128,107,0.6704320311546326,0.10408639162778854
3,4,128,108,0.5724244713783264,0.12415912002325058
3,4,128,109,0.5692097544670105,0.14198972284793854
3,4,128,110,0.6814292073249817,0.10761689394712448
3,4,128,111,0.5093493461608887,0.23918259143829346
3,4,128,112,0.6193008422851562,0.17703254520893097
3,4,128,113,0.5147367715835571,0.14282500743865967
3,4,128,114,0.6344110369682312,0.06651376932859421
3,4,128,115,0.5879334807395935,0.2723974883556366
3,4,128,116,0.6134586930274963,0.27321091294288635
3,4,128,117,0.31993812322616577,0.19384118914604187
3,4,128,118,0.6543130278587341,0.2536165118217468
3,4,128,119,0.6711915135383606,0.2662980258464813
3,4,128,120,0.6043049097061157,0.2698485851287842
3,4,128,121,0.7167910933494568,0.1231917291879654
3,4,128,122,0.5856162309646606,0.12392037361860275
3,4,128,123,0.6489479541778564,0.30088531970977783
3,4,128,124,0.6538069248199463,0.12612807750701904
3,4,128,125,0.3667636811733246,0.10469486564397812
3,4,128,126,0.5808103680610657,0.2398490160703659
3,4,128,127,0.6721659302711487,0.17981931567192078
3,5,128,0,0.35763928294181824,0.19690485298633575
3,5,128,1,0.7641118168830872,0.11236973106861115
3,5,128,2,0.5729113221168518,0.24301902949810028
3,5,128,3,0.7923365235328674,0.11954590678215027
3,5,128,4,0.5868234634399414,0.0708182081580162
3,5,128,5,0.8001829981803894,0.20564210414886475
3,5,128,6,0.7341061234474182,0.1242440938949585
3,5,128,7,0.8071892261505127,0.1095704734325409
3,5,128,8,0.768168032169342,0.15512411296367645
3,5,128,9,0.6836718916893005,0.17048317193984985
3,5,128,10,0.6160871982574463,0.08724825829267502
3,5,128,11,0.7581983804702759,0.13768869638442993
3,5,128,12,0.8465073704719543,0.1007922813296318
3,5,128,13,0.8641482591629028,0.09344393759965897
3,5,128,14,0.4611905813217163,0.2726423740386963
3,5,128,15,0.8508515954017639,0.09078861773014069
3,5,128,16,0.436832070350647,0.3044124245643616
3,5,128,17,0.6849474310874939,0.2991234064102173
3,5,128,18,0.7677851915359497,0.17449621856212616
3,5,128,19,0.6943941712379456,0.09825531393289566
3,5,128,20,0.8727852702140808,0.11044415086507797
3,5,128,21,0.7763819098472595,0.16043736040592194
3,5,128,22,0.8357846736907959,0.12966448068618774
3,5,128,23,0.8302234411239624,0.14644072949886322
3,5,128,24,0.39708757400512695,0.1858854740858078
3,5,128,25,0.7033510804176331,0.28611820936203003
3,5,128,26,0.8230445384979248,0.14785927534103394
3,5,128,27,0.8539068698883057,0.10939609259366989
3,5,128,28,0.6665056943893433,0.32672053575515747
3,5,128,29,0.7455711364746094,0.10309962928295135
3,5,128,30,0.801175594329834,0.12517234683036804
3,5,128,31,0.6122740507125854,0.2926929295063019
3,5,128,32,0.7406390309333801,0.18005146086215973
3,5,128,33,0.7751442193984985,0.1891714334487915
3,5,128,34,0.741685152053833,0.07122183591127396
3,5,128,35,0.6962044835090637,0.11894246190786362
3,5,128,36,0.7859785556793213,0.16563744843006134
3,5,128,37,0.8329634070396423,0.1467750370502472
3,5,128,38,0.5255494117736816,0.22059953212738037
3,5,128,39,0.6609355807304382,0.12754063308238983
3,5,128,40,0.694227397441864,0.2734299898147583
3,5,128,41,0.8783150911331177,0.0883823037147522
3,5,128,42,0.7972553372383118,0.11853760480880737
3,5,128,43,0.7894546985626221,0.11504021286964417
3,5,128,44,0.7574605345726013,0.18758872151374817
3,5,128,45,0.4754316508769989,0.21715794503688812
3,5,128,46,0.8034992218017578,0.13530132174491882
3,5,128,47,0.8291357755661011,0.13517503440380096
3,5,128,48,0.6700937747955322,0.10743674635887146
3,5,128,49,0.33498817682266235,0.265321284532547
3,5,128,50,0.4071520268917084,0.2400231510400772
3,5,128,51,0.8494380116462708,0.10212689638137817
3,5,128,52,0.5390217900276184,0.13865306973457336
3,5,128,53,0.7943257093429565,0.1012924462556839
3,5,128,54,0.8097557425498962,0.1553066223859787
3,5,128,55,0.7046254277229309,0.2327735871076584
3,5,128,56,0.5607717037200928,0.14521649479866028
3,5,128,57,0.2694944739341736,0.10546364635229111
3,5,128,58,0.8562657237052917,0.11829885095357895
3,5,128,59,0.8547869920730591,0.11093088984489441
3,5,128,60,0.7139654159545898,0.25179505348205566
3,5,128,61,0.6206431984901428,0.33214864134788513
3,5,128,62,0.80011385679245,0.10289891809225082
3,5,128,63,0.7235828638076782,0.2601361572742462
3,5,128,64,0.8046887516975403,0.1196713000535965
3,5,128,65,0.6624366641044617,0.14090052247047424
3,5,128,66,0.8986771106719971,0.09024184942245483
3,5,128,67,0.6457061171531677,0.22265371680259705
3,5,128,68,0.8407063484191895,0.1214606910943985
3,5,128,69,0.6515972018241882,0.27066636085510254
3,5,128,70,0.40790557861328125,0.16402417421340942
3,5,128,71,0.5510980486869812,0.12839774787425995
3,5,128,72,0.7971866130828857,0.0947314202785492
3,5,128,73,0.7220963835716248,0.26918116211891174
3,5,128,74,0.3419088125228882,0.2765183746814728
3,5,128,75,0.7445776462554932,0.2476361095905304
3,5,128,76,0.8408139944076538,0.1503632515668869
3,5,128,77,0.65990149974823,0.26361608505249023
3,5,128,78,0.8438193798065186,0.08592794835567474
3,5,128,79,0.5447515249252319,0.14920209348201752
3,5,128,80,0.7202418446540833,0.20249390602111816
3,5,128,81,0.8481202721595764,0.10779449343681335
3,5,128,82,0.6948865652084351,0.20328481495380402
3,5,128,83,0.7731658220291138,0.10779928416013718
3,5,128,84,0.6147875785827637,0.17928431928157806
3,5,128,85,0.6718555092811584,0.19761881232261658
3,5,128,86,0.8076178431510925,0.09724569320678711
3,5,128,87,0.59394770860672,0.11748016625642776
3,5,128,88,0.8187229633331299,0.12217577546834946
3,5,128,89,0.8867404460906982,0.0931786447763443
3,5,128,90,0.7162135243415833,0.26846036314964294
3,5,128,91,0.8013073205947876,0.15775400400161743
3,5,128,92,0.7242913842201233,0.2247474044561386
3,5,128,93,0.7658110857009888,0.17887639999389648
3,5,128,94,0.6138141751289368,0.10804856568574905
3,5,128,95,0.7034379839897156,0.09499471634626389
3,5,128,96,0.6493024826049805,0.08083745837211609
3,5,128,97,0.7996384501457214,0.22532014548778534
3,5,128,98,0.8096638917922974,0.08385715633630753
3,5,128,99,0.7671599388122559,0.13296742737293243
3,5,128,100,0.8466823697090149,0.09790924191474915
3,5,128,101,0.6557549238204956,0.1266954094171524
3,5,128,102,0.7275603413581848,0.11180759966373444
3,5,128,103,0.8049349188804626,0.10651271790266037
3,5,128,104,0.7476751208305359,0.24707630276679993
3,5,128,105,0.4957486689090729,0.24045218527317047
3,5,128,106,0.5634436011314392,0.1793685108423233
3,5,128,107,0.8420793414115906,0.12373915314674377
3,5,128,108,0.8227918148040771,0.15831591188907623
3,5,128,109,0.8487661480903625,0.1114969551563263
3,5,128,110,0.3075573444366455,0.2544132471084595
3,5,128,111,0.6716327667236328,0.19334934651851654
3,5,128,112,0.5773881673812866,0.07843243330717087
3,5,128,113,0.47152554988861084,0.2614624500274658
3,5,128,114,0.7138907313346863,0.13819369673728943
3,5,128,115,0.7778815031051636,0.17207500338554382
3,5,128,116,0.7599157094955444,0.16681808233261108
3,5,128,117,0.7305474877357483,0.15404821932315826
3,5,128,118,0.7804741859436035,0.07707194238901138
3,5,128,119,0.7419601082801819,0.2528340220451355
3,5,128,120,0.8905961513519287,0.0863213986158371
3,5,128,121,0.5651917457580566,0.13321718573570251
3,5,128,122,0.8644750118255615,0.09343799948692322
3,5,128,123,0.8575322031974792,0.1313014179468155
3,5,128,124,0.6835470199584961,0.06716647744178772
3,5,128,125,0.7048525810241699,0.2529510259628296
3,5,128,126,0.5865506529808044,0.14979346096515656
3,5,128,127,0.7345277070999146,0.1219269260764122
4,0,32,0,0.52852463722229,0.06536004692316055
4,0,32,1,0.4535018503665924,0.031491972506046295
4,0,32,2,0.5330823659896851,0.03566480055451393
4,0,32,3,0.3486924469470978,0.09972956776618958
4,0,32,4,0.3054530918598175,0.08095422387123108
4,0,32,5,0.3508385717868805,0.10029858350753784
4,0,32,6,0.40795615315437317,0.054951973259449005
4,0,32,7,0.5243721008300781,0.20472389459609985
4,0,32,8,0.5705639123916626,0.007396147586405277
4,0,32,9,0.5933078527450562,0.07492624223232269
4,0,32,10,0.45671284198760986,0.04745597019791603
4,0,32,11,0.6065905094146729,0.052307650446891785
4,0,32,12,0.595870316028595,0.03271425887942314
4,0,32,13,0.5096614956855774,0.10486236959695816
4,0,32,14,0.47475796937942505,0.04152318462729454
4,0,32,15,0.4339262545108795,0.07757925242185593
4,0,32,16,0.40031179785728455,0.08889898657798767
4,0,32,17,0.49302348494529724,0.0744791030883789
4,0,32,18,0.43577897548675537,0.13102395832538605
4,0,32,19,0.3351665139198303,0.09011666476726532
4,0,32,20,0.4514316916465759,0.0585394985973835
4,0,32,21,0.48874494433403015,0.10536141693592072
4,0,32,22,0.4128536283969879,0.07399400323629379
4,0,32,23,0.5553231239318848,0.08851438760757446
4,0,32,24,0.627665102481842,0.05230795219540596
4,0,32,25,0.5717596411705017,0.13719092309474945
4,0,32,26,0.4310075640678406,0.07102355360984802
4,0,32,27,0.4119199216365814,0.04353182762861252
4,0,32,28,0.6119522452354431,0.06405200809240341
4,0,32,29,0.5133178234100342,0.04747551307082176
4,0,32,30,0.3251979947090149,0.09572762995958328
4,0,32,31,0.4092382490634918,0.07751094549894333
4,1,32,0,0.4366433918476105,0.1132635548710823
4,1,32,1,0.49815627932548523,0.04446936398744583
4,1,32,2,0.48640820384025574,0.11851669102907181
4,1,32,3,0.5243451595306396,0.07941512763500214
4,1,32,4,0.5898608565330505,0.14453423023223877
4,1,32,5,0.3456183671951294,0.06823782622814178
4,1,32,6,0.5865117907524109,0.055549364537000656
4,1,32,7,0.5952107906341553,0.13386216759681702
4,1,32,8,0.632461428642273,0.08023928850889206
4,1,32,9,0.46287405490875244,0.07207747548818588
4,1,32,10,0.48809534311294556,0.0796658843755722
4,1,32,11,0.6763624548912048,0.14305506646633148
4,1,32,12,0.4033874571323395,0.06137141212821007
4,1,32,13,0.5847887992858887,0.13664184510707855
4,1,32,14,0.46416211128234863,0.07877146452665329
4,1,32,15,0.6865535378456116,0.11529364436864853
4,1,32,16,0.46477651596069336,0.04677606746554375
4,1,32,17,0.42342299222946167,0.053035836666822433
4,1,32,18,0.4521213173866272,0.14320684969425201
4,1,32,19,0.40146100521087646,0.17769645154476166
4,1,32,20,0.6988797783851624,0.06779459863901138
4,1,32,21,0.6114791035652161,0.05967159941792488
4,1,32,22,0.3570098280906677,0.048008132725954056
4,1,32,23,0.5642217993736267,0.08307074010372162
4,1,32,24,0.4132804274559021,0.07167854905128479
4,1,32,25,0.5370274186134338,0.07731645554304123
4,1,32,26,0.4288474917411804,0.06751630455255508
4,1,32,27,0.5533661246299744,0.07954125851392746
4,1,32,28,0.47527340054512024,0.06891334801912308
4,1,32,29,0.600324809551239,0.10245278477668762
4,1,32,30,0.3832869529724121,0.05286243557929993
4,1,32,31,0.5884068012237549,0.05584096536040306
4,2,64,0,0.5027174353599548,0.1338222473859787
4,2,64,1,0.3908657431602478,0.165681391954422
4,2,64,2,0.412736177444458,0.18752413988113403
4,2,64,3,0.5231647491455078,0.21104761958122253
4,2,64,4,0.528956413269043,0.088846355676651
4,2,64,5,0.613651692867279,0.18558068573474884
4,2,64,6,0.5021365880966187,0.10212260484695435
4,2,64,7,0.2760079503059387,0.16334013640880585
4,2,64,8,0.634087860584259,0.19903451204299927
4,2,64,9,0.38470304012298584,0.08425075560808182
4,2,64,10,0.5545591711997986,0.22493818402290344
4,2,64,11,0.24395082890987396,0.10844041407108307
4,2,64,12,0.5341100096702576,0.13120137155056
4,2,64,13,0.25795936584472656,0.1290958672761917
4,2,64,14,0.610899031162262,0.16245391964912415
4,2,64,15,0.4825505316257477,0.07329712063074112
4,2,64,16,0.4778641164302826,0.13225285708904266
4,2,64,17,0.3589886426925659,0.1908876746892929
4,2,64,18,0.48761051893234253,0.15457838773727417
4,2,64,19,0.4788759648799896,0.1423892378807068
4,2,64,20,0.5144673585891724,0.19287227094173431
4,2,64,21,0.5462636351585388,0.1051805168390274
4,2,64,22,0.6247867345809937,0.15099412202835083
4,2,64,23,0.6017338633537292,0.169804185628891
4,2,64,24,0.321647584438324,0.08317287266254425
4,2,64,25,0.4762404263019562,0.058761823922395706
4,2,64,26,0.6013057827949524,0.09828121215105057
4,2,64,27,0.500336766242981,0.13561062514781952
4,2,64,28,0.41212794184684753,0.1837695688009262
4,2,64,29,0.27810487151145935,0.14593474566936493
4,2,64,30,0.523279070854187,0.20907174050807953
4,2,64,31,0.6029699444770813,0.17009411752223969
4,2,64,32,0.5784950256347656,0.15597394108772278
4,2,64,33,0.45887503027915955,0.2096066027879715
4,2,64,34,0.48805204033851624,0.11996643990278244
4,2,64,35,0.554758608341217,0.12096994370222092
4,2,64,36,0.5413565635681152,0.2222682237625122
4,2,64,37,0.5476861596107483,0.19673781096935272
4,2,64,38,0.38022124767303467,0.18457548320293427
4,2,64,39,0.3861955404281616,0.1965683251619339
4,2,64,40,0.3977486789226532,0.14680154621601105
4,2,64,41,0.446573942899704,0.09217911958694458
4,2,64,42,0.6736767888069153,0.12418616563081741
4,2,64,43,0.4771316945552826,0.08833315223455429
4,2,64,44,0.6041854619979858,0.1533869057893753
4,2,64,45,0.5039564371109009,0.2117648869752884
4,2,64,46,0.5051848888397217,0.237628772854805
4,2,64,47,0.45129501819610596,0.17766158282756805
4,2,64,48,0.575885534286499,0.17352525889873505
4,2,64,49,0.5236322283744812,0.10391198098659515
4,2,64,50,0.6346725225448608,0.13342206180095673
4,2,64,51,0.530038595199585,0.18972057104110718
4,2,64,52,0.4474232792854309,0.19954602420330048
4,2,64,53,0.3519821763038635,0.14645026624202728
4,2,64,54,0.7443703413009644,0.14446471631526947
4,2,64,55,0.48322823643684387,0.16015486419200897
4,2,64,56,0.49820005893707275,0.1198888048529625
4,2,64,57,0.4993656575679779,0.16891439259052277
4,2,64,58,0.4972863495349884,0.11417394131422043
4,2,64,59,0.6136066317558289,0.19819267094135284
4,2,64,60,0.4438929259777069,0.17241226136684418
4,2,64,61,0.4901469945907593,0.10220934450626373
4,2,64,62,0.44825485348701477,0.10513583570718765
4,2,64,63,0.4107452630996704,0.16948676109313965
4,3,64,0,0.4939187169075012,0.10060855001211166
4,3,64,1,0.7232230305671692,0.1980433613061905
4,3,64,2,0.7422409057617188,0.18459564447402954
4,3,64,3,0.5203092098236084,0.08300631493330002
4,3,64,4,0.33931005001068115,0.09174346923828125
4,3,64,5,0.64288330078125,0.2326398491859436
4,3,64,6,0.23715245723724365,0.10491394996643066
4,3,64,7,0.184410959482193,0.10868608206510544
4,3,64,8,0.6858053803443909,0.06907108426094055
4,3,64,9,0.3713114559650421,0.3477897644042969
4,3,64,10,0.5861320495605469,0.05751965567469597
4,3,64,11,0.5785823464393616,0.38309451937675476
4,3,64,12,0.6539357304573059,0.24106402695178986
4,3,64,13,0.46289166808128357,0.10579140484333038
4,3,64,14,0.6233246326446533,0.13794510066509247
4,3,64,15,0.6822429895401001,0.1784278154373169
4,3,64,16,0.5815044641494751,0.20406216382980347
4,3,64,17,0.6173622608184814,0.2268005609512329
4,3,64,18,0.64527827501297,0.348463773727417
4,3,64,19,0.36723172664642334,0.3167516589164734
4,3,64,20,0.4025300145149231,0.28981977701187134
4,3,64,21,0.4188145697116852,0.05595093593001366
4,3,64,22,0.5468955039978027,0.14125892519950867
4,3,64,23,0.6327542662620544,0.14439824223518372
4,3,64,24,0.6466007828712463,0.2968057692050934
4,3,64,25,0.6381828188896179,0.21997062861919403
4,3,64,26,0.639440655708313,0.09044984728097916
4,3,64,27,0.7895322442054749,0.0997430831193924
4,3,64,28,0.590319037437439,0.14605237543582916
4,3,64,29,0.6335797905921936,0.304928183555603
4,3,64,30,0.16843262314796448,0.16614285111427307
4,3,64,31,0.5892107486724854,0.15765716135501862
4,3,64,32,0.5575504302978516,0.337014377117157
4,3,64,33,0.5684070587158203,0.2559314966201782
4,3,64,34,0.527994692325592,0.32480525970458984
4,3,64,35,0.5893006324768066,0.21509294211864471
4,3,64,36,0.7492228150367737,0.09235097467899323
4,3,64,37,0.6407104134559631,0.08545304834842682
4,3,64,38,0.44381099939346313,0.19256874918937683
4,3,64,39,0.535736620426178,0.11949608474969864
4,3,64,40,0.6211774349212646,0.34733909368515015
4,3,64,41,0.6386140584945679,0.10932612419128418
4,3,64,42,0.3251841068267822,0.1480991542339325
4,3,64,43,0.5522494316101074,0.20035824179649353
4,3,64,44,0.5737561583518982,0.2742180824279785
4,3,64,45,0.5496883988380432,0.03266536071896553
4,3,64,46,0.6580626964569092,0.057215720415115356
4,3,64,47,0.3743652105331421,0.10795989632606506
4,3,64,48,0.4915441572666168,0.15562188625335693
4,3,64,49,0.32898813486099243,0.1867048293352127
4,3,64,50,0.5969866514205933,0.2419167011976242
4,3,64,51,0.32307037711143494,0.10878681391477585
4,3,64,52,0.3700487017631531,0.12981188297271729
4,3,64,53,0.4973835051059723,0.24863247573375702
4,3,64,54,0.2725490629673004,0.2501828074455261
4,3,64,55,0.3774184286594391,0.10661160200834274
4,3,64,56,0.4951464533805847,0.2536619007587433
4,3,64,57,0.4462338984012604,0.13431310653686523
4,3,64,58,0.6150597333908081,0.3195383548736572
4,3,64,59,0.6428355574607849,0.14361858367919922
4,3,64,60,0.6611027717590332,0.10309772938489914
4,3,64,61,0.2938571274280548,0.1689538210630417
4,3,64,62,0.5131613612174988,0.07740721106529236
4,3,64,63,0.6896796226501465,0.16864937543869019
4,4,128,0,0.4878365993499756,0.1882214993238449
4,4,128,1,0.38438764214515686,0.11019212752580643
4,4,128,2,0.30069586634635925,0.19469322264194489
4,4,128,3,0.4305833876132965,0.15797072649002075
4,4,128,4,0.6026639938354492,0.06437258422374725
4,4,128,5,0.6206356287002563,0.1464628428220749
4,4,128,6,0.5689972639083862,0.21678373217582703
4,4,128,7,0.6941496133804321,0.12690109014511108
4,4,128,8,0.40245094895362854,0.15479709208011627
4,4,128,9,0.39761027693748474,0.22942300140857697
4,4,128,10,0.6153299808502197,0.12180972099304199
4,4,128,11,0.7642130851745605,0.1425461620092392
4,4,128,12,0.7009287476539612,0.09919138997793198
4,4,128,13,0.45122963190078735,0.17162016034126282
4,4,128,14,0.7145034670829773,0.24477986991405487
4,4,128,15,0.7386996746063232,0.16329658031463623
4,4,128,16,0.47885772585868835,0.07438445836305618
4,4,128,17,0.6656337976455688,0.17212770879268646
4,4,128,18,0.5735272169113159,0.1037396490573883
4,4,128,19,0.6530032753944397,0.21827036142349243
4,4,128,20,0.46298646926879883,0.16232165694236755
4,4,128,21,0.5811038017272949,0.14489798247814178
4,4,128,22,0.43406447768211365,0.05589047074317932
4,4,128,23,0.7274624705314636,0.2123873084783554
4,4,128,24,0.514339804649353,0.2064208984375
4,4,128,25,0.572372555732727,0.20197802782058716
4,4,128,26,0.6700551509857178,0.22877134382724762
4,4,128,27,0.6597480773925781,0.26470673084259033
4,4,128,28,0.6749505996704102,0.23665638267993927
4,4,128,29,0.6461548805236816,0.1284385770559311
4,4,128,30,0.611177921295166,0.11637001484632492
4,4,128,31,0.6409305334091187,0.20644932985305786
4,4,128,32,0.24166016280651093,0.10768067836761475
4,4,128,33,0.3678799271583557,0.12522852420806885
4,4,128,34,0.7666463255882263,0.11522017419338226
4,4,128,35,0.7706283926963806,0.2592774033546448
4,4,128,36,0.5815535187721252,0.13762223720550537
4,4,128,37,0.696107029914856,0.2118060141801834
4,4,128,38,0.6390610337257385,0.2083437740802765
4,4,128,39,0.3951244354248047,0.14789122343063354
4,4,128,40,0.6649010181427002,0.14199021458625793
4,4,128,41,0.6794317960739136,0.23774942755699158
4,4,128,42,0.3928554058074951,0.11083969473838806
4,4,128,43,0.6645336747169495,0.21210992336273193
4,4,128,44,0.37743133306503296,0.28946787118911743
4,4,128,45,0.6461881399154663,0.20069649815559387
4,4,128,46,0.4499286413192749,0.21156620979309082
4,4,128,47,0.8069285750389099,0.09540048241615295
4,4,128,48,0.6334136128425598,0.15983378887176514
4,4,128,49,0.39419811964035034,0.11486412584781647
4,4,128,50,0.4294196665287018,0.1385067254304886
4,4,128,51,0.6065579056739807,0.20885884761810303
4,4,128,52,0.8002382516860962,0.15516816079616547
4,4,128,53,0.27295172214508057,0.10528132319450378
4,4,128,54,0.5754690170288086,0.10855136066675186
4,4,128,55,0.6469827890396118,0.12705253064632416
4,4,128,56,0.42184847593307495,0.08937039226293564
4,4,128,57,0.3575436770915985,0.20753301680088043
4,4,128,58,0.6694689989089966,0.15592390298843384
4,4,128,59,0.3567042052745819,0.19859710335731506
4,4,128,60,0.7077869176864624,0.2971014082431793
4,4,128,61,0.30698132514953613,0.10222215950489044
4,4,128,62,0.5781275033950806,0.23934757709503174
4,4,128,63,0.4786969721317291,0.20759157836437225
4,4,128,64,0.327002614736557,0.2760753035545349
4,4,128,65,0.6469969749450684,0.2689371705055237
4,4,128,66,0.6798444986343384,0.11501847207546234
4,4,128,67,0.39401814341545105,0.10801736265420914
4,4,128,68,0.6375299096107483,0.16959913074970245
4,4,128,69,0.7048940062522888,0.1108308658003807
4,4,128,70,0.593804657459259,0.10802513360977173
4,4,128,71,0.5822225213050842,0.216694638133049
4,4,128,72,0.5348840951919556,0.11393976211547852
4,4,128,73,0.626679539680481,0.11054802685976028
4,4,128,74,0.4524441063404083,0.10690859705209732
4,4,128,75,0.6322861313819885,0.16021990776062012
4,4,128,76,0.35024160146713257,0.232791930437088
4,4,128,77,0.40216556191444397,0.10620572417974472
4,4,128,78,0.6850268840789795,0.197510227560997
4,4,128,79,0.6856019496917725,0.12633199989795685
4,4,128,80,0.5486063361167908,0.20010621845722198
4,4,128,81,0.46024197340011597,0.09285452216863632
4,4,128,82,0.6049923300743103,0.21500378847122192
4,4,128,83,0.6537341475486755,0.1347869634628296
4,4,128,84,0.673499584197998,0.18146765232086182
4,4,128,85,0.6489399671554565,0.31425249576568604
4,4,128,86,0.6236749291419983,0.0971909612417221
4,4,128,87,0.5993133187294006,0.1734495759010315
4,4,128,88,0.48282119631767273,0.12441837042570114
4,4,128,89,0.6926193237304688,0.1780252754688263
4,4,128,90,0.2548561096191406,0.08664994686841965
4,4,128,91,0.6826197504997253,0.14464171230793
4,4,128,92,0.3544393479824066,0.23568205535411835
4,4,128,93,0.2812141180038452,0.24169443547725677
4,4,128,94,0.40279412269592285,0.17086786031723022
4,4,128,95,0.7262020111083984,0.10649069398641586
4,4,128,96,0.573386013507843,0.1797131896018982
4,4,128,97,0.7359522581100464,0.19953984022140503
4,4,128,98,0.690025806427002,0.2226792722940445
4,4,128,99,0.38936179876327515,0.1030888706445694
4,4,128,100,0.3339351713657379,0.2334776520729065
4,4,128,101,0.7697058916091919,0.09833882004022598
4,4,128,102,0.3727371394634247,0.16582311689853668
4,4,128,103,0.355950266122818,0.1400669813156128
4,4,128,104,0.4622650146484375,0.11191046983003616
4,4,128,105,0.800834596157074,0.10127504169940948
4,4,128,106,0.3633277118206024,0.25242894887924194
4,4,128,107,0.7055773735046387,0.19551818072795868
4,4,128,108,0.5775871872901917,0.15277132391929626
4,4,128,109,0.5658947229385376,0.20321394503116608
4,4,128,110,0.6533949375152588,0.23973076045513153
4,4,128,111,0.2958099842071533,0.2667349874973297
4,4,128,112,0.6720522046089172,0.15925228595733643
4,4,128,113,0.46797657012939453,0.1510566771030426
4,4,128,114,0.5175822973251343,0.10683457553386688
4,4,128,115,0.425744891166687,0.25798311829566956
4,4,128,116,0.6941388845443726,0.20782165229320526
4,4,128,117,0.6700700521469116,0.24325743317604065
4,4,128,118,0.3276573419570923,0.23813673853874207
4,4,128,119,0.42376670241355896,0.11393929272890091
4,4,128,120,0.5485209822654724,0.12568706274032593
4,4,128,121,0.6540246605873108,0.21114635467529297
4,4,128,122,0.7249531149864197,0.21789126098155975
4,4,128,123,0.6172882318496704,0.2289789468050003
4,4,128,124,0.6661880016326904,0.20093992352485657
4,4,128,125,0.5398061871528625,0.14575806260108948
4,4,128,126,0.4607812464237213,0.09647879749536514
4,4,128,127,0.7069786787033081,0.26038411259651184
4,5,128,0,0.6701423525810242,0.09353796392679214
4,5,128,1,0.6228902339935303,0.08314719796180725
4,5,128,2,0.6538121104240417,0.14086365699768066
4,5,128,3,0.33422791957855225,0.3482164144515991
4,5,128,4,0.7598388195037842,0.23118223249912262
4,5,128,5,0.7908738851547241,0.16479279100894928
4,5,128,6,0.7647899389266968,0.10566414892673492
4,5,128,7,0.8119447231292725,0.051815614104270935
4,5,128,8,0.621550440788269,0.28869548439979553
4,5,128,9,0.33901798725128174,0.23301400244235992
4,5,128,10,0.658222496509552,0.134309321641922
4,5,128,11,0.7112729549407959,0.24448959529399872
4,5,128,12,0.8480817675590515,0.1314663290977478
4,5,128,13,0.7734909653663635,0.16333672404289246
4,5,128,14,0.8940078020095825,0.08167146891355515
4,5,128,15,0.7700749635696411,0.12451005727052689
4,5,128,16,0.8470391035079956,0.10725067555904388
4,5,128,17,0.8313159942626953,0.12177947163581848
4,5,128,18,0.5847133994102478,0.33383792638778687
4,5,128,19,0.6490540504455566,0.12496054172515869
4,5,128,20,0.8320524096488953,0.13600237667560577
4,5,128,21,0.8595414161682129,0.07158344238996506
4,5,128,22,0.5691705346107483,0.09059900045394897
4,5,128,23,0.7879396677017212,0.19314351677894592
4,5,128,24,0.8480297327041626,0.10756126791238785
4,5,128,25,0.8044825792312622,0.11234571039676666
4,5,128,26,0.6881998777389526,0.26688602566719055
4,5,128,27,0.8744872808456421,0.06337359547615051
4,5,128,28,0.7882629632949829,0.21943312883377075
4,5,128,29,0.7559555768966675,0.07625510543584824
4,5,128,30,0.7055433988571167,0.24809671938419342
4,5,128,31,0.6285799145698547,0.2789119780063629
4,5,128,32,0.7942216396331787,0.08710085600614548
4,5,128,33,0.4007440507411957,0.1532161831855774
4,5,128,34,0.7645974159240723,0.09016383439302444
4,5,128,35,0.7965905070304871,0.21271724998950958
4,5,128,36,0.7367832660675049,0.1782219111919403
4,5,128,37,0.8743840456008911,0.06200641766190529
4,5,128,38,0.8562270998954773,0.07208661735057831
4,5,128,39,0.70917809009552,0.16212116181850433
4,5,128,40,0.7101632952690125,0.21146485209465027
4,5,128,41,0.8786876201629639,0.07385053485631943
4,5,128,42,0.8278161883354187,0.1078740656375885
4,5,128,43,0.7808102369308472,0.18325527012348175
4,5,128,44,0.7460249662399292,0.12476059794425964
4,5,128,45,0.8747221827507019,0.052982449531555176
4,5,128,46,0.7934380769729614,0.1636860966682434
4,5,128,47,0.7436707615852356,0.27274399995803833
4,5,128,48,0.6590601205825806,0.18339373171329498
4,5,128,49,0.6819248199462891,0.19207532703876495
4,5,128,50,0.7262625098228455,0.18817123770713806
4,5,128,51,0.6008465886116028,0.2645462453365326
4,5,128,52,0.8351021409034729,0.11514206975698471
4,5,128,53,0.860938310623169,0.12632738053798676
4,5,128,54,0.79903644323349,0.17811661958694458
4,5,128,55,0.7171002626419067,0.15633493661880493
4,5,128,56,0.5492385625839233,0.16090966761112213
4,5,128,57,0.6846657395362854,0.3246552348136902
4,5,128,58,0.8522979617118835,0.06858955323696136
4,5,128,59,0.8270047307014465,0.05800290405750275
4,5,128,60,0.8445537686347961,0.125820592045784
4,5,128,61,0.6787986755371094,0.2760924994945526
4,5,128,62,0.8168461918830872,0.07533112913370132
4,5,128,63,0.7133209705352783,0.14201144874095917
4,5,128,64,0.8537155389785767,0.08110115677118301
4,5,128,65,0.44776248931884766,0.3779522478580475
4,5,128,66,0.6394270062446594,0.22086617350578308
4,5,128,67,0.8182478547096252,0.06024786829948425
4,5,128,68,0.6872669458389282,0.08936265110969543
4,5,128,69,0.8075553774833679,0.10639405995607376
4,5,128,70,0.7160106301307678,0.12158258259296417
4,5,128,71,0.7069947719573975,0.23965942859649658
4,5,128,72,0.7092758417129517,0.2011640965938568
4,5,128,73,0.7705535888671875,0.16661356389522552
4,5,128,74,0.5699161291122437,0.27990567684173584
4,5,128,75,0.7950953841209412,0.11227184534072876
4,5,128,76,0.8236232399940491,0.1316867470741272
4,5,128,77,0.5555053949356079,0.28643089532852173
4,5,128,78,0.7866401076316833,0.11653834581375122
4,5,128,79,0.7173370718955994,0.13661034405231476
4,5,128,80,0.6621618270874023,0.2456885129213333
4,5,128,81,0.5903990268707275,0.09018845111131668
4,5,128,82,0.7794455885887146,0.17504899203777313
4,5,128,83,0.8155814409255981,0.13812722265720367
4,5,128,84,0.8281926512718201,0.14293400943279266
4,5,128,85,0.8239753246307373,0.16063188016414642
4,5,128,86,0.7820630669593811,0.08761975169181824
4,5,128,87,0.8045845627784729,0.14932186901569366
4,5,128,88,0.7978729605674744,0.08077169954776764
4,5,128,89,0.7213793992996216,0.09629872441291809
4,5,128,90,0.5926006436347961,0.09961597621440887
4,5,128,91,0.8548256158828735,0.0806618481874466
4,5,128,92,0.7039322257041931,0.17862462997436523
4,5,128,93,0.7949430346488953,0.1726427525281906
4,5,128,94,0.6432901620864868,0.18018026649951935
4,5,128,95,0.7226703763008118,0.18981993198394775
4,5,128,96,0.8211690783500671,0.08305347710847855
4,5,128,97,0.8570204973220825,0.07031860947608948
4,5,128,98,0.7585791349411011,0.20584209263324738
4,5,128,99,0.6810156106948853,0.10463332384824753
4,5,128,100,0.709328830242157,0.29950228333473206
4,5,128,101,0.8190647959709167,0.09562956541776657
4,5,128,102,0.7231655716896057,0.10636744648218155
4,5,128,103,0.8352932333946228,0.06360126286745071
4,5,128,104,0.825570821762085,0.07946375012397766
4,5,128,105,0.705491840839386,0.17997092008590698
4,5,128,106,0.5406421422958374,0.2887154221534729
4,5,128,107,0.7745486497879028,0.21241408586502075
4,5,128,108,0.8512577414512634,0.06407155841588974
4,5,128,109,0.654121458530426,0.17089025676250458
4,5,128,110,0.7651726603507996,0.17525766789913177
4,5,128,111,0.6719108819961548,0.27605366706848145
4,5,128,112,0.8652105331420898,0.10007736831903458
4,5,128,113,0.7473579049110413,0.09664749354124069
4,5,128,114,0.7687625288963318,0.2736753821372986
4,5,128,115,0.6371589303016663,0.12067048251628876
4,5,128,116,0.8254745602607727,0.09072337299585342
4,5,128,117,0.8088093400001526,0.1720738708972931
4,5,128,118,0.4892091155052185,0.28271961212158203
4,5,128,119,0.6332659125328064,0.3573874235153198
4,5,128,120,0.8385120630264282,0.07583470642566681
4,5,128,121,0.4171132445335388,0.3266303241252899
4,5,128,122,0.6098008155822754,0.19207996129989624
4,5,128,123,0.7072182297706604,0.2662714421749115
4,5,128,124,0.7859961986541748,0.2022872418165207
4,5,128,125,0.6082046627998352,0.13779595494270325
4,5,128,126,0.7275689244270325,0.07789716124534607
4,5,128,127,0.6159099340438843,0.20465590059757233
5,0,32,0,0.43434154987335205,0.11139007657766342
5,0,32,1,0.5045353174209595,0.11090035736560822
5,0,32,2,0.508287787437439,0.07600036263465881
5,0,32,3,0.5721143484115601,0.13238823413848877
5,0,32,4,0.3620004951953888,0.0558466911315918
5,0,32,5,0.5781040787696838,0.032706119120121
5,0,32,6,0.3109862208366394,0.12166011333465576
5,0,32,7,0.32626253366470337,0.11967255920171738
5,0,32,8,0.32036086916923523,0.11713048815727234
5,0,32,9,0.4050086438655853,0.11670762300491333
5,0,32,10,0.5226516127586365,0.11145074665546417
5,0,32,11,0.5386101603507996,0.02920319326221943
5,0,32,12,0.41934385895729065,0.1329123079776764
5,0,32,13,0.41801097989082336,0.09425238519906998
5,0,32,14,0.558081865310669,0.10121602565050125
5,0,32,15,0.49950310587882996,0.1485014706850052
5,0,32,16,0.5079688429832458,0.15797267854213715
5,0,32,17,0.42098236083984375,0.05177362263202667
5,0,32,18,0.4743185043334961,0.161532461643219
5,0,32,19,0.4098815619945526,0.10831699520349503
5,0,32,20,0.6292468309402466,0.05562598630785942
5,0,32,21,0.4780077338218689,0.0867295041680336
5,0,32,22,0.33734819293022156,0.11851230263710022
5,0,32,23,0.5219230651855469,0.09526429325342178
5,0,32,24,0.4923224449157715,0.16989172995090485
5,0,32,25,0.3851473927497864,0.08077364414930344
5,0,32,26,0.5621601939201355,0.090664342045784
5,0,32,27,0.39079275727272034,0.02852795273065567
5,0,32,28,0.5118489265441895,0.07835350930690765
5,0,32,29,0.5215848088264465,0.15995092689990997
5,0,32,30,0.568240761756897,0.17697341740131378
5,0,32,31,0.4549202024936676,0.09818413853645325
5,1,32,0,0.44841814041137695,0.16667437553405762
5,1,32,1,0.6301302313804626,0.11014371365308762
5,1,32,2,0.5359948873519897,0.1674204021692276
5,1,32,3,0.4220649302005768,0.04415375366806984
5,1,32,4,0.5241178274154663,0.07570726424455643
5,1,32,5,0.5462349653244019,0.1692606508731842
5,1,32,6,0.46505212783813477,0.1660342812538147
5,1,32,7,0.3445107042789459,0.14615263044834137
5,1,32,8,0.4961943030357361,0.14043594896793365
5,1,32,9,0.5837399959564209,0.0884530171751976
5,1,32,10,0.519765317440033,0.08870568871498108
5,1,32,11,0.5028310418128967,0.06691569834947586
5,1,32,12,0.4403870105743408,0.06732133030891418
5,1,32,13,0.4886419475078583,0.14058981835842133
5,1,32,14,0.5302911996841431,0.13421893119812012
5,1,32,15,0.5450997352600098,0.084775410592556
5,1,32,16,0.5953536033630371,0.1527615487575531
5,1,32,17,0.34697508811950684,0.12168259173631668
5,1,32,18,0.5511517524719238,0.07957856357097626
5,1,32,19,0.6362930536270142,0.10902721434831619
5,1,32,20,0.4930293560028076,0.14821480214595795
5,1,32,21,0.4967342019081116,0.1450849175453186
5,1,32,22,0.43275076150894165,0.09717302769422531
5,1,32,23,0.6055298447608948,0.13524192571640015
5,1,32,24,0.5042816400527954,0.09581702947616577
5,1,32,25,0.5217220783233643,0.015269914641976357
5,1,32,26,0.4823581576347351,0.10310106724500656
5,1,32,27,0.43724021315574646,0.18113219738006592
5,1,32,28,0.45239749550819397,0.09051895886659622
5,1,32,29,0.3350431025028229,0.08773151785135269
5,1,32,30,0.5794882774353027,0.11936482042074203
5,1,32,31,0.33438679575920105,0.12633801996707916
5,2,64,0,0.4485815763473511,0.1636660397052765
5,2,64,1,0.5260915160179138,0.12124266475439072
5,2,64,2,0.5274803638458252,0.2802763283252716
5,2,64,3,0.4163281321525574,0.10623210668563843
5,2,64,4,0.5449254512786865,0.1693217158317566
5,2,64,5,0.368940532207489,0.17520904541015625
5,2,64,6,0.5998621582984924,0.21497702598571777
5,2,64,7,0.6636590957641602,0.10944923758506775
5,2,64,8,0.5081679224967957,0.2875244617462158
5,2,64,9,0.39485853910446167,0.24162963032722473
5,2,64,10,0.49626708030700684,0.1774459034204483
5,2,64,11,0.644067645072937,0.20933859050273895
5,2,64,12,0.42543312907218933,0.19921402633190155
5,2,64,13,0.41257309913635254,0.17314180731773376
5,2,64,14,0.42138779163360596,0.2555791735649109
5,2,64,15,0.5507819056510925,0.04106403514742851
5,2,64,16,0.5403134822845459,0.18892545998096466
5,2,64,17,0.3343054950237274,0.1801120638847351
5,2,64,18,0.3287849724292755,0.12309250235557556
5,2,64,19,0.36708852648735046,0.16324442625045776
5,2,64,20,0.4953727126121521,0.1556268334388733
5,2,64,21,0.3836513161659241,0.17821410298347473
5,2,64,22,0.5569881200790405,0.24392694234848022
5,2,64,23,0.4481203854084015,0.1912234127521515
5,2,64,24,0.6362878680229187,0.13760000467300415
5,2,64,25,0.49501508474349976,0.21768298745155334
5,2,64,26,0.41581639647483826,0.1323566883802414
5,2,64,27,0.5158136487007141,0.17315903306007385
5,2,64,28,0.5945026874542236,0.1575872302055359
5,2,64,29,0.4952344298362732,0.09803082793951035
5,2,64,30,0.5260279178619385,0.19759386777877808
5,2,64,31,0.3685108423233032,0.12133032828569412
5,2,64,32,0.5850229263305664,0.13853824138641357
5,2,64,33,0.6767610907554626,0.13853266835212708
5,2,64,34,0.5017433166503906,0.2022034227848053
5,2,64,35,0.34614208340644836,0.0821223184466362
5,2,64,36,0.6233518123626709,0.303575336933136
5,2,64,37,0.6197936534881592,0.3107086718082428
5,2,64,38,0.4284439980983734,0.18335939943790436
5,2,64,39,0.48554596304893494,0.2201617956161499
5,2,64,40,0.35092446208000183,0.1469620019197464
5,2,64,41,0.40861064195632935,0.24791604280471802
5,2,64,42,0.5588353276252747,0.1716756969690323
5,2,64,43,0.49162939190864563,0.08509871363639832
5,2,64,44,0.4528864622116089,0.12687087059020996
5,2,64,45,0.4595238268375397,0.20406211912631989
5,2,64,46,0.6651394963264465,0.22751453518867493
5,2,64,47,0.3698213994503021,0.19090476632118225
5,2,64,48,0.5899144411087036,0.186410591006279
5,2,64,49,0.4544607400894165,0.2018864005804062
5,2,64,50,0.5209202170372009,0.2412278950214386
5,2,64,51,0.6454880237579346,0.1724015325307846
5,2,64,52,0.6429721117019653,0.12661123275756836
5,2,64,53,0.3117429316043854,0.1655392348766327
5,2,64,54,0.46912017464637756,0.11249908804893494
5,2,64,55,0.7222987413406372,0.11887166649103165
5,2,64,56,0.42677590250968933,0.16898322105407715
5,2,64,57,0.44225525856018066,0.1967155486345291
5,2,64,58,0.44584155082702637,0.15367449820041656
5,2,64,59,0.4093793034553528,0.03985115513205528
5,2,64,60,0.5236383676528931,0.11144062131643295
5,2,64,61,0.5217047929763794,0.16795998811721802
5,2,64,62,0.4266403019428253,0.16320687532424927
5,2,64,63,0.4264768660068512,0.18810045719146729
5,3,64,0,0.5259648561477661,0.23914507031440735
5,3,64,1,0.5303283929824829,0.12599804997444153
5,3,64,2,0.4782741069793701,0.20658588409423828
5,3,64,3,0.5683517456054688,0.10933484882116318
5,3,64,4,0.6904938220977783,0.11154662072658539
5,3,64,5,0.4452648162841797,0.1661810576915741
5,3,64,6,0.33954763412475586,0.0948818251490593
5,3,64,7,0.5002256631851196,0.12535670399665833
5,3,64,8,0.48063939809799194,0.12013175338506699
5,3,64,9,0.4697708189487457,0.1791199892759323
5,3,64,10,0.4452137053012848,0.10718601942062378
5,3,64,11,0.4872191250324249,0.10756658762693405
5,3,64,12,0.530323326587677,0.19291239976882935
5,3,64,13,0.5922688245773315,0.08411723375320435
5,3,64,14,0.5835478901863098,0.08583962917327881
5,3,64,15,0.5619180798530579,0.1870938390493393
5,3,64,16,0.48282214999198914,0.09596620500087738
5,3,64,17,0.5157943367958069,0.11603713035583496
5,3,64,18,0.5505355000495911,0.06206805631518364
5,3,64,19,0.3769013583660126,0.052695196121931076
5,3,64,20,0.600818395614624,0.12751483917236328
5,3,64,21,0.4775262176990509,0.3000887930393219
5,3,64,22,0.4333467185497284,0.12391860038042068
5,3,64,23,0.49317243695259094,0.17167526483535767
5,3,64,24,0.44114547967910767,0.10590127855539322
5,3,64,25,0.5706486105918884,0.10664267838001251
5,3,64,26,0.5376561284065247,0.15025699138641357
5,3,64,27,0.6515788435935974,0.13118129968643188
5,3,64,28,0.5027899742126465,0.16506099700927734
5,3,64,29,0.5828101634979248,0.06636378914117813
5,3,64,30,0.44322970509529114,0.18072642385959625
5,3,64,31,0.43136268854141235,0.11282256245613098
5,3,64,32,0.32646676898002625,0.14852814376354218
5,3,64,33,0.4419250190258026,0.13888531923294067
5,3,64,34,0.5653418302536011,0.20800307393074036
5,3,64,35,0.4778293967247009,0.12933115661144257
5,3,64,36,0.45444655418395996,0.04806387796998024
5,3,64,37,0.4304775595664978,0.16872775554656982
5,3,64,38,0.46271786093711853,0.21634291112422943
5,3,64,39,0.516364574432373,0.2017011195421219
5,3,64,40,0.6167659163475037,0.12812857329845428
5,3,64,41,0.5009464025497437,0.2790515124797821
5,3,64,42,0.5957062244415283,0.12176891416311264
5,3,64,43,0.553459107875824,0.09860017895698547
5,3,64,44,0.45555153489112854,0.11793405562639236
5,3,64,45,0.3953615128993988,0.13230332732200623
5,3,64,46,0.4144584536552429,0.15903836488723755
5,3,64,47,0.43976446986198425,0.19471733272075653
5,3,64,48,0.42915141582489014,0.17070379853248596
5,3,64,49,0.46308037638664246,0.1539199948310852
5,3,64,50,0.6011559367179871,0.1630907952785492
5,3,64,51,0.42568445205688477,0.15019923448562622
5,3,64,52,0.5077896118164062,0.11820322275161743
5,3,64,53,0.426809698343277,0.16748441755771637
5,3,64,54,0.5305051207542419,0.0908588096499443
5,3,64,55,0.4181322753429413,0.16501887142658234
5,3,64,56,0.286138653755188,0.11053939163684845
5,3,64,57,0.45418545603752136,0.16981609165668488
5,3,64,58,0.4603146016597748,0.1977812647819519
5,3,64,59,0.5052632689476013,0.12105327099561691
5,3,64,60,0.47091057896614075,0.0647573322057724
5,3,64,61,0.6883617043495178,0.08998972922563553
5,3,64,62,0.4582553207874298,0.14390134811401367
5,3,64,63,0.4054521322250366,0.15550638735294342
5,4,128,0,0.8368821740150452,0.09216594696044922
5,4,128,1,0.7297380566596985,0.12941694259643555
5,4,128,2,0.7161533236503601,0.2725600600242615
5,4,128,3,0.4470338225364685,0.07171066105365753
5,4,128,4,0.7024533748626709,0.11900931596755981
5,4,128,5,0.651685893535614,0.27128204703330994
5,4,128,6,0.7185110449790955,0.2553252577781677
5,4,128,7,0.7192184329032898,0.2599974572658539
5,4,128,8,0.6147157549858093,0.1528555452823639
5,4,128,9,0.7276881337165833,0.27688202261924744
5,4,128,10,0.32245156168937683,0.09484712034463882
5,4,128,11,0.6838286519050598,0.12872421741485596
5,4,128,12,0.6072210073471069,0.13644163310527802
5,4,128,13,0.4649409055709839,0.24069033563137054
5,4,128,14,0.6508466601371765,0.13768316805362701
5,4,128,15,0.3792024552822113,0.0947803407907486
5,4,128,16,0.6560246348381042,0.09144998341798782
5,4,128,17,0.5575109720230103,0.08018427342176437
5,4,128,18,0.4509650766849518,0.14216117560863495
5,4,128,19,0.5766721963882446,0.10785852372646332
5,4,128,20,0.5223197340965271,0.04459232836961746
5,4,128,21,0.6678655743598938,0.13965322077274323
5,4,128,22,0.575342059135437,0.06893806159496307
5,4,128,23,0.6744740605354309,0.23669858276844025
5,4,128,24,0.7291234135627747,0.22225987911224365
5,4,128,25,0.6996780633926392,0.20007219910621643
5,4,128,26,0.7214019894599915,0.2745925784111023
5,4,128,27,0.7378660440444946,0.10123106092214584
5,4,128,28,0.6822962164878845,0.28674015402793884
5,4,128,29,0.6382117867469788,0.22139500081539154
5,4,128,30,0.6049844026565552,0.10203732550144196
5,4,128,31,0.6297566294670105,0.09357387572526932
5,4,128,32,0.6894243955612183,0.27909842133522034
5,4,128,33,0.6856262683868408,0.28251412510871887
5,4,128,34,0.3335610330104828,0.0878312736749649
5,4,128,35,0.385416716337204,0.08394452929496765
5,4,128,36,0.46735459566116333,0.26037725806236267
5,4,128,37,0.6617786884307861,0.11643978208303452
5,4,128,38,0.6894693970680237,0.3058382570743561
5,4,128,39,0.581787645816803,0.11414390802383423
5,4,128,40,0.6086733937263489,0.24310338497161865
5,4,128,41,0.4712008833885193,0.15968544781208038
5,4,128,42,0.6428237557411194,0.19606061279773712
5,4,128,43,0.4919445514678955,0.08494703471660614
5,4,128,44,0.3828524947166443,0.25263023376464844
5,4,128,45,0.6718239784240723,0.2677779197692871
5,4,128,46,0.7486431002616882,0.10814648121595383
5,4,128,47,0.690041184425354,0.2747669517993927
5,4,128,48,0.6760810017585754,0.13961553573608398
5,4,128,49,0.660149335861206,0.11405453085899353
5,4,128,50,0.6632556915283203,0.14420968294143677
5,4,128,51,0.4392675757408142,0.14608104526996613
5,4,128,52,0.37589922547340393,0.23693570494651794
5,4,128,53,0.6187292337417603,0.11316067725419998
5,4,128,54,0.4244697690010071,0.2020505666732788
5,4,128,55,0.6349278688430786,0.16355092823505402
5,4,128,56,0.38520535826683044,0.1614813655614853
5,4,128,57,0.6313560009002686,0.2470102459192276
5,4,128,58,0.365005761384964,0.19365502893924713
5,4,128,59,0.5727218985557556,0.20296475291252136
5,4,128,60,0.3692089319229126,0.09596939384937286
5,4,128,61,0.3228430449962616,0.20273368060588837
5,4,128,62,0.5204223990440369,0.15513265132904053
5,4,128,63,0.789550244808197,0.1100875735282898
5,4,128,64,0.7196562886238098,0.20352059602737427
5,4,128,65,0.5252909064292908,0.12141256034374237
5,4,128,66,0.26992011070251465,0.1319492608308792
5,4,128,67,0.6805661916732788,0.24249058961868286
5,4,128,68,0.41357481479644775,0.09876345843076706
5,4,128,69,0.7268504500389099,0.1943834125995636
5,4,128,70,0.554796576499939,0.11398805677890778
5,4,128,71,0.3609400689601898,0.27828940749168396
5,4,128,72,0.622393012046814,0.1553778052330017
5,4,128,73,0.5456787943840027,0.18929001688957214
5,4,128,74,0.7815394997596741,0.09764377027750015
5,4,128,75,0.4542016088962555,0.08873653411865234
5,4,128,76,0.6819396018981934,0.09056401252746582
5,4,128,77,0.39640894532203674,0.11163885146379471
5,4,128,78,0.5881133675575256,0.21274471282958984
5,4,128,79,0.36678504943847656,0.23612530529499054
5,4,128,80,0.6122866868972778,0.1407831907272339
5,4,128,81,0.6889458894729614,0.1858920454978943
5,4,128,82,0.6552319526672363,0.09447886794805527
5,4,128,83,0.3985549211502075,0.23691092431545258
5,4,128,84,0.5518237352371216,0.060258109122514725
5,4,128,85,0.6194377541542053,0.0917840227484703
5,4,128,86,0.35978028178215027,0.22175955772399902
5,4,128,87,0.5824291706085205,0.07762834429740906
5,4,128,88,0.6961615681648254,0.27800843119621277
5,4,128,89,0.6622903943061829,0.10863965004682541
5,4,128,90,0.4407547414302826,0.2132357358932495
5,4,128,91,0.33734622597694397,0.10676522552967072
5,4,128,92,0.6093692183494568,0.263767808675766
5,4,128,93,0.7454789876937866,0.20451074838638306
5,4,128,94,0.4706886410713196,0.05571068823337555
5,4,128,95,0.6363993287086487,0.10158888250589371
5,4,128,96,0.6648876070976257,0.1736873835325241
5,4,128,97,0.756862998008728,0.2601337730884552
5,4,128,98,0.42415231466293335,0.27351418137550354
5,4,128,99,0.5478217601776123,0.14866575598716736
5,4,128,100,0.4918471872806549,0.10307137668132782
5,4,128,101,0.6834877729415894,0.18121378123760223
5,4,128,102,0.30126824975013733,0.06332994997501373
5,4,128,103,0.6831778287887573,0.07201366126537323
5,4,128,104,0.37688979506492615,0.23571407794952393
5,4,128,105,0.7238599061965942,0.1350574940443039
5,4,128,106,0.650654137134552,0.12737832963466644
5,4,128,107,0.6944811344146729,0.281406968832016
5,4,128,108,0.37385836243629456,0.28006795048713684
5,4,128,109,0.32440468668937683,0.21089404821395874
5,4,128,110,0.677271842956543,0.1730787754058838
5,4,128,111,0.40499308705329895,0.2228086143732071
5,4,128,112,0.7554447054862976,0.2871612310409546
5,4,128,113,0.48250463604927063,0.11041908711194992
5,4,128,114,0.7174213528633118,0.10757320374250412
5,4,128,115,0.6478500962257385,0.17197199165821075
5,4,128,116,0.7122706174850464,0.25897160172462463
5,4,128,117,0.6771097183227539,0.1473810374736786
5,4,128,118,0.3718177378177643,0.2954719662666321
5,4,128,119,0.34990084171295166,0.21046878397464752
5,4,128,120,0.45516830682754517,0.23753738403320312
5,4,128,121,0.6409876942634583,0.16104942560195923
5,4,128,122,0.39575186371803284,0.16653059422969818
5,4,128,123,0.7100664377212524,0.3069845736026764
5,4,128,124,0.4170789122581482,0.14783193171024323
5,4,128,125,0.6758202910423279,0.10341228544712067
5,4,128,126,0.456280380487442,0.16192106902599335
5,4,128,127,0.43436047434806824,0.2640950083732605
5,5,128,0,0.8326135873794556,0.09406569600105286
5,5,128,1,0.7192696332931519,0.06985107809305191
5,5,128,2,0.864938497543335,0.10551600903272629
5,5,128,3,0.3671112060546875,0.20236967504024506
5,5,128,4,0.7189305424690247,0.1401083767414093
5,5,128,5,0.804194986820221,0.06866083294153214
5,5,128,6,0.6689218878746033,0.12364476919174194
5,5,128,7,0.83710116147995,0.1718997359275818
5,5,128,8,0.7898098230361938,0.07884301245212555
5,5,128,9,0.8044499754905701,0.18779979646205902
5,5,128,10,0.35912972688674927,0.10021195560693741
5,5,128,11,0.783922553062439,0.2132425606250763
5,5,128,12,0.6818891763687134,0.09219817072153091
5,5,128,13,0.5919981002807617,0.0974525734782219
5,5,128,14,0.7212299704551697,0.24507425725460052
5,5,128,15,0.4612619876861572,0.24231351912021637
5,5,128,16,0.7114092111587524,0.2431500256061554
5,5,128,17,0.7227108478546143,0.19285848736763
5,5,128,18,0.46432000398635864,0.12886904180049896
5,5,128,19,0.8664007782936096,0.08935282379388809
5,5,128,20,0.36317867040634155,0.1296047419309616
5,5,128,21,0.7605884671211243,0.08430015295743942
5,5,128,22,0.39630135893821716,0.29763519763946533
5,5,128,23,0.7791386246681213,0.24911238253116608
5,5,128,24,0.8240711688995361,0.15628348290920258
5,5,128,25,0.816897988319397,0.08416226506233215
5,5,128,26,0.7981966733932495,0.17344138026237488
5,5,128,27,0.7758194208145142,0.12539498507976532
5,5,128,28,0.8703454732894897,0.09795025736093521
5,5,128,29,0.7938002943992615,0.14944960176944733
5,5,128,30,0.5351564884185791,0.14105980098247528
5,5,128,31,0.7085742950439453,0.19165284931659698
5,5,128,32,0.8415328860282898,0.12196863442659378
5,5,128,33,0.7670601606369019,0.25613775849342346
5,5,128,34,0.48161178827285767,0.13281024992465973
5,5,128,35,0.7280309796333313,0.27578672766685486
5,5,128,36,0.7673619985580444,0.15891319513320923
5,5,128,37,0.782237708568573,0.15043404698371887
5,5,128,38,0.8527912497520447,0.07364746183156967
5,5,128,39,0.8963634371757507,0.0813775360584259
5,5,128,40,0.6674414277076721,0.12042646110057831
5,5,128,41,0.7829757928848267,0.11578615754842758
5,5,128,42,0.6840037703514099,0.15622298419475555
5,5,128,43,0.6900990009307861,0.2806333899497986
5,5,128,44,0.767147958278656,0.10350010544061661
5,5,128,45,0.6636817455291748,0.24055500328540802
5,5,128,46,0.8023645281791687,0.13861103355884552
5,5,128,47,0.8291374444961548,0.12617599964141846
5,5,128,48,0.7796730995178223,0.14928363263607025
5,5,128,49,0.7091901302337646,0.09964382648468018
5,5,128,50,0.7622858285903931,0.1315467208623886
5,5,128,51,0.671582043170929,0.11444985866546631
5,5,128,52,0.783288300037384,0.13494732975959778
5,5,128,53,0.8457080125808716,0.0893498882651329
5,5,128,54,0.8591024279594421,0.08698782324790955
5,5,128,55,0.8081980347633362,0.1596953272819519
5,5,128,56,0.34836745262145996,0.22179947793483734
5,5,128,57,0.8210625052452087,0.09027217328548431
5,5,128,58,0.7148518562316895,0.2661037743091583
5,5,128,59,0.7211218476295471,0.22902733087539673
5,5,128,60,0.7669129371643066,0.07740594446659088
5,5,128,61,0.7500993013381958,0.23001274466514587
5,5,128,62,0.7635699510574341,0.09891999512910843
5,5,128,63,0.7883198857307434,0.11248933523893356
5,5,128,64,0.7970364093780518,0.11865532398223877
5,5,128,65,0.7335259318351746,0.2589183449745178
5,5,128,66,0.7169634699821472,0.12164866924285889
5,5,128,67,0.6844721436500549,0.21818840503692627
5,5,128,68,0.575171947479248,0.1442599594593048
5,5,128,69,0.5813117027282715,0.3837796747684479
5,5,128,70,0.7331348061561584,0.09798792004585266
5,5,128,71,0.4213769733905792,0.21472224593162537
5,5,128,72,0.8178707361221313,0.1501922756433487
5,5,128,73,0.3212226629257202,0.25035712122917175
5,5,128,74,0.7671481370925903,0.13277265429496765
5,5,128,75,0.538573682308197,0.13297830522060394
5,5,128,76,0.8244661688804626,0.11540022492408752
5,5,128,77,0.5075344443321228,0.1581299901008606
5,5,128,78,0.6827606558799744,0.12074072659015656
5,5,128,79,0.814541220664978,0.12104862928390503
5,5,128,80,0.44278764724731445,0.22782102227210999
5,5,128,81,0.7582693099975586,0.19089262187480927
5,5,128,82,0.7964566349983215,0.11125923693180084
5,5,128,83,0.7487307786941528,0.24570885300636292
5,5,128,84,0.6373942494392395,0.12770508229732513
5,5,128,85,0.8142236471176147,0.11877147108316422
5,5,128,86,0.827003002166748,0.07992052286863327
5,5,128,87,0.694176197052002,0.09561366587877274
5,5,128,88,0.7719249725341797,0.1242191419005394
5,5,128,89,0.8672369718551636,0.0833354964852333
5,5,128,90,0.4399726092815399,0.2187085598707199
5,5,128,91,0.3360951840877533,0.28547215461730957
5,5,128,92,0.781823992729187,0.16285353899002075
5,5,128,93,0.7000975608825684,0.16119590401649475
5,5,128,94,0.6754644513130188,0.25539112091064453
5,5,128,95,0.8144820928573608,0.18979258835315704
5,5,128,96,0.8241766691207886,0.13493458926677704
5,5,128,97,0.9092628955841064,0.07129804790019989
5,5,128,98,0.8570772409439087,0.11040301620960236
5,5,128,99,0.797521710395813,0.13287481665611267
5,5,128,100,0.7631042003631592,0.1750737428665161
5,5,128,101,0.6444098949432373,0.2634059190750122
5,5,128,102,0.3879850208759308,0.13581934571266174
5,5,128,103,0.7775413393974304,0.13470275700092316
5,5,128,104,0.4774557054042816,0.28801560401916504
5,5,128,105,0.7819302082061768,0.2247697412967682
5,5,128,106,0.7321808338165283,0.1642531007528305
5,5,128,107,0.6245603561401367,0.07588382810354233
5,5,128,108,0.6177518367767334,0.1701200008392334
5,5,128,109,0.7082766890525818,0.10309708118438721
5,5,128,110,0.6572242975234985,0.3024625778198242
5,5,128,111,0.5907585620880127,0.12489795684814453
5,5,128,112,0.2955043911933899,0.23190180957317352
5,5,128,113,0.8368285298347473,0.12510254979133606
5,5,128,114,0.7853021025657654,0.15176604688167572
5,5,128,115,0.768086850643158,0.09437277913093567
5,5,128,116,0.3540118634700775,0.3361288011074066
5,5,128,117,0.6668960452079773,0.11739448457956314
5,5,128,118,0.4008723497390747,0.3058444857597351
5,5,128,119,0.7382369637489319,0.2041579633951187
5,5,128,120,0.8475343585014343,0.0703967958688736
5,5,128,121,0.8440232872962952,0.08585383743047714
5,5,128,122,0.8089761734008789,0.08437132090330124
5,5,128,123,0.4094797372817993,0.30222123861312866
5,5,128,124,0.7497029900550842,0.27794477343559265
5,5,128,125,0.745289146900177,0.1300412267446518
5,5,128,126,0.8399974703788757,0.1380241960287094
5,5,128,127,0.43802303075790405,0.24365337193012238
6,0,32,0,0.5709267258644104,0.08682926744222641
6,0,32,1,0.47091197967529297,0.12528572976589203
6,0,32,2,0.48062965273857117,0.16858616471290588
6,0,32,3,0.5715400576591492,0.12291325628757477
6,0,32,4,0.5471847057342529,0.13433311879634857
6,0,32,5,0.4746935963630676,0.16305817663669586
6,0,32,6,0.4834240972995758,0.16151931881904602
6,0,32,7,0.5098188519477844,0.06054180487990379
6,0,32,8,0.4515535235404968,0.04185910522937775
6,0,32,9,0.6355052590370178,0.14166449010372162
6,0,32,10,0.5850552916526794,0.12334185838699341
6,0,32,11,0.6437498331069946,0.05277904123067856
6,0,32,12,0.3765895962715149,0.16883057355880737
6,0,32,13,0.49724987149238586,0.15294554829597473
6,0,32,14,0.33830028772354126,0.15644919872283936
6,0,32,15,0.41804441809654236,0.13504818081855774
6,0,32,16,0.4385535418987274,0.1819806694984436
6,0,32,17,0.576164722442627,0.035684820264577866
6,0,32,18,0.4625460207462311,0.05905410274863243
6,0,32,19,0.41016149520874023,0.08156497031450272
6,0,32,20,0.6784198880195618,0.08735769987106323
6,0,32,21,0.42741984128952026,0.12123198062181473
6,0,32,22,0.5027704834938049,0.10768352448940277
6,0,32,23,0.6821736097335815,0.06630679219961166
6,0,32,24,0.5146270394325256,0.10250858217477798
6,0,32,25,0.4236208200454712,0.114247627556324
6,0,32,26,0.43300843238830566,0.15806983411312103
6,0,32,27,0.38675665855407715,0.09896191209554672
6,0,32,28,0.27807286381721497,0.10717671364545822
6,0,32,29,0.4376918077468872,0.17430055141448975
6,0,32,30,0.3017522096633911,0.10007700324058533
6,0,32,31,0.288939893245697,0.10299993306398392
6,1,32,0,0.6497412919998169,0.14328455924987793
6,1,32,1,0.6119418144226074,0.12039434909820557
6,1,32,2,0.530303418636322,0.07324030995368958
6,1,32,3,0.5136573314666748,0.19674791395664215
6,1,32,4,0.4567432403564453,0.10714872926473618
6,1,32,5,0.39305341243743896,0.15605123341083527
6,1,32,6,0.27262601256370544,0.12509530782699585
6,1,32,7,0.495551198720932,0.1730670928955078
6,1,32,8,0.6440922021865845,0.14550670981407166
6,1,32,9,0.4983462989330292,0.04240301251411438
6,1,32,10,0.6281936764717102,0.08309951424598694
6,1,32,11,0.40814369916915894,0.19926594197750092
6,1,32,12,0.38440948724746704,0.15801052749156952
6,1,32,13,0.4448453187942505,0.18507356941699982
6,1,32,14,0.3004409372806549,0.1308002918958664
6,1,32,15,0.6476054191589355,0.11343539506196976
6,1,32,16,0.5889231562614441,0.03413090109825134
6,1,32,17,0.6196010112762451,0.11729428917169571
6,1,32,18,0.5454509854316711,0.10920915752649307
6,1,32,19,0.4781336486339569,0.1997392177581787
6,1,32,20,0.44794297218322754,0.22656390070915222
6,1,32,21,0.3721155524253845,0.10103597491979599
6,1,32,22,0.4320664405822754,0.2170552760362625
6,1,32,23,0.33247244358062744,0.11058329790830612
6,1,32,24,0.6448516249656677,0.13901980221271515
6,1,32,25,0.6863096356391907,0.10802849382162094
6,1,32,26,0.36802706122398376,0.17454048991203308
6,1,32,27,0.43921318650245667,0.15406937897205353
6,1,32,28,0.5438690781593323,0.12877614796161652
6,1,32,29,0.6762298941612244,0.10617972910404205
6,1,32,30,0.645255446434021,0.0896228700876236
6,1,32,31,0.2986638844013214,0.096586212515831
6,2,64,0,0.7426798939704895,0.23871564865112305
6,2,64,1,0.6453195214271545,0.22002632915973663
6,2,64,2,0.6997337937355042,0.20599551498889923
6,2,64,3,0.3420461416244507,0.18058207631111145
6,2,64,4,0.3648962080478668,0.2771279811859131
6,2,64,5,0.30517613887786865,0.08909371495246887
6,2,64,6,0.4372919201850891,0.04314015805721283
6,2,64,7,0.7011828422546387,0.2591533362865448
6,2,64,8,0.5922774076461792,0.14752918481826782
6,2,64,9,0.629137396812439,0.12605930864810944
6,2,64,10,0.7288057208061218,0.26474037766456604
6,2,64,11,0.5064896941184998,0.19590774178504944
6,2,64,12,0.6432770490646362,0.17771020531654358
6,2,64,13,0.4619388282299042,0.08956614136695862
6,2,64,14,0.7129241824150085,0.24396586418151855
6,2,64,15,0.4196866452693939,0.11221982538700104
6,2,64,16,0.4963715076446533,0.13884499669075012
6,2,64,17,0.21220631897449493,0.14125432074069977
6,2,64,18,0.3335548937320709,0.2683684229850769
6,2,64,19,0.5507547855377197,0.14734841883182526
6,2,64,20,0.4197089970111847,0.04205411300063133
6,2,64,21,0.2421281933784485,0.20103533565998077
6,2,64,22,0.3991338908672333,0.1561000943183899
6,2,64,23,0.39608660340309143,0.2385931760072708
6,2,64,24,0.3042522966861725,0.20752497017383575
6,2,64,25,0.7502559423446655,0.255862832069397
6,2,64,26,0.616178572177887,0.10810565203428268
6,2,64,27,0.6792222261428833,0.24615992605686188
6,2,64,28,0.3673478960990906,0.12448898702859879
6,2,64,29,0.5237894654273987,0.1282062977552414
6,2,64,30,0.6042964458465576,0.03983580321073532
6,2,64,31,0.6699022054672241,0.1200481504201889
6,2,64,32,0.43702787160873413,0.07458970695734024
6,2,64,33,0.42035508155822754,0.08269261568784714
6,2,64,34,0.36538514494895935,0.14545421302318573
6,2,64,35,0.37291592359542847,0.245782271027565
6,2,64,36,0.7705584764480591,0.12617355585098267
6,2,64,37,0.6042048335075378,0.1417413353919983
6,2,64,38,0.2726506292819977,0.18659581243991852
6,2,64,39,0.8167780041694641,0.1541658639907837
6,2,64,40,0.6584503054618835,0.16115465760231018
6,2,64,41,0.2792879641056061,0.20615941286087036
6,2,64,42,0.5824531316757202,0.14442522823810577
6,2,64,43,0.23048926889896393,0.1098003014922142
6,2,64,44,0.36896857619285583,0.24543796479701996
6,2,64,45,0.4163346290588379,0.12485860288143158
6,2,64,46,0.6200757622718811,0.12309979647397995
6,2,64,47,0.3559527099132538,0.1272425651550293
6,2,64,48,0.43036454916000366,0.23447732627391815
6,2,64,49,0.6289352774620056,0.27347755432128906
6,2,64,50,0.31489530205726624,0.25942662358283997
6,2,64,51,0.5808091163635254,0.15743418037891388
6,2,64,52,0.39716726541519165,0.17897072434425354
6,2,64,53,0.6981261372566223,0.19809043407440186
6,2,64,54,0.7248430848121643,0.09460325539112091
6,2,64,55,0.7613604664802551,0.199164018034935
6,2,64,56,0.36964473128318787,0.09893910586833954
6,2,64,57,0.5463150143623352,0.09393240511417389
6,2,64,58,0.7384992837905884,0.19656871259212494
6,2,64,59,0.4473836123943329,0.04637617990374565
6,2,64,60,0.3174149692058563,0.10852658003568649
6,2,64,61,0.3637092411518097,0.3156552314758301
6,2,64,62,0.6700505614280701,0.28486332297325134
6,2,64,63,0.7205083966255188,0.16776350140571594
6,3,64,0,0.617017924785614,0.2277333289384842
6,3,64,1,0.40404900908470154,0.1400887817144394
6,3,64,2,0.47608205676078796,0.20451845228672028
6,3,64,3,0.490546315908432,0.23227764666080475
6,3,64,4,0.5969341397285461,0.12878447771072388
6,3,64,5,0.6164546608924866,0.08062207698822021
6,3,64,6,0.6235111355781555,0.28206396102905273
6,3,64,7,0.8124518394470215,0.11077717691659927
6,3,64,8,0.3905169367790222,0.19542358815670013
6,3,64,9,0.34520429372787476,0.11152082681655884
6,3,64,10,0.5970168709754944,0.3665207028388977
6,3,64,11,0.38166168332099915,0.19611810147762299
6,3,64,12,0.3319961130619049,0.14587250351905823
6,3,64,13,0.4277063310146332,0.3235028088092804
6,3,64,14,0.2935763895511627,0.09221696108579636
6,3,64,15,0.45415669679641724,0.1564212590456009
6,3,64,16,0.5902506709098816,0.07772776484489441
6,3,64,17,0.6392309665679932,0.21385458111763
6,3,64,18,0.5809186100959778,0.2977524697780609
6,3,64,19,0.5111449956893921,0.2528071999549866
6,3,64,20,0.5610231161117554,0.14619147777557373
6,3,64,21,0.5012189149856567,0.06549486517906189
6,3,64,22,0.5451713800430298,0.29430341720581055
6,3,64,23,0.5356720089912415,0.16239815950393677
6,3,64,24,0.5684773921966553,0.19624467194080353
6,3,64,25,0.5643738508224487,0.2977822422981262
6,3,64,26,0.4461866617202759,0.14194084703922272
6,3,64,27,0.5639273524284363,0.19657298922538757
6,3,64,28,0.5286317467689514,0.1531946063041687
6,3,64,29,0.5696239471435547,0.10626447200775146
6,3,64,30,0.6138007640838623,0.13783040642738342
6,3,64,31,0.4174549877643585,0.29409101605415344
6,3,64,32,0.6369445323944092,0.1518535017967224
6,3,64,33,0.46501439809799194,0.18331728875637054
6,3,64,34,0.5396122336387634,0.2316185086965561
6,3,64,35,0.45208725333213806,0.21781912446022034
6,3,64,36,0.38357725739479065,0.24889276921749115
6,3,64,37,0.4700681269168854,0.17797046899795532
6,3,64,38,0.3823138475418091,0.11014141887426376
6,3,64,39,0.48160144686698914,0.2071959227323532
6,3,64,40,0.4932970106601715,0.12841260433197021
6,3,64,41,0.4922667443752289,0.09293269366025925
6,3,64,42,0.3823058009147644,0.12271428108215332
6,3,64,43,0.5763311386108398,0.2587096393108368
6,3,64,44,0.6115970611572266,0.08667328953742981
6,3,64,45,0.5940109491348267,0.1466222107410431
6,3,64,46,0.621112585067749,0.17582553625106812
6,3,64,47,0.34601736068725586,0.11362180858850479
6,3,64,48,0.1843608319759369,0.11752935498952866
6,3,64,49,0.5942116975784302,0.2344919890165329
6,3,64,50,0.31902554631233215,0.12478456646203995
6,3,64,51,0.317502498626709,0.10864879190921783
6,3,64,52,0.4505934417247772,0.1336679309606552
6,3,64,53,0.6344839930534363,0.20986641943454742
6,3,64,54,0.5046062469482422,0.07407769560813904
6,3,64,55,0.47602784633636475,0.12521600723266602
6,3,64,56,0.29131877422332764,0.10536444932222366
6,3,64,57,0.4703807830810547,0.10941115766763687
6,3,64,58,0.27766841650009155,0.12843835353851318
6,3,64,59,0.41466814279556274,0.1754145473241806
6,3,64,60,0.48409971594810486,0.06536528468132019
6,3,64,61,0.34924212098121643,0.31966498494148254
6,3,64,62,0.5731887817382812,0.3076745271682739
