subject,channel,alpha,f1,drop_pp
1,0,1.0,0.6784565138280636,0.0
1,0,0.75,0.6940891162326956,-1.5632602404632046
1,0,0.5,0.6886946907046021,-1.0238176876538496
1,0,0.25,0.699412813598097,-2.0956299770033437
1,0,0.0,0.7010444622213047,-2.2587948393241075
1,1,1.0,0.6784565138280636,0.0
1,1,0.75,0.6772691000559852,0.11874137720784272
1,1,0.5,0.6829216931202778,-0.44651792922142386
1,1,0.25,0.685649064439812,-0.7192550611748394
1,1,0.0,0.6766806200561325,0.1775893771931103
1,2,1.0,0.6784565138280636,0.0
1,2,0.75,0.6793023473087246,-0.0845833480661029
1,2,0.5,0.6884425228959485,-0.9986009067884938
1,2,0.25,0.6925438620270536,-1.4087348198990046
1,2,0.0,0.6917164413592581,-1.3259927531194537
1,3,1.0,0.6784565138280636,0.0
1,3,0.75,0.6652467508158609,1.3209763012202669
1,3,0.5,0.6475781518796979,3.0878361948365685
1,3,0.25,0.6394570163476349,3.8999497480428746
1,3,0.0,0.6280409809169272,5.041553291113643
1,4,1.0,0.6784565138280636,0.0
1,4,0.75,0.6910868491971451,-1.2630335369081536
1,4,0.5,0.6858350615902654,-0.7378547762201815
1,4,0.25,0.6888605374045229,-1.040402357645931
1,4,0.0,0.6668556380732777,1.1600875754785855
1,5,1.0,0.6784565138280636,0.0
1,5,0.75,0.636406639841051,4.204987398701265
1,5,0.5,0.591192432256693,8.726408157137055
1,5,0.25,0.6002881225167888,7.816839131127484
1,5,0.0,0.5773105134133949,10.11460004146687
1,6,1.0,0.6784565138280636,0.0
1,6,0.75,0.6867979697700306,-0.8341455941967002
1,6,0.5,0.6936953918163388,-1.5238877988275168
1,6,0.25,0.6957243095075734,-1.7267795679509756
1,6,0.0,0.7050436216093059,-2.658710778124229
1,7,1.0,0.6784565138280636,0.0
1,7,0.75,0.6651711957598898,1.328531806817379
1,7,0.5,0.655542277290359,2.2914236537704635
1,7,0.25,0.6266577117952788,5.179880203278476
1,7,0.0,0.6047956677884123,7.366084603965128
1,8,1.0,0.6784565138280636,0.0
1,8,0.75,0.6900962283223794,-1.1639714494315778
1,8,0.5,0.6853403027315081,-0.6883788903444543
1,8,0.25,0.681580171493349,-0.312365766528544
1,8,0.0,0.6711542193430127,0.7302294485050931
2,0,1.0,0.8602438335957746,0.0
2,0,0.75,0.8835305674577887,-2.3286733862014075
2,0,0.5,0.8810149581724371,-2.0771124576662525
2,0,0.25,0.8783085984345763,-1.8064764838801706
2,0,0.0,0.8627941669015339,-0.2550333305759267
2,1,1.0,0.8602438335957746,0.0
2,1,0.75,0.8530142067441838,0.7229626851590787
2,1,0.5,0.8497045890906076,1.0539244505166967
2,1,0.25,0.8471149909600733,1.3128842635701354
2,1,0.0,0.8422104238472123,1.8033409748562268
2,2,1.0,0.8602438335957746,0.0
2,2,0.75,0.845097428296002,1.5146405299772625
2,2,0.5,0.838015290894872,2.2228542700902576
2,2,0.25,0.8345007550768654,2.5743078518909224
2,2,0.0,0.8321434496406501,2.8100383955124486
2,3,1.0,0.8602438335957746,0.0
2,3,0.75,0.8607359209614975,-0.04920873657229263
2,3,0.5,0.8690283775821541,-0.8784543986379512
2,3,0.25,0.866170774516811,-0.5926940921036405
2,3,0.0,0.8464134362909793,1.3830397304795294
2,4,1.0,0.8602438335957746,0.0
2,4,0.75,0.8598431719169868,0.04006616787878281
2,4,0.5,0.8677940801609277,-0.7550246565153129
2,4,0.25,0.8655540967497372,-0.5310263153962547
2,4,0.0,0.8598278340220324,0.04159995737421651
2,5,1.0,0.8602438335957746,0.0
2,5,0.75,0.8523476556965077,0.7896177899266887
2,5,0.5,0.8293926396255463,3.0851193970228286
2,5,0.25,0.8238726081914177,3.637122540435689
2,5,0.0,0.8061558737839838,5.4087959811790824
2,6,1.0,0.8602438335957746,0.0
2,6,0.75,0.8471244086861229,1.3119424909651678
2,6,0.5,0.8325064142349888,2.7737419360785776
2,6,0.25,0.8339996165189589,2.624421707681568
2,6,0.0,0.8313560735252364,2.888776007053817
2,7,1.0,0.8602438335957746,0.0
2,7,0.75,0.8544205876795162,0.5823245916258379
2,7,0.5,0.8333891112993486,2.685472229642605
2,7,0.25,0.8287912770068774,3.145255658889723
2,7,0.0,0.8019859631922062,5.825787040356845
2,8,1.0,0.8602438335957746,0.0
2,8,0.75,0.8635977709679027,-0.33539373721280796
2,8,0.5,0.8620380455723861,-0.17942119766114484
2,8,0.25,0.8513731438718523,0.8870689723922354
2,8,0.0,0.8544060323299077,0.583780126586686
3,0,1.0,0.8701031720428704,0.0
3,0,0.75,0.882989804627651,-1.2886632584780622
3,0,0.5,0.8829470690806016,-1.2843897037731256
3,0,0.25,0.8991718236243229,-2.9068651581452554
3,0,0.0,0.9017144597140251,-3.161128767115473
3,1,1.0,0.8701031720428704,0.0
3,1,0.75,0.8743312875591357,-0.42281155162653405
3,1,0.5,0.8904122423569115,-2.0309070314041167
3,1,0.25,0.884377499289864,-1.4274327246993623
3,1,0.0,0.8884200578655425,-1.8316885822672102
3,2,1.0,0.8701031720428704,0.0
3,2,0.75,0.873570528283421,-0.3467356240550612
3,2,0.5,0.8654982375874718,0.4604934455398557
3,2,0.25,0.8624046795712585,0.7698492471611806
3,2,0.0,0.8531703989795195,1.6932773063350837
3,3,1.0,0.8701031720428704,0.0
3,3,0.75,0.8553658247325692,1.4737347310301185
3,3,0.5,0.8338197767145135,3.6283395328356893
3,3,0.25,0.8104788262872867,5.962434575558362
3,3,0.0,0.7824430660654547,8.76601059774157
3,4,1.0,0.8701031720428704,0.0
3,4,0.75,0.8615019074669037,0.8601264575966661
3,4,0.5,0.8559321453351859,1.4171026707684442
3,4,0.25,0.8559321453351859,1.4171026707684442
3,4,0.0,0.8550645898142892,1.503858222858112
3,5,1.0,0.8701031720428704,0.0
3,5,0.75,0.8641855809708852,0.5917591071985195
3,5,0.5,0.8692273256334497,0.0875846409420622
3,5,0.25,0.8799363949774521,-0.9833222934581776
3,5,0.0,0.8835066882656212,-1.3403516222750822
3,6,1.0,0.8701031720428704,0.0
3,6,0.75,0.8685046228754271,0.1598549167443286
3,6,0.5,0.8737878169530723,-0.36846449102019285
3,6,0.25,0.8751172664197796,-0.501409437690925
3,6,0.0,0.8692057025864046,0.08974694564657382
3,7,1.0,0.8701031720428704,0.0
3,7,0.75,0.8661294460547021,0.3973725988168253
3,7,0.5,0.8650483098086955,0.505486223417484
3,7,0.25,0.8511737993144887,1.8929372728381688
3,7,0.0,0.8310875758319586,3.9015596210911774
3,8,1.0,0.8701031720428704,0.0
3,8,0.75,0.87394880236963,-0.38456303267596637
3,8,0.5,0.8750976784495325,-0.49945064066621025
3,8,0.25,0.8883939355907701,-1.8290763547899713
3,8,0.0,0.8800068654648856,-0.9903693422015247
4,0,1.0,0.8763085907398311,0.0
4,0,0.75,0.869684894512281,0.6623696227550102
4,0,0.5,0.8706767358508654,0.5631854888965782
4,0,0.25,0.8587211902095072,1.7587400530323927
4,0,0.0,0.8495563560118121,2.675223472801902
4,1,1.0,0.8763085907398311,0.0
4,1,0.75,0.8655093984285686,1.0799192311262584
4,1,0.5,0.8529571951103649,2.33513956294662
4,1,0.25,0.8384599050961518,3.784868564367938
4,1,0.0,0.8150353818767381,6.127320886309306
4,2,1.0,0.8763085907398311,0.0
4,2,0.75,0.8738386696778415,0.24699210619896217
4,2,0.5,0.8713546549356277,0.49539358042034465
4,2,0.25,0.8795943052343046,-0.32857144944734573
4,2,0.0,0.8388513719019726,3.7457218837858575
4,3,1.0,0.8763085907398311,0.0
4,3,0.75,0.8744358116492142,0.1872779090616894
4,3,0.5,0.8716552833736528,0.46533073661783053
4,3,0.25,0.8648004808434839,1.1508109896347207
4,3,0.0,0.8466422328256213,2.9666357914209796
4,4,1.0,0.8763085907398311,0.0
4,4,0.75,0.8762483257329113,0.0060265006919801856
4,4,0.5,0.8891164231904713,-1.280783245064021
4,4,0.25,0.8916694692782644,-1.5360878538433265
4,4,0.0,0.8900935868234711,-1.3784996083639922
4,5,1.0,0.8763085907398311,0.0
4,5,0.75,0.8720809459670212,0.4227644772809902
4,5,0.5,0.8641727863096234,1.2135804430207786
4,5,0.25,0.8581326293360352,1.817596140379596
4,5,0.0,0.871204657411554,0.5103933328277188
4,6,1.0,0.8763085907398311,0.0
4,6,0.75,0.8722316581552996,0.40769325845315674
4,6,0.5,0.8686289996508243,0.7679591089006843
4,6,0.25,0.8635856391394534,1.272295160037773
4,6,0.0,0.8660850394782127,1.0223551261618447
4,7,1.0,0.8763085907398311,0.0
4,7,0.75,0.8801292040431572,-0.3820613303326059
4,7,0.5,0.8780353869086608,-0.17267961688296474
4,7,0.25,0.8720480499892264,0.426054075060478
4,7,0.0,0.8756611612355544,0.06474295042767642
4,8,1.0,0.8763085907398311,0.0
4,8,0.75,0.8780549760995785,-0.174638535974736
4,8,0.5,0.8695038193552003,0.680477138463087
4,8,0.25,0.8617732844511992,1.4535306288631977
4,8,0.0,0.8345433020064839,4.176528873334728
5,0,1.0,0.6491732439774205,0.0
5,0,0.75,0.6501672371598711,-0.09939931824506365
5,0,0.5,0.651651728868744,-0.2478484891323518
5,0,0.25,0.6486617337908589,0.05115101865615923
5,0,0.0,0.6493441305721473,-0.017088659472686007
5,1,1.0,0.6491732439774205,0.0
5,1,0.75,0.6491301125773674,0.004313140005307581
5,1,0.5,0.6542417104986413,-0.5068466521220838
5,1,0.25,0.6574597304555496,-0.8286486478129129
5,1,0.0,0.6434133201252196,0.5759923852200921
5,2,1.0,0.6491732439774205,0.0
5,2,0.75,0.6495396024734067,-0.03663584959862076
5,2,0.5,0.6478997489739856,0.1273495003434877
5,2,0.25,0.6446287196287196,0.45445243487008957
5,2,0.0,0.6457602389757202,0.34130050017002755
5,3,1.0,0.6491732439774205,0.0
5,3,0.75,0.6593288808961733,-1.0155636918752764
5,3,0.5,0.6598485578140166,-1.0675313836596145
5,3,0.25,0.6711883482611833,-2.2015104283762854
5,3,0.0,0.6776350291288985,-2.8461785151478014
5,4,1.0,0.6491732439774205,0.0
5,4,0.75,0.6190245774613735,3.0148666516046974
5,4,0.5,0.6045715851336575,4.460165884376299
5,4,0.25,0.6113726615800947,3.7800582397325755
5,4,0.0,0.6348094353047588,1.4363808672661738
5,5,1.0,0.6491732439774205,0.0
5,5,0.75,0.6366361130463658,1.2537130931054685
5,5,0.5,0.6321155771798295,1.705766679759102
5,5,0.25,0.6251157078855987,2.405753609182182
5,5,0.0,0.6308990853383376,1.8274158639082883
5,6,1.0,0.6491732439774205,0.0
5,6,0.75,0.6430093246009343,0.6163919376486193
5,6,0.5,0.6340465076885434,1.5126736288877063
5,6,0.25,0.6390542316281325,1.0119012349288026
5,6,0.0,0.6331497940492192,1.602344992820126
5,7,1.0,0.6491732439774205,0.0
5,7,0.75,0.6306639274091348,1.8509316568285694
5,7,0.5,0.6211071961974302,2.8066047779990333
5,7,0.25,0.6367074255650642,1.2465818412356278
5,7,0.0,0.6315518507231689,1.7621393254251605
5,8,1.0,0.6491732439774205,0.0
5,8,0.75,0.6535591313797047,-0.4385887402284183
5,8,0.5,0.6533401242791711,-0.41668803017506084
5,8,0.25,0.6443281982094018,0.48450457680186965
5,8,0.0,0.6181936420543864,3.097960192303406
6,0,1.0,0.7936613286052457,0.0
6,0,0.75,0.793096141892379,0.05651867128667609
6,0,0.5,0.7906076688309285,0.30536597743172633
6,0,0.25,0.7757241679657936,1.7937160639452165
6,0,0.0,0.7630967431606821,3.056458544456364
6,1,1.0,0.7936613286052457,0.0
6,1,0.75,0.7809738106611405,1.2687517944105275
6,1,0.5,0.7833486292052574,1.0312699399988356
6,1,0.25,0.7838570347172892,0.9804293887956561
6,1,0.0,0.7570598542817341,3.6601474323511685
6,2,1.0,0.7936613286052457,0.0
6,2,0.75,0.7852554483238097,0.8405880281436073
6,2,0.5,0.7848956471731738,0.8765681432071903
6,2,0.25,0.7823202131010586,1.134111550418715
6,2,0.0,0.7746755666023506,1.8985762002895146
6,3,1.0,0.7936613286052457,0.0
6,3,0.75,0.8016356414154522,-0.7974312810206441
6,3,0.5,0.801263801186435,-0.760247258118929
6,3,0.25,0.8100112722572488,-1.634994365200304
6,3,0.0,0.7966715258990039,-0.30101972937581767
6,4,1.0,0.7936613286052457,0.0
6,4,0.75,0.7741495245309661,1.951180407427966
6,4,0.5,0.7547549622714725,3.89063663337732
6,4,0.25,0.7333412851487923,6.032004345645348
6,4,0.0,0.7711118072373501,2.2549521367895675
6,5,1.0,0.7936613286052457,0.0
6,5,0.75,0.781793978022089,1.1867350583156688
6,5,0.5,0.7749276589247461,1.873366968049961
6,5,0.25,0.7721888699970523,2.1472458608193468
6,5,0.0,0.7755067150643078,1.8154613540937947
6,6,1.0,0.7936613286052457,0.0
6,6,0.75,0.7735217387388926,2.0139589866353114
6,6,0.5,0.758693938852102,3.496738975314373
6,6,0.25,0.7499103577457272,4.375097085951851
6,6,0.0,0.7497468588341237,4.391446977112201
6,7,1.0,0.7936613286052457,0.0
6,7,0.75,0.7842016028619487,0.9459725743297009
6,7,0.5,0.7663272872400906,2.733404136515516
6,7,0.25,0.742204121419436,5.145720718580971
6,7,0.0,0.7298102590195217,6.385106958572406
6,8,1.0,0.7936613286052457,0.0
6,8,0.75,0.7946926587313631,-0.10313301261173358
6,8,0.5,0.7885031902196052,0.5158138385640498
6,8,0.25,0.7796034560898906,1.4057872515355174
6,8,0.0,0.7711648207172532,2.249650788799251
7,0,1.0,0.7725092484609034,0.0
7,0,0.75,0.7727512558144276,-0.024200735352419844
7,0,0.5,0.7674852221548532,0.5024026306050255
7,0,0.25,0.7598239560127233,1.2685292448180063
7,0,0.0,0.7433179890326204,2.9191259428283045
7,1,1.0,0.7725092484609034,0.0
7,1,0.75,0.7693404376895504,0.31688107713530034
7,1,0.5,0.7692696280794208,0.3239620381482622
7,1,0.25,0.762759303694564,0.9749944766339391
7,1,0.0,0.7513014720058064,2.120777645509697
7,2,1.0,0.7725092484609034,0.0
7,2,0.75,0.7689774542115634,0.35317942493400256
7,2,0.5,0.7659093370562364,0.659991140466698
7,2,0.25,0.7422232963227179,3.0285952138185523
7,2,0.0,0.7123985039607661,6.011074450013732
7,3,1.0,0.7725092484609034,0.0
7,3,0.75,0.7721374606516664,0.03717878092369675
7,3,0.5,0.7876450474101245,-1.5135798949221124
7,3,0.25,0.7803741118726619,-0.7864863411758516
7,3,0.0,0.7698610129763874,0.26482354845159817
7,4,1.0,0.7725092484609034,0.0
7,4,0.75,0.7516038736127801,2.090537484812327
7,4,0.5,0.7400394401956405,3.246980826526291
7,4,0.25,0.734732357256968,3.777689120393546
7,4,0.0,0.7407487036355114,3.1760544825392034
7,5,1.0,0.7725092484609034,0.0
7,5,0.75,0.7832967921933094,-1.078754373240598
7,5,0.5,0.7665661159452594,0.5943132515644045
7,5,0.25,0.7966525495488106,-2.4143301087907187
7,5,0.0,0.799299622934063,-2.6790374473159573
7,6,1.0,0.7725092484609034,0.0
7,6,0.75,0.7689435205272684,0.35657279336349657
7,6,0.5,0.761025252249031,1.148399621187246
7,6,0.25,0.7642600474790835,0.8249200981819915
7,6,0.0,0.751918925829319,2.0590322631584446
7,7,1.0,0.7725092484609034,0.0
7,7,0.75,0.7761206638830221,-0.36114154221187356
7,7,0.5,0.7705222903242706,0.19869581366328548
7,7,0.25,0.7559866080098343,1.6522640451069104
7,7,0.0,0.751049753283012,2.1459495177891363
7,8,1.0,0.7725092484609034,0.0
7,8,0.75,0.7777296796199239,-0.5220431159020489
7,8,0.5,0.7599387798693824,1.2570468591521
7,8,0.25,0.7390834066653129,3.3425841795590494
7,8,0.0,0.7277898696796776,4.471937878122578
8,0,1.0,0.7968645611904038,0.0
8,0,0.75,0.8109712662973532,-1.4106705106949335
8,0,0.5,0.8182829888712242,-2.141842768082036
8,0,0.25,0.8022973684939836,-0.5432807303579756
8,0,0.0,0.8125215615527583,-1.5657000362354512
8,1,1.0,0.7968645611904038,0.0
8,1,0.75,0.7956900107274587,0.11745504629451231
8,1,0.5,0.8028671121133357,-0.6002550922931893
8,1,0.25,0.8037286269271966,-0.6864065736792768
8,1,0.0,0.8093470527743746,-1.2482491583970745
8,2,1.0,0.7968645611904038,0.0
8,2,0.75,0.8164508773213148,-1.9586316130910997
8,2,0.5,0.8213011230252609,-2.4436561834857096
8,2,0.25,0.830815162014005,-3.395060082360113
8,2,0.0,0.8195517638354134,-2.2687202645009563
8,3,1.0,0.7968645611904038,0.0
8,3,0.75,0.8046637293618775,-0.7799168171473636
8,3,0.5,0.8050911293537902,-0.8226568163386405
8,3,0.25,0.8046374382368573,-0.7772877046453464
8,3,0.0,0.8013172866394217,-0.4452725449017869
8,4,1.0,0.7968645611904038,0.0
8,4,0.75,0.7924958445718134,0.4368716618590396
8,4,0.5,0.7857885827477389,1.1075978442664947
8,4,0.25,0.7752473442087092,2.161721698169461
8,4,0.0,0.7662285824094969,3.063597878090696
8,5,1.0,0.7968645611904038,0.0
8,5,0.75,0.7857373686675138,1.1127192522890073
8,5,0.5,0.7730942468931328,2.3770314297271056
8,5,0.25,0.7595487459137965,3.7315815276607323
8,5,0.0,0.7696967410227344,2.7167820167669388
8,6,1.0,0.7968645611904038,0.0
8,6,0.75,0.8083257825310715,-1.1461221340667627
8,6,0.5,0.7990372696417105,-0.2172708451306682
8,6,0.25,0.802538665216812,-0.5674104026408222
8,6,0.0,0.8029040444316207,-0.6039483241216836
8,7,1.0,0.7968645611904038,0.0
8,7,0.75,0.8028158400793898,-0.5951278888985945
8,7,0.5,0.7939415659595466,0.29229952308572615
8,7,0.25,0.7679491829317739,2.8915378258629887
8,7,0.0,0.7576838924974653,3.918066869293857
8,8,1.0,0.7968645611904038,0.0
8,8,0.75,0.811457741930998,-1.4593180740594125
8,8,0.5,0.8177717862552117,-2.090722506480791
8,8,0.25,0.8231221642088848,-2.6257603018481013
8,8,0.0,0.8033797805475658,-0.6515219357161928
9,0,1.0,0.7508032256388716,0.0
9,0,0.75,0.7673151978348047,-1.6511972195933144
9,0,0.5,0.7646168573219384,-1.3813631683066818
9,0,0.25,0.7708297262602758,-2.002650062140421
9,0,0.0,0.7639273556400629,-1.312413000119128
9,1,1.0,0.7508032256388716,0.0
9,1,0.75,0.7519518513094954,-0.1148625670623793
9,1,0.5,0.7414511555831493,0.935207005572225
9,1,0.25,0.7233451309704669,2.7458094668404653
9,1,0.0,0.6995165356296095,5.1286690009262115
9,2,1.0,0.7508032256388716,0.0
9,2,0.75,0.7645114838302427,-1.3708258191371114
9,2,0.5,0.7542202531274664,-0.3417027488594848
9,2,0.25,0.7347831208307156,1.6020104808155966
9,2,0.0,0.7196624198871304,3.1140805751741163
9,3,1.0,0.7508032256388716,0.0
9,3,0.75,0.7562134854686086,-0.5410259829736974
9,3,0.5,0.7550776309823979,-0.42744053435262996
9,3,0.25,0.7440459797405816,0.6757245898289965
9,3,0.0,0.7385558896114197,1.2247336027451872
9,4,1.0,0.7508032256388716,0.0
9,4,0.75,0.7378273070540962,1.2975918584775425
9,4,0.5,0.7396128977772534,1.1190327861618221
9,4,0.25,0.7225172837113135,2.8285941927558067
9,4,0.0,0.7267288633481129,2.4074362290758655
9,5,1.0,0.7508032256388716,0.0
9,5,0.75,0.7462505993705338,0.4552626268337745
9,5,0.5,0.735080732524152,1.5722493114719627
9,5,0.25,0.7417818582342701,0.9021367404601466
9,5,0.0,0.7366618010253326,1.4141424613538955
9,6,1.0,0.7508032256388716,0.0
9,6,0.75,0.7542983368303857,-0.3495111191514133
9,6,0.5,0.7630445890355472,-1.2241363396675586
9,6,0.25,0.7571610214851713,-0.6357795846299696
9,6,0.0,0.7433420357738865,0.7461189864985118
9,7,1.0,0.7508032256388716,0.0
9,7,0.75,0.753846104225625,-0.304287858675345
9,7,0.5,0.7560259474487059,-0.5222721809834296
9,7,0.25,0.7593903222800191,-0.858709664114754
9,7,0.0,0.7650808617609596,-1.4277636122087989
9,8,1.0,0.7508032256388716,0.0
9,8,0.75,0.7676519384410081,-1.6848712802136512
9,8,0.5,0.7670562171549584,-1.6252991516086834
9,8,0.25,0.7740313716841529,-2.322814604528134
9,8,0.0,0.7759693107573609,-2.516608511848928
10,0,1.0,0.7742658408117533,0.0
10,0,0.75,0.7692428236322985,0.5023017179454858
10,0,0.5,0.752318573191783,2.1947267619970345
10,0,0.25,0.7593713227630632,1.489451804869013
10,0,0.0,0.7616543740655155,1.261146674623781
10,1,1.0,0.7742658408117533,0.0
10,1,0.75,0.7642646405054219,1.0001200306331448
10,1,0.5,0.7555839082202067,1.8681932591546602
10,1,0.25,0.7459455679221086,2.832027288964467
10,1,0.0,0.7401966052346762,3.4069235577077084
10,2,1.0,0.7742658408117533,0.0
10,2,0.75,0.7561857824412177,1.8080058370535612
10,2,0.5,0.7499222625851367,2.434357822661659
10,2,0.25,0.7606429389926477,1.3622901819105637
10,2,0.0,0.7593922924901186,1.4873548321634678
10,3,1.0,0.7742658408117533,0.0
10,3,0.75,0.7667954368680321,0.7470403943721227
10,3,0.5,0.770593435227823,0.3672405583930338
10,3,0.25,0.7419915440682976,3.227429674345572
10,3,0.0,0.739560731129662,3.4705109682091284
10,4,1.0,0.7742658408117533,0.0
10,4,0.75,0.7550625274305832,1.9203313381170095
10,4,0.5,0.7445997706944317,2.9666070117321586
10,4,0.25,0.7438638931236615,3.040194768809179
10,4,0.0,0.7598938501731101,1.437199063864325
10,5,1.0,0.7742658408117533,0.0
10,5,0.75,0.7691578876184502,0.510795319330315
10,5,0.5,0.7614716148815424,1.2794225930210956
10,5,0.25,0.7643066308752124,0.9959209936540869
10,5,0.0,0.7585944724883202,1.5671368323433077
10,6,1.0,0.7742658408117533,0.0
10,6,0.75,0.7840216960907516,-0.9755855278998249
10,6,0.5,0.7738692968790941,0.03965439326591991
10,6,0.25,0.7714455898084216,0.28202510033317196
10,6,0.0,0.7675190875826909,0.6746753229062374
10,7,1.0,0.7742658408117533,0.0
10,7,0.75,0.7741009048643774,0.016493594737587713
10,7,0.5,0.7582373534560111,1.602848735574225
10,7,0.25,0.7448713720580276,2.9394468753725755
10,7,0.0,0.7354714883769307,3.8794352434822654
10,8,1.0,0.7742658408117533,0.0
10,8,0.75,0.7692708684391044,0.4994972372648898
10,8,0.5,0.7737144353677875,0.05514054439658134
10,8,0.25,0.767091532170163,0.7174308641590299
10,8,0.0,0.7564816524645499,1.7784188347203411
11,0,1.0,0.8598684455586325,0.0
11,0,0.75,0.8643023258576824,-0.4433880299049897
11,0,0.5,0.8676213881773865,-0.7752942618754033
11,0,0.25,0.8542775341121301,0.5590911446502367
11,0,0.0,0.8566039596236353,0.32644859349971744
11,1,1.0,0.8598684455586325,0.0
11,1,0.75,0.8653300491908246,-0.5461603632192058
11,1,0.5,0.8656414900722301,-0.5773044513597614
11,1,0.25,0.8603973155573695,-0.05288699987370249
11,1,0.0,0.8246570020197411,3.5211443538891385
11,2,1.0,0.8598684455586325,0.0
11,2,0.75,0.8522058802822787,0.7662565276353783
11,2,0.5,0.8568353470750761,0.30330984835563735
11,2,0.25,0.8408218438646305,1.9046601694001963
11,2,0.0,0.8236357191803357,3.6232726378296776
11,3,1.0,0.8598684455586325,0.0
11,3,0.75,0.8517436202569443,0.8124825301688232
11,3,0.5,0.8472588300137901,1.2609615544842412
11,3,0.25,0.8401232142786426,1.974523127998995
11,3,0.0,0.8334772488984447,2.6391196660187854
11,4,1.0,0.8598684455586325,0.0
11,4,0.75,0.8612117461746175,-0.1343300615984977
11,4,0.5,0.8633245183397659,-0.3456072781133357
11,4,0.25,0.8586753675745809,0.11930779840516603
11,4,0.0,0.8613313916176926,-0.14629460590600551
11,5,1.0,0.8598684455586325,0.0
11,5,0.75,0.8334190660749894,2.644937948364312
11,5,0.5,0.8311647047624647,2.8703740796167776
11,5,0.25,0.8429506122297223,1.691783332891017
11,5,0.0,0.8581889832665267,0.16794622921058044
11,6,1.0,0.8598684455586325,0.0
11,6,0.75,0.8620037715378002,-0.2135325979167657
11,6,0.5,0.8705332815295492,-1.066483597091672
11,6,0.25,0.8782626624124198,-1.8394216853787282
11,6,0.0,0.8931027796341848,-3.323433407555232
11,7,1.0,0.8598684455586325,0.0
11,7,0.75,0.8620203508316446,-0.21519052730121224
11,7,0.5,0.8725751618417275,-1.2706716283094943
11,7,0.25,0.8809005378551269,-2.1032092296494387
11,7,0.0,0.8680537275503247,-0.8185281991692217
11,8,1.0,0.8598684455586325,0.0
11,8,0.75,0.8597375464554646,0.013089910316788078
11,8,0.5,0.8530421563793642,0.6826289179268308
11,8,0.25,0.8627988588821697,-0.2930413323537162
11,8,0.0,0.8534946263809925,0.6373819177640017
12,0,1.0,0.8968735245936069,0.0
12,0,0.75,0.9052104426175426,-0.8336918023935658
12,0,0.5,0.8991935466585044,-0.23200220648974534
12,0,0.25,0.881390483348288,1.5483041245318963
12,0,0.0,0.8731579916551014,2.371553293850548
12,1,1.0,0.8968735245936069,0.0
12,1,0.75,0.8808340487298109,1.603947586379606
12,1,0.5,0.8738129261194314,2.306059847417552
12,1,0.25,0.8675954363019174,2.927808829168954
12,1,0.0,0.8461965415139928,5.06769830796141
12,2,1.0,0.8968735245936069,0.0
12,2,0.75,0.8816543912373884,1.5219133356218495
12,2,0.5,0.8763129414445204,2.0560583149086487
12,2,0.25,0.8606628965146842,3.6210628078922724
12,2,0.0,0.8443032813170384,5.257024327656856
12,3,1.0,0.8968735245936069,0.0
12,3,0.75,0.8813304179111698,1.554310668243708
12,3,0.5,0.8600164899254651,3.685703466814183
12,3,0.25,0.8449647379058548,5.190878668775212
12,3,0.0,0.800951825951826,9.592169864178091
12,4,1.0,0.8968735245936069,0.0
12,4,0.75,0.8854436161378164,1.1429908455790505
12,4,0.5,0.8827469868304715,1.4126537763135438
12,4,0.25,0.8856992906958167,1.1174233897790264
12,4,0.0,0.8963036835885557,0.056984100505119706
12,5,1.0,0.8968735245936069,0.0
12,5,0.75,0.8868799346613264,0.99935899322805
12,5,0.5,0.8751130718558396,2.1760452737767277
12,5,0.25,0.8781067800117225,1.8766744581884431
12,5,0.0,0.8858223724087768,1.1051152184830104
12,6,1.0,0.8968735245936069,0.0
12,6,0.75,0.8983001859487428,-0.14266613551359164
12,6,0.5,0.892606936378271,0.4266588215335876
12,6,0.25,0.8970899660578888,-0.021644146428190236
12,6,0.0,0.8802434948447887,1.663002974881822
12,7,1.0,0.8968735245936069,0.0
12,7,0.75,0.8952229019238405,0.1650622669766455
12,7,0.5,0.8964404676277077,0.04330569658992367
12,7,0.25,0.8792100704659602,1.7663454127646694
12,7,0.0,0.8662063798438601,3.0667144749746855
12,8,1.0,0.8968735245936069,0.0
12,8,0.75,0.891968342739285,0.49051818543218717
12,8,0.5,0.8972847861783394,-0.041126158473248076
12,8,0.25,0.9001252764102649,-0.3251751816657933
12,8,0.0,0.8681987399770905,2.86747846165164
13,0,1.0,0.9320074793447691,0.0
13,0,0.75,0.9319464046752247,0.006107466954441421
13,0,0.5,0.9314913959093456,0.05160834354235311
13,0,0.25,0.9242390644818685,0.7768414862900586
13,0,0.0,0.9254008239278024,0.66066554169667
13,1,1.0,0.9320074793447691,0.0
13,1,0.75,0.9276697039950562,0.43377753497129135
13,1,0.5,0.9270926493220433,0.4914830022725858
13,1,0.25,0.9200883357546352,1.1919143590133907
13,1,0.0,0.9178872454762026,1.4120233868566534
13,2,1.0,0.9320074793447691,0.0
13,2,0.75,0.9263667343952598,0.564074494950928
13,2,0.5,0.916994373321774,1.5013106022995104
13,2,0.25,0.9078610952259001,2.4146384118869046
13,2,0.0,0.8843720751233636,4.763540422140555
13,3,1.0,0.9320074793447691,0.0
13,3,0.75,0.9241057073769209,0.7901771967848248
13,3,0.5,0.9193934845474083,1.2613994797360806
13,3,0.25,0.917695349538657,1.4312129806112184
13,3,0.0,0.8983239109189243,3.3683568425844856
13,4,1.0,0.9320074793447691,0.0
13,4,0.75,0.9207490412477117,1.12584380970574
13,4,0.5,0.9100035524163099,2.2003926928459205
13,4,0.25,0.9087166529103987,2.3290826434370415
13,4,0.0,0.9099526792015324,2.2054800143236686
13,5,1.0,0.9320074793447691,0.0
13,5,0.75,0.9174766157616859,1.4530863583083198
13,5,0.5,0.9182498266984493,1.3757652646319785
13,5,0.25,0.91171042793473,2.0297051410039124
13,5,0.0,0.8993201647706957,3.268731457407348
13,6,1.0,0.9320074793447691,0.0
13,6,0.75,0.9290733945906231,0.2934084754146027
13,6,0.5,0.9244128843168324,0.759459502793669
13,6,0.25,0.9240522911466957,0.7955188198073393
13,6,0.0,0.9165893359595728,1.5418143385196315
13,7,1.0,0.9320074793447691,0.0
13,7,0.75,0.9316379308906851,0.036954845408398995
13,7,0.5,0.9281130327162453,0.38944466285237844
13,7,0.25,0.9188950052217781,1.3112474122990991
13,7,0.0,0.9162032783043863,1.5804201040382826
13,8,1.0,0.9320074793447691,0.0
13,8,0.75,0.9279508126939319,0.40566666508372595
13,8,0.5,0.9318193468505769,0.01881324941922502
13,8,0.25,0.925646274311996,0.6361205032773154
13,8,0.0,0.9152070741707988,1.68004051739703
14,0,1.0,0.8316219323236868,0.0
14,0,0.75,0.8290970195820286,0.2524912741658114
14,0,0.5,0.8214818090779329,1.0140123245753863
14,0,0.25,0.8210297262551337,1.0592206068553045
14,0,0.0,0.8190756062287693,1.254632609491746
14,1,1.0,0.8316219323236868,0.0
14,1,0.75,0.8286016251260041,0.3020307197682648
14,1,0.5,0.8213033575436411,1.0318574780045608
14,1,0.25,0.8237306441386374,0.7891288185049361
14,1,0.0,0.8252202179636745,0.6401714360012245
14,2,1.0,0.8316219323236868,0.0
14,2,0.75,0.8332378017734522,-0.1615869449765439
14,2,0.5,0.835728044826171,-0.41061125024842715
14,2,0.25,0.8419539816950741,-1.033204937138732
14,2,0.0,0.8395557110758345,-0.7933778752147735
14,3,1.0,0.8316219323236868,0.0
14,3,0.75,0.8041681323640987,2.7453799959588077
14,3,0.5,0.7788005731964394,5.282135912724739
14,3,0.25,0.7598618395913252,7.176009273236151
14,3,0.0,0.7440607528910252,8.756117943266151
14,4,1.0,0.8316219323236868,0.0
14,4,0.75,0.8287025810220499,0.29193513016368966
14,4,0.5,0.8311330316436312,0.048890068005558174
14,4,0.25,0.8364700994189866,-0.48481670952998934
14,4,0.0,0.8322938248074364,-0.06718924837496587
14,5,1.0,0.8316219323236868,0.0
14,5,0.75,0.8349611127641603,-0.33391804404735437
14,5,0.5,0.8342110676328307,-0.2589135309143953
14,5,0.25,0.8321383235541168,-0.051639123043001334
14,5,0.0,0.8268142449571292,0.4807687366557567
14,6,1.0,0.8316219323236868,0.0
14,6,0.75,0.8207423837018261,1.087954862186069
14,6,0.5,0.8210764666368114,1.054546568687531
14,6,0.25,0.8191188505374521,1.2503081786234604
14,6,0.0,0.8132753186555196,1.8346613668167144
14,7,1.0,0.8316219323236868,0.0
14,7,0.75,0.8221544269470747,0.9467505376612007
14,7,0.5,0.810623533195277,2.099839912840973
14,7,0.25,0.801635791733527,2.9986140590159804
14,7,0.0,0.7878682444539934,4.375368786969336
14,8,1.0,0.8316219323236868,0.0
14,8,0.75,0.8288334101263798,0.2788522197306964
14,8,0.5,0.8243387270490308,0.7283205274655979
14,8,0.25,0.8167048888423499,1.4917043481336822
14,8,0.0,0.7919214927656829,3.970043955800384
15,0,1.0,0.8719904843213033,0.0
15,0,0.75,0.8563477460139093,1.5642738307394044
15,0,0.5,0.8576260460406802,1.436443828062317
15,0,0.25,0.8519982181656306,1.9992266155672733
15,0,0.0,0.8420018017159316,2.9988682605371686
15,1,1.0,0.8719904843213033,0.0
15,1,0.75,0.867559791615594,0.44306927057092826
15,1,0.5,0.8568900183891996,1.510046593210368
15,1,0.25,0.8601782363977486,1.181224792355473
15,1,0.0,0.855821180067248,1.6169304254055272
15,2,1.0,0.8719904843213033,0.0
15,2,0.75,0.8694114816047525,0.2579002716550871
15,2,0.5,0.8630392180997859,0.8951266221517429
15,2,0.25,0.8526160919787032,1.9374392342600077
15,2,0.0,0.8398571979213256,3.21332863999777
15,3,1.0,0.8719904843213033,0.0
15,3,0.75,0.8641722308919384,0.781825342936493
15,3,0.5,0.8606027096554467,1.138777466585661
15,3,0.25,0.8624504162612365,0.9540068060066798
15,3,0.0,0.8617889097252927,1.0201574596010676
15,4,1.0,0.8719904843213033,0.0
15,4,0.75,0.8792943872019919,-0.7303902880688606
15,4,0.5,0.8767439579092627,-0.47534735879594114
15,4,0.25,0.8743303862869081,-0.23399019656047404
15,4,0.0,0.8827485681423697,-1.0758083821066355
15,5,1.0,0.8719904843213033,0.0
15,5,0.75,0.8626206397562878,0.936984456501555
15,5,0.5,0.8535987880190001,1.8391696302303195
15,5,0.25,0.8501777958491203,2.1812688472182984
15,5,0.0,0.84504250851897,2.6947975802333324
15,6,1.0,0.8719904843213033,0.0
15,6,0.75,0.8679580340211457,0.40324503001576417
15,6,0.5,0.8629079294263973,0.9082554894906059
15,6,0.25,0.8609687971917074,1.1021687129595947
15,6,0.0,0.8566523284518968,1.5338155869406567
15,7,1.0,0.8719904843213033,0.0
15,7,0.75,0.861707572233888,1.0282912087415275
15,7,0.5,0.8479416513899273,2.404883293137605
15,7,0.25,0.8536151038057636,1.8375380515539774
15,7,0.0,0.8554332767503499,1.655720757095347
15,8,1.0,0.8719904843213033,0.0
15,8,0.75,0.8863634095122226,-1.4372925190919261
15,8,0.5,0.8959584413414783,-2.3967957020174957
15,8,0.25,0.9072776208999119,-3.52871365786086
15,8,0.0,0.9120784431042681,-4.008795878296478
16,0,1.0,0.849332555392271,0.0
16,0,0.75,0.8548320116551502,-0.5499456262879177
16,0,0.5,0.8521825179797096,-0.2849962587438526
16,0,0.25,0.851532071664815,-0.21995162725439998
16,0,0.0,0.834787837768135,1.4544717624136005
16,1,1.0,0.849332555392271,0.0
16,1,0.75,0.8502502745600082,-0.09177191677371965
16,1,0.5,0.8516194800136326,-0.22869246213615968
16,1,0.25,0.8544214212250382,-0.5088865832767131
16,1,0.0,0.844267383648591,0.5065171743680041
16,2,1.0,0.849332555392271,0.0
16,2,0.75,0.8521470603744019,-0.2814504982130872
16,2,0.5,0.8551244467729819,-0.5791891380710901
16,2,0.25,0.8574609878037677,-0.8128432411496633
16,2,0.0,0.857807770478757,-0.8475215086485965
16,3,1.0,0.849332555392271,0.0
16,3,0.75,0.8556164066352675,-0.6283851242996463
16,3,0.5,0.8667221276140448,-1.738957222177373
16,3,0.25,0.8536880590317086,-0.4355503639437597
16,3,0.0,0.8394743464405415,0.9858208951729508
16,4,1.0,0.849332555392271,0.0
16,4,0.75,0.8428871702674272,0.6445385124843828
16,4,0.5,0.8371644468052044,1.2168108587066628
16,4,0.25,0.8273994128267108,2.1933142565560226
16,4,0.0,0.8310328351916565,1.8299720200614544
16,5,1.0,0.849332555392271,0.0
16,5,0.75,0.819879115413245,2.9453439979026053
16,5,0.5,0.823573538638278,2.575901675399306
16,5,0.25,0.8209770290455721,2.835552634669891
16,5,0.0,0.8272590789742807,2.207347641799029
16,6,1.0,0.849332555392271,0.0
16,6,0.75,0.8552294206857751,-0.5896865293504083
16,6,0.5,0.8542790178862483,-0.4946462493977233
16,6,0.25,0.853016941216977,-0.36843858247059824
16,6,0.0,0.8495790862361348,-0.02465308438637237
16,7,1.0,0.849332555392271,0.0
16,7,0.75,0.8402853329724259,0.9047222419845125
16,7,0.5,0.8422975486577586,0.7035006734512406
16,7,0.25,0.8263232055031229,2.3009349889148156
16,7,0.0,0.811116003098467,3.821655229380405
16,8,1.0,0.849332555392271,0.0
16,8,0.75,0.83795423744815,1.137831794412103
16,8,0.5,0.843999160101261,0.5333395291010068
16,8,0.25,0.8385797202936183,1.0752835098652769
16,8,0.0,0.8222151074854311,2.7117447906839898
17,0,1.0,0.839973477681464,0.0
17,0,0.75,0.8321899011097575,0.7783576571706474
17,0,0.5,0.8331504702194358,0.6823007462028241
17,0,0.25,0.832172367458275,0.7801110223188967
17,0,0.0,0.8366844553833004,0.3289022298163635
17,1,1.0,0.839973477681464,0.0
17,1,0.75,0.839147972901318,0.08255047801459803
17,1,0.5,0.8411026100306442,-0.11291323491802174
17,1,0.25,0.8368209780788468,0.3152499602617209
17,1,0.0,0.836962609612729,0.3010868068735073
17,2,1.0,0.839973477681464,0.0
17,2,0.75,0.8313662990732986,0.86071786081654
17,2,0.5,0.8367400817511569,0.3233395930307137
17,2,0.25,0.8332000731102689,0.677340457119513
17,2,0.0,0.8392446837924367,0.07287938890273571
17,3,1.0,0.839973477681464,0.0
17,3,0.75,0.8257757596877335,1.4197717993730485
17,3,0.5,0.8247642798530035,1.520919782846053
17,3,0.25,0.8094522128734261,3.0521264808037962
17,3,0.0,0.8153059405829393,2.466753709852476
17,4,1.0,0.839973477681464,0.0
17,4,0.75,0.8403040371156973,-0.0330559434233324
17,4,0.5,0.8435113707552231,-0.35378930737590686
17,4,0.25,0.8531302648568636,-1.3156787175399587
17,4,0.0,0.8587585816642821,-1.8785103982818074
17,5,1.0,0.839973477681464,0.0
17,5,0.75,0.8152714332159864,2.4702044465477635
17,5,0.5,0.810684122890028,2.9289354791436017
17,5,0.25,0.8029471129762202,3.7026364705243786
17,5,0.0,0.8012300732177742,3.8743404463689846
17,6,1.0,0.839973477681464,0.0
17,6,0.75,0.8511476119628705,-1.1174134281406456
17,6,0.5,0.855883855182088,-1.5910377500623962
17,6,0.25,0.8497524256382082,-0.9778947956744166
17,6,0.0,0.8441627042485411,-0.4189226567077098
17,7,1.0,0.839973477681464,0.0
17,7,0.75,0.8486531237161179,-0.8679646034653876
17,7,0.5,0.8479234516831428,-0.7949974001678739
17,7,0.25,0.8496465323157032,-0.9673054634239175
17,7,0.0,0.8328192182488982,0.7154259432565868
17,8,1.0,0.839973477681464,0.0
17,8,0.75,0.8399805378521155,-0.00070601706514406
17,8,0.5,0.8311220747711874,0.885140291027664
17,8,0.25,0.8274616348967987,1.2511842784665328
17,8,0.0,0.8226535854496381,1.731989223182595
18,0,1.0,0.8914387039891837,0.0
18,0,0.75,0.8897664488590552,0.1672255130128475
18,0,0.5,0.8806439769649804,1.0794727024203254
18,0,0.25,0.8796329076579424,1.1805796331241236
18,0,0.0,0.8686923093932011,2.27463945959826
18,1,1.0,0.8914387039891837,0.0
18,1,0.75,0.8946865597166129,-0.32478557274292497
18,1,0.5,0.8941037733228904,-0.26650693337066933
18,1,0.25,0.8975053121843528,-0.6066608195169132
18,1,0.0,0.8984708474269908,-0.7032143437807115
18,2,1.0,0.8914387039891837,0.0
18,2,0.75,0.8888811864995395,0.25575174896441677
18,2,0.5,0.8973774889931072,-0.593878500392353
18,2,0.25,0.9008690082848211,-0.9430304295637404
18,2,0.0,0.9006086981171184,-0.9169994127934733
18,3,1.0,0.8914387039891837,0.0
18,3,0.75,0.8916971115046823,-0.02584075154986598
18,3,0.5,0.871680612670376,1.975809131880768
18,3,0.25,0.8382453478493299,5.319335613985377
18,3,0.0,0.7971320477937451,9.430665619543854
18,4,1.0,0.8914387039891837,0.0
18,4,0.75,0.8877548084010931,0.3683895588090569
18,4,0.5,0.8888275442676059,0.26111597215777715
18,4,0.25,0.8902079276920939,0.12307762970897862
18,4,0.0,0.8795602375790683,1.1878466410115363
18,5,1.0,0.8914387039891837,0.0
18,5,0.75,0.889837722292711,0.16009816964727142
18,5,0.5,0.8760381473532473,1.5400556635936424
18,5,0.25,0.8798140638900436,1.1624640099140104
18,5,0.0,0.8696611576819758,2.177754630720785
18,6,1.0,0.8914387039891837,0.0
18,6,0.75,0.8860299065058814,0.5408797483302252
18,6,0.5,0.8853429553363134,0.6095748652870325
18,6,0.25,0.8769698924500948,1.4468811539088855
18,6,0.0,0.8724018149739625,1.903688901522116
18,7,1.0,0.8914387039891837,0.0
18,7,0.75,0.8748231252777819,1.6615578711401735
18,7,0.5,0.8595996864165865,3.1839017572597217
18,7,0.25,0.8475463192801789,4.38923847090048
18,7,0.0,0.8432115977963015,4.822710619288218
18,8,1.0,0.8914387039891837,0.0
18,8,0.75,0.884877444600909,0.6561259388274676
18,8,0.5,0.8894548145969883,0.19838893921954037
18,8,0.25,0.9000012556695381,-0.8562551680354469
18,8,0.0,0.9019321818957741,-1.0493477906590387
19,0,1.0,0.824834019449354,0.0
19,0,0.75,0.838407532162776,-1.3573512713421998
19,0,0.5,0.8301641276060068,-0.5330108156652802
19,0,0.25,0.8306031860965185,-0.5769166647164536
19,0,0.0,0.8282820176078602,-0.34479981585062713
19,1,1.0,0.824834019449354,0.0
19,1,0.75,0.8321711324692976,-0.7337113019943664
19,1,0.5,0.833783278436134,-0.8949258986780007
19,1,0.25,0.8234331196505958,0.14008997987581262
19,1,0.0,0.8210781219955461,0.3755897453807888
19,2,1.0,0.824834019449354,0.0
19,2,0.75,0.8304748357379936,-0.5640816288639661
19,2,0.5,0.8353676237762111,-1.0533604326857127
19,2,0.25,0.8316122240555001,-0.6778204606146088
19,2,0.0,0.8150008775008775,0.9833141948476509
19,3,1.0,0.824834019449354,0.0
19,3,0.75,0.8271140116856475,-0.22799922362934932
19,3,0.5,0.8077536681656238,1.70803512837302
19,3,0.25,0.7881976513867958,3.663636806255821
19,3,0.0,0.7724307396885561,5.240327976079784
19,4,1.0,0.824834019449354,0.0
19,4,0.75,0.8259911159635276,-0.11570965141736167
19,4,0.5,0.8076161589925239,1.7217860456830048
19,4,0.25,0.791329496836529,3.3504522612824994
19,4,0.0,0.7983656612641944,2.646835818515958
19,5,1.0,0.824834019449354,0.0
19,5,0.75,0.8325103873189335,-0.7676367869579481
19,5,0.5,0.8176522404518944,0.7181778997459531
19,5,0.25,0.8147500026439151,1.0084016805438911
19,5,0.0,0.8080953072748732,1.6738712174480752
19,6,1.0,0.824834019449354,0.0
19,6,0.75,0.8398812277367547,-1.5047208287400693
19,6,0.5,0.8393203828446435,-1.4486363395289525
19,6,0.25,0.8390479816013803,-1.4213962152026305
19,6,0.0,0.8396806618039494,-1.484664235459543
19,7,1.0,0.824834019449354,0.0
19,7,0.75,0.8431033700332646,-1.826935058391066
19,7,0.5,0.8235343682418406,0.1299651207513408
19,7,0.25,0.8209673622382481,0.3866657211105906
19,7,0.0,0.8102936095677711,1.4540409881582894
19,8,1.0,0.824834019449354,0.0
19,8,0.75,0.8273022964963326,-0.24682770469786064
19,8,0.5,0.8234929769695359,0.13410424798180332
19,8,0.25,0.8233798550154962,0.14541644338578186
19,8,0.0,0.8047108796826539,2.0123139766700104
20,0,1.0,0.7811618695823582,0.0
20,0,0.75,0.7869680298306743,-0.5806160248316039
20,0,0.5,0.7891946778711485,-0.8032808288790272
20,0,0.25,0.7762403316380588,0.49215379442993923
20,0,0.0,0.7759185903132777,0.5243279269080525
20,1,1.0,0.7811618695823582,0.0
20,1,0.75,0.7766837462064092,0.44781233759489947
20,1,0.5,0.7743587720191426,0.6803097563215621
20,1,0.25,0.7785446926985539,0.2617176883804362
20,1,0.0,0.7607629912846605,2.039887829769771
20,2,1.0,0.7811618695823582,0.0
20,2,0.75,0.772378378989497,0.878349059286121
20,2,0.5,0.7683069734867606,1.2854896095597645
20,2,0.25,0.7498805976271663,3.1281271955191925
20,2,0.0,0.7466741816134461,3.4487687968912106
20,3,1.0,0.7811618695823582,0.0
20,3,0.75,0.7776256575884368,0.3536211993921401
20,3,0.5,0.7876995595785765,-0.6537689996218288
20,3,0.25,0.7854445070070071,-0.42826374246488497
20,3,0.0,0.795216187892409,-1.4054318310050773
20,4,1.0,0.7811618695823582,0.0
20,4,0.75,0.7861027559508598,-0.49408863685015403
20,4,0.5,0.7845124005990112,-0.3350531016652947
20,4,0.25,0.7877094283308381,-0.6547558748479898
20,4,0.0,0.7934363373716411,-1.2274467789282872
20,5,1.0,0.7811618695823582,0.0
20,5,0.75,0.7880335015389335,-0.6871631956575253
20,5,0.5,0.7811043900355408,0.00574795468174516
20,5,0.25,0.7916131038772548,-1.0451234294896583
20,5,0.0,0.7814709589230969,-0.030908934073869965
20,6,1.0,0.7811618695823582,0.0
20,6,0.75,0.7822091845219483,-0.10473149395900938
20,6,0.5,0.7757816359800107,0.5380233602347517
20,6,0.25,0.7757892658343118,0.5372603748046378
20,6,0.0,0.776768149882904,0.4393719699454235
20,7,1.0,0.7811618695823582,0.0
20,7,0.75,0.783178689821125,-0.20168202387668144
20,7,0.5,0.7601798418099068,2.0982027772451395
20,7,0.25,0.7579554300378415,2.3206439544516733
20,7,0.0,0.7594038221469831,2.1758047435375127
20,8,1.0,0.7811618695823582,0.0
20,8,0.75,0.7745298659081674,0.6632003674190812
20,8,0.5,0.7629729828244831,1.8188886757875111
20,8,0.25,0.7669876770918809,1.4174192490477355
20,8,0.0,0.7398576118069194,4.130425777543878
21,0,1.0,0.8201386944461417,0.0
21,0,0.75,0.8190579811429644,0.1080713303177383
21,0,0.5,0.8101569988518702,0.9981695594271534
21,0,0.25,0.7954879248427595,2.4650769603382194
21,0,0.0,0.7826218904150963,3.7516804031045403
21,1,1.0,0.8201386944461417,0.0
21,1,0.75,0.8237569179424062,-0.36182234962645055
21,1,0.5,0.8134693419446987,0.6669352501443071
21,1,0.25,0.8204470840007917,-0.03083895546499571
21,1,0.0,0.8245299554900265,-0.43912610438847643
21,2,1.0,0.8201386944461417,0.0
21,2,0.75,0.8209151740482797,-0.07764796021380027
21,2,0.5,0.8248426545626648,-0.4703960116523076
21,2,0.25,0.8351751438360487,-1.5036449389907003
21,2,0.0,0.8277719032308039,-0.7633208784662115
21,3,1.0,0.8201386944461417,0.0
21,3,0.75,0.8175096574897553,0.2629036956386388
21,3,0.5,0.8117008422909043,0.8437852155237402
21,3,0.25,0.815542876427507,0.4595818018634734
21,3,0.0,0.7948814437981726,2.525725064796913
21,4,1.0,0.8201386944461417,0.0
21,4,0.75,0.8253750413879775,-0.5236346941835723
21,4,0.5,0.821579818242207,-0.14411237960653134
21,4,0.25,0.8117593388678054,0.8379355578336356
21,4,0.0,0.8275357084407741,-0.7397013994632329
21,5,1.0,0.8201386944461417,0.0
21,5,0.75,0.8266389687257437,-0.6500274279601981
21,5,0.5,0.8331523861705464,-1.3013691724404697
21,5,0.25,0.833845042551747,-1.3706348105605226
21,5,0.0,0.8484957190043912,-2.835702455824951
21,6,1.0,0.8201386944461417,0.0
21,6,0.75,0.8181822200402795,0.19564744058622185
21,6,0.5,0.8088420183510667,1.129667609507501
21,6,0.25,0.8026851503471264,1.745354409901534
21,6,0.0,0.8174714836710022,0.2667210775139539
21,7,1.0,0.8201386944461417,0.0
21,7,0.75,0.8149586370815921,0.5180057364549628
21,7,0.5,0.820783129206033,-0.0644434759891288
21,7,0.25,0.8265895325406567,-0.6450838094514966
21,7,0.0,0.8430917421913819,-2.2953047745240207
21,8,1.0,0.8201386944461417,0.0
21,8,0.75,0.8258748415241286,-0.5736147077986864
21,8,0.5,0.8271520948085069,-0.7013400362365196
21,8,0.25,0.8143256885969916,0.5813005849150121
21,8,0.0,0.8089144422576027,1.1224252188539063
22,0,1.0,0.7772643426100501,0.0
22,0,0.75,0.768240133734069,0.9024208875981099
22,0,0.5,0.7733564812276142,0.39078613824358177
22,0,0.25,0.7618817333028606,1.5382609307189488
22,0,0.0,0.7345017704653822,4.276257214466783
22,1,1.0,0.7772643426100501,0.0
22,1,0.75,0.7770172406034603,0.02471020065897278
22,1,0.5,0.7779126231884422,-0.06482805783921686
22,1,0.25,0.7752837428172777,0.19805997927723196
22,1,0.0,0.7743258077392693,0.29385348707807735
22,2,1.0,0.7772643426100501,0.0
22,2,0.75,0.7680470321059565,0.9217310504093579
22,2,0.5,0.7598309034549756,1.7433439155074448
22,2,0.25,0.7697971779831801,0.7467164626869915
22,2,0.0,0.7716337741784343,0.5630568431615801
22,3,1.0,0.7772643426100501,0.0
22,3,0.75,0.7783268984139438,-0.10625558038936944
22,3,0.5,0.769780344292426,0.748399831762403
22,3,0.25,0.7527686874494368,2.449565516061325
22,3,0.0,0.7251986826908803,5.206565991916978
22,4,1.0,0.7772643426100501,0.0
22,4,0.75,0.7767174486805888,0.054689392946127846
22,4,0.5,0.7679258346614914,0.9338507948558616
22,4,0.25,0.7569984582501815,2.0265884359868536
22,4,0.0,0.7604503060931016,1.681403651694846
22,5,1.0,0.7772643426100501,0.0
22,5,0.75,0.7847476937540396,-0.748335114398957
22,5,0.5,0.7912367530996613,-1.3972410489611287
22,5,0.25,0.791436177431391,-1.417183482134099
22,5,0.0,0.7938950229957134,-1.6630680385663288
22,6,1.0,0.7772643426100501,0.0
22,6,0.75,0.7878506430172336,-1.0586300407183558
22,6,0.5,0.789214271362596,-1.1949928752545969
22,6,0.25,0.7817452636337254,-0.4480921023675366
22,6,0.0,0.7726741739140316,0.45901686960184707
22,7,1.0,0.7772643426100501,0.0
22,7,0.75,0.7775634926813914,-0.0299150071341292
22,7,0.5,0.7535850769776811,2.3679265632368995
22,7,0.25,0.7264873507759388,5.077699183411122
22,7,0.0,0.6904488904018479,8.681545220820219
22,8,1.0,0.7772643426100501,0.0
22,8,0.75,0.769774463662106,0.7489878947944062
22,8,0.5,0.7705398953905829,0.6724447219467189
22,8,0.25,0.7594199557069633,1.7844386903086762
22,8,0.0,0.7257870924224143,5.1477250187635715
23,0,1.0,0.7938403319523332,0.0
23,0,0.75,0.7765649374913443,1.7275394460988913
23,0,0.5,0.7672425126557817,2.6597819296551473
23,0,0.25,0.7504852912518807,4.335504070045248
23,0,0.0,0.7226579889960202,7.118234295631298
23,1,1.0,0.7938403319523332,0.0
23,1,0.75,0.78108794973595,1.2752382216383196
23,1,0.5,0.7761583900624308,1.7681941889902353
23,1,0.25,0.763862498789186,2.997783316314717
23,1,0.0,0.7612763831510158,3.256394880131741
23,2,1.0,0.7938403319523332,0.0
23,2,0.75,0.8024687285228506,-0.8628396570517394
23,2,0.5,0.8100239629908028,-1.6183631038469648
23,2,0.25,0.7994825677258985,-0.5642235773565374
23,2,0.0,0.798248540347293,-0.44082083949598116
23,3,1.0,0.7938403319523332,0.0
23,3,0.75,0.8018173223282665,-0.7976990375933357
23,3,0.5,0.796464215578659,-0.2623883626325818
23,3,0.25,0.7854778069438951,0.8362525008438038
23,3,0.0,0.7698382585667995,2.4002073385533618
23,4,1.0,0.7938403319523332,0.0
23,4,0.75,0.782677444787319,1.1162887165014124
23,4,0.5,0.7669883917554776,2.685194019685555
23,4,0.25,0.7525759833004165,4.126434865191664
23,4,0.0,0.7597976393181455,3.404269263418769
23,5,1.0,0.7938403319523332,0.0
23,5,0.75,0.789711430466417,0.4128901485916159
23,5,0.5,0.7851525860085321,0.8687745943801062
23,5,0.25,0.7860090735562724,0.7831258396060803
23,5,0.0,0.7935577398145235,0.02825921378096785
23,6,1.0,0.7938403319523332,0.0
23,6,0.75,0.8126699359331945,-1.882960398086131
23,6,0.5,0.817498710307941,-2.36583783556078
23,6,0.25,0.8076116954197855,-1.3771363467452336
23,6,0.0,0.8020800093255533,-0.8239677373220178
23,7,1.0,0.7938403319523332,0.0
23,7,0.75,0.7798789357466,1.3961396205733112
23,7,0.5,0.7651422035151799,2.8698128437153247
23,7,0.25,0.7474471032863994,4.639322866593377
23,7,0.0,0.7393770636159697,5.44632683363635
23,8,1.0,0.7938403319523332,0.0
23,8,0.75,0.7881185184850772,0.5721813467255976
23,8,0.5,0.7781031055028288,1.5737226449504371
23,8,0.25,0.7573501482690318,3.649018368330137
23,8,0.0,0.7191312706502183,7.470906130211485
24,0,1.0,0.7572360080400072,0.0
24,0,0.75,0.7527984343992159,0.4437573640791337
24,0,0.5,0.7394942296571382,1.7741778382869056
24,0,0.25,0.73245437003326,2.4781638006747264
24,0,0.0,0.7249383418190218,3.22976662209854
24,1,1.0,0.7572360080400072,0.0
24,1,0.75,0.7648087431693988,-0.7572735129391606
24,1,0.5,0.7667557590252492,-0.9519750985241937
24,1,0.25,0.7698633266007631,-1.262731856075583
24,1,0.0,0.7654979495233731,-0.8261941483365898
24,2,1.0,0.7572360080400072,0.0
24,2,0.75,0.7525523673428602,0.46836406971469957
24,2,0.5,0.745057324728569,1.2178683311438232
24,2,0.25,0.7298355940197729,2.74004140202343
24,2,0.0,0.7040669551164807,5.316905292352658
24,3,1.0,0.7572360080400072,0.0
24,3,0.75,0.774470258365964,-1.7234250325956713
24,3,0.5,0.7829506459880644,-2.5714637948057173
24,3,0.25,0.7870605711506211,-2.9824563110613878
24,3,0.0,0.7985716680879393,-4.1335660047932095
24,4,1.0,0.7572360080400072,0.0
24,4,0.75,0.7367757440531103,2.046026398689693
24,4,0.5,0.6904959432829453,6.674006475706196
24,4,0.25,0.6756426887055289,8.159331933447833
24,4,0.0,0.6759239205438224,8.13120874961848
24,5,1.0,0.7572360080400072,0.0
24,5,0.75,0.741527230507943,1.5708777532064233
24,5,0.5,0.7086842294448941,4.855177859511317
24,5,0.25,0.6940464693742002,6.318953866580701
24,5,0.0,0.6900157468791691,6.722026116083812
24,6,1.0,0.7572360080400072,0.0
24,6,0.75,0.7581798686170607,-0.09438605770534236
24,6,0.5,0.751746430522438,0.5489577517569288
24,6,0.25,0.7415918135471904,1.5644194492816843
24,6,0.0,0.7391156265954573,1.8120381444549971
24,7,1.0,0.7572360080400072,0.0
24,7,0.75,0.7589750167401117,-0.17390087001044607
24,7,0.5,0.7664247947461137,-0.9188786706106455
24,7,0.25,0.7612961299456957,-0.40601219056884963
24,7,0.0,0.7536747637206498,0.35612443193574483
24,8,1.0,0.7572360080400072,0.0
24,8,0.75,0.7560533240616603,0.11826839783469767
24,8,0.5,0.7442512627232364,1.2984745316770852
24,8,0.25,0.7377900703451592,1.9445937694848037
24,8,0.0,0.7134911193789721,4.37448886610351
25,0,1.0,0.8606037703577749,0.0
25,0,0.75,0.8586832020355868,0.1920568322188121
25,0,0.5,0.8512705379980058,0.9333232359769128
25,0,0.25,0.8491020712429416,1.1501699114833341
25,0,0.0,0.8498649540373511,1.0738816320423838
25,1,1.0,0.8606037703577749,0.0
25,1,0.75,0.8644848007114561,-0.38810303536811475
25,1,0.5,0.8697699057131455,-0.9166135355370586
25,1,0.25,0.8680758988032119,-0.7472128445436987
25,1,0.0,0.8694091309589305,-0.8805360601155554
25,2,1.0,0.8606037703577749,0.0
25,2,0.75,0.8654087886079594,-0.4805018250184534
25,2,0.5,0.8660815949700165,-0.5477824612241555
25,2,0.25,0.8657292036608317,-0.5125433303056814
25,2,0.0,0.8603397233428193,0.02640470149556373
25,3,1.0,0.8606037703577749,0.0
25,3,0.75,0.8600590135675746,0.05447567902002737
25,3,0.5,0.8723575208174051,-1.175375045963023
25,3,0.25,0.8677859208498266,-0.7182150492051731
25,3,0.0,0.853368820134223,0.7234950223551917
25,4,1.0,0.8606037703577749,0.0
25,4,0.75,0.8613890844078412,-0.07853140500663214
25,4,0.5,0.8469142441665661,1.3689526191208778
25,4,0.25,0.837703237849487,2.290053250828794
25,4,0.0,0.8342342047323856,2.636956562538928
25,5,1.0,0.8606037703577749,0.0
25,5,0.75,0.8496227534250984,1.0981016932676502
25,5,0.5,0.8524291024291024,0.8174667928672497
25,5,0.25,0.8647885989208614,-0.418482856308644
25,5,0.0,0.8674092994784559,-0.6805529120680998
25,6,1.0,0.8606037703577749,0.0
25,6,0.75,0.8666221942084011,-0.6018423850626231
25,6,0.5,0.8698387227792226,-0.9234952421447673
25,6,0.25,0.881479403581766,-2.087563322399111
25,6,0.0,0.8830124298691878,-2.240865951141291
25,7,1.0,0.8606037703577749,0.0
25,7,0.75,0.8612293538291788,-0.06255834714038455
25,7,0.5,0.8607471400389857,-0.014336968121075877
25,7,0.25,0.8547113622242207,0.5892408133554183
25,7,0.0,0.8386422183740845,2.196155198369043
25,8,1.0,0.8606037703577749,0.0
25,8,0.75,0.862207716451192,-0.16039460934170746
25,8,0.5,0.8685301597535641,-0.7926389395789157
25,8,0.25,0.8673747516677875,-0.6770981310012636
25,8,0.0,0.8517674459511482,0.8836324406626739
26,0,1.0,0.769108585495061,0.0
26,0,0.75,0.7716580457895353,-0.2549460294474337
26,0,0.5,0.7599591164083318,0.9149469086729201
26,0,0.25,0.7590203110228965,1.0088274472164538
26,0,0.0,0.7550924244892159,1.401616100584513
26,1,1.0,0.769108585495061,0.0
26,1,0.75,0.7746145564843252,-0.5505970989264197
26,1,0.5,0.7796648453715537,-1.0556259876492669
26,1,0.25,0.7781813954705781,-0.9072809975517071
26,1,0.0,0.7569616724681761,1.2146913026884865
26,2,1.0,0.769108585495061,0.0
26,2,0.75,0.7629621413782905,0.6146444116770455
26,2,0.5,0.7690033054503764,0.010528004468457475
26,2,0.25,0.7696521399756685,-0.05435544806074999
26,2,0.0,0.7620781536066275,0.7030431888433553
26,3,1.0,0.769108585495061,0.0
26,3,0.75,0.7748150942993278,-0.5706508804266819
26,3,0.5,0.7640233260934762,0.5085259401584774
26,3,0.25,0.7594563722425995,0.9652213252461461
26,3,0.0,0.745456504803764,2.3652080691296984
26,4,1.0,0.769108585495061,0.0
26,4,0.75,0.7610804023049628,0.8028183190098237
26,4,0.5,0.7568353726533523,1.227321284170868
26,4,0.25,0.7471092166038846,2.1999368891176374
26,4,0.0,0.756521371174443,1.2587214320618045
26,5,1.0,0.769108585495061,0.0
26,5,0.75,0.7669193616864396,0.218922380862141
26,5,0.5,0.7493583365225156,1.9750248972545403
26,5,0.25,0.7355458139064628,3.3562771588598217
26,5,0.0,0.7207795984889056,4.83289870061554
26,6,1.0,0.769108585495061,0.0
26,6,0.75,0.7667861399016261,0.2322445593434863
26,6,0.5,0.7643777388161752,0.47308466788857917
26,6,0.25,0.7469549565973364,2.2153628897724653
26,6,0.0,0.7386695161519017,3.043906934315932
26,7,1.0,0.769108585495061,0.0
26,7,0.75,0.7723852905671252,-0.32767050720642343
26,7,0.5,0.7638387196730427,0.5269865822018271
26,7,0.25,0.7396995296054967,2.940905588956433
26,7,0.0,0.7306215485104544,3.848703698460665
26,8,1.0,0.769108585495061,0.0
26,8,0.75,0.7607047101079386,0.8403875387122395
26,8,0.5,0.7591427063713677,0.9965879123693289
26,8,0.25,0.7503518692274228,1.8756716267638196
26,8,0.0,0.7346175473891668,3.4491038105894156
27,0,1.0,0.8909323483331758,0.0
27,0,0.75,0.8993230354470274,-0.8390687113851603
27,0,0.5,0.910250388035905,-1.9318039702729162
27,0,0.25,0.9050118125299993,-1.4079464196823488
27,0,0.0,0.8850210555502027,0.5911292782973088
27,1,1.0,0.8909323483331758,0.0
27,1,0.75,0.8756594476661451,1.5272900667030687
27,1,0.5,0.8783781720117201,1.2554176321455723
27,1,0.25,0.8786668272470715,1.2265521086104347
27,1,0.0,0.8842161970966543,0.6716151236521473
27,2,1.0,0.8909323483331758,0.0
27,2,0.75,0.8881596916219346,0.27726567112411615
27,2,0.5,0.876005047843379,1.4927300489796846
27,2,0.25,0.864626271805677,2.6306076527498834
27,2,0.0,0.8466000967445136,4.433225158866216
27,3,1.0,0.8909323483331758,0.0
27,3,0.75,0.895880799334682,-0.49484510015062044
27,3,0.5,0.8873497401597311,0.358260817344469
27,3,0.25,0.8728248719618851,1.8107476371290732
27,3,0.0,0.8613916400219725,2.9540708311203256
27,4,1.0,0.8909323483331758,0.0
27,4,0.75,0.8833694900898525,0.7562858243323256
27,4,0.5,0.8610732687109668,2.9859079622209017
27,4,0.25,0.8495813334213019,4.135101491187387
27,4,0.0,0.8519979160953661,3.893443223780968
27,5,1.0,0.8909323483331758,0.0
27,5,0.75,0.8825882525639566,0.834409576921924
27,5,0.5,0.8663545170700455,2.457783126313029
27,5,0.25,0.8592974072987635,3.1634941034412334
27,5,0.0,0.8592974072987635,3.1634941034412334
27,6,1.0,0.8909323483331758,0.0
27,6,0.75,0.8955505994726578,-0.4618251139481999
27,6,0.5,0.8961489463214231,-0.5216597988247251
27,6,0.25,0.9005706761037087,-0.9638327770532862
27,6,0.0,0.8785740258511265,1.2358322482049267
27,7,1.0,0.8909323483331758,0.0
27,7,0.75,0.8796111167363984,1.1321231596777448
27,7,0.5,0.8737189847164791,1.7213363616696675
27,7,0.25,0.8764970394800286,1.4435308853147255
27,7,0.0,0.8691752479339366,2.175710039923917
27,8,1.0,0.8909323483331758,0.0
27,8,0.75,0.8879940838220695,0.29382645111063477
27,8,0.5,0.8926770362542671,-0.17446879210912813
27,8,0.25,0.8894710247061106,0.1461323627065192
27,8,0.0,0.8955272776153177,-0.4594929282141891
28,0,1.0,0.8001819274588937,0.0
28,0,0.75,0.8060616295182222,-0.5879702059328529
28,0,0.5,0.829689118194969,-2.950719073607533
28,0,0.25,0.8314406350175099,-3.125870755861615
28,0,0.0,0.8315454493134272,-3.1363521854533505
28,1,1.0,0.8001819274588937,0.0
28,1,0.75,0.7870082043088747,1.3173723150018968
28,1,0.5,0.7817400856112484,1.8441841847645302
28,1,0.25,0.7984784386599755,0.170348879891824
28,1,0.0,0.7943162654255307,0.5865662033363028
28,2,1.0,0.8001819274588937,0.0
28,2,0.75,0.7954820597920947,0.46998676667989736
28,2,0.5,0.7890780686188948,1.110385883999887
28,2,0.25,0.7830806706940148,1.7101256764878947
28,2,0.0,0.7852462923604927,1.4935635098401012
28,3,1.0,0.8001819274588937,0.0
28,3,0.75,0.8148575993728243,-1.46756719139306
28,3,0.5,0.8017764886077757,-0.15945611488820122
28,3,0.25,0.7976952426501331,0.24866848087605753
28,3,0.0,0.7790654593910254,2.1116468067868266
28,4,1.0,0.8001819274588937,0.0
28,4,0.75,0.7879838537789713,1.2198073679922428
28,4,0.5,0.7922562681312952,0.7925659327598478
28,4,0.25,0.7817500672294264,1.84318602294673
28,4,0.0,0.7785557137496685,2.162621370922524
28,5,1.0,0.8001819274588937,0.0
28,5,0.75,0.7968759082904955,0.3306019168398233
28,5,0.5,0.7764611332017833,2.372079425711038
28,5,0.25,0.7644434892507105,3.573843820818323
28,5,0.0,0.7724964689395586,2.7685458519335127
28,6,1.0,0.8001819274588937,0.0
28,6,0.75,0.8104023688452694,-1.0220441386375678
28,6,0.5,0.8183518984810441,-1.8169971022150344
28,6,0.25,0.8140394505562392,-1.3857523097345448
28,6,0.0,0.8153472096229197,-1.5165282164026017
28,7,1.0,0.8001819274588937,0.0
28,7,0.75,0.8088242968513704,-0.8642369392476645
28,7,0.5,0.8023255898344319,-0.21436623755382023
28,7,0.25,0.7941220839297257,0.6059843529167996
28,7,0.0,0.7884467756202894,1.1735151838604296
28,8,1.0,0.8001819274588937,0.0
28,8,0.75,0.8129094737794794,-1.2727546320585703
28,8,0.5,0.8212990036790193,-2.1117076220125597
28,8,0.25,0.8230637015254105,-2.2881774066516813
28,8,0.0,0.8162373684621484,-1.6055441003254733
29,0,1.0,0.824177103402659,0.0
29,0,0.75,0.8226165623595894,0.15605410430696853
29,0,0.5,0.8159733036694181,0.8203799733240924
29,0,0.25,0.8152989830616304,0.8878120341028639
29,0,0.0,0.8199836356667319,0.41934677359271033
29,1,1.0,0.824177103402659,0.0
29,1,0.75,0.8217806211932105,0.23964822094485472
29,1,0.5,0.8293385362922169,-0.5161432889557838
29,1,0.25,0.8229915749862745,0.11855284163845292
29,1,0.0,0.8341631239555537,-0.9986020552894659
29,2,1.0,0.824177103402659,0.0
29,2,0.75,0.8254591085643852,-0.1282005161726163
29,2,0.5,0.816455647370925,0.772145603173402
29,2,0.25,0.8071519336303323,1.702516977232671
29,2,0.0,0.7973082112147448,2.6868892187914217
29,3,1.0,0.824177103402659,0.0
29,3,0.75,0.8179836056477547,0.6193497754904298
29,3,0.5,0.8154981755398252,0.8678927862833863
29,3,0.25,0.80984873129473,1.4328372107929033
29,3,0.0,0.7905824398725007,3.3594663530158386
29,4,1.0,0.824177103402659,0.0
29,4,0.75,0.79602126974305,2.8155833659609053
29,4,0.5,0.770271262734903,5.390584066775606
29,4,0.25,0.7616587344606784,6.2518368941980595
29,4,0.0,0.7905241893760211,3.365291402663795
29,5,1.0,0.824177103402659,0.0
29,5,0.75,0.8155565614922644,0.862054191039463
29,5,0.5,0.8062085782626529,1.796852514000613
29,5,0.25,0.8015245832004375,2.2652520202221527
29,5,0.0,0.8088756423423776,1.5301461060281407
29,6,1.0,0.824177103402659,0.0
29,6,0.75,0.822331240283312,0.1845863119347091
29,6,0.5,0.8282613204039017,-0.4084217001242618
29,6,0.25,0.8378133165014293,-1.3636213098770278
29,6,0.0,0.8350319179737953,-1.085481457113624
29,7,1.0,0.824177103402659,0.0
29,7,0.75,0.8201019252491821,0.40751781534769105
29,7,0.5,0.824618264982715,-0.044116158005591544
29,7,0.25,0.812297049632797,1.188005376986201
29,7,0.0,0.7930375821665351,3.1139521236123957
29,8,1.0,0.824177103402659,0.0
29,8,0.75,0.8296949987889006,-0.5517895386241589
29,8,0.5,0.8264527440596939,-0.22756406570348942
29,8,0.25,0.8073448004724549,1.6832302930204102
29,8,0.0,0.7763070604025768,4.787004300008224
30,0,1.0,0.8075818525997501,0.0
30,0,0.75,0.8152037207094525,-0.7621868109702334
30,0,0.5,0.8157662016721597,-0.8184349072409614
30,0,0.25,0.8288471617934137,-2.126530919366354
30,0,0.0,0.8461328922057196,-3.8551039605969506
30,1,1.0,0.8075818525997501,0.0
30,1,0.75,0.8053116686996469,0.2270183900103251
30,1,0.5,0.7935049565416903,1.407689605805984
30,1,0.25,0.791150438497358,1.6431414102392128
30,1,0.0,0.7832620337588957,2.4319818840854435
30,2,1.0,0.8075818525997501,0.0
30,2,0.75,0.802009347269504,0.5572505330246114
30,2,0.5,0.8147882871786938,-0.7206434578943655
30,2,0.25,0.8216738839084241,-1.409203130867398
30,2,0.0,0.8330507561099436,-2.5468903510193486
30,3,1.0,0.8075818525997501,0.0
30,3,0.75,0.798023971014607,0.9557881585143146
30,3,0.5,0.7781918411612723,2.939001143847786
30,3,0.25,0.7675701438175833,4.001170878216687
30,3,0.0,0.7406668033841406,6.691504921560954
30,4,1.0,0.8075818525997501,0.0
30,4,0.75,0.7976071382766265,0.9974714323123579
30,4,0.5,0.802223230718806,0.5358621880944159
30,4,0.25,0.7960734971360824,1.1508355463667685
30,4,0.0,0.8012587218199406,0.6323130779809505
30,5,1.0,0.8075818525997501,0.0
30,5,0.75,0.8122138753932145,-0.46320227934644187
30,5,0.5,0.8015544145299481,0.6027438069801994
30,5,0.25,0.8032653587108781,0.43164938888720084
30,5,0.0,0.8079754152441639,-0.039356264441381406
30,6,1.0,0.8075818525997501,0.0
30,6,0.75,0.8173310471210438,-0.9749194521293636
30,6,0.5,0.8282142042877744,-2.063235168802424
30,6,0.25,0.831268752633797,-2.368690003404683
30,6,0.0,0.847017730603363,-3.9435878003612923
30,7,1.0,0.8075818525997501,0.0
30,7,0.75,0.8140744215801257,-0.6492568980375535
30,7,0.5,0.7843648029335862,2.321704966616389
30,7,0.25,0.7573815100857624,5.020034251398775
30,7,0.0,0.7595894752773136,4.799237732243656
30,8,1.0,0.8075818525997501,0.0
30,8,0.75,0.8108665470338705,-0.3284694434120383
30,8,0.5,0.804989560963388,0.25922916363620985
30,8,0.25,0.8073335601166484,0.02482924831017641
30,8,0.0,0.8122471379579852,-0.4665285358235072
31,0,1.0,0.7148264442098786,0.0
31,0,0.75,0.7265893404845885,-1.1762896274709833
31,0,0.5,0.7195002527293815,-0.4673808519502831
31,0,0.25,0.7158149890188013,-0.09885448089226312
31,0,0.0,0.7127187490495377,0.21076951603409277
31,1,1.0,0.7148264442098786,0.0
31,1,0.75,0.7214699282936228,-0.6643484083744156
31,1,0.5,0.718192973340583,-0.3366529130704343
31,1,0.25,0.7051799539521806,0.9646490257698037
31,1,0.0,0.6983676177149806,1.645882649489805
31,2,1.0,0.7148264442098786,0.0
31,2,0.75,0.7102519786030083,0.45744656068703593
31,2,0.5,0.7000609032351136,1.4765540974765012
31,2,0.25,0.6904759981079196,2.4350446101959022
31,2,0.0,0.6822852448784049,3.2541199331473702
31,3,1.0,0.7148264442098786,0.0
31,3,0.75,0.7152959972899425,-0.04695530800639114
31,3,0.5,0.7147255181980585,0.010092601182010164
31,3,0.25,0.7107420166500973,0.4084427559781334
31,3,0.0,0.7112809623236215,0.354548188625714
31,4,1.0,0.7148264442098786,0.0
31,4,0.75,0.7226992667294031,-0.787282251952448
31,4,0.5,0.7223257812543995,-0.7499337044520882
31,4,0.25,0.712786525564716,0.20399186451626194
31,4,0.0,0.713815572600103,0.10108716097756432
31,5,1.0,0.7148264442098786,0.0
31,5,0.75,0.7188596303105733,-0.4033186100694697
31,5,0.5,0.7179619934148996,-0.31355492050210154
31,5,0.25,0.7139147742333389,0.09116699765396863
31,5,0.0,0.7116335554280814,0.3192888781797243
31,6,1.0,0.7148264442098786,0.0
31,6,0.75,0.7278885346487483,-1.3062090438869634
31,6,0.5,0.7163559206107304,-0.15294764008517703
31,6,0.25,0.7212595029992208,-0.6433058789342194
31,6,0.0,0.7089073226387153,0.5919121571163366
31,7,1.0,0.7148264442098786,0.0
31,7,0.75,0.7090633448091135,0.5763099400765137
31,7,0.5,0.7063918351297614,0.8434609080117172
31,7,0.25,0.6913212109148104,2.350523329506826
31,7,0.0,0.6750566447215763,3.976979948830228
31,8,1.0,0.7148264442098786,0.0
31,8,0.75,0.7173947989854799,-0.2568354775601245
31,8,0.5,0.7234480130658063,-0.8621568855927686
31,8,0.25,0.7064011432642006,0.842530094567806
31,8,0.0,0.6937219666740458,2.1104477535832777
32,0,1.0,0.8057874407478529,0.0
32,0,0.75,0.8096989098888747,-0.3911469141021806
32,0,0.5,0.8040023731744161,0.17850675734367716
32,0,0.25,0.801120508874539,0.46669318733139065
32,0,0.0,0.790041243460622,1.5746197287230923
32,1,1.0,0.8057874407478529,0.0
32,1,0.75,0.8059644168201845,-0.017697607233158053
32,1,0.5,0.8088630213380822,-0.30755805902292765
32,1,0.25,0.7999790201790221,0.5808420568830797
32,1,0.0,0.7983192581927228,0.7468182555130154
32,2,1.0,0.8057874407478529,0.0
32,2,0.75,0.8090648284831994,-0.3277387735346471
32,2,0.5,0.8045132774076558,0.1274163340197143
32,2,0.25,0.8038193610662445,0.19680796816083923
32,2,0.0,0.7984176812186887,0.7369759529164188
32,3,1.0,0.8057874407478529,0.0
32,3,0.75,0.7999865458289852,0.5800894918867705
32,3,0.5,0.7973963417562995,0.8391098991553436
32,3,0.25,0.7872004477977314,1.8586992950121561
32,3,0.0,0.7825417941594417,2.3245646588411217
32,4,1.0,0.8057874407478529,0.0
32,4,0.75,0.7948388846638319,1.094855608402101
32,4,0.5,0.7943040279095556,1.1483412838297347
32,4,0.25,0.7835401766926728,2.224726405518007
32,4,0.0,0.7753809625838735,3.0406478163979456
32,5,1.0,0.8057874407478529,0.0
32,5,0.75,0.8095886035972018,-0.3801162849348838
32,5,0.5,0.8054991898987427,0.028825084911021648
32,5,0.25,0.8079087909716012,-0.2121350223748264
32,5,0.0,0.8170682434097069,-1.128080266185394
32,6,1.0,0.8057874407478529,0.0
32,6,0.75,0.816862842366228,-1.1075401618375058
32,6,0.5,0.8124069967972407,-0.6619556049387798
32,6,0.25,0.8256480913916353,-1.9860650643782396
32,6,0.0,0.8300815448143486,-2.429410406649568
32,7,1.0,0.8057874407478529,0.0
32,7,0.75,0.8044984122789725,0.12890284688804599
32,7,0.5,0.8057014090080603,0.008603173979260248
32,7,0.25,0.8057765019790337,0.001093876881919087
32,7,0.0,0.7882946271790949,1.749281356875798
32,8,1.0,0.8057874407478529,0.0
32,8,0.75,0.8272651453004202,-2.1477704552567256
32,8,0.5,0.823936494164849,-1.814905341699613
32,8,0.25,0.826131194128476,-2.034375338062311
32,8,0.0,0.8274156369227552,-2.1628196174902303
33,0,1.0,0.8683532268027638,0.0
33,0,0.75,0.8646828198111829,0.36704069915809434
33,0,0.5,0.866528902816602,0.18243239861618354
33,0,0.25,0.8561798194738146,1.2173407328949226
33,0,0.0,0.8494887356983938,1.8864491104370051
33,1,1.0,0.8683532268027638,0.0
33,1,0.75,0.8641331539543231,0.42200728484407257
33,1,0.5,0.8695372244175169,-0.1183997614753074
33,1,0.25,0.874184385425167,-0.5831158622403132
33,1,0.0,0.8570077244239791,1.1345502378784733
33,2,1.0,0.8683532268027638,0.0
33,2,0.75,0.8698123687407561,-0.14591419379922366
33,2,0.5,0.8670304167506558,0.13228100521079922
33,2,0.25,0.8613757859191415,0.6977440883622288
33,2,0.0,0.8448643840434025,2.348884275936136
33,3,1.0,0.8683532268027638,0.0
33,3,0.75,0.8655367778034153,0.281644899934852
33,3,0.5,0.8645541652216409,0.37990615811229755
33,3,0.25,0.8483894547583508,1.996377204441302
33,3,0.0,0.8438512727459349,2.450195405682898
33,4,1.0,0.8683532268027638,0.0
33,4,0.75,0.8735080304897032,-0.5154803686939324
33,4,0.5,0.8834370620819445,-1.5083835279180668
33,4,0.25,0.8728282971328878,-0.44750703301239536
33,4,0.0,0.8919778744895218,-2.3624647686757982
33,5,1.0,0.8683532268027638,0.0
33,5,0.75,0.8795558751471378,-1.120264834437401
33,5,0.5,0.8647927177480258,0.3560509054738037
33,5,0.25,0.8725412640032664,-0.4188037200502537
33,5,0.0,0.8710055035611278,-0.26522767583639917
33,6,1.0,0.8683532268027638,0.0
33,6,0.75,0.8671130233273294,0.12402034754344093
33,6,0.5,0.8527387268239137,1.5614499978850116
33,6,0.25,0.8540936355982347,1.4259591204529132
33,6,0.0,0.8474103854842265,2.0942841318537297
33,7,1.0,0.8683532268027638,0.0
33,7,0.75,0.8580180736869643,1.0335153115799578
33,7,0.5,0.841399148115566,2.695407868719779
33,7,0.25,0.8345336280676751,3.3819598735088774
33,7,0.0,0.8301293407543798,3.8223886048384004
33,8,1.0,0.8683532268027638,0.0
33,8,0.75,0.8753668036589098,-0.7013576856146009
33,8,0.5,0.8670462133311676,0.130701347159623
33,8,0.25,0.8651738419510491,0.31793848517147616
33,8,0.0,0.8568274889411748,1.1525737861589058
34,0,1.0,0.8874552648202008,0.0
34,0,0.75,0.8840206013658146,0.34346634543861443
34,0,0.5,0.8755614086471136,1.1893856173087136
34,0,0.25,0.8667602295208746,2.0695035299326148
34,0,0.0,0.8569877459046491,3.046751891555166
34,1,1.0,0.8874552648202008,0.0
34,1,0.75,0.8821304796933979,0.53247851268029
34,1,0.5,0.8694348369741344,1.802042784606639
34,1,0.25,0.8724397276285749,1.501553719162585
34,1,0.0,0.868172959030942,1.9282305789258714
34,2,1.0,0.8874552648202008,0.0
34,2,0.75,0.8790831667837016,0.8372098036499187
34,2,0.5,0.8774221632130933,1.0033101607107464
34,2,0.25,0.8692990511172329,1.8156213702967827
34,2,0.0,0.8764885703446449,1.0966694475555872
34,3,1.0,0.8874552648202008,0.0
34,3,0.75,0.8821849422508412,0.5270322569359553
34,3,0.5,0.8805168105843343,0.6938454235866476
34,3,0.25,0.8696962563169799,1.7759008503220874
34,3,0.0,0.8631121245928706,2.4343140227330196
34,4,1.0,0.8874552648202008,0.0
34,4,0.75,0.8919998830057351,-0.45446181855343104
34,4,0.5,0.8868405918436049,0.061467297659589804
34,4,0.25,0.8857479741755285,0.17072906446722325
34,4,0.0,0.8768931471959853,1.056211762421544
34,5,1.0,0.8874552648202008,0.0
34,5,0.75,0.8868336012221666,0.062166359803417226
34,5,0.5,0.8835550534192621,0.3900211400938658
34,5,0.25,0.87142556919462,1.6029695625580764
34,5,0.0,0.8841261349718349,0.3329129848365864
34,6,1.0,0.8874552648202008,0.0
34,6,0.75,0.8829161785277777,0.4539086292423056
34,6,0.5,0.8717521907504521,1.570307406974869
34,6,0.25,0.8736389222678186,1.3816342552382177
34,6,0.0,0.8710171568627452,1.6438107957455594
34,7,1.0,0.8874552648202008,0.0
34,7,0.75,0.8766111595089464,1.0844105311254348
34,7,0.5,0.8752809079250385,1.217435689516222
34,7,0.25,0.8713926905735461,1.6062574246654693
34,7,0.0,0.8539866918515826,3.346857296861816
34,8,1.0,0.8874552648202008,0.0
34,8,0.75,0.8794815126158152,0.7973752204385565
34,8,0.5,0.8649621238583277,2.249314096187305
34,8,0.25,0.8631375627173947,2.431770210280604
34,8,0.0,0.849832292728923,3.762297209127774
35,0,1.0,0.71758820622222,0.0
35,0,0.75,0.7191532746952823,-0.15650684730623698
35,0,0.5,0.71258764365423,0.5000562567989975
35,0,0.25,0.7033150594893047,1.4273146732915243
35,0,0.0,0.6773325117269332,4.0255694495286765
35,1,1.0,0.71758820622222,0.0
35,1,0.75,0.717577970215896,0.0010236006323993685
35,1,0.5,0.7155765963008953,0.2011609921324653
35,1,0.25,0.7133472781282892,0.4240928093930729
35,1,0.0,0.7167267167372842,0.08614894849358068
35,2,1.0,0.71758820622222,0.0
35,2,0.75,0.7129518220463453,0.46363841758746416
35,2,0.5,0.7135325764703182,0.4055629751901768
35,2,0.25,0.7094229368855521,0.8165269336667835
35,2,0.0,0.7016865079365079,1.5901698285712085
35,3,1.0,0.71758820622222,0.0
35,3,0.75,0.7173276522147668,0.026055400745317314
35,3,0.5,0.7212892501741037,-0.37010439518837535
35,3,0.25,0.714636834941554,0.29513712806660264
35,3,0.0,0.7003857934430711,1.7202412779148912
35,4,1.0,0.71758820622222,0.0
35,4,0.75,0.7121797872993328,0.5408418922887126
35,4,0.5,0.7135871229013098,0.40010833209102037
35,4,0.25,0.7243770911167302,-0.6788884894510239
35,4,0.0,0.7151912123258299,0.23969938963900317
35,5,1.0,0.71758820622222,0.0
35,5,0.75,0.7123533504520574,0.5234855770162583
35,5,0.5,0.701094803746637,1.6493402475582952
35,5,0.25,0.6883127615399389,2.927544468228105
35,5,0.0,0.6939242341058441,2.366397211637583
35,6,1.0,0.71758820622222,0.0
35,6,0.75,0.719306431949903,-0.1718225727682987
35,6,0.5,0.7138546755782926,0.3733530643927341
35,6,0.25,0.7201188417831172,-0.25306355608972764
35,6,0.0,0.7201394837878144,-0.25512775655944786
35,7,1.0,0.71758820622222,0.0
35,7,0.75,0.7215029818955848,-0.39147756733648453
35,7,0.5,0.7330603654264419,-1.5472159204221958
35,7,0.25,0.7320529670602197,-1.4464760837999746
35,7,0.0,0.7392880176225505,-2.1699811400330504
35,8,1.0,0.71758820622222,0.0
35,8,0.75,0.7159993865166323,0.1588819705587663
35,8,0.5,0.7205403362949964,-0.2952130072776393
35,8,0.25,0.7229554425236471,-0.5367236301427103
35,8,0.0,0.7188419508489367,-0.12537446267166796
36,0,1.0,0.7506855071143063,0.0
36,0,0.75,0.7322918085174182,1.8393698596888108
36,0,0.5,0.7204070780460594,3.027842906824685
36,0,0.25,0.7112361991435806,3.9449307970725656
36,0,0.0,0.7070348267312461,4.365068038306019
36,1,1.0,0.7506855071143063,0.0
36,1,0.75,0.738137954414956,1.2547552699350262
36,1,0.5,0.7165768996768173,3.4108607437489002
36,1,0.25,0.7006101299482722,5.007537716603405
36,1,0.0,0.68089341720937,6.979208990493624
36,2,1.0,0.7506855071143063,0.0
36,2,0.75,0.7286224374430188,2.206306967128746
36,2,0.5,0.7161650972503211,3.452040986398519
36,2,0.25,0.6956900113301124,5.499549578419383
36,2,0.0,0.6720060358516542,7.867947126265207
36,3,1.0,0.7506855071143063,0.0
36,3,0.75,0.7403183498970469,1.0367157217259337
36,3,0.5,0.7325662903998277,1.811921671447858
36,3,0.25,0.7125168405180008,3.8168666596305467
36,3,0.0,0.696119331949467,5.456617516483931
36,4,1.0,0.7506855071143063,0.0
36,4,0.75,0.7533448675915956,-0.26593604772893187
36,4,0.5,0.7350823960124165,1.5603111101889722
36,4,0.25,0.7333587823491997,1.732672476510655
36,4,0.0,0.7456709900888463,0.5014517025459964
36,5,1.0,0.7506855071143063,0.0
36,5,0.75,0.7663304110393291,-1.5644903925022824
36,5,0.5,0.7737616756013694,-2.3076168487063176
36,5,0.25,0.7694231045590477,-1.873759744474146
36,5,0.0,0.7573159422389057,-0.6630435124599487
36,6,1.0,0.7506855071143063,0.0
36,6,0.75,0.7371487253369092,1.3536781777397033
36,6,0.5,0.7363870170185315,1.4298490095774774
36,6,0.25,0.7173568688803269,3.3328638233979357
36,6,0.0,0.7121736607706227,3.8511846343683542
36,7,1.0,0.7506855071143063,0.0
36,7,0.75,0.7347447472218785,1.5940759892427714
36,7,0.5,0.7015782726861463,4.910723442816001
36,7,0.25,0.6991259074028552,5.155959971145108
36,7,0.0,0.6809101792086013,6.977532790570495
36,8,1.0,0.7506855071143063,0.0
36,8,0.75,0.7281810569309081,2.2504450183398195
36,8,0.5,0.7137729086650599,3.6912598449246325
36,8,0.25,0.6929114866931783,5.777402042112801
36,8,0.0,0.6595771680819571,9.110833903234916
37,0,1.0,0.8686785345986597,0.0
37,0,0.75,0.8730592350197907,-0.4380700421130923
37,0,0.5,0.8717400204503597,-0.3061485851699963
37,0,0.25,0.8691834777208196,-0.050494312215987325
37,0,0.0,0.8744746886657383,-0.5796154067078563
37,1,1.0,0.8686785345986597,0.0
37,1,0.75,0.862375779669519,0.6302754929140786
37,1,0.5,0.8645417782512235,0.41367563474362656
37,1,0.25,0.8383879498786484,3.0290584720011338
37,1,0.0,0.8329377196830949,3.57408149155648
37,2,1.0,0.8686785345986597,0.0
37,2,0.75,0.8602039086613558,0.847462593730397
37,2,0.5,0.8541145340447207,1.4564000553939027
37,2,0.25,0.8388625567694368,2.981597782922296
37,2,0.0,0.8160620614191704,5.2616473179489365
37,3,1.0,0.8686785345986597,0.0
37,3,0.75,0.8866132683495213,-1.793473375086152
37,3,0.5,0.8806199500348857,-1.1941415436225955
37,3,0.25,0.8812010439166157,-1.2522509317955954
37,3,0.0,0.8737409923830406,-0.5062457784380858
37,4,1.0,0.8686785345986597,0.0
37,4,0.75,0.8646819731775761,0.3996561421083622
37,4,0.5,0.8578725373759707,1.0805997222689046
37,4,0.25,0.857988378764692,1.0690155833967707
37,4,0.0,0.8873735099216887,-1.8694975323028995
37,5,1.0,0.8686785345986597,0.0
37,5,0.75,0.8762011689319045,-0.7522634333244738
37,5,0.5,0.8728820092145859,-0.4203474615926184
37,5,0.25,0.8768957024046787,-0.8217167806018999
37,5,0.0,0.873291791939057,-0.4613257340397303
37,6,1.0,0.8686785345986597,0.0
37,6,0.75,0.872084352649094,-0.3405818050434273
37,6,0.5,0.8693305258021863,-0.06519912035265474
37,6,0.25,0.8700247422997507,-0.13462077010909512
37,6,0.0,0.8704752076970635,-0.17966730984038115
37,7,1.0,0.8686785345986597,0.0
37,7,0.75,0.8562251084427692,1.2453426155890512
37,7,0.5,0.8483799141534469,2.02986204452128
37,7,0.25,0.8451403279644161,2.3538206634243664
37,7,0.0,0.8043382133061202,6.434032129253953
37,8,1.0,0.8686785345986597,0.0
37,8,0.75,0.8686612789503293,0.0017255648330438689
37,8,0.5,0.8694060037747123,-0.07274691760525975
37,8,0.25,0.8663410922915765,0.2337442307083215
37,8,0.0,0.8645425107699063,0.41360238287534434
38,0,1.0,0.7522591725483625,0.0
38,0,0.75,0.7403535505827067,1.190562196565581
38,0,0.5,0.7241955914876816,2.8063581060680853
38,0,0.25,0.729613530526277,2.264564202208552
38,0,0.0,0.7240218699899758,2.8237302558386745
38,1,1.0,0.7522591725483625,0.0
38,1,0.75,0.7573047923209077,-0.5045619772545251
38,1,0.5,0.7523313916199699,-0.007221907160737118
38,1,0.25,0.7527685296896449,-0.05093571412824183
38,1,0.0,0.7440331924584834,0.822598008987907
38,2,1.0,0.7522591725483625,0.0
38,2,0.75,0.749311133568409,0.2948038979953549
38,2,0.5,0.7536223234709847,-0.13631509226221805
38,2,0.25,0.7600399548905437,-0.7780782342181158
38,2,0.0,0.7502283774878558,0.20307950605067404
38,3,1.0,0.7522591725483625,0.0
38,3,0.75,0.7561157574561062,-0.3856584907743654
38,3,0.5,0.7689911974972742,-1.6732024948911683
38,3,0.25,0.7691856916611407,-1.6926519112778204
38,3,0.0,0.7551132748355464,-0.28541022871838573
38,4,1.0,0.7522591725483625,0.0
38,4,0.75,0.7449544075414145,0.7304765006947989
38,4,0.5,0.7409658035625564,1.129336898580613
38,4,0.25,0.7459569382952027,0.6302234253159789
38,4,0.0,0.7530530558492514,-0.07938833008889201
38,5,1.0,0.7522591725483625,0.0
38,5,0.75,0.749442089661475,0.2817082886887534
38,5,0.5,0.7484584732198947,0.3800699328467827
38,5,0.25,0.7583332686198065,-0.6074096071444046
38,5,0.0,0.7904883797791057,-3.822920723074319
38,6,1.0,0.7522591725483625,0.0
38,6,0.75,0.7470566126380079,0.5202559910354565
38,6,0.5,0.7339520256996186,1.8307146848743905
38,6,0.25,0.7325106510495376,1.974852149882489
38,6,0.0,0.704264197562549,4.799497498581351
38,7,1.0,0.7522591725483625,0.0
38,7,0.75,0.7485405006569359,0.3718671891426606
38,7,0.5,0.7555645303987057,-0.3305357850343249
38,7,0.25,0.7316129538977884,2.0646218650574144
38,7,0.0,0.7121622493764739,4.009692317188862
38,8,1.0,0.7522591725483625,0.0
38,8,0.75,0.7374199828840393,1.4839189664323182
38,8,0.5,0.7298377205758128,2.2421451972549744
38,8,0.25,0.7307224361560392,2.153673639232334
38,8,0.0,0.7210072093863914,3.1251963161971097
39,0,1.0,0.8199229076675744,0.0
39,0,0.75,0.8203666506079774,-0.044374294040305795
39,0,0.5,0.8076732879966261,1.2249619670948286
39,0,0.25,0.7973226335790208,2.2600274088553585
39,0,0.0,0.8032679818201758,1.6654925847398583
39,1,1.0,0.8199229076675744,0.0
39,1,0.75,0.8217367724590586,-0.18138647914842654
39,1,0.5,0.8264407147966836,-0.651780712910921
39,1,0.25,0.8179738200942032,0.19490875733712
39,1,0.0,0.8097083343586992,1.0214573308875208
39,2,1.0,0.8199229076675744,0.0
39,2,0.75,0.8237567565980195,-0.38338489304451384
39,2,0.5,0.8255311383120373,-0.5608230644462919
39,2,0.25,0.8233810224355061,-0.3458114767931786
39,2,0.0,0.8259836994655362,-0.6060791797961818
39,3,1.0,0.8199229076675744,0.0
39,3,0.75,0.8033160372411478,1.6606870426426612
39,3,0.5,0.7828199403603038,3.7102967307270585
39,3,0.25,0.7787183388001988,4.120456886737555
39,3,0.0,0.7348555852421023,8.50673224254721
39,4,1.0,0.8199229076675744,0.0
39,4,0.75,0.8231085608146207,-0.318565314704633
39,4,0.5,0.8035419999760316,1.6380907691542768
39,4,0.25,0.7852696468649146,3.4653260802659736
39,4,0.0,0.7805710191030037,3.9351888564570614
39,5,1.0,0.8199229076675744,0.0
39,5,0.75,0.8357858100505159,-1.5862902382941524
39,5,0.5,0.8490665980954548,-2.9143690427880453
39,5,0.25,0.8489086718104271,-2.89857641428527
39,5,0.0,0.829982111933548,-1.005920426597362
39,6,1.0,0.8199229076675744,0.0
39,6,0.75,0.8331021412670995,-1.3179233599525109
39,6,0.5,0.8458683160160223,-2.594540834844794
39,6,0.25,0.8293296704737476,-0.9406762806173252
39,6,0.0,0.837283785802648,-1.7360878135073587
39,7,1.0,0.8199229076675744,0.0
39,7,0.75,0.8236778297457655,-0.37549220781911696
39,7,0.5,0.8184459556950325,0.1476951972541829
39,7,0.25,0.8146747580458431,0.5248149621731257
39,7,0.0,0.8028288904875241,1.7094017180050214
39,8,1.0,0.8199229076675744,0.0
39,8,0.75,0.8173925799028396,0.2530327764734719
39,8,0.5,0.8211986146784562,-0.12757070108818658
39,8,0.25,0.8369155376157493,-1.6992629948174964
39,8,0.0,0.8514391971629891,-3.151628949541474
40,0,1.0,0.781048094964371,0.0
40,0,0.75,0.7662953898730522,1.4752705091318763
40,0,0.5,0.7617552252526785,1.9292869711692529
40,0,0.25,0.7500570014425039,3.099109352186713
40,0,0.0,0.7217692608996957,5.927883406467527
40,1,1.0,0.781048094964371,0.0
40,1,0.75,0.7751520060347988,0.5896088929572163
40,1,0.5,0.7635924609347466,1.7455634029624356
40,1,0.25,0.758471782462449,2.2576312501922047
40,1,0.0,0.7644865531928188,1.6561541771552224
40,2,1.0,0.781048094964371,0.0
40,2,0.75,0.7829921377683706,-0.19440428039996238
40,2,0.5,0.7810963553521368,-0.004826038776584163
40,2,0.25,0.7893473318570903,-0.8299236892719275
40,2,0.0,0.7953192913992577,-1.4271196434886724
40,3,1.0,0.781048094964371,0.0
40,3,0.75,0.7752465182269964,0.5801576737374581
40,3,0.5,0.784935011865441,-0.38869169010700144
40,3,0.25,0.7923414772002024,-1.1293382235831428
40,3,0.0,0.785157736560843,-0.410964159647198
40,4,1.0,0.781048094964371,0.0
40,4,0.75,0.778463406630939,0.25846883334319504
40,4,0.5,0.7773143594158082,0.3733735548562822
40,4,0.25,0.7795578387002687,0.14902562641022632
40,4,0.0,0.7831120222928988,-0.20639273285277815
40,5,1.0,0.781048094964371,0.0
40,5,0.75,0.7843794372654943,-0.3331342301123308
40,5,0.5,0.7813039118124113,-0.025581684804032445
40,5,0.25,0.774821776015221,0.6226318949150045
40,5,0.0,0.7833772509404857,-0.23291559761147163
40,6,1.0,0.781048094964371,0.0
40,6,0.75,0.7797821303860484,0.12659645783226203
40,6,0.5,0.78062084168795,0.04272532764210135
40,6,0.25,0.7761073987982439,0.4940696166127134
40,6,0.0,0.7666226714043345,1.442542356003651
40,7,1.0,0.781048094964371,0.0
40,7,0.75,0.779905447766086,0.11426471982850517
40,7,0.5,0.7705741689968106,1.047392596756036
40,7,0.25,0.7466952675289571,3.43528274354139
40,7,0.0,0.7353198913452691,4.572820361910191
40,8,1.0,0.781048094964371,0.0
40,8,0.75,0.7677824121816098,1.326568278276119
40,8,0.5,0.7634178793960433,1.7630215568327667
40,8,0.25,0.7549854617533679,2.6062633211003106
40,8,0.0,0.7537630430288422,2.728505193552877
