subject,channel,f1_full,f1_occluded,drop_pp
1,0,0.6784565138280636,0.7010444622213047,-2.2587948393241075
1,1,0.6784565138280636,0.6766806200561325,0.1775893771931103
1,2,0.6784565138280636,0.6917164413592581,-1.3259927531194537
1,3,0.6784565138280636,0.6280409809169272,5.041553291113643
1,4,0.6784565138280636,0.6668556380732777,1.1600875754785855
1,5,0.6784565138280636,0.5773105134133949,10.11460004146687
1,6,0.6784565138280636,0.7050436216093059,-2.658710778124229
1,7,0.6784565138280636,0.6047956677884123,7.366084603965128
1,8,0.6784565138280636,0.6711542193430127,0.7302294485050931
2,0,0.8602438335957746,0.8627941669015339,-0.2550333305759267
2,1,0.8602438335957746,0.8422104238472123,1.8033409748562268
2,2,0.8602438335957746,0.8321434496406501,2.8100383955124486
2,3,0.8602438335957746,0.8464134362909793,1.3830397304795294
2,4,0.8602438335957746,0.8598278340220324,0.04159995737421651
2,5,0.8602438335957746,0.8061558737839838,5.4087959811790824
2,6,0.8602438335957746,0.8313560735252364,2.888776007053817
2,7,0.8602438335957746,0.8019859631922062,5.825787040356845
2,8,0.8602438335957746,0.8544060323299077,0.583780126586686
3,0,0.8701031720428704,0.9017144597140251,-3.161128767115473
3,1,0.8701031720428704,0.8884200578655425,-1.8316885822672102
3,2,0.8701031720428704,0.8531703989795195,1.6932773063350837
3,3,0.8701031720428704,0.7824430660654547,8.76601059774157
3,4,0.8701031720428704,0.8550645898142892,1.503858222858112
3,5,0.8701031720428704,0.8835066882656212,-1.3403516222750822
3,6,0.8701031720428704,0.8692057025864046,0.08974694564657382
3,7,0.8701031720428704,0.8310875758319586,3.9015596210911774
3,8,0.8701031720428704,0.8800068654648856,-0.9903693422015247
4,0,0.8763085907398311,0.8495563560118121,2.675223472801902
4,1,0.8763085907398311,0.8150353818767381,6.127320886309306
4,2,0.8763085907398311,0.8388513719019726,3.7457218837858575
4,3,0.8763085907398311,0.8466422328256213,2.9666357914209796
4,4,0.8763085907398311,0.8900935868234711,-1.3784996083639922
4,5,0.8763085907398311,0.871204657411554,0.5103933328277188
4,6,0.8763085907398311,0.8660850394782127,1.0223551261618447
4,7,0.8763085907398311,0.8756611612355544,0.06474295042767642
4,8,0.8763085907398311,0.8345433020064839,4.176528873334728
5,0,0.6491732439774205,0.6493441305721473,-0.017088659472686007
5,1,0.6491732439774205,0.6434133201252196,0.5759923852200921
5,2,0.6491732439774205,0.6457602389757202,0.34130050017002755
5,3,0.6491732439774205,0.6776350291288985,-2.8461785151478014
5,4,0.6491732439774205,0.6348094353047588,1.4363808672661738
5,5,0.6491732439774205,0.6308990853383376,1.8274158639082883
5,6,0.6491732439774205,0.6331497940492192,1.602344992820126
5,7,0.6491732439774205,0.6315518507231689,1.7621393254251605
5,8,0.6491732439774205,0.6181936420543864,3.097960192303406
6,0,0.7936613286052457,0.7630967431606821,3.056458544456364
6,1,0.7936613286052457,0.7570598542817341,3.6601474323511685
6,2,0.7936613286052457,0.7746755666023506,1.8985762002895146
6,3,0.7936613286052457,0.7966715258990039,-0.30101972937581767
6,4,0.7936613286052457,0.7711118072373501,2.2549521367895675
6,5,0.7936613286052457,0.7755067150643078,1.8154613540937947
6,6,0.7936613286052457,0.7497468588341237,4.391446977112201
6,7,0.7936613286052457,0.7298102590195217,6.385106958572406
6,8,0.7936613286052457,0.7711648207172532,2.249650788799251
7,0,0.7725092484609034,0.7433179890326204,2.9191259428283045
7,1,0.7725092484609034,0.7513014720058064,2.120777645509697
7,2,0.7725092484609034,0.7123985039607661,6.011074450013732
7,3,0.7725092484609034,0.7698610129763874,0.26482354845159817
7,4,0.7725092484609034,0.7407487036355114,3.1760544825392034
7,5,0.7725092484609034,0.799299622934063,-2.6790374473159573
7,6,0.7725092484609034,0.751918925829319,2.0590322631584446
7,7,0.7725092484609034,0.751049753283012,2.1459495177891363
7,8,0.7725092484609034,0.7277898696796776,4.471937878122578
8,0,0.7968645611904038,0.8125215615527583,-1.5657000362354512
8,1,0.7968645611904038,0.8093470527743746,-1.2482491583970745
8,2,0.7968645611904038,0.8195517638354134,-2.2687202645009563
8,3,0.7968645611904038,0.8013172866394217,-0.4452725449017869
8,4,0.7968645611904038,0.7662285824094969,3.063597878090696
8,5,0.7968645611904038,0.7696967410227344,2.7167820167669388
8,6,0.7968645611904038,0.8029040444316207,-0.6039483241216836
8,7,0.7968645611904038,0.7576838924974653,3.918066869293857
8,8,0.7968645611904038,0.8033797805475658,-0.6515219357161928
9,0,0.7508032256388716,0.7639273556400629,-1.312413000119128
9,1,0.7508032256388716,0.6995165356296095,5.1286690009262115
9,2,0.7508032256388716,0.7196624198871304,3.1140805751741163
9,3,0.7508032256388716,0.7385558896114197,1.2247336027451872
9,4,0.7508032256388716,0.7267288633481129,2.4074362290758655
9,5,0.7508032256388716,0.7366618010253326,1.4141424613538955
9,6,0.7508032256388716,0.7433420357738865,0.7461189864985118
9,7,0.7508032256388716,0.7650808617609596,-1.4277636122087989
9,8,0.7508032256388716,0.7759693107573609,-2.516608511848928
10,0,0.7742658408117533,0.7616543740655155,1.261146674623781
10,1,0.7742658408117533,0.7401966052346762,3.4069235577077084
10,2,0.7742658408117533,0.7593922924901186,1.4873548321634678
10,3,0.7742658408117533,0.739560731129662,3.4705109682091284
10,4,0.7742658408117533,0.7598938501731101,1.437199063864325
10,5,0.7742658408117533,0.7585944724883202,1.5671368323433077
10,6,0.7742658408117533,0.7675190875826909,0.6746753229062374
10,7,0.7742658408117533,0.7354714883769307,3.8794352434822654
10,8,0.7742658408117533,0.7564816524645499,1.7784188347203411
11,0,0.8598684455586325,0.8566039596236353,0.32644859349971744
11,1,0.8598684455586325,0.8246570020197411,3.5211443538891385
11,2,0.8598684455586325,0.8236357191803357,3.6232726378296776
11,3,0.8598684455586325,0.8334772488984447,2.6391196660187854
11,4,0.8598684455586325,0.8613313916176926,-0.14629460590600551
11,5,0.8598684455586325,0.8581889832665267,0.16794622921058044
11,6,0.8598684455586325,0.8931027796341848,-3.323433407555232
11,7,0.8598684455586325,0.8680537275503247,-0.8185281991692217
11,8,0.8598684455586325,0.8534946263809925,0.6373819177640017
12,0,0.8968735245936069,0.8731579916551014,2.371553293850548
12,1,0.8968735245936069,0.8461965415139928,5.06769830796141
12,2,0.8968735245936069,0.8443032813170384,5.257024327656856
12,3,0.8968735245936069,0.800951825951826,9.592169864178091
12,4,0.8968735245936069,0.8963036835885557,0.056984100505119706
12,5,0.8968735245936069,0.8858223724087768,1.1051152184830104
12,6,0.8968735245936069,0.8802434948447887,1.663002974881822
12,7,0.8968735245936069,0.8662063798438601,3.0667144749746855
12,8,0.8968735245936069,0.8681987399770905,2.86747846165164
13,0,0.9320074793447691,0.9254008239278024,0.66066554169667
13,1,0.9320074793447691,0.9178872454762026,1.4120233868566534
13,2,0.9320074793447691,0.8843720751233636,4.763540422140555
13,3,0.9320074793447691,0.8983239109189243,3.3683568425844856
13,4,0.9320074793447691,0.9099526792015324,2.2054800143236686
13,5,0.9320074793447691,0.8993201647706957,3.268731457407348
13,6,0.9320074793447691,0.9165893359595728,1.5418143385196315
13,7,0.9320074793447691,0.9162032783043863,1.5804201040382826
13,8,0.9320074793447691,0.9152070741707988,1.68004051739703
14,0,0.8316219323236868,0.8190756062287693,1.254632609491746
14,1,0.8316219323236868,0.8252202179636745,0.6401714360012245
14,2,0.8316219323236868,0.8395557110758345,-0.7933778752147735
14,3,0.8316219323236868,0.7440607528910252,8.756117943266151
14,4,0.8316219323236868,0.8322938248074364,-0.06718924837496587
14,5,0.8316219323236868,0.8268142449571292,0.4807687366557567
14,6,0.8316219323236868,0.8132753186555196,1.8346613668167144
14,7,0.8316219323236868,0.7878682444539934,4.375368786969336
14,8,0.8316219323236868,0.7919214927656829,3.970043955800384
15,0,0.8719904843213033,0.8420018017159316,2.9988682605371686
15,1,0.8719904843213033,0.855821180067248,1.6169304254055272
15,2,0.8719904843213033,0.8398571979213256,3.21332863999777
15,3,0.8719904843213033,0.8617889097252927,1.0201574596010676
15,4,0.8719904843213033,0.8827485681423697,-1.0758083821066355
15,5,0.8719904843213033,0.84504250851897,2.6947975802333324
15,6,0.8719904843213033,0.8566523284518968,1.5338155869406567
15,7,0.8719904843213033,0.8554332767503499,1.655720757095347
15,8,0.8719904843213033,0.9120784431042681,-4.008795878296478
16,0,0.849332555392271,0.834787837768135,1.4544717624136005
16,1,0.849332555392271,0.844267383648591,0.5065171743680041
16,2,0.849332555392271,0.857807770478757,-0.8475215086485965
16,3,0.849332555392271,0.8394743464405415,0.9858208951729508
16,4,0.849332555392271,0.8310328351916565,1.8299720200614544
16,5,0.849332555392271,0.8272590789742807,2.207347641799029
16,6,0.849332555392271,0.8495790862361348,-0.02465308438637237
16,7,0.849332555392271,0.811116003098467,3.821655229380405
16,8,0.849332555392271,0.8222151074854311,2.7117447906839898
17,0,0.839973477681464,0.8366844553833004,0.3289022298163635
17,1,0.839973477681464,0.836962609612729,0.3010868068735073
17,2,0.839973477681464,0.8392446837924367,0.07287938890273571
17,3,0.839973477681464,0.8153059405829393,2.466753709852476
17,4,0.839973477681464,0.8587585816642821,-1.8785103982818074
17,5,0.839973477681464,0.8012300732177742,3.8743404463689846
17,6,0.839973477681464,0.8441627042485411,-0.4189226567077098
17,7,0.839973477681464,0.8328192182488982,0.7154259432565868
17,8,0.839973477681464,0.8226535854496381,1.731989223182595
18,0,0.8914387039891837,0.8686923093932011,2.27463945959826
18,1,0.8914387039891837,0.8984708474269908,-0.7032143437807115
18,2,0.8914387039891837,0.9006086981171184,-0.9169994127934733
18,3,0.8914387039891837,0.7971320477937451,9.430665619543854
18,4,0.8914387039891837,0.8795602375790683,1.1878466410115363
18,5,0.8914387039891837,0.8696611576819758,2.177754630720785
18,6,0.8914387039891837,0.8724018149739625,1.903688901522116
18,7,0.8914387039891837,0.8432115977963015,4.822710619288218
18,8,0.8914387039891837,0.9019321818957741,-1.0493477906590387
19,0,0.824834019449354,0.8282820176078602,-0.34479981585062713
19,1,0.824834019449354,0.8210781219955461,0.3755897453807888
19,2,0.824834019449354,0.8150008775008775,0.9833141948476509
19,3,0.824834019449354,0.7724307396885561,5.240327976079784
19,4,0.824834019449354,0.7983656612641944,2.646835818515958
19,5,0.824834019449354,0.8080953072748732,1.6738712174480752
19,6,0.824834019449354,0.8396806618039494,-1.484664235459543
19,7,0.824834019449354,0.8102936095677711,1.4540409881582894
19,8,0.824834019449354,0.8047108796826539,2.0123139766700104
20,0,0.7811618695823582,0.7759185903132777,0.5243279269080525
20,1,0.7811618695823582,0.7607629912846605,2.039887829769771
20,2,0.7811618695823582,0.7466741816134461,3.4487687968912106
20,3,0.7811618695823582,0.795216187892409,-1.4054318310050773
20,4,0.7811618695823582,0.7934363373716411,-1.2274467789282872
20,5,0.7811618695823582,0.7814709589230969,-0.030908934073869965
20,6,0.7811618695823582,0.776768149882904,0.4393719699454235
20,7,0.7811618695823582,0.7594038221469831,2.1758047435375127
20,8,0.7811618695823582,0.7398576118069194,4.130425777543878
21,0,0.8201386944461417,0.7826218904150963,3.7516804031045403
21,1,0.8201386944461417,0.8245299554900265,-0.43912610438847643
21,2,0.8201386944461417,0.8277719032308039,-0.7633208784662115
21,3,0.8201386944461417,0.7948814437981726,2.525725064796913
21,4,0.8201386944461417,0.8275357084407741,-0.7397013994632329
21,5,0.8201386944461417,0.8484957190043912,-2.835702455824951
21,6,0.8201386944461417,0.8174714836710022,0.2667210775139539
21,7,0.8201386944461417,0.8430917421913819,-2.2953047745240207
21,8,0.8201386944461417,0.8089144422576027,1.1224252188539063
22,0,0.7772643426100501,0.7345017704653822,4.276257214466783
22,1,0.7772643426100501,0.7743258077392693,0.29385348707807735
22,2,0.7772643426100501,0.7716337741784343,0.5630568431615801
22,3,0.7772643426100501,0.7251986826908803,5.206565991916978
22,4,0.7772643426100501,0.7604503060931016,1.681403651694846
22,5,0.7772643426100501,0.7938950229957134,-1.6630680385663288
22,6,0.7772643426100501,0.7726741739140316,0.45901686960184707
22,7,0.7772643426100501,0.6904488904018479,8.681545220820219
22,8,0.7772643426100501,0.7257870924224143,5.1477250187635715
23,0,0.7938403319523332,0.7226579889960202,7.118234295631298
23,1,0.7938403319523332,0.7612763831510158,3.256394880131741
23,2,0.7938403319523332,0.798248540347293,-0.44082083949598116
23,3,0.7938403319523332,0.7698382585667995,2.4002073385533618
23,4,0.7938403319523332,0.7597976393181455,3.404269263418769
23,5,0.7938403319523332,0.7935577398145235,0.02825921378096785
23,6,0.7938403319523332,0.8020800093255533,-0.8239677373220178
23,7,0.7938403319523332,0.7393770636159697,5.44632683363635
23,8,0.7938403319523332,0.7191312706502183,7.470906130211485
24,0,0.7572360080400072,0.7249383418190218,3.22976662209854
24,1,0.7572360080400072,0.7654979495233731,-0.8261941483365898
24,2,0.7572360080400072,0.7040669551164807,5.316905292352658
24,3,0.7572360080400072,0.7985716680879393,-4.1335660047932095
24,4,0.7572360080400072,0.6759239205438224,8.13120874961848
24,5,0.7572360080400072,0.6900157468791691,6.722026116083812
24,6,0.7572360080400072,0.7391156265954573,1.8120381444549971
24,7,0.7572360080400072,0.7536747637206498,0.35612443193574483
24,8,0.7572360080400072,0.7134911193789721,4.37448886610351
25,0,0.8606037703577749,0.8498649540373511,1.0738816320423838
25,1,0.8606037703577749,0.8694091309589305,-0.8805360601155554
25,2,0.8606037703577749,0.8603397233428193,0.02640470149556373
25,3,0.8606037703577749,0.853368820134223,0.7234950223551917
25,4,0.8606037703577749,0.8342342047323856,2.636956562538928
25,5,0.8606037703577749,0.8674092994784559,-0.6805529120680998
25,6,0.8606037703577749,0.8830124298691878,-2.240865951141291
25,7,0.8606037703577749,0.8386422183740845,2.196155198369043
25,8,0.8606037703577749,0.8517674459511482,0.8836324406626739
26,0,0.769108585495061,0.7550924244892159,1.401616100584513
26,1,0.769108585495061,0.7569616724681761,1.2146913026884865
26,2,0.769108585495061,0.7620781536066275,0.7030431888433553
26,3,0.769108585495061,0.745456504803764,2.3652080691296984
26,4,0.769108585495061,0.756521371174443,1.2587214320618045
26,5,0.769108585495061,0.7207795984889056,4.83289870061554
26,6,0.769108585495061,0.7386695161519017,3.043906934315932
26,7,0.769108585495061,0.7306215485104544,3.848703698460665
26,8,0.769108585495061,0.7346175473891668,3.4491038105894156
27,0,0.8909323483331758,0.8850210555502027,0.5911292782973088
27,1,0.8909323483331758,0.8842161970966543,0.6716151236521473
27,2,0.8909323483331758,0.8466000967445136,4.433225158866216
27,3,0.8909323483331758,0.8613916400219725,2.9540708311203256
27,4,0.8909323483331758,0.8519979160953661,3.893443223780968
27,5,0.8909323483331758,0.8592974072987635,3.1634941034412334
27,6,0.8909323483331758,0.8785740258511265,1.2358322482049267
27,7,0.8909323483331758,0.8691752479339366,2.175710039923917
27,8,0.8909323483331758,0.8955272776153177,-0.4594929282141891
28,0,0.8001819274588937,0.8315454493134272,-3.1363521854533505
28,1,0.8001819274588937,0.7943162654255307,0.5865662033363028
28,2,0.8001819274588937,0.7852462923604927,1.4935635098401012
28,3,0.8001819274588937,0.7790654593910254,2.1116468067868266
28,4,0.8001819274588937,0.7785557137496685,2.162621370922524
28,5,0.8001819274588937,0.7724964689395586,2.7685458519335127
28,6,0.8001819274588937,0.8153472096229197,-1.5165282164026017
28,7,0.8001819274588937,0.7884467756202894,1.1735151838604296
28,8,0.8001819274588937,0.8162373684621484,-1.6055441003254733
29,0,0.824177103402659,0.8199836356667319,0.41934677359271033
29,1,0.824177103402659,0.8341631239555537,-0.9986020552894659
29,2,0.824177103402659,0.7973082112147448,2.6868892187914217
29,3,0.824177103402659,0.7905824398725007,3.3594663530158386
29,4,0.824177103402659,0.7905241893760211,3.365291402663795
29,5,0.824177103402659,0.8088756423423776,1.5301461060281407
29,6,0.824177103402659,0.8350319179737953,-1.085481457113624
29,7,0.824177103402659,0.7930375821665351,3.1139521236123957
29,8,0.824177103402659,0.7763070604025768,4.787004300008224
30,0,0.8075818525997501,0.8461328922057196,-3.8551039605969506
30,1,0.8075818525997501,0.7832620337588957,2.4319818840854435
30,2,0.8075818525997501,0.8330507561099436,-2.5468903510193486
30,3,0.8075818525997501,0.7406668033841406,6.691504921560954
30,4,0.8075818525997501,0.8012587218199406,0.6323130779809505
30,5,0.8075818525997501,0.8079754152441639,-0.039356264441381406
30,6,0.8075818525997501,0.847017730603363,-3.9435878003612923
30,7,0.8075818525997501,0.7595894752773136,4.799237732243656
30,8,0.8075818525997501,0.8122471379579852,-0.4665285358235072
31,0,0.7148264442098786,0.7127187490495377,0.21076951603409277
31,1,0.7148264442098786,0.6983676177149806,1.645882649489805
31,2,0.7148264442098786,0.6822852448784049,3.2541199331473702
31,3,0.7148264442098786,0.7112809623236215,0.354548188625714
31,4,0.7148264442098786,0.713815572600103,0.10108716097756432
31,5,0.7148264442098786,0.7116335554280814,0.3192888781797243
31,6,0.7148264442098786,0.7089073226387153,0.5919121571163366
31,7,0.7148264442098786,0.6750566447215763,3.976979948830228
31,8,0.7148264442098786,0.6937219666740458,2.1104477535832777
32,0,0.8057874407478529,0.790041243460622,1.5746197287230923
32,1,0.8057874407478529,0.7983192581927228,0.7468182555130154
32,2,0.8057874407478529,0.7984176812186887,0.7369759529164188
32,3,0.8057874407478529,0.7825417941594417,2.3245646588411217
32,4,0.8057874407478529,0.7753809625838735,3.0406478163979456
32,5,0.8057874407478529,0.8170682434097069,-1.128080266185394
32,6,0.8057874407478529,0.8300815448143486,-2.429410406649568
32,7,0.8057874407478529,0.7882946271790949,1.749281356875798
32,8,0.8057874407478529,0.8274156369227552,-2.1628196174902303
33,0,0.8683532268027638,0.8494887356983938,1.8864491104370051
33,1,0.8683532268027638,0.8570077244239791,1.1345502378784733
33,2,0.8683532268027638,0.8448643840434025,2.348884275936136
33,3,0.8683532268027638,0.8438512727459349,2.450195405682898
33,4,0.8683532268027638,0.8919778744895218,-2.3624647686757982
33,5,0.8683532268027638,0.8710055035611278,-0.26522767583639917
33,6,0.8683532268027638,0.8474103854842265,2.0942841318537297
33,7,0.8683532268027638,0.8301293407543798,3.8223886048384004
33,8,0.8683532268027638,0.8568274889411748,1.1525737861589058
34,0,0.8874552648202008,0.8569877459046491,3.046751891555166
34,1,0.8874552648202008,0.868172959030942,1.9282305789258714
34,2,0.8874552648202008,0.8764885703446449,1.0966694475555872
34,3,0.8874552648202008,0.8631121245928706,2.4343140227330196
34,4,0.8874552648202008,0.8768931471959853,1.056211762421544
34,5,0.8874552648202008,0.8841261349718349,0.3329129848365864
34,6,0.8874552648202008,0.8710171568627452,1.6438107957455594
34,7,0.8874552648202008,0.8539866918515826,3.346857296861816
34,8,0.8874552648202008,0.849832292728923,3.762297209127774
35,0,0.71758820622222,0.6773325117269332,4.0255694495286765
35,1,0.71758820622222,0.7167267167372842,0.08614894849358068
35,2,0.71758820622222,0.7016865079365079,1.5901698285712085
35,3,0.71758820622222,0.7003857934430711,1.7202412779148912
35,4,0.71758820622222,0.7151912123258299,0.23969938963900317
35,5,0.71758820622222,0.6939242341058441,2.366397211637583
35,6,0.71758820622222,0.7201394837878144,-0.25512775655944786
35,7,0.71758820622222,0.7392880176225505,-2.1699811400330504
35,8,0.71758820622222,0.7188419508489367,-0.12537446267166796
36,0,0.7506855071143063,0.7070348267312461,4.365068038306019
36,1,0.7506855071143063,0.68089341720937,6.979208990493624
36,2,0.7506855071143063,0.6720060358516542,7.867947126265207
36,3,0.7506855071143063,0.696119331949467,5.456617516483931
36,4,0.7506855071143063,0.7456709900888463,0.5014517025459964
36,5,0.7506855071143063,0.7573159422389057,-0.6630435124599487
36,6,0.7506855071143063,0.7121736607706227,3.8511846343683542
36,7,0.7506855071143063,0.6809101792086013,6.977532790570495
36,8,0.7506855071143063,0.6595771680819571,9.110833903234916
37,0,0.8686785345986597,0.8744746886657383,-0.5796154067078563
37,1,0.8686785345986597,0.8329377196830949,3.57408149155648
37,2,0.8686785345986597,0.8160620614191704,5.2616473179489365
37,3,0.8686785345986597,0.8737409923830406,-0.5062457784380858
37,4,0.8686785345986597,0.8873735099216887,-1.8694975323028995
37,5,0.8686785345986597,0.873291791939057,-0.4613257340397303
37,6,0.8686785345986597,0.8704752076970635,-0.17966730984038115
37,7,0.8686785345986597,0.8043382133061202,6.434032129253953
37,8,0.8686785345986597,0.8645425107699063,0.41360238287534434
38,0,0.7522591725483625,0.7240218699899758,2.8237302558386745
38,1,0.7522591725483625,0.7440331924584834,0.822598008987907
38,2,0.7522591725483625,0.7502283774878558,0.20307950605067404
38,3,0.7522591725483625,0.7551132748355464,-0.28541022871838573
38,4,0.7522591725483625,0.7530530558492514,-0.07938833008889201
38,5,0.7522591725483625,0.7904883797791057,-3.822920723074319
38,6,0.7522591725483625,0.704264197562549,4.799497498581351
38,7,0.7522591725483625,0.7121622493764739,4.009692317188862
38,8,0.7522591725483625,0.7210072093863914,3.1251963161971097
39,0,0.8199229076675744,0.8032679818201758,1.6654925847398583
39,1,0.8199229076675744,0.8097083343586992,1.0214573308875208
39,2,0.8199229076675744,0.8259836994655362,-0.6060791797961818
39,3,0.8199229076675744,0.7348555852421023,8.50673224254721
39,4,0.8199229076675744,0.7805710191030037,3.9351888564570614
39,5,0.8199229076675744,0.829982111933548,-1.005920426597362
39,6,0.8199229076675744,0.837283785802648,-1.7360878135073587
39,7,0.8199229076675744,0.8028288904875241,1.7094017180050214
39,8,0.8199229076675744,0.8514391971629891,-3.151628949541474
40,0,0.781048094964371,0.7217692608996957,5.927883406467527
40,1,0.781048094964371,0.7644865531928188,1.6561541771552224
40,2,0.781048094964371,0.7953192913992577,-1.4271196434886724
40,3,0.781048094964371,0.785157736560843,-0.410964159647198
40,4,0.781048094964371,0.7831120222928988,-0.20639273285277815
40,5,0.781048094964371,0.7833772509404857,-0.23291559761147163
40,6,0.781048094964371,0.7666226714043345,1.442542356003651
40,7,0.781048094964371,0.7353198913452691,4.572820361910191
40,8,0.781048094964371,0.7537630430288422,2.728505193552877
