subject,channel,alpha,f1,drop_pp
1,0,1.0,0.6608649012800334,0.0
1,0,0.75,0.6663202467605557,-0.5455345480522289
1,0,0.5,0.6614229967783525,-0.05580954983190889
1,0,0.25,0.6478902901888015,1.297461109123188
1,0,0.0,0.6421017302020456,1.876317107798775
1,1,1.0,0.6608649012800334,0.0
1,1,0.75,0.6613645490033999,-0.04996477233665253
1,1,0.5,0.6610526632487791,-0.018776196874570328
1,1,0.25,0.6625501114277981,-0.1685210147764682
1,1,0.0,0.6519379119946516,0.8926989285381826
1,2,1.0,0.6608649012800334,0.0
1,2,0.75,0.6693612950092911,-0.8496393729257701
1,2,0.5,0.6727831719936194,-1.1918270713585977
1,2,0.25,0.6792234114598704,-1.8358510179837029
1,2,0.0,0.6709130993296697,-1.0048198049636303
1,3,1.0,0.6608649012800334,0.0
1,3,0.75,0.6603331816423486,0.05317196376848354
1,3,0.5,0.6542907057326154,0.6574195547418005
1,3,0.25,0.6486415684665192,1.2223332813514176
1,3,0.0,0.6332104910707955,2.7654410209237867
1,4,1.0,0.6608649012800334,0.0
1,4,0.75,0.6687465348081089,-0.7881633528075471
1,4,0.5,0.688677219072316,-2.781231779228266
1,4,0.25,0.6990798603721095,-3.821495909207606
1,4,0.0,0.6737351907666271,-1.2870289486593744
1,5,1.0,0.6608649012800334,0.0
1,5,0.75,0.6282060290435955,3.265887223643793
1,5,0.5,0.6100411281710925,5.082377310894093
1,5,0.25,0.6223891006308342,3.84758006491992
1,5,0.0,0.6162931193418243,4.45717819382091
1,6,1.0,0.6608649012800334,0.0
1,6,0.75,0.678248761831417,-1.7383860551383634
1,6,0.5,0.6865679079528512,-2.5703006672817774
1,6,0.25,0.7073199648983972,-4.645506361836382
1,6,0.0,0.7319933523328678,-7.112845105283439
1,7,1.0,0.6608649012800334,0.0
1,7,0.75,0.6453624952786525,1.5502406001380864
1,7,0.5,0.6481469341786072,1.2717967101426142
1,7,0.25,0.6405669166359956,2.029798464403776
1,7,0.0,0.6215123915527051,3.935250972732829
1,8,1.0,0.6608649012800334,0.0
1,8,0.75,0.6648902253143438,-0.402532403431044
1,8,0.5,0.6786481937700382,-1.7783292490004765
1,8,0.25,0.6854805386991847,-2.4615637419151293
1,8,0.0,0.6637043887330528,-0.2839487453019429
2,0,1.0,0.8979962541725642,0.0
2,0,0.75,0.9082769630147653,-1.0280708842201114
2,0,0.5,0.9083392147074518,-1.034296053488759
2,0,0.25,0.9107815125376066,-1.2785258365042407
2,0,0.0,0.8894394124857905,0.8556841686773731
2,1,1.0,0.8979962541725642,0.0
2,1,0.75,0.8983100440958611,-0.031378992329689215
2,1,0.5,0.8983100440958611,-0.031378992329689215
2,1,0.25,0.8960330754780974,0.19631786944668272
2,1,0.0,0.8793488307001255,1.864742347243875
2,2,1.0,0.8979962541725642,0.0
2,2,0.75,0.898572928128393,-0.05766739558287215
2,2,0.5,0.8988359223833816,-0.08396682108173792
2,2,0.25,0.8768184756395269,2.1177778533037372
2,2,0.0,0.8562061756385305,4.179007853403371
2,3,1.0,0.8979962541725642,0.0
2,3,0.75,0.9048358489237736,-0.6839594751209321
2,3,0.5,0.9049353373002522,-0.6939083127687984
2,3,0.25,0.8987867240087818,-0.07904698362175555
2,3,0.0,0.8857232168281706,1.2273037344393667
2,4,1.0,0.8979962541725642,0.0
2,4,0.75,0.9031643052519542,-0.5168051079390001
2,4,0.5,0.9069098419704795,-0.891358779791529
2,4,0.25,0.9113292118663956,-1.333295769383136
2,4,0.0,0.9013643777756346,-0.3368123603070372
2,5,1.0,0.8979962541725642,0.0
2,5,0.75,0.8976825990450099,0.03136551275543242
2,5,0.5,0.8992301848406274,-0.123393066806321
2,5,0.25,0.8881379233020262,0.9858330870538001
2,5,0.0,0.8756718879129961,2.232436625956813
2,6,1.0,0.8979962541725642,0.0
2,6,0.75,0.9012903194327408,-0.3294065260176615
2,6,0.5,0.8912257010484912,0.6770553124073042
2,6,0.25,0.8825663578339833,1.542989633858094
2,6,0.0,0.8634592036616392,3.453705051092504
2,7,1.0,0.8979962541725642,0.0
2,7,0.75,0.8913236054383646,0.6672648734199593
2,7,0.5,0.8769356688911076,2.10605852814566
2,7,0.25,0.8590851484326205,3.891110573994372
2,7,0.0,0.8562362589165327,4.175999525603158
2,8,1.0,0.8979962541725642,0.0
2,8,0.75,0.901707849437098,-0.3711595264533796
2,8,0.5,0.9083475413142856,-1.03512871417214
2,8,0.25,0.8989860484938206,-0.09897943212563431
2,8,0.0,0.8955902942178484,0.24059599547158195
3,0,1.0,0.8624851587375306,0.0
3,0,0.75,0.8725256671460531,-1.0040508408522442
3,0,0.5,0.8778687471054013,-1.5383588367870682
3,0,0.25,0.886665955857761,-2.4180797120230357
3,0,0.0,0.8807214860086778,-1.8236327271147212
3,1,1.0,0.8624851587375306,0.0
3,1,0.75,0.8714686071184937,-0.8983448380963099
3,1,0.5,0.8696064995240129,-0.71213407864823
3,1,0.25,0.8567807153282105,0.5704443409320081
3,1,0.0,0.8495787132527675,1.2906445484763163
3,2,1.0,0.8624851587375306,0.0
3,2,0.75,0.8515176769312967,1.096748180623397
3,2,0.5,0.8565317738202483,0.5953384917282367
3,2,0.25,0.8441097929076741,1.837536582985655
3,2,0.0,0.8404579862463353,2.2027172491195346
3,3,1.0,0.8624851587375306,0.0
3,3,0.75,0.8422683434662442,2.021681527128638
3,3,0.5,0.826906540216556,3.557861852097466
3,3,0.25,0.7939852784086004,6.849988032893018
3,3,0.0,0.7458978573581343,11.658730137939632
3,4,1.0,0.8624851587375306,0.0
3,4,0.75,0.8652704517678833,-0.2785293030352687
3,4,0.5,0.8690275234057494,-0.6542364668218781
3,4,0.25,0.8563113334113475,0.6173825326183158
3,4,0.0,0.8705034621956195,-0.8018303458088849
3,5,1.0,0.8624851587375306,0.0
3,5,0.75,0.8648774450802443,-0.2392286342713712
3,5,0.5,0.86870320801352,-0.6218049275989346
3,5,0.25,0.8673976012491833,-0.49124425116526815
3,5,0.0,0.8646887951497635,-0.22036364122328678
3,6,1.0,0.8624851587375306,0.0
3,6,0.75,0.8583674936154598,0.41176651220707905
3,6,0.5,0.8485776233389389,1.3907535398591686
3,6,0.25,0.8464229559976496,1.6062202739881015
3,6,0.0,0.8511942335377427,1.1290925199787916
3,7,1.0,0.8624851587375306,0.0
3,7,0.75,0.8503117225828966,1.2173436154634065
3,7,0.5,0.8465272790019598,1.5957879735570835
3,7,0.25,0.8377863851548062,2.469877358272443
3,7,0.0,0.8107162488346961,5.1768909902834555
3,8,1.0,0.8624851587375306,0.0
3,8,0.75,0.8778066636095097,-1.532150487197903
3,8,0.5,0.875371780621583,-1.288662188405243
3,8,0.25,0.866836651683248,-0.435149294571735
3,8,0.0,0.8557031987167849,0.6781960020745714
4,0,1.0,0.8549036334044385,0.0
4,0,0.75,0.8582723747920801,-0.33687413876415384
4,0,0.5,0.8464296279262558,0.8474005478182778
4,0,0.25,0.8598585047279519,-0.49548713235133546
4,0,0.0,0.859984402958728,-0.5080769554289488
4,1,1.0,0.8549036334044385,0.0
4,1,0.75,0.8407478101937482,1.415582321069031
4,1,0.5,0.8385263504101533,1.6377282994285203
4,1,0.25,0.8285177322297914,2.638590117464712
4,1,0.0,0.8188867037228948,3.6016929681543686
4,2,1.0,0.8549036334044385,0.0
4,2,0.75,0.8363383771325074,1.8565256271931174
4,2,0.5,0.8231744490682849,3.172918433615368
4,2,0.25,0.8136505617758529,4.12530716285856
4,2,0.0,0.8091691184453849,4.573451495905367
4,3,1.0,0.8549036334044385,0.0
4,3,0.75,0.8475147062360179,0.7388927168420656
4,3,0.5,0.8468021926847671,0.8101440719671449
4,3,0.25,0.8495346889200937,0.5368944484344884
4,3,0.0,0.8366306862081199,1.8272947196318667
4,4,1.0,0.8549036334044385,0.0
4,4,0.75,0.8955546840042482,-4.065105059980967
4,4,0.5,0.8789360582738399,-2.403242486940138
4,4,0.25,0.8828011551324824,-2.789752172804383
4,4,0.0,0.8724648112468805,-1.7561177842441933
4,5,1.0,0.8549036334044385,0.0
4,5,0.75,0.8648057753228338,-0.9902141918395224
4,5,0.5,0.8639802540094558,-0.9076620605017238
4,5,0.25,0.8541407859765197,0.0762847427918878
4,5,0.0,0.8569882398124726,-0.20846064080340954
4,6,1.0,0.8549036334044385,0.0
4,6,0.75,0.8576250589190457,-0.272142551460719
4,6,0.5,0.8680930415166401,-1.3189408112201595
4,6,0.25,0.8650362137862138,-1.0132580381775225
4,6,0.0,0.8613061853046142,-0.640255190017569
4,7,1.0,0.8549036334044385,0.0
4,7,0.75,0.8567461748955267,-0.1842541491088201
4,7,0.5,0.8571273494362663,-0.2223716031827805
4,7,0.25,0.8605949121602317,-0.5691278755793117
4,7,0.0,0.8635638038474489,-0.8660170443010373
4,8,1.0,0.8549036334044385,0.0
4,8,0.75,0.8448791448385423,1.0024488565896217
4,8,0.5,0.832646845177177,2.2256788227261515
4,8,0.25,0.8244797298209982,3.042390358344038
4,8,0.0,0.8218565049235271,3.3047128480911403
5,0,1.0,0.6658482543371645,0.0
5,0,0.75,0.6692400192400193,-0.3391764902854755
5,0,0.5,0.6679817873158861,-0.21335329787215418
5,0,0.25,0.661921327028461,0.3926927308703587
5,0,0.0,0.6390175409895131,2.6830713347651414
5,1,1.0,0.6658482543371645,0.0
5,1,0.75,0.6749407432136988,-0.9092488876534244
5,1,0.5,0.6857755088428839,-1.9927254505719305
5,1,0.25,0.686212420583096,-2.0364166245931403
5,1,0.0,0.6779947237147829,-1.2146469377618319
5,2,1.0,0.6658482543371645,0.0
5,2,0.75,0.6704528993268306,-0.46046449896660624
5,2,0.5,0.6782426303360144,-1.239437599884985
5,2,0.25,0.6846735100567429,-1.8825255719578382
5,2,0.0,0.6932779012720434,-2.7429646934878815
5,3,1.0,0.6658482543371645,0.0
5,3,0.75,0.6803971633656897,-1.4548909028525125
5,3,0.5,0.6780858132203706,-1.22375588832061
5,3,0.25,0.683226449679604,-1.737819534243945
5,3,0.0,0.683637954149978,-1.778969981281342
5,4,1.0,0.6658482543371645,0.0
5,4,0.75,0.6561704413952719,0.9677812941892627
5,4,0.5,0.6462214983217827,1.9626756015381885
5,4,0.25,0.6287728963368177,3.707535800034689
5,4,0.0,0.6430090848059598,2.2839169531204795
5,5,1.0,0.6658482543371645,0.0
5,5,0.75,0.6590531384962715,0.6795115840893096
5,5,0.5,0.6520957079451655,1.3752546391999076
5,5,0.25,0.6508813280512104,1.4966926285954196
5,5,0.0,0.6455404402648246,2.0307814072339947
5,6,1.0,0.6658482543371645,0.0
5,6,0.75,0.6677817688378034,-0.19335145006388332
5,6,0.5,0.6646889767204545,0.1159277616710086
5,6,0.25,0.6618260091509875,0.4022245186176998
5,6,0.0,0.665950434799119,-0.010218046195442643
5,7,1.0,0.6658482543371645,0.0
5,7,0.75,0.6743546760166252,-0.8506421679460696
5,7,0.5,0.673643167358768,-0.77949130216034
5,7,0.25,0.6608476109175291,0.5000643419635464
5,7,0.0,0.6577260972958585,0.8122157041306033
5,8,1.0,0.6658482543371645,0.0
5,8,0.75,0.6576276020207087,0.8220652316455856
5,8,0.5,0.6617175572159754,0.41306971211891863
5,8,0.25,0.6482487357868227,1.7599518550341808
5,8,0.0,0.6451377578622325,2.071049647493206
6,0,1.0,0.8098782231580404,0.0
6,0,0.75,0.8109714070608973,-0.10931839028569534
6,0,0.5,0.8182935367950659,-0.8415313637025523
6,0,0.25,0.8039109110170226,0.5967312141017755
6,0,0.0,0.7731330967369687,3.674512642107164
6,1,1.0,0.8098782231580404,0.0
6,1,0.75,0.8221576705394802,-1.2279447381439823
6,1,0.5,0.8135881334464626,-0.3709910288422269
6,1,0.25,0.8118283505543273,-0.19501273962869714
6,1,0.0,0.7955105336405364,1.4367689517504
6,2,1.0,0.8098782231580404,0.0
6,2,0.75,0.8227565463230149,-1.2878323164974503
6,2,0.5,0.82375087535014,-1.3872652192099655
6,2,0.25,0.8282736468710126,-1.8395423712972203
6,2,0.0,0.813110068603313,-0.3231845445272663
6,3,1.0,0.8098782231580404,0.0
6,3,0.75,0.8209273203522038,-1.104909719416347
6,3,0.5,0.8365881949061248,-2.6709971748084427
6,3,0.25,0.8315156947866744,-2.1637471628634053
6,3,0.0,0.8277546182756573,-1.787639511761696
6,4,1.0,0.8098782231580404,0.0
6,4,0.75,0.8007897768661557,0.9088446291884655
6,4,0.5,0.7903026952755909,1.9575527882449428
6,4,0.25,0.7933420166783326,1.6536206479707771
6,4,0.0,0.7914245225860804,1.8453700571959941
6,5,1.0,0.8098782231580404,0.0
6,5,0.75,0.8122633891323159,-0.2385165974275516
6,5,0.5,0.8009325591990427,0.8945663958997652
6,5,0.25,0.8099192413451326,-0.004101818709223437
6,5,0.0,0.819864277375119,-0.9986054217078655
6,6,1.0,0.8098782231580404,0.0
6,6,0.75,0.8129327937062618,-0.3054570548221447
6,6,0.5,0.8002336829466796,0.9644540211360741
6,6,0.25,0.8040876369719486,0.579058618609174
6,6,0.0,0.7926573996672348,1.722082349080556
6,7,1.0,0.8098782231580404,0.0
6,7,0.75,0.7952742461841971,1.4603976973843302
6,7,0.5,0.7867818472488277,2.309637590921265
6,7,0.25,0.7664699634620331,4.340825969600726
6,7,0.0,0.7491433634610221,6.073485969701831
6,8,1.0,0.8098782231580404,0.0
6,8,0.75,0.7982183016556332,1.1659921502407133
6,8,0.5,0.7809779794485621,2.89002437094783
6,8,0.25,0.7508871611214087,5.8991062036631625
6,8,0.0,0.7324973323014448,7.738089085659561
7,0,1.0,0.7936011549872936,0.0
7,0,0.75,0.7991888571888559,-0.558770220156235
7,0,0.5,0.7900073567396879,0.35937982476056396
7,0,0.25,0.7917895957013873,0.18115592859062613
7,0,0.0,0.7807260066188637,1.2875148368429845
7,1,1.0,0.7936011549872936,0.0
7,1,0.75,0.7503870063287819,4.321414865851169
7,1,0.5,0.7331267039551375,6.04744510321561
7,1,0.25,0.7475209811318955,4.608017385539808
7,1,0.0,0.7404412067111251,5.315994827616843
7,2,1.0,0.7936011549872936,0.0
7,2,0.75,0.7879810128613624,0.5620142125931205
7,2,0.5,0.7965125156015544,-0.2911360614260894
7,2,0.25,0.7738677665348006,1.973338845249295
7,2,0.0,0.7778130057132773,1.5788149274016283
7,3,1.0,0.7936011549872936,0.0
7,3,0.75,0.71830227986818,7.52988751191136
7,3,0.5,0.6994809085850732,9.41202464022204
7,3,0.25,0.7799795912399354,1.3621563747358123
7,3,0.0,0.7859276992890525,0.7673455698241072
7,4,1.0,0.7936011549872936,0.0
7,4,0.75,0.7949010585117953,-0.1299903524501711
7,4,0.5,0.7798861156992797,1.3715039288013875
7,4,0.25,0.7697875005700092,2.3813654417284336
7,4,0.0,0.7689563571225013,2.4644797864792234
7,5,1.0,0.7936011549872936,0.0
7,5,0.75,0.742105582396253,5.1495572591040535
7,5,0.5,0.8203561828048832,-2.675502781758965
7,5,0.25,0.8228744520937085,-2.927329710641491
7,5,0.0,0.7471270426989984,4.647411228829512
7,6,1.0,0.7936011549872936,0.0
7,6,0.75,0.763281430749402,3.031972423789153
7,6,0.5,0.7474307017018382,4.617045328545533
7,6,0.25,0.7192672509400126,7.43339040472809
7,6,0.0,0.7196940181716702,7.3907136815623335
7,7,1.0,0.7936011549872936,0.0
7,7,0.75,0.8061998873567513,-1.2598732369457744
7,7,0.5,0.8007049952710992,-0.7103840283805618
7,7,0.25,0.7839825505605541,0.9618604426739452
7,7,0.0,0.779398743702987,1.4202411284306549
7,8,1.0,0.7936011549872936,0.0
7,8,0.75,0.8167294775625767,-2.312832257528319
7,8,0.5,0.8089624914260056,-1.536133643871207
7,8,0.25,0.8152318962523963,-2.163074126510278
7,8,0.0,0.807912866328082,-1.4311711340788458
8,0,1.0,0.8471602567970994,0.0
8,0,0.75,0.8542374651967231,-0.7077208399623669
8,0,0.5,0.8603476594749982,-1.3187402677898863
8,0,0.25,0.8616555857991597,-1.4495329002060298
8,0,0.0,0.8465712752464138,0.058898155068554114
8,1,1.0,0.8471602567970994,0.0
8,1,0.75,0.8560631428062488,-0.8902886009149458
8,1,0.5,0.8557487022944419,-0.8588445497342501
8,1,0.25,0.8508272390755132,-0.36669822784137773
8,1,0.0,0.8434030279223441,0.37572288747552696
8,2,1.0,0.8471602567970994,0.0
8,2,0.75,0.8678452028095112,-2.0684946012411776
8,2,0.5,0.8666641335191447,-1.9503876722045344
8,2,0.25,0.8637920294407457,-1.6631772643646348
8,2,0.0,0.8647147903363885,-1.7554533539289152
8,3,1.0,0.8471602567970994,0.0
8,3,0.75,0.8608885380271524,-1.3728281230052986
8,3,0.5,0.8539973595408156,-0.6837102743716184
8,3,0.25,0.8547423601129233,-0.7582103315823874
8,3,0.0,0.842567099877078,0.45931569200213795
8,4,1.0,0.8471602567970994,0.0
8,4,0.75,0.8406885816295045,0.6471675167594837
8,4,0.5,0.8215637719968958,2.55964848002036
8,4,0.25,0.8030589261692334,4.410133062786603
8,4,0.0,0.8306815986439072,1.647865815319216
8,5,1.0,0.8471602567970994,0.0
8,5,0.75,0.8421893255753842,0.49709312217152135
8,5,0.5,0.8227680536460917,2.439220315100765
8,5,0.25,0.8272383042830299,1.9921952514069474
8,5,0.0,0.8306441559843678,1.6516100812731582
8,6,1.0,0.8471602567970994,0.0
8,6,0.75,0.8667627208623332,-1.9602464065233804
8,6,0.5,0.8640782837898735,-1.6918026992774116
8,6,0.25,0.8617597208873353,-1.4599464090235936
8,6,0.0,0.862023788924599,-1.486353212749958
8,7,1.0,0.8471602567970994,0.0
8,7,0.75,0.8614927983870724,-1.4332541589972991
8,7,0.5,0.8589501776175094,-1.1789920820409971
8,7,0.25,0.8520373299382187,-0.48770731411192925
8,7,0.0,0.8064430995771796,4.071715721991975
8,8,1.0,0.8471602567970994,0.0
8,8,0.75,0.8605938537714003,-1.343359697430091
8,8,0.5,0.8585956786960225,-1.1435421898923104
8,8,0.25,0.8516755106152396,-0.4515253818140219
8,8,0.0,0.8489679777637607,-0.18077209666612637
9,0,1.0,0.8206018992716058,0.0
9,0,0.75,0.8221385413166236,-0.15366420450177998
9,0,0.5,0.8071968668681018,1.3405032403503991
9,0,0.25,0.8091424120443563,1.1459487227249432
9,0,0.0,0.8092318115249401,1.1370087746665702
9,1,1.0,0.8206018992716058,0.0
9,1,0.75,0.8211376776354893,-0.05357783638835212
9,1,0.5,0.8154715247450526,0.5130374526553183
9,1,0.25,0.8107805889547488,0.9821310316856957
9,1,0.0,0.7978832924285209,2.271860684308491
9,2,1.0,0.8206018992716058,0.0
9,2,0.75,0.8179150017050372,0.2686897566568591
9,2,0.5,0.8199758825195471,0.06260167520586446
9,2,0.25,0.8227771573646587,-0.21752580930529675
9,2,0.0,0.8080066470161458,1.2595252255459988
9,3,1.0,0.8206018992716058,0.0
9,3,0.75,0.8288972175602496,-0.8295318288643827
9,3,0.5,0.8281781428066257,-0.7576243535019955
9,3,0.25,0.8251501614633997,-0.4548262191793939
9,3,0.0,0.8186163039714308,0.1985595300174947
9,4,1.0,0.8206018992716058,0.0
9,4,0.75,0.8101980260151816,1.0403873256424112
9,4,0.5,0.8067438947409951,1.3858004530610701
9,4,0.25,0.8128947146142818,0.7707184657324007
9,4,0.0,0.82263824605965,-0.20363467880442077
9,5,1.0,0.8206018992716058,0.0
9,5,0.75,0.8259657586651764,-0.5363859393570647
9,5,0.5,0.8237579939987258,-0.31560947271200845
9,5,0.25,0.8249817248476521,-0.43798255760463256
9,5,0.0,0.8230739663114852,-0.24720670398794553
9,6,1.0,0.8206018992716058,0.0
9,6,0.75,0.8211549165092564,-0.05530172376506659
9,6,0.5,0.8221915646054291,-0.15896653338233202
9,6,0.25,0.817112010846609,0.34898884249967566
9,6,0.0,0.8099450127193311,1.0656886552274702
9,7,1.0,0.8206018992716058,0.0
9,7,0.75,0.8240896055481539,-0.34877062765481526
9,7,0.5,0.8160808833282723,0.45210159433334285
9,7,0.25,0.7930246639918894,2.757723527971634
9,7,0.0,0.7806885477241564,3.991335154744935
9,8,1.0,0.8206018992716058,0.0
9,8,0.75,0.8317773593029341,-1.11754600313283
9,8,0.5,0.838595427450878,-1.7993528179272245
9,8,0.25,0.8262477074241614,-0.5645808152555665
9,8,0.0,0.8215914112266598,-0.09895119550540343
10,0,1.0,0.7454673963178456,0.0
10,0,0.75,0.7339910547970865,1.147634152075916
10,0,0.5,0.740160854394212,0.5306541923633668
10,0,0.25,0.739835701097382,0.5631695220463695
10,0,0.0,0.7424874528723584,0.2979943445487243
10,1,1.0,0.7454673963178456,0.0
10,1,0.75,0.7623146734651611,-1.6847277147315487
10,1,0.5,0.7479827270943799,-0.2515330776534208
10,1,0.25,0.7523524419018972,-0.6885045584051563
10,1,0.0,0.7613314314063928,-1.5864035088547168
10,2,1.0,0.7454673963178456,0.0
10,2,0.75,0.7542343114336516,-0.8766915115805962
10,2,0.5,0.7484793593747547,-0.3011963056909095
10,2,0.25,0.7502851711248378,-0.4817774806992192
10,2,0.0,0.7318214426652516,1.3645953652594023
10,3,1.0,0.7454673963178456,0.0
10,3,0.75,0.720568470248855,2.489892606899069
10,3,0.5,0.7117657747713433,3.370162154650236
10,3,0.25,0.7059938859691903,3.9473510348655316
10,3,0.0,0.6972306941503604,4.823670216748521
10,4,1.0,0.7454673963178456,0.0
10,4,0.75,0.7506764315567486,-0.5209035238902926
10,4,0.5,0.7584788155587158,-1.3011419240870126
10,4,0.25,0.744803431785619,0.0663964532226613
10,4,0.0,0.7356669453377723,0.9800450980073316
10,5,1.0,0.7454673963178456,0.0
10,5,0.75,0.7373624794745485,0.8104916843297172
10,5,0.5,0.7389147477028511,0.6552648614994494
10,5,0.25,0.7403948224658801,0.5072573851965578
10,5,0.0,0.740130758222749,0.5336638095096657
10,6,1.0,0.7454673963178456,0.0
10,6,0.75,0.7475377218430246,-0.207032552517894
10,6,0.5,0.7485413476933025,-0.30739513754568515
10,6,0.25,0.7379927171593839,0.7474679158461783
10,6,0.0,0.7329845444428148,1.2482851875030843
10,7,1.0,0.7454673963178456,0.0
10,7,0.75,0.7413565431728565,0.4110853144989157
10,7,0.5,0.7477544538072165,-0.22870574893708584
10,7,0.25,0.7392059124394499,0.6261483878395757
10,7,0.0,0.7267436430859954,1.872375323185027
10,8,1.0,0.7454673963178456,0.0
10,8,0.75,0.7528160474512773,-0.7348651133431638
10,8,0.5,0.7578989365151626,-1.243154019731696
10,8,0.25,0.7461238963856764,-0.06565000678308008
10,8,0.0,0.7452025324236278,0.02648638942178705
11,0,1.0,0.92531814109308,0.0
11,0,0.75,0.9159161075346047,0.9402033558475242
11,0,0.5,0.9208885419551064,0.44295991379735833
11,0,0.25,0.9270583101869229,-0.17401690938428915
11,0,0.0,0.9240613601892828,0.12567809037972166
11,1,1.0,0.92531814109308,0.0
11,1,0.75,0.9179341295370118,0.738401155606816
11,1,0.5,0.9109636515327052,1.4354489560374772
11,1,0.25,0.8877546238123161,3.7563517280763903
11,1,0.0,0.8759295641670871,4.938857692599285
11,2,1.0,0.92531814109308,0.0
11,2,0.75,0.9033449093048103,2.197323178826971
11,2,0.5,0.9031587162073087,2.2159424885771273
11,2,0.25,0.8925931734251954,3.2724967667884575
11,2,0.0,0.8811047700082131,4.421337108486689
11,3,1.0,0.92531814109308,0.0
11,3,0.75,0.9232772119766339,0.2040929116446044
11,3,0.5,0.917701526765519,0.7616614327561
11,3,0.25,0.9131872740209386,1.2130867072141394
11,3,0.0,0.8865038370132198,3.8814304079860196
11,4,1.0,0.92531814109308,0.0
11,4,0.75,0.9244816554265389,0.08364856665410425
11,4,0.5,0.9064789038310204,1.8839237262059605
11,4,0.25,0.8882380892797559,3.7080051813324078
11,4,0.0,0.8814907099790822,4.382743111399778
11,5,1.0,0.92531814109308,0.0
11,5,0.75,0.9195051212727541,0.5813019820325893
11,5,0.5,0.9035802348615195,2.1737906231560467
11,5,0.25,0.9063650649739359,1.8953076119144097
11,5,0.0,0.9145882328380037,1.0729908255076248
11,6,1.0,0.92531814109308,0.0
11,6,0.75,0.9268934983418107,-0.15753572487307022
11,6,0.5,0.9299924010883639,-0.4674259995283925
11,6,0.25,0.9254281754281755,-0.011003433509548799
11,6,0.0,0.9329589036819255,-0.7640762588845496
11,7,1.0,0.92531814109308,0.0
11,7,0.75,0.9361100608700925,-1.0791919777012549
11,7,0.5,0.9353251220806343,-1.000698098755437
11,7,0.25,0.9355710495623925,-1.0252908469312483
11,7,0.0,0.9364302574683152,-1.1112116375235237
11,8,1.0,0.92531814109308,0.0
11,8,0.75,0.9333359961790415,-0.8017855085961534
11,8,0.5,0.9269677557381262,-0.16496146450462046
11,8,0.25,0.9191857238968345,0.6132417196245465
11,8,0.0,0.9116618645133234,1.3656276579756543
12,0,1.0,0.9045065795415544,0.0
12,0,0.75,0.901113143216975,0.33934363245794463
12,0,0.5,0.9008701803587544,0.363639918280001
12,0,0.25,0.905567911094266,-0.10613315527115974
12,0,0.0,0.8939584298733809,1.0548149668173523
12,1,1.0,0.9045065795415544,0.0
12,1,0.75,0.9066050960076723,-0.20985164661178057
12,1,0.5,0.9001805323016124,0.432604723994201
12,1,0.25,0.8946334532617604,0.9873126279794087
12,1,0.0,0.8855973445288284,1.8909235012726011
12,2,1.0,0.9045065795415544,0.0
12,2,0.75,0.9044305705635409,0.00760089780135198
12,2,0.5,0.8945920448390906,0.991453470246384
12,2,0.25,0.8787924852553866,2.571409428616789
12,2,0.0,0.8647017975623346,3.9804781979219883
12,3,1.0,0.9045065795415544,0.0
12,3,0.75,0.9059461139388348,-0.14395343972803953
12,3,0.5,0.9003804103431847,0.41261691983697224
12,3,0.25,0.8942699085223882,1.0236671019166255
12,3,0.0,0.8710661983766974,3.3440381164857036
12,4,1.0,0.9045065795415544,0.0
12,4,0.75,0.8994446905962665,0.5061888945287918
12,4,0.5,0.8996605324034352,0.4846047138119203
12,4,0.25,0.8999416403083709,0.45649392331835736
12,4,0.0,0.9149980763082076,-1.0491496766653174
12,5,1.0,0.9045065795415544,0.0
12,5,0.75,0.904609484052255,-0.010290451070060769
12,5,0.5,0.9051385734505119,-0.06319939089574067
12,5,0.25,0.9016240576599193,0.28825218816351805
12,5,0.0,0.905447543152023,-0.09409636104685815
12,6,1.0,0.9045065795415544,0.0
12,6,0.75,0.9058093344960982,-0.13027549545437944
12,6,0.5,0.9067055250783699,-0.21989455368154331
12,6,0.25,0.9024519265845479,0.20546529570065752
12,6,0.0,0.9037203002319281,0.07862793096263809
12,7,1.0,0.9045065795415544,0.0
12,7,0.75,0.9044593775120378,0.0047202029516690835
12,7,0.5,0.8907176786889509,1.3788900852603536
12,7,0.25,0.8689569311118468,3.5549648429707648
12,7,0.0,0.8630911378776714,4.1415441663883
12,8,1.0,0.9045065795415544,0.0
12,8,0.75,0.8921176413818417,1.238893815971276
12,8,0.5,0.8942768156259581,1.022976391559638
12,8,0.25,0.8897597549365606,1.474682460499388
12,8,0.0,0.8613570164451629,4.31495630963915
13,0,1.0,0.9305390330663545,0.0
13,0,0.75,0.93333506890499,-0.27960358386354134
13,0,0.5,0.9262409739182691,0.42980591480854535
13,0,0.25,0.9184083528560273,1.213068021032726
13,0,0.0,0.9192231751007301,1.1315857965624398
13,1,1.0,0.9305390330663545,0.0
13,1,0.75,0.9224064756481863,0.8132557418168207
13,1,0.5,0.9154261422792773,1.5112890787077227
13,1,0.25,0.9136547421952187,1.6884290871135854
13,1,0.0,0.909683502055602,2.085553101075255
13,2,1.0,0.9305390330663545,0.0
13,2,0.75,0.9209424090717803,0.9596623994574283
13,2,0.5,0.9237514549355368,0.6787578130817762
13,2,0.25,0.9213514703560066,0.918756271034793
13,2,0.0,0.913786592463953,1.6752440602401553
13,3,1.0,0.9305390330663545,0.0
13,3,0.75,0.9253837820087175,0.5155251057637034
13,3,0.5,0.9189500638443079,1.1588969222046663
13,3,0.25,0.9105674929231694,1.997154014318514
13,3,0.0,0.903223779635871,2.7315253430483577
13,4,1.0,0.9305390330663545,0.0
13,4,0.75,0.9192766720308437,1.1262361035510815
13,4,0.5,0.9022927308547054,2.8246302211649144
13,4,0.25,0.9003951621225103,3.0143870943844298
13,4,0.0,0.8903158543207934,4.022317874556114
13,5,1.0,0.9305390330663545,0.0
13,5,0.75,0.9132686612923404,1.7270371774014137
13,5,0.5,0.9053120420439289,2.522699102242565
13,5,0.25,0.9043439853005423,2.6195047765812274
13,5,0.0,0.9020041905119305,2.8534842554424067
13,6,1.0,0.9305390330663545,0.0
13,6,0.75,0.9261220697541452,0.441696331220931
13,6,0.5,0.928689568729481,0.18494643368734964
13,6,0.25,0.9270823728550068,0.34566602113477174
13,6,0.0,0.9221709938262349,0.836803924011964
13,7,1.0,0.9305390330663545,0.0
13,7,0.75,0.9328664338450435,-0.23274007786889817
13,7,0.5,0.9143894574774278,1.6149575588926712
13,7,0.25,0.9001542731064915,3.0384759959863006
13,7,0.0,0.9037009534531633,2.683807961319129
13,8,1.0,0.9305390330663545,0.0
13,8,0.75,0.928480560320183,0.20584727461715469
13,8,0.5,0.9297735502383342,0.07654828280203585
13,8,0.25,0.9176647071263055,1.2874325940049003
13,8,0.0,0.9176377467594834,1.2901286306871151
14,0,1.0,0.8412801025605904,0.0
14,0,0.75,0.8289817999956847,1.2298302564905716
14,0,0.5,0.82224918000756,1.9030922553030405
14,0,0.25,0.8162681669392826,2.501193562130777
14,0,0.0,0.8194085532289882,2.187154933160218
14,1,1.0,0.8412801025605904,0.0
14,1,0.75,0.8349685357687269,0.631156679186351
14,1,0.5,0.8328993838099799,0.8380718750610527
14,1,0.25,0.8340985037090175,0.7181598851572879
14,1,0.0,0.8325973930457404,0.8682709514849951
14,2,1.0,0.8412801025605904,0.0
14,2,0.75,0.8437334262112287,-0.24533236506383282
14,2,0.5,0.8509473919569075,-0.9667289396317114
14,2,0.25,0.8556498604441976,-1.436975788360717
14,2,0.0,0.8411384176554377,0.014168490515265031
14,3,1.0,0.8412801025605904,0.0
14,3,0.75,0.828123809657462,1.3156292903128364
14,3,0.5,0.8231358710151001,1.8144231545490275
14,3,0.25,0.8107320243075979,3.054807825299244
14,3,0.0,0.7827231343728597,5.855696818773071
14,4,1.0,0.8412801025605904,0.0
14,4,0.75,0.8434827716570225,-0.2202669096432075
14,4,0.5,0.8444081329571627,-0.3128030396572279
14,4,0.25,0.8430052906514857,-0.172518809089528
14,4,0.0,0.8417249894289671,-0.04448868683767371
14,5,1.0,0.8412801025605904,0.0
14,5,0.75,0.8463618831469033,-0.5081780586312923
14,5,0.5,0.8453209493378032,-0.40408467772128365
14,5,0.25,0.8436098772191739,-0.23297746585835277
14,5,0.0,0.8409381401432536,0.03419624173367497
14,6,1.0,0.8412801025605904,0.0
14,6,0.75,0.8356744544808783,0.5605648079712089
14,6,0.5,0.8345080299695494,0.6772072591040956
14,6,0.25,0.8306736503935954,1.0606452166994962
14,6,0.0,0.8281420397835877,1.313806277700269
14,7,1.0,0.8412801025605904,0.0
14,7,0.75,0.8260068948759227,1.5273207684667667
14,7,0.5,0.805327088977044,3.595301358354641
14,7,0.25,0.8068964096406067,3.4383692919983666
14,7,0.0,0.7956879148457747,4.559218771481566
14,8,1.0,0.8412801025605904,0.0
14,8,0.75,0.8360003209877053,0.5279781572885112
14,8,0.5,0.8383129588883214,0.29671436722690236
14,8,0.25,0.839970807725386,0.13092948352043665
14,8,0.0,0.8089369199647399,3.234318259585045
15,0,1.0,0.9060692529449854,0.0
15,0,0.75,0.910134293595392,-0.40650406504065817
15,0,0.5,0.9047130846324838,0.13561683125016266
15,0,0.25,0.8877922742765121,1.8276978668473332
15,0,0.0,0.8648263004254053,4.12429525195801
15,1,1.0,0.9060692529449854,0.0
15,1,0.75,0.9227377767814225,-1.6668523836437132
15,1,0.5,0.9236699648464355,-1.7600711901450072
15,1,0.25,0.9251950041503639,-1.9125751205378516
15,1,0.0,0.9189856758377449,-1.2916422892759516
15,2,1.0,0.9060692529449854,0.0
15,2,0.75,0.909539306385525,-0.3470053440539633
15,2,0.5,0.9188440776497456,-1.2774824704760213
15,2,0.25,0.9004892031369864,0.5580049807998977
15,2,0.0,0.8877260657879975,1.8343187156987906
15,3,1.0,0.9060692529449854,0.0
15,3,0.75,0.9128580528668023,-0.6788799921816913
15,3,0.5,0.9067063196958893,-0.06370667509039141
15,3,0.25,0.8981977357102497,0.787151723473567
15,3,0.0,0.9011365587068543,0.4932694238131141
15,4,1.0,0.9060692529449854,0.0
15,4,0.75,0.9201712646475373,-1.4102011702551875
15,4,0.5,0.9114958715635464,-0.5426618618560974
15,4,0.25,0.9047038021679477,0.13654507770377577
15,4,0.0,0.9301477258753044,-2.407847293031895
15,5,1.0,0.9060692529449854,0.0
15,5,0.75,0.9143346013508807,-0.8265348405895323
15,5,0.5,0.908096010708774,-0.2026757763788578
15,5,0.25,0.9108492200949517,-0.4779967149966313
15,5,0.0,0.9127825186465244,-0.6713265701538962
15,6,1.0,0.9060692529449854,0.0
15,6,0.75,0.9149324196862397,-0.8863166741254314
15,6,0.5,0.9126778115724409,-0.6608558627455463
15,6,0.25,0.9029739308470686,0.3095322097916853
15,6,0.0,0.8996959747903516,0.6373278154633844
15,7,1.0,0.9060692529449854,0.0
15,7,0.75,0.8985064455556259,0.7562807389359549
15,7,0.5,0.8864131609394081,1.9656092005577275
15,7,0.25,0.8787416448706772,2.732760807430823
15,7,0.0,0.8615337111304853,4.453554181450015
15,8,1.0,0.9060692529449854,0.0
15,8,0.75,0.9207617418295168,-1.469248888453134
15,8,0.5,0.9213863049948963,-1.531705204991085
15,8,0.25,0.915463385035832,-0.9394132090846607
15,8,0.0,0.9043619598015237,0.1707293143461741
16,0,1.0,0.8535704584897298,0.0
16,0,0.75,0.8492031077013983,0.4367350788331503
16,0,0.5,0.856856647508958,-0.32861890192281695
16,0,0.25,0.8576117362832985,-0.4041277793568665
16,0,0.0,0.8585804078189931,-0.5009949329263352
16,1,1.0,0.8535704584897298,0.0
16,1,0.75,0.8502032757947373,0.33671826949924766
16,1,0.5,0.8533244301895324,0.02460283001973762
16,1,0.25,0.8559434081114807,-0.23729496217509416
16,1,0.0,0.8557798817901553,-0.2209423300425506
16,2,1.0,0.8535704584897298,0.0
16,2,0.75,0.8525282071953314,0.10422512943983886
16,2,0.5,0.8487767260642809,0.47937324254488933
16,2,0.25,0.858154503007112,-0.45840445173822575
16,2,0.0,0.8643066762699704,-1.0736217780240587
16,3,1.0,0.8535704584897298,0.0
16,3,0.75,0.8523651175141015,0.12053409756282996
16,3,0.5,0.8553061037993703,-0.17356453096405433
16,3,0.25,0.8550942768764459,-0.15238183867161137
16,3,0.0,0.8482005942171036,0.5369864272626201
16,4,1.0,0.8535704584897298,0.0
16,4,0.75,0.8486862483696418,0.4884210120087995
16,4,0.5,0.8408386777991311,1.273178069059866
16,4,0.25,0.8405920408719266,1.2978417617803162
16,4,0.0,0.8286343098763331,2.493614861339666
16,5,1.0,0.8535704584897298,0.0
16,5,0.75,0.8467897126952855,0.6780745794444321
16,5,0.5,0.8379538689207748,1.5616589568954953
16,5,0.25,0.8433065471739538,1.0263911315775975
16,5,0.0,0.8417272462482625,1.1843212241467338
16,6,1.0,0.8535704584897298,0.0
16,6,0.75,0.8525428813052061,0.10275771845237314
16,6,0.5,0.8501059872271169,0.3464471262612845
16,6,0.25,0.8539485892401253,-0.037813075039550004
16,6,0.0,0.8586411667463768,-0.5070708256647016
16,7,1.0,0.8535704584897298,0.0
16,7,0.75,0.8444331456271834,0.9137312862546376
16,7,0.5,0.8303571428571428,2.3213315632586995
16,7,0.25,0.8293072894489923,2.4263169040737442
16,7,0.0,0.805468005108217,4.810245338151276
16,8,1.0,0.8535704584897298,0.0
16,8,0.75,0.8454033830369604,0.8167075452769401
16,8,0.5,0.844135115454571,0.9435343035158805
16,8,0.25,0.8355763649962773,1.799409349345249
16,8,0.0,0.8272266114203966,2.6343847069333237
17,0,1.0,0.8377723541390723,0.0
17,0,0.75,0.8367384427684594,0.10339113706128167
17,0,0.5,0.8334732967340825,0.42990574049897035
17,0,0.25,0.8313871136323895,0.6385240506682766
17,0,0.0,0.8376834212047869,0.008893293428535731
17,1,1.0,0.8377723541390723,0.0
17,1,0.75,0.8550128354663358,-1.7240481327263524
17,1,0.5,0.8637992460083491,-2.602689186927687
17,1,0.25,0.8713034831501495,-3.3531129011077243
17,1,0.0,0.8690052393247093,-3.123288518563705
17,2,1.0,0.8377723541390723,0.0
17,2,0.75,0.8458007883966921,-0.8028434257619899
17,2,0.5,0.8627800253417417,-2.5007671202669446
17,2,0.25,0.8535765041500192,-1.5804150010946927
17,2,0.0,0.8546121443319836,-1.6839790192911375
17,3,1.0,0.8377723541390723,0.0
17,3,0.75,0.8326158536549042,0.5156500484168047
17,3,0.5,0.8237533646460453,1.4018989493026934
17,3,0.25,0.8223407121578953,1.543164198117697
17,3,0.0,0.8081149556674389,2.96573984716334
17,4,1.0,0.8377723541390723,0.0
17,4,0.75,0.8407616064645734,-0.29892523255011794
17,4,0.5,0.8393982571034279,-0.16259029643556078
17,4,0.25,0.8469173176238549,-0.9144963484782664
17,4,0.0,0.8391757244521827,-0.14033703131104414
17,5,1.0,0.8377723541390723,0.0
17,5,0.75,0.8240028524967487,1.37695016423236
17,5,0.5,0.8137972576053071,2.3975096533765172
17,5,0.25,0.8279934124122623,0.9778941726809931
17,5,0.0,0.8183189154946013,1.945343864447091
17,6,1.0,0.8377723541390723,0.0
17,6,0.75,0.8388504588616277,-0.10781047225554286
17,6,0.5,0.8357832771551842,0.19890769838880606
17,6,0.25,0.8206229355635597,1.7149418575512554
17,6,0.0,0.8150526840858532,2.2719670053219065
17,7,1.0,0.8377723541390723,0.0
17,7,0.75,0.8431727989389605,-0.5400444799888215
17,7,0.5,0.8319932189561892,0.5779135182883088
17,7,0.25,0.8246045709774351,1.3167783161637137
17,7,0.0,0.7945410327058486,4.323132143322361
17,8,1.0,0.8377723541390723,0.0
17,8,0.75,0.8336358424880302,0.41365116510420075
17,8,0.5,0.8254951249798314,1.2277229159240899
17,8,0.25,0.8071256354221104,3.0646718716961896
17,8,0.0,0.791145886584606,4.6626467554466196
18,0,1.0,0.8918563571875991,0.0
18,0,0.75,0.8875129755435148,0.4343381644084321
18,0,0.5,0.8807924760320927,1.1063881155506494
18,0,0.25,0.8834329393140821,0.8423417873517081
18,0,0.0,0.8743277933230018,1.7528563864597335
18,1,1.0,0.8918563571875991,0.0
18,1,0.75,0.9040112206097312,-1.2154863422132012
18,1,0.5,0.8986451804453963,-0.6788823257797172
18,1,0.25,0.8982007979126418,-0.6344440725042699
18,1,0.0,0.9037174221449842,-1.1861064957385037
18,2,1.0,0.8918563571875991,0.0
18,2,0.75,0.9048589139523723,-1.3002556764773132
18,2,0.5,0.8980054535263778,-0.6149096338778692
18,2,0.25,0.8966828649048729,-0.4826507717273776
18,2,0.0,0.8937402757016045,-0.18839185140053782
18,3,1.0,0.8918563571875991,0.0
18,3,0.75,0.876814789504394,1.5041567683205193
18,3,0.5,0.8595582206612102,3.229813652638891
18,3,0.25,0.8419719026219423,4.988445456565682
18,3,0.0,0.8050224702878728,8.683388689972638
18,4,1.0,0.8918563571875991,0.0
18,4,0.75,0.8950903517869082,-0.32339945993090646
18,4,0.5,0.8950903517869082,-0.32339945993090646
18,4,0.25,0.886002951194358,0.5853405993241134
18,4,0.0,0.8728891002476125,1.8967256939986687
18,5,1.0,0.8918563571875991,0.0
18,5,0.75,0.9006776641614298,-0.8821306973830656
18,5,0.5,0.8855924132873475,0.6263943900251645
18,5,0.25,0.8924931507300478,-0.06367935424486104
18,5,0.0,0.9011973494059664,-0.9340992218367261
18,6,1.0,0.8918563571875991,0.0
18,6,0.75,0.9044267865721385,-1.257042938453934
18,6,0.5,0.9103173152786808,-1.8460958091081614
18,6,0.25,0.9143338159195247,-2.2477458731925526
18,6,0.0,0.9235439191811222,-3.1687561993523072
18,7,1.0,0.8918563571875991,0.0
18,7,0.75,0.8711519158297764,2.070444135782279
18,7,0.5,0.8572065470818973,3.4649810105701895
18,7,0.25,0.8687750553658423,2.3081301821756828
18,7,0.0,0.8451100652934523,4.674629189414681
18,8,1.0,0.8918563571875991,0.0
18,8,0.75,0.880554043798817,1.1302313388782181
18,8,0.5,0.8792500313867234,1.2606325800875728
18,8,0.25,0.8859878760547041,0.5868481132895065
18,8,0.0,0.8867786642533335,0.5077692934265632
19,0,1.0,0.8417459015268012,0.0
19,0,0.75,0.8455508811623589,-0.38049796355577037
19,0,0.5,0.8421334308650882,-0.03875293382870071
19,0,0.25,0.8436356457476608,-0.1889744220859635
19,0,0.0,0.8275495734930053,1.419632803379589
19,1,1.0,0.8417459015268012,0.0
19,1,0.75,0.8451503687875037,-0.3404467260702537
19,1,0.5,0.8447126211737674,-0.2966719646966265
19,1,0.25,0.8447597285206797,-0.3013826993878532
19,1,0.0,0.835587184699011,0.6158716827790123
19,2,1.0,0.8417459015268012,0.0
19,2,0.75,0.8401438727851147,0.16020287416864676
19,2,0.5,0.8354409167948089,0.6304984731992258
19,2,0.25,0.8341131865995588,0.7632714927242379
19,2,0.0,0.8323753007718178,0.9370600754983416
19,3,1.0,0.8417459015268012,0.0
19,3,0.75,0.8422076016064726,-0.04617000796713899
19,3,0.5,0.8143202718085077,2.742562971829343
19,3,0.25,0.8065120528615626,3.52338486652386
19,3,0.0,0.7951717556637665,4.6574145863034655
19,4,1.0,0.8417459015268012,0.0
19,4,0.75,0.835958081056201,0.5787820470600225
19,4,0.5,0.8297337273531395,1.2012174173661627
19,4,0.25,0.8092851058821942,3.246079564460702
19,4,0.0,0.8099294666375418,3.1816434889259337
19,5,1.0,0.8417459015268012,0.0
19,5,0.75,0.8286248297592979,1.3121071767503323
19,5,0.5,0.8315134489605912,1.023245256620997
19,5,0.25,0.8261142207400904,1.5631680786710733
19,5,0.0,0.8131831691618265,2.856273236497464
19,6,1.0,0.8417459015268012,0.0
19,6,0.75,0.8410484774796012,0.06974240471999682
19,6,0.5,0.8400030397793603,0.17428617474408714
19,6,0.25,0.8507956338521654,-0.9049732325364213
19,6,0.0,0.8480083824396373,-0.6262480912836099
19,7,1.0,0.8417459015268012,0.0
19,7,0.75,0.8372453105877306,0.45005909390706256
19,7,0.5,0.8265168706224971,1.5229030904304053
19,7,0.25,0.8252948075704315,1.6451093956369678
19,7,0.0,0.8242324556799748,1.7513445846826348
19,8,1.0,0.8417459015268012,0.0
19,8,0.75,0.8451274066780605,-0.3381505151259345
19,8,0.5,0.8396534225913298,0.20924789354713758
19,8,0.25,0.8441754131647339,-0.2429511637932702
19,8,0.0,0.8340882843430152,0.7657617183785992
20,0,1.0,0.852884555888521,0.0
20,0,0.75,0.8405102592037279,1.2374296684793062
20,0,0.5,0.836503921303154,1.6380634585366982
20,0,0.25,0.8352213213837465,1.7663234504774472
20,0,0.0,0.8387539547030245,1.4130601185496472
20,1,1.0,0.852884555888521,0.0
20,1,0.75,0.8521684873877746,0.07160685007463474
20,1,0.5,0.8462463190404368,0.6638236848084178
20,1,0.25,0.834091820074514,1.8792735814006978
20,1,0.0,0.8367115939376508,1.6172961950870146
20,2,1.0,0.852884555888521,0.0
20,2,0.75,0.8421798808587913,1.0704675029729716
20,2,0.5,0.8347012203718642,1.818333551665674
20,2,0.25,0.8148950965869742,3.7989459301546735
20,2,0.0,0.8076804875780548,4.5204068310466194
20,3,1.0,0.852884555888521,0.0
20,3,0.75,0.8510616301071712,0.18229257813497934
20,3,0.5,0.8472907590368424,0.5593796851678601
20,3,0.25,0.8437349367320512,0.9149619156469724
20,3,0.0,0.8318434732764074,2.104108261211357
20,4,1.0,0.852884555888521,0.0
20,4,0.75,0.8535303155038847,-0.0645759615363728
20,4,0.5,0.8508378649627406,0.2046690925780359
20,4,0.25,0.8542506208616604,-0.13660649731394026
20,4,0.0,0.8514250502517879,0.14595056367330272
20,5,1.0,0.852884555888521,0.0
20,5,0.75,0.8567938491066027,-0.3909293218081755
20,5,0.5,0.8531180941874738,-0.023353829895278455
20,5,0.25,0.8504466500169952,0.2437905871525814
20,5,0.0,0.8564711432326061,-0.35865873440851237
20,6,1.0,0.852884555888521,0.0
20,6,0.75,0.849251497731591,0.3633058156929936
20,6,0.5,0.863458294445469,-1.0573738556947987
20,6,0.25,0.855777156976245,-0.2892601087724045
20,6,0.0,0.8474779534947918,0.5406602393729143
20,7,1.0,0.852884555888521,0.0
20,7,0.75,0.8463955725419988,0.6488983346522148
20,7,0.5,0.8355498937163518,1.7334662172169168
20,7,0.25,0.8194864565020377,3.3398099386483304
20,7,0.0,0.8137166593396217,3.9167896548899295
20,8,1.0,0.852884555888521,0.0
20,8,0.75,0.8484521907215478,0.44323651669732067
20,8,0.5,0.8376496462442786,1.5234909644242345
20,8,0.25,0.824915680147436,2.7968875741084975
20,8,0.0,0.7990115718418516,5.38729840466694
21,0,1.0,0.8458306694065467,0.0
21,0,0.75,0.8489093318862264,-0.30786624796796946
21,0,0.5,0.8419234206302499,0.3907248776296779
21,0,0.25,0.839674283470635,0.6156385935911723
21,0,0.0,0.8310828023027378,1.4747867103808932
21,1,1.0,0.8458306694065467,0.0
21,1,0.75,0.8559390268395741,-1.0108357433027404
21,1,0.5,0.8532111091304377,-0.7380439723891019
21,1,0.25,0.8596237484041125,-1.3793078997565766
21,1,0.0,0.86508333995331,-1.9252670546763273
21,2,1.0,0.8458306694065467,0.0
21,2,0.75,0.8579261193726666,-1.2095449966119887
21,2,0.5,0.8621415103843921,-1.6310840977845409
21,2,0.25,0.8563332431932278,-1.0502573786681069
21,2,0.0,0.8596534639259276,-1.3822794519380843
21,3,1.0,0.8458306694065467,0.0
21,3,0.75,0.8348167155425219,1.1013953864024817
21,3,0.5,0.8326811920257611,1.3149477380785646
21,3,0.25,0.8258291002840366,2.0001569122510165
21,3,0.0,0.8148763453341055,3.0954324072441253
21,4,1.0,0.8458306694065467,0.0
21,4,0.75,0.8524547113269759,-0.6624041920429202
21,4,0.5,0.8402284180895253,0.5602251317021412
21,4,0.25,0.8332261669217675,1.2604502484779179
21,4,0.0,0.8307246167354825,1.510605267106424
21,5,1.0,0.8458306694065467,0.0
21,5,0.75,0.8544150092068432,-0.8584339800296492
21,5,0.5,0.8590391827316842,-1.3208513325137505
21,5,0.25,0.863704843668032,-1.7874174261485298
21,5,0.0,0.8605898039020555,-1.4759134495508808
21,6,1.0,0.8458306694065467,0.0
21,6,0.75,0.8538233004686044,-0.799263106205772
21,6,0.5,0.8474619519814027,-0.16312825748560078
21,6,0.25,0.8481391479857696,-0.23084785792228946
21,6,0.0,0.841658471899398,0.41721975071487005
21,7,1.0,0.8458306694065467,0.0
21,7,0.75,0.8465033770304369,-0.06727076238901564
21,7,0.5,0.8354811819325886,1.034948747395814
21,7,0.25,0.8393870417706087,0.6443627635937976
21,7,0.0,0.8584431670689391,-1.2612497662392363
21,8,1.0,0.8458306694065467,0.0
21,8,0.75,0.8311143445741569,1.4716324832389827
21,8,0.5,0.8279000354293558,1.7930633977190968
21,8,0.25,0.8311681720394566,1.4662497367090133
21,8,0.0,0.8247110199873388,2.1119649419207964
22,0,1.0,0.7935128342856967,0.0
22,0,0.75,0.7881079535811584,0.5404880704538373
22,0,0.5,0.7895349614242666,0.3977872861430143
22,0,0.25,0.7981641750799009,-0.46513407942041507
22,0,0.0,0.8072416646015877,-1.3728830315891005
22,1,1.0,0.7935128342856967,0.0
22,1,0.75,0.8186277592300062,-2.5114924944309447
22,1,0.5,0.830300321946901,-3.678748766120421
22,1,0.25,0.8347581900558709,-4.124535577017419
22,1,0.0,0.8327263613705527,-3.9213527084855926
22,2,1.0,0.7935128342856967,0.0
22,2,0.75,0.7889662682121938,0.45465660735029
22,2,0.5,0.7862968518946467,0.7215982391050035
22,2,0.25,0.7805438489129835,1.2968985372713293
22,2,0.0,0.7833211709695537,1.0191663316143074
22,3,1.0,0.7935128342856967,0.0
22,3,0.75,0.7868067533210179,0.670608096467884
22,3,0.5,0.777528939643091,1.5983894642605745
22,3,0.25,0.7727180733872124,2.079476089848431
22,3,0.0,0.7583712258615172,3.514160842417957
22,4,1.0,0.7935128342856967,0.0
22,4,0.75,0.7868975026042248,0.6615331681471992
22,4,0.5,0.7785342571008848,1.4978577184811992
22,4,0.25,0.76122846774002,3.228436654567679
22,4,0.0,0.7698684444487098,2.364438983698691
22,5,1.0,0.7935128342856967,0.0
22,5,0.75,0.7892477246143554,0.4265109671341305
22,5,0.5,0.7878093589971054,0.5703475288591386
22,5,0.25,0.7897178457780095,0.3794988507687225
22,5,0.0,0.7933681543145417,0.014467997115508169
22,6,1.0,0.7935128342856967,0.0
22,6,0.75,0.7858936792236092,0.7619155062087546
22,6,0.5,0.7793282505970297,1.418458368866704
22,6,0.25,0.7790106231797918,1.4502211105904994
22,6,0.0,0.7755877412363282,1.7925093049368512
22,7,1.0,0.7935128342856967,0.0
22,7,0.75,0.7862902791038971,0.7222555181799595
22,7,0.5,0.7747374772771646,1.8775357008532167
22,7,0.25,0.7628231592414711,3.0689675044225595
22,7,0.0,0.7277846299810247,6.572820430467208
22,8,1.0,0.7935128342856967,0.0
22,8,0.75,0.7859902190877031,0.7522615197993687
22,8,0.5,0.7845746608656361,0.8938173420060647
22,8,0.25,0.7739107378186859,1.9602096467010832
22,8,0.0,0.7630355100766193,3.047732420907745
23,0,1.0,0.8248421591006327,0.0
23,0,0.75,0.8178247543822745,0.7017404718358211
23,0,0.5,0.8138684265695346,1.0973732531098124
23,0,0.25,0.7987041901006803,2.6137968999952466
23,0,0.0,0.7679573782900162,5.688478081061654
23,1,1.0,0.8248421591006327,0.0
23,1,0.75,0.8230170938069327,0.18250652937000789
23,1,0.5,0.8244382574289429,0.04039016716897992
23,1,0.25,0.8226029922458494,0.22391668547833143
23,1,0.0,0.8122902002212347,1.2551958879398084
23,2,1.0,0.8248421591006327,0.0
23,2,0.75,0.8371950986229373,-1.235293952230454
23,2,0.5,0.838682480745865,-1.38403216452323
23,2,0.25,0.8423399283767168,-1.749776927608404
23,2,0.0,0.8243422734916732,0.049988560895952716
23,3,1.0,0.8248421591006327,0.0
23,3,0.75,0.8376559453941017,-1.2813786293468965
23,3,0.5,0.8292970588733302,-0.4454899772697418
23,3,0.25,0.8276178061595947,-0.27756470589619386
23,3,0.0,0.8031878500226592,2.16543090779735
23,4,1.0,0.8248421591006327,0.0
23,4,0.75,0.8270964768490471,-0.22543177484143362
23,4,0.5,0.8267996279494549,-0.1957468848822197
23,4,0.25,0.8177210103943948,0.7121148706237923
23,4,0.0,0.8244135693931642,0.042858970746850744
23,5,1.0,0.8248421591006327,0.0
23,5,0.75,0.8093283568420708,1.5513802258561915
23,5,0.5,0.8004721249435602,2.4370034157072507
23,5,0.25,0.8190801596496513,0.5761999450981437
23,5,0.0,0.8083673243785097,1.6474834722123077
23,6,1.0,0.8248421591006327,0.0
23,6,0.75,0.822426392932184,0.24157661684487408
23,6,0.5,0.8273656163806886,-0.2523457280055874
23,6,0.25,0.8266813715911345,-0.18392124905017848
23,6,0.0,0.8060201396637351,1.8822019436897652
23,7,1.0,0.8248421591006327,0.0
23,7,0.75,0.8371410538082023,-1.2298894707569508
23,7,0.5,0.8388705417149187,-1.4028382614285961
23,7,0.25,0.8308684213588077,-0.602626225817493
23,7,0.0,0.8073110470042533,1.7531112096379475
23,8,1.0,0.8248421591006327,0.0
23,8,0.75,0.817618913787812,0.7223245312820703
23,8,0.5,0.8168478833539685,0.7994275746664226
23,8,0.25,0.8028007916227046,2.2041367477928175
23,8,0.0,0.7887578553694258,3.608430373120697
24,0,1.0,0.7406695146054865,0.0
24,0,0.75,0.7431333947089732,-0.24638801034867486
24,0,0.5,0.7304876861368267,1.0181828468659782
24,0,0.25,0.7280501360910747,1.261937851441175
24,0,0.0,0.7433693389645111,-0.2699824359024605
24,1,1.0,0.7406695146054865,0.0
24,1,0.75,0.7438198249065691,-0.3150310301082593
24,1,0.5,0.7402666897644526,0.0402824841033822
24,1,0.25,0.7401313416334176,0.053817297206881776
24,1,0.0,0.7386429854208736,0.20265291846128797
24,2,1.0,0.7406695146054865,0.0
24,2,0.75,0.7342005393762548,0.6468975229231622
24,2,0.5,0.7437568280147292,-0.3087313409242731
24,2,0.25,0.7417221574722193,-0.10526428667327892
24,2,0.0,0.7170913657425202,2.3578148862966275
24,3,1.0,0.7406695146054865,0.0
24,3,0.75,0.7531657124434382,-1.249619783795175
24,3,0.5,0.7702468122070412,-2.9577297601554697
24,3,0.25,0.7695093389398229,-2.8839824334336406
24,3,0.0,0.7642235207501089,-2.355400614462244
24,4,1.0,0.7406695146054865,0.0
24,4,0.75,0.7525083767802443,-1.1838862174757825
24,4,0.5,0.7482339385942129,-0.7564423988726476
24,4,0.25,0.7269963988439062,1.3673115761580257
24,4,0.0,0.7157130094392123,2.4956505166274123
24,5,1.0,0.7406695146054865,0.0
24,5,0.75,0.7204117123035585,2.0257802301927974
24,5,0.5,0.7215289507871899,1.914056381829654
24,5,0.25,0.7344474104922434,0.6222104113243088
24,5,0.0,0.7318039660041299,0.8865548601356577
24,6,1.0,0.7406695146054865,0.0
24,6,0.75,0.7382923187585348,0.23771958469516186
24,6,0.5,0.74156832469719,-0.08988100917035613
24,6,0.25,0.7442522418250573,-0.3582727219570869
24,6,0.0,0.7473817731798988,-0.6712258574412377
24,7,1.0,0.7406695146054865,0.0
24,7,0.75,0.7545682145525405,-1.389869994705406
24,7,0.5,0.7542397660818713,-1.3570251476384798
24,7,0.25,0.738943426451754,0.17260881537324302
24,7,0.0,0.6798762558264331,6.079325877905339
24,8,1.0,0.7406695146054865,0.0
24,8,0.75,0.7432678239125671,-0.2598309307080604
24,8,0.5,0.7477899527794012,-0.7120438173914723
24,8,0.25,0.7446177228147502,-0.39482082092637816
24,8,0.0,0.729582808986438,1.1086705619048454
25,0,1.0,0.8968093233659302,0.0
25,0,0.75,0.8942315248428419,0.25777985230883704
25,0,0.5,0.9025344964314036,-0.5725173065473377
25,0,0.25,0.9016161123725044,-0.48067890065741636
25,0,0.0,0.9086263423580343,-1.1817018992104078
25,1,1.0,0.8968093233659302,0.0
25,1,0.75,0.9075247395576101,-1.0715416191679927
25,1,0.5,0.9061135466648513,-0.930422329892111
25,1,0.25,0.9100629170396612,-1.3253593673731023
25,1,0.0,0.9110247944634153,-1.421547109748511
25,2,1.0,0.8968093233659302,0.0
25,2,0.75,0.8948130201472995,0.19963032186307572
25,2,0.5,0.8760607078748103,2.074861549111995
25,2,0.25,0.869795927808945,2.701339555698523
25,2,0.0,0.8653773487275076,3.143197463842262
25,3,1.0,0.8968093233659302,0.0
25,3,0.75,0.8906554847029031,0.61538386630271
25,3,0.5,0.8909035821989938,0.5905741166936429
25,3,0.25,0.8814980021062732,1.5311321259657062
25,3,0.0,0.8660814472703026,3.072787609562766
25,4,1.0,0.8968093233659302,0.0
25,4,0.75,0.882045300928312,1.4764022437618207
25,4,0.5,0.8568584151922535,3.9950908173676747
25,4,0.25,0.8357087838269172,6.110053953901307
25,4,0.0,0.8409898511006048,5.581947226532547
25,5,1.0,0.8968093233659302,0.0
25,5,0.75,0.8801312445773264,1.6678078788603834
25,5,0.5,0.8823708857852772,1.4438437580652996
25,5,0.25,0.8928410197839272,0.3968303582003063
25,5,0.0,0.8980177303011949,-0.12084069352646942
25,6,1.0,0.8968093233659302,0.0
25,6,0.75,0.9035916049943846,-0.6782281628454401
25,6,0.5,0.9051619767139605,-0.8352653348030259
25,6,0.25,0.9028442160175947,-0.6034892651664459
25,6,0.0,0.8987356220084515,-0.19262986425212514
25,7,1.0,0.8968093233659302,0.0
25,7,0.75,0.9010382611431889,-0.42289377772586345
25,7,0.5,0.891338559063251,0.5470764302679232
25,7,0.25,0.8900467999298552,0.6762523436074974
25,7,0.0,0.868626108707733,2.8183214658197175
25,8,1.0,0.8968093233659302,0.0
25,8,0.75,0.8954031016551132,0.14062217108170572
25,8,0.5,0.8984937402796169,-0.16844169136867038
25,8,0.25,0.8921731068388592,0.4636216527071024
25,8,0.0,0.8886747386485767,0.813458471735351
26,0,1.0,0.7950391548117816,0.0
26,0,0.75,0.7961814491496138,-0.11422943378321948
26,0,0.5,0.7895616406488499,0.5477514162931629
26,0,0.25,0.7847852334614409,1.0253921350340645
26,0,0.0,0.7918432421746467,0.31959126371348123
26,1,1.0,0.7950391548117816,0.0
26,1,0.75,0.8030623499702138,-0.8023195158432195
26,1,0.5,0.8050556325831053,-1.001647777132375
26,1,0.25,0.7908332482243684,0.4205906587413155
26,1,0.0,0.7863252589325296,0.8713895879251976
26,2,1.0,0.7950391548117816,0.0
26,2,0.75,0.795794677691562,-0.07555228797804237
26,2,0.5,0.784670866328739,1.036828848304261
26,2,0.25,0.7592803548196372,3.5758799992144374
26,2,0.0,0.7455434893664131,4.949566544536843
26,3,1.0,0.7950391548117816,0.0
26,3,0.75,0.7900124042002373,0.5026750611544228
26,3,0.5,0.78068956359241,1.4349591219371516
26,3,0.25,0.7637372241906281,3.1301930621153495
26,3,0.0,0.748996462816524,4.604269199525756
26,4,1.0,0.7950391548117816,0.0
26,4,0.75,0.7820412465494724,1.2997908262309177
26,4,0.5,0.7665918153950069,2.8447339416774686
26,4,0.25,0.7544133104746916,4.062584433708993
26,4,0.0,0.7647324619090367,3.0306692902744903
26,5,1.0,0.7950391548117816,0.0
26,5,0.75,0.7823102329139013,1.2728921897880219
26,5,0.5,0.7677897350802195,2.724941973156203
26,5,0.25,0.7739174640482857,2.1121690763495904
26,5,0.0,0.7829655168358585,1.207363797592309
26,6,1.0,0.7950391548117816,0.0
26,6,0.75,0.7908935457091975,0.41456091025841024
26,6,0.5,0.7810511052090324,1.398804960274913
26,6,0.25,0.7834857788371746,1.1553375974606928
26,6,0.0,0.7700806799062074,2.4958474905574124
26,7,1.0,0.7950391548117816,0.0
26,7,0.75,0.804084528728272,-0.9045373916490407
26,7,0.5,0.8095724651134009,-1.4533310301619307
26,7,0.25,0.8010856395972845,-0.6046484785502959
26,7,0.0,0.7966872503924074,-0.16480955806258413
26,8,1.0,0.7950391548117816,0.0
26,8,0.75,0.7958529526930869,-0.08137978813053115
26,8,0.5,0.7821169978875033,1.2922156924278227
26,8,0.25,0.7703174400477593,2.4721714764022296
26,8,0.0,0.756676457973211,3.836269683857052
27,0,1.0,0.9017874046151717,0.0
27,0,0.75,0.9071409494338234,-0.535354481865169
27,0,0.5,0.9063275658397609,-0.4540161224589223
27,0,0.25,0.9010851192542232,0.0702285360948518
27,0,0.0,0.8995531993808028,0.22342052343689023
27,1,1.0,0.9017874046151717,0.0
27,1,0.75,0.903763148134312,-0.1975743519140316
27,1,0.5,0.9090855620685511,-0.7298157453379361
27,1,0.25,0.9135592401721654,-1.1771835556993682
27,1,0.0,0.9019644004088296,-0.017699579365793028
27,2,1.0,0.9017874046151717,0.0
27,2,0.75,0.9018646094269144,-0.0077204811742670465
27,2,0.5,0.8938954946628621,0.7891909952309595
27,2,0.25,0.8934566249905689,0.8330779624602824
27,2,0.0,0.8856554662985047,1.6131938316667038
27,3,1.0,0.9017874046151717,0.0
27,3,0.75,0.9037192617022507,-0.1931857087078992
27,3,0.5,0.9028131949482251,-0.10257903330533891
27,3,0.25,0.8908682005461773,1.0919204068994381
27,3,0.0,0.8759043112102566,2.5883093404915125
27,4,1.0,0.9017874046151717,0.0
27,4,0.75,0.9034345862789759,-0.16471816638041759
27,4,0.5,0.8912115767611368,1.057582785403488
27,4,0.25,0.88546277685261,1.6324627762561716
27,4,0.0,0.8862396424313962,1.5547762183775515
27,5,1.0,0.9017874046151717,0.0
27,5,0.75,0.8965294589866969,0.5257945628474814
27,5,0.5,0.8952609867424419,0.6526417872729784
27,5,0.25,0.8987980230021003,0.29893816130713846
27,5,0.0,0.9043658377844136,-0.25784331692418894
27,6,1.0,0.9017874046151717,0.0
27,6,0.75,0.9053151135611766,-0.35277089460048483
27,6,0.5,0.8961292334990061,0.5658171116165622
27,6,0.25,0.8988855137425034,0.29018908726683446
27,6,0.0,0.8961884095351347,0.5598995080037028
27,7,1.0,0.9017874046151717,0.0
27,7,0.75,0.8952017874754298,0.6585617139741928
27,7,0.5,0.8975434077195924,0.4243996895579305
27,7,0.25,0.9020540024727132,-0.02665978575414618
27,7,0.0,0.8996700244556003,0.21173801595714137
27,8,1.0,0.9017874046151717,0.0
27,8,0.75,0.9047562397378606,-0.2968835122688862
27,8,0.5,0.8998161695370434,0.19712350781283527
27,8,0.25,0.8972913791974861,0.44960254176855674
27,8,0.0,0.9013389388389388,0.04484657762329203
28,0,1.0,0.8329200879038279,0.0
28,0,0.75,0.8650203441229838,-3.210025621915591
28,0,0.5,0.8858381176196891,-5.291802971586124
28,0,0.25,0.8782080456789023,-4.528795777507444
28,0,0.0,0.8627191534940037,-2.9799065590175866
28,1,1.0,0.8329200879038279,0.0
28,1,0.75,0.8370700118114127,-0.41499239075848404
28,1,0.5,0.8326696553883238,0.0250432515504051
28,1,0.25,0.8310311543640363,0.18889335397915819
28,1,0.0,0.8205068173510828,1.2413270552745104
28,2,1.0,0.8329200879038279,0.0
28,2,0.75,0.8329414282490535,-0.0021340345225606683
28,2,0.5,0.8208374333663919,1.2082654537435955
28,2,0.25,0.8135138499338868,1.940623796994112
28,2,0.0,0.8048910517660518,2.8029036137776075
28,3,1.0,0.8329200879038279,0.0
28,3,0.75,0.8431884241769623,-1.0268336273134393
28,3,0.5,0.8567085099872214,-2.378842208339349
28,3,0.25,0.8474391286634502,-1.4519040759622293
28,3,0.0,0.7955443484657252,3.7375739438102684
28,4,1.0,0.8329200879038279,0.0
28,4,0.75,0.8001256892234302,3.2794398680397685
28,4,0.5,0.7924411505806854,4.047893732314245
28,4,0.25,0.7705904599912853,6.232962791254259
28,4,0.0,0.7702030143054384,6.271707359838952
28,5,1.0,0.8329200879038279,0.0
28,5,0.75,0.7228891159344588,11.003097196936906
28,5,0.5,0.6985655957787058,13.435449212512207
28,5,0.25,0.7208387027565255,11.208138514730237
28,5,0.0,0.7890650278687468,4.385506003508111
28,6,1.0,0.8329200879038279,0.0
28,6,0.75,0.8348252870227038,-0.19051991188758777
28,6,0.5,0.8397584991540584,-0.6838411250230547
28,6,0.25,0.8369071883653196,-0.3987100461491755
28,6,0.0,0.8327908626511247,0.012922525270320229
28,7,1.0,0.8329200879038279,0.0
28,7,0.75,0.8458717456300135,-1.2951657726185672
28,7,0.5,0.8330017398656232,-0.008165196179532597
28,7,0.25,0.8214369911870929,1.1483096716734975
28,7,0.0,0.80406936360268,2.885072430114788
28,8,1.0,0.8329200879038279,0.0
28,8,0.75,0.8400483789836026,-0.7128291079774751
28,8,0.5,0.8259435131681827,0.6976574735645169
28,8,0.25,0.8178865384032743,1.5033549500553578
28,8,0.0,0.8132161608639986,1.970392703982926
29,0,1.0,0.8458771318593495,0.0
29,0,0.75,0.836622798403245,0.9254333456104491
29,0,0.5,0.8240784275887186,2.179870427063091
29,0,0.25,0.817711536582318,2.816559527703155
29,0,0.0,0.8218109209042401,2.4066210955109413
29,1,1.0,0.8458771318593495,0.0
29,1,0.75,0.8425168837880632,0.33602480712863203
29,1,0.5,0.8421912560627993,0.368587579655022
29,1,0.25,0.8381498469955581,0.7727284863791484
29,1,0.0,0.8349956914668006,1.0881440392548902
29,2,1.0,0.8458771318593495,0.0
29,2,0.75,0.826025014481595,1.9852117377754497
29,2,0.5,0.8096219018327595,3.6255230026590035
29,2,0.25,0.8010138096288673,4.486332223048228
29,2,0.0,0.7942036716491391,5.1673460210210465
29,3,1.0,0.8458771318593495,0.0
29,3,0.75,0.8314272553190997,1.4449876540249873
29,3,0.5,0.8301917256773619,1.568540618198766
29,3,0.25,0.830208860378853,1.5668271480496543
29,3,0.0,0.812846516859516,3.3030614999833507
29,4,1.0,0.8458771318593495,0.0
29,4,0.75,0.8216926352212184,2.418449663813116
29,4,0.5,0.8041789885168137,4.169814334253585
29,4,0.25,0.8032370354556329,4.264009640371668
29,4,0.0,0.8037199334801102,4.2157198379239365
29,5,1.0,0.8458771318593495,0.0
29,5,0.75,0.830448029937928,1.542910192142155
29,5,0.5,0.8187655474956812,2.711158436366834
29,5,0.25,0.8031976852510019,4.267944660834766
29,5,0.0,0.8088650910944551,3.7012040764894394
29,6,1.0,0.8458771318593495,0.0
29,6,0.75,0.8495369911072244,-0.36598592478748193
29,6,0.5,0.85122012492424,-0.53429930648905
29,6,0.25,0.8526355733188469,-0.6758441459497333
29,6,0.0,0.8579149814774402,-1.2037849618090624
29,7,1.0,0.8458771318593495,0.0
29,7,0.75,0.8383026318930584,0.7574499966291115
29,7,0.5,0.8316218488481993,1.42552830111502
29,7,0.25,0.8271185594461457,1.875857241320389
29,7,0.0,0.8224092214919547,2.3467910367394818
29,8,1.0,0.8458771318593495,0.0
29,8,0.75,0.8395688365444048,0.6308295314944701
29,8,0.5,0.8423250219946196,0.355210986472998
29,8,0.25,0.8391849463047344,0.6692185554615149
29,8,0.0,0.8380595078806556,0.78176239786939
30,0,1.0,0.8500683502607554,0.0
30,0,0.75,0.8579448497942466,-0.7876499533491121
30,0,0.5,0.8470774539336708,0.29908963270846023
30,0,0.25,0.851484590834805,-0.14162405740495432
30,0,0.0,0.8440925934752712,0.5975756785484232
30,1,1.0,0.8500683502607554,0.0
30,1,0.75,0.8424685084494191,0.7599841811336328
30,1,0.5,0.8491596648231122,0.09086854376432196
30,1,0.25,0.8315210502746397,1.8547299986115706
30,1,0.0,0.8308248502538379,1.9243500006917547
30,2,1.0,0.8500683502607554,0.0
30,2,0.75,0.8680772822892,-1.8008932028444558
30,2,0.5,0.8689723043087428,-1.8903954047987392
30,2,0.25,0.8796017042731119,-2.953335401235646
30,2,0.0,0.8834919558682474,-3.3423605607491913
30,3,1.0,0.8500683502607554,0.0
30,3,0.75,0.8446026843875463,0.546566587320918
30,3,0.5,0.831382022505699,1.8686327755056409
30,3,0.25,0.8146035917818333,3.5464758478922165
30,3,0.0,0.8027178644648524,4.735048579590306
30,4,1.0,0.8500683502607554,0.0
30,4,0.75,0.8525457295117385,-0.2477379250983014
30,4,0.5,0.8462880189894905,0.37803312712649806
30,4,0.25,0.8428472582572483,0.7221092003507179
30,4,0.0,0.8390496813382766,1.1018668922478825
30,5,1.0,0.8500683502607554,0.0
30,5,0.75,0.8497788539134364,0.02894963473190071
30,5,0.5,0.8464660527743999,0.36022974863555435
30,5,0.25,0.8374723614107669,1.2595988849988582
30,5,0.0,0.833332059822068,1.6736290438687407
30,6,1.0,0.8500683502607554,0.0
30,6,0.75,0.8575375080127987,-0.7469157752043265
30,6,0.5,0.8525582877385736,-0.2489937477818116
30,6,0.25,0.8473045194182458,0.27638308425096403
30,6,0.0,0.8400901429152203,0.9978207345535117
30,7,1.0,0.8500683502607554,0.0
30,7,0.75,0.8448713130706618,0.5197037190093678
30,7,0.5,0.8414220919554286,0.8646258305326837
30,7,0.25,0.8215315539566103,2.8536796304145184
30,7,0.0,0.82407659232831,2.599175793244546
30,8,1.0,0.8500683502607554,0.0
30,8,0.75,0.8490632510033848,0.10050992573706896
30,8,0.5,0.8323320646691141,1.773628559164131
30,8,0.25,0.8208324349726879,2.923591528806757
30,8,0.0,0.8109604202974899,3.910792996326551
31,0,1.0,0.8052515665102793,0.0
31,0,0.75,0.8094226151497361,-0.41710486394568314
31,0,0.5,0.8062356604182476,-0.09840939079682753
31,0,0.25,0.7948033957746039,1.0448170735675388
31,0,0.0,0.7883273019184168,1.692426459186247
31,1,1.0,0.8052515665102793,0.0
31,1,0.75,0.8032809298654728,0.1970636644806456
31,1,0.5,0.80338856613272,0.18630003775592652
31,1,0.25,0.8024321390435746,0.2819427466704716
31,1,0.0,0.7973964712623771,0.7855095247902177
31,2,1.0,0.8052515665102793,0.0
31,2,0.75,0.8068147082357686,-0.15631417254893254
31,2,0.5,0.8021291421829442,0.3122424327335116
31,2,0.25,0.7874756636612893,1.777590284899
31,2,0.0,0.7777915800881863,2.745998642209302
31,3,1.0,0.8052515665102793,0.0
31,3,0.75,0.7958454184193291,0.9406148090950195
31,3,0.5,0.8068935855565791,-0.1642019046299792
31,3,0.25,0.7974446552486167,0.7806911261662552
31,3,0.0,0.7921283092698561,1.312325724042318
31,4,1.0,0.8052515665102793,0.0
31,4,0.75,0.7942719826775065,1.0979583832772755
31,4,0.5,0.7860310919647875,1.9220474545491806
31,4,0.25,0.7753985885399208,2.9852977970358463
31,4,0.0,0.7711067256080969,3.4144840902182394
31,5,1.0,0.8052515665102793,0.0
31,5,0.75,0.8121413688830502,-0.6889802372770926
31,5,0.5,0.8095837328860673,-0.4332166375788038
31,5,0.25,0.8051374718844477,0.011409462583156227
31,5,0.0,0.8101835231178034,-0.49319566075241017
31,6,1.0,0.8052515665102793,0.0
31,6,0.75,0.810030762359578,-0.47791958492987563
31,6,0.5,0.8229578069177494,-1.7706240407470153
31,6,0.25,0.819028109768895,-1.3776543258615659
31,6,0.0,0.8142777820518395,-0.9026215541560245
31,7,1.0,0.8052515665102793,0.0
31,7,0.75,0.7921212041219207,1.313036238835863
31,7,0.5,0.779624700317022,2.562686619325727
31,7,0.25,0.7719335889976284,3.3317977512650865
31,7,0.0,0.758879789108872,4.63717774014073
31,8,1.0,0.8052515665102793,0.0
31,8,0.75,0.7949708851857497,1.028068132452964
31,8,0.5,0.7798825542177373,2.536901229254196
31,8,0.25,0.7482518200382815,5.699974647199779
31,8,0.0,0.7372107879407774,6.804077856950186
32,0,1.0,0.8581852052158183,0.0
32,0,0.75,0.8615976418701536,-0.3412436654335327
32,0,0.5,0.8568525907890643,0.13326144267540307
32,0,0.25,0.8527715294837264,0.5413675732091949
32,0,0.0,0.8553342547216864,0.28509504941318653
32,1,1.0,0.8581852052158183,0.0
32,1,0.75,0.8661876487101975,-0.8002443494379174
32,1,0.5,0.8667422310217824,-0.8557025805964069
32,1,0.25,0.8699666545014877,-1.1781449285669376
32,1,0.0,0.8528992173736659,0.5285987842152395
32,2,1.0,0.8581852052158183,0.0
32,2,0.75,0.8424052225956185,1.5779982620199862
32,2,0.5,0.8319422906004323,2.624291461538597
32,2,0.25,0.8151229387332799,4.306226648253841
32,2,0.0,0.8166240477047277,4.156115751109057
32,3,1.0,0.8581852052158183,0.0
32,3,0.75,0.8515255368663421,0.6659668349476178
32,3,0.5,0.8349604640679557,2.322474114786266
32,3,0.25,0.8249860616926792,3.319914352313913
32,3,0.0,0.8239588703568554,3.422633485896287
32,4,1.0,0.8581852052158183,0.0
32,4,0.75,0.8518847213202576,0.6300483895560705
32,4,0.5,0.8454622245907302,1.2722980625088143
32,4,0.25,0.8348650514413649,2.33201537744534
32,4,0.0,0.8439675000941006,1.4217705121717716
32,5,1.0,0.8581852052158183,0.0
32,5,0.75,0.8636595568298236,-0.5474351614005335
32,5,0.5,0.8723511026829611,-1.4165897467142807
32,5,0.25,0.8545478147011016,0.36373905147166763
32,5,0.0,0.860359063633503,-0.2173858417684693
32,6,1.0,0.8581852052158183,0.0
32,6,0.75,0.8629586869540895,-0.477348173827119
32,6,0.5,0.8669612563086444,-0.8776051092826087
32,6,0.25,0.8730456155433493,-1.4860410327530937
32,6,0.0,0.8677937935203792,-0.9608588304560906
32,7,1.0,0.8581852052158183,0.0
32,7,0.75,0.8480344638212425,1.0150741394575835
32,7,0.5,0.8233196015454081,3.486560367041025
32,7,0.25,0.8166408175899615,4.154438762585677
32,7,0.0,0.7975961538461538,6.058905136966453
32,8,1.0,0.8581852052158183,0.0
32,8,0.75,0.863716504927445,-0.5531299711626692
32,8,0.5,0.8696552744647448,-1.1470069248926462
32,8,0.25,0.8721408955115895,-1.395569029577115
32,8,0.0,0.8710249419099404,-1.2839736694122084
33,0,1.0,0.9072803072591132,0.0
33,0,0.75,0.9000083693879014,0.7271937871211831
33,0,0.5,0.8916554796569481,1.5624827602165103
33,0,0.25,0.8799039610839122,2.7376346175201016
33,0,0.0,0.883529582783692,2.375072447542126
33,1,1.0,0.9072803072591132,0.0
33,1,0.75,0.9088711616874832,-0.15908544283699255
33,1,0.5,0.8919665352618719,1.5313771997241377
33,1,0.25,0.8826393188854489,2.464098837366435
33,1,0.0,0.8717293443470634,3.5550962912049844
33,2,1.0,0.9072803072591132,0.0
33,2,0.75,0.899609719071839,0.7670588187274285
33,2,0.5,0.898897454171288,0.838285308782527
33,2,0.25,0.9024801179318012,0.48001893273120766
33,2,0.0,0.898170651673041,0.9109655586072241
33,3,1.0,0.9072803072591132,0.0
33,3,0.75,0.9072803072591132,0.0
33,3,0.5,0.9034054093903131,0.3874897868800131
33,3,0.25,0.8897873911383989,1.7492916120714352
33,3,0.0,0.8777763141825013,2.950399307661189
33,4,1.0,0.9072803072591132,0.0
33,4,0.75,0.9128983129147414,-0.56180056556282
33,4,0.5,0.9060787745225132,0.12015327366000639
33,4,0.25,0.9104503637212724,-0.31700564621591765
33,4,0.0,0.9070753768591491,0.020493039996416496
33,5,1.0,0.9072803072591132,0.0
33,5,0.75,0.9167986908658539,-0.9518383606740621
33,5,0.5,0.9117063825591872,-0.4426075300073995
33,5,0.25,0.914591116762867,-0.7310809503753735
33,5,0.0,0.9090990827628934,-0.1818775503780179
33,6,1.0,0.9072803072591132,0.0
33,6,0.75,0.9025959323876088,0.46843748715044153
33,6,0.5,0.9001646791055659,0.7115628153547382
33,6,0.25,0.8913637349133697,1.5916572345743507
33,6,0.0,0.8917255446160112,1.5554762643102071
33,7,1.0,0.9072803072591132,0.0
33,7,0.75,0.9031431239008186,0.4137183358294605
33,7,0.5,0.8932658381840091,1.4014469075104175
33,7,0.25,0.8814831230862135,2.579718417289978
33,7,0.0,0.8819580754020981,2.53222318570151
33,8,1.0,0.9072803072591132,0.0
33,8,0.75,0.9195729046836896,-1.2292597424576335
33,8,0.5,0.9190966730334631,-1.1816365774349857
33,8,0.25,0.9061144623859108,0.11658448732024818
33,8,0.0,0.9026224740510456,0.46578332080676743
34,0,1.0,0.9061044520584198,0.0
34,0,0.75,0.8988558401637083,0.7248611894711487
34,0,0.5,0.900170256290098,0.5934195768321882
34,0,0.25,0.8971256874239899,0.8978764634429925
34,0,0.0,0.8780894933373297,2.8014958721090166
34,1,1.0,0.9061044520584198,0.0
34,1,0.75,0.9114697984344986,-0.5365346376078772
34,1,0.5,0.9114197554635786,-0.5315303405158733
34,1,0.25,0.9110508512918756,-0.4946399233455745
34,1,0.0,0.9068812344174094,-0.07767823589895917
34,2,1.0,0.9061044520584198,0.0
34,2,0.75,0.9098313546126502,-0.372690255423036
34,2,0.5,0.9158815612813793,-0.977710922295949
34,2,0.25,0.9197040112619974,-1.3599559203577583
34,2,0.0,0.9154567230807967,-0.9352271022376901
34,3,1.0,0.9061044520584198,0.0
34,3,0.75,0.9085626404585299,-0.24581884001100285
34,3,0.5,0.9057431227820882,0.03613292763315901
34,3,0.25,0.8948808874658444,1.1223564592575452
34,3,0.0,0.8693798118761086,3.6724640182311252
34,4,1.0,0.9061044520584198,0.0
34,4,0.75,0.9136753994054552,-0.757094734703534
34,4,0.5,0.9133294292325257,-0.7224977174105862
34,4,0.25,0.9119220061421816,-0.5817554083761722
34,4,0.0,0.9125131040636794,-0.640865200525953
34,5,1.0,0.9061044520584198,0.0
34,5,0.75,0.8958309943674418,1.0273457690977983
34,5,0.5,0.8981849076355796,0.7919544422840263
34,5,0.25,0.896528248572725,0.9576203485694879
34,5,0.0,0.9085635185692841,-0.24590665108642495
34,6,1.0,0.9061044520584198,0.0
34,6,0.75,0.9091353760696946,-0.3030924011274805
34,6,0.5,0.9125915627481438,-0.6487110689723963
34,6,0.25,0.9125915627481438,-0.6487110689723963
34,6,0.0,0.9098927042361696,-0.3788252177749807
34,7,1.0,0.9061044520584198,0.0
34,7,0.75,0.9062086782117251,-0.010422615330529794
34,7,0.5,0.9070887036230589,-0.09842515646391048
34,7,0.25,0.9062971557900064,-0.019270373158652987
34,7,0.0,0.8986618623755781,0.7442589682841727
34,8,1.0,0.9061044520584198,0.0
34,8,0.75,0.899092139497746,0.7012312560673806
34,8,0.5,0.894302857074098,1.1801594984321873
34,8,0.25,0.8964566018579666,0.9647850200453223
34,8,0.0,0.8955818507248205,1.052260133359928
35,0,1.0,0.7328677201620228,0.0
35,0,0.75,0.7305358262881145,0.23318938739083084
35,0,0.5,0.7241490211033944,0.8718699058628432
35,0,0.25,0.6982465876981255,3.462113246389731
35,0,0.0,0.6801490199079738,5.271870025404901
35,1,1.0,0.7328677201620228,0.0
35,1,0.75,0.7271395291072535,0.5728191054769294
35,1,0.5,0.7232382179522827,0.9629502209740126
35,1,0.25,0.7167342955467637,1.6133424615259129
35,1,0.0,0.7134377998597979,1.9429920302224901
35,2,1.0,0.7328677201620228,0.0
35,2,0.75,0.7393154183529465,-0.6447698190923612
35,2,0.5,0.7306870977005979,0.21806224614249192
35,2,0.25,0.7237808781134183,0.9086842048604549
35,2,0.0,0.7162065672341489,1.6661152927873957
35,3,1.0,0.7328677201620228,0.0
35,3,0.75,0.7293544535029263,0.351326665909657
35,3,0.5,0.7337104563705312,-0.08427362085083878
35,3,0.25,0.7315680982626946,0.1299621899328196
35,3,0.0,0.7269323396088135,0.5935380553209302
35,4,1.0,0.7328677201620228,0.0
35,4,0.75,0.7361799055459395,-0.3312185383916644
35,4,0.5,0.7315825135357155,0.1285206626307378
35,4,0.25,0.7376021179824295,-0.4734397820406633
35,4,0.0,0.7505378650978862,-1.7670144935863386
35,5,1.0,0.7328677201620228,0.0
35,5,0.75,0.728770084212494,0.4097635949528833
35,5,0.5,0.7160070218276874,1.6860698334335456
35,5,0.25,0.7021678840812153,3.0699836080807508
35,5,0.0,0.7033242836941749,2.954343646784796
35,6,1.0,0.7328677201620228,0.0
35,6,0.75,0.7349203020364695,-0.20525818744466795
35,6,0.5,0.7363691984274717,-0.35014782654488874
35,6,0.25,0.7274881159993449,0.5379604162677909
35,6,0.0,0.7282446419690156,0.4623078193007224
35,7,1.0,0.7328677201620228,0.0
35,7,0.75,0.7280130061552716,0.4854714006751193
35,7,0.5,0.7344324403609667,-0.15647201989438253
35,7,0.25,0.7341507035600194,-0.12829833979965954
35,7,0.0,0.723979713995619,0.8888006166403839
35,8,1.0,0.7328677201620228,0.0
35,8,0.75,0.7350201753929898,-0.21524552309669653
35,8,0.5,0.7323043620171988,0.05633581448239999
35,8,0.25,0.7238425247337711,0.9025195428251753
35,8,0.0,0.7113467954064284,2.1520924755594417
36,0,1.0,0.6986047344760923,0.0
36,0,0.75,0.6890312832780017,0.957345119809061
36,0,0.5,0.6942235493706082,0.4381185105484131
36,0,0.25,0.6898404681582587,0.8764266317833558
36,0,0.0,0.6974460330690981,0.11587014069941448
36,1,1.0,0.6986047344760923,0.0
36,1,0.75,0.6908267997037567,0.7777934772335571
36,1,0.5,0.6872910203835833,1.131371409250903
36,1,0.25,0.6727495211539567,2.5855213322135584
36,1,0.0,0.6699370067664656,2.8667727709626667
36,2,1.0,0.6986047344760923,0.0
36,2,0.75,0.6911584446258031,0.7446289850289167
36,2,0.5,0.6844329636134325,1.417177086265975
36,2,0.25,0.6748317988569539,2.3772935619138402
36,2,0.0,0.6535259836107294,4.507875086536284
36,3,1.0,0.6986047344760923,0.0
36,3,0.75,0.6995232514467822,-0.09185169706898977
36,3,0.5,0.6877609145615378,1.084381991455452
36,3,0.25,0.6592343779461998,3.9370356529892514
36,3,0.0,0.6394290624314669,5.917567204462538
36,4,1.0,0.6986047344760923,0.0
36,4,0.75,0.7047949467539106,-0.6190212277818352
36,4,0.5,0.7040350830498714,-0.5430348573779109
36,4,0.25,0.724308364204244,-2.5703629728151767
36,4,0.0,0.7361159352842517,-3.7511200808159395
36,5,1.0,0.6986047344760923,0.0
36,5,0.75,0.7108028112114619,-1.2198076735369656
36,5,0.5,0.7217481193774298,-2.3143384901337494
36,5,0.25,0.7196350066802408,-2.103027220414855
36,5,0.0,0.7298105795408647,-3.120584506477242
36,6,1.0,0.6986047344760923,0.0
36,6,0.75,0.7086714463742619,-1.0066711898169656
36,6,0.5,0.6962607767826703,0.2343957693421994
36,6,0.25,0.6854996129994917,1.310512147660059
36,6,0.0,0.6852679373470694,1.3336797129022915
36,7,1.0,0.6986047344760923,0.0
36,7,0.75,0.6957604273817954,0.28443070942968385
36,7,0.5,0.6806948260613671,1.7909908414725173
36,7,0.25,0.668376099194521,3.022863528157127
36,7,0.0,0.6395737414619482,5.9030993014144055
36,8,1.0,0.6986047344760923,0.0
36,8,0.75,0.6796707116566979,1.893402281939438
36,8,0.5,0.6638838378578498,3.4720896618242514
36,8,0.25,0.6602814312026188,3.832330327347344
36,8,0.0,0.6477616436014269,5.0843090874665435
37,0,1.0,0.8252577527402464,0.0
37,0,0.75,0.8287824092302933,-0.35246564900469624
37,0,0.5,0.8254617034666478,-0.02039507264014473
37,0,0.25,0.8186134912230031,0.6644261517243288
37,0,0.0,0.8188719045937674,0.6385848146479023
37,1,1.0,0.8252577527402464,0.0
37,1,0.75,0.8246024128594209,0.06553398808254451
37,1,0.5,0.8244648503666544,0.07929023735919749
37,1,0.25,0.835488620608423,-1.0230867868176619
37,1,0.0,0.8307269914497004,-0.5469238709454038
37,2,1.0,0.8252577527402464,0.0
37,2,0.75,0.8230443329332556,0.22134198069907463
37,2,0.5,0.8221275541465667,0.31301985936796894
37,2,0.25,0.8221590058116244,0.3098746928621998
37,2,0.0,0.8188110027419921,0.6446749998254231
37,3,1.0,0.8252577527402464,0.0
37,3,0.75,0.8347480128317484,-0.9490260091502001
37,3,0.5,0.8304924885618168,-0.5234735821570413
37,3,0.25,0.8378229014866292,-1.2565148746382815
37,3,0.0,0.8482447446185514,-2.2986991878304996
37,4,1.0,0.8252577527402464,0.0
37,4,0.75,0.8154133669777652,0.9844385762481145
37,4,0.5,0.8132584579182975,1.1999294821948836
37,4,0.25,0.8246633589539257,0.05943937863206461
37,4,0.0,0.8280220778364189,-0.27643250961725263
37,5,1.0,0.8252577527402464,0.0
37,5,0.75,0.8192972972954269,0.596045544481949
37,5,0.5,0.8169392614172573,0.8318491322989119
37,5,0.25,0.8091754204585623,1.6082332281684097
37,5,0.0,0.8157867585250003,0.9470994215246109
37,6,1.0,0.8252577527402464,0.0
37,6,0.75,0.8272824484004608,-0.20246956602144595
37,6,0.5,0.8110017937145597,1.425595902568666
37,6,0.25,0.8076190004287862,1.763875231146017
37,6,0.0,0.8178367423349481,0.7421010405298301
37,7,1.0,0.8252577527402464,0.0
37,7,0.75,0.8160814206069819,0.917633213326452
37,7,0.5,0.8137587648632505,1.149898787699588
37,7,0.25,0.808752241808707,1.6505510931539402
37,7,0.0,0.81360503628517,1.1652716455076373
37,8,1.0,0.8252577527402464,0.0
37,8,0.75,0.8272510175453345,-0.1993264805088102
37,8,0.5,0.8325880905429347,-0.7330337802688325
37,8,0.25,0.8274431255377157,-0.21853727974693316
37,8,0.0,0.8361993537384095,-1.0941600998163103
38,0,1.0,0.8860299847485986,0.0
38,0,0.75,0.8706843147111557,1.5345670037442916
38,0,0.5,0.8473961667269674,3.863381802163124
38,0,0.25,0.8490375824589236,3.699240228967504
38,0,0.0,0.845849641754753,4.018034299384565
38,1,1.0,0.8860299847485986,0.0
38,1,0.75,0.888692694202483,-0.266270945388436
38,1,0.5,0.88072195306883,0.5308031679768566
38,1,0.25,0.8704177135086222,1.5612271239976439
38,1,0.0,0.8542941666872906,3.1735818061307985
38,2,1.0,0.8860299847485986,0.0
38,2,0.75,0.8777343387580024,0.8295645990596179
38,2,0.5,0.8804955044030993,0.5534480345499304
38,2,0.25,0.8746619048445978,1.1368079904000794
38,2,0.0,0.869647328715927,1.6382656032671639
38,3,1.0,0.8860299847485986,0.0
38,3,0.75,0.9014008620689655,-1.5370877320366905
38,3,0.5,0.8995515394395607,-1.3521554690962057
38,3,0.25,0.8830862840721561,0.2943700676442562
38,3,0.0,0.8751929973539989,1.0836987394599706
38,4,1.0,0.8860299847485986,0.0
38,4,0.75,0.8769219359346674,0.9108048813931235
38,4,0.5,0.8671251570237186,1.8904827724880002
38,4,0.25,0.8484134115764803,3.7616573172118306
38,4,0.0,0.8619727776963549,2.405720705224368
38,5,1.0,0.8860299847485986,0.0
38,5,0.75,0.879634080777986,0.6395903970612626
38,5,0.5,0.8794674208931664,0.6562563855432191
38,5,0.25,0.8781516479706659,0.7878336777932704
38,5,0.0,0.8936442704018492,-0.7614285653250619
38,6,1.0,0.8860299847485986,0.0
38,6,0.75,0.8868558344753469,-0.08258497267482623
38,6,0.5,0.8802607539793678,0.576923076923086
38,6,0.25,0.8728809274297258,1.3149057318872837
38,6,0.0,0.8743498945451059,1.16800902034927
38,7,1.0,0.8860299847485986,0.0
38,7,0.75,0.8920512310255786,-0.6021246276979975
38,7,0.5,0.8801582369507792,0.5871747797819404
38,7,0.25,0.8622603530036008,2.37696317449978
38,7,0.0,0.8398903385412125,4.613964620738608
38,8,1.0,0.8860299847485986,0.0
38,8,0.75,0.8887848335863967,-0.2754848837798085
38,8,0.5,0.8851268520306527,0.09031327179459536
38,8,0.25,0.880873772026744,0.5156212721854625
38,8,0.0,0.8778747294911096,0.8155255257489058
39,0,1.0,0.8604971091548272,0.0
39,0,0.75,0.8642467908456853,-0.37496816908580977
39,0,0.5,0.844999928310399,1.5497180844428193
39,0,0.25,0.8323193795486228,2.817772960620446
39,0,0.0,0.838303868308869,2.2193240845958195
39,1,1.0,0.8604971091548272,0.0
39,1,0.75,0.8597241878944188,0.0772921260408399
39,1,0.5,0.8402238778645015,2.0273231290325766
39,1,0.25,0.8269778181627816,3.3519290992045647
39,1,0.0,0.8374298652387785,2.306724391604875
39,2,1.0,0.8604971091548272,0.0
39,2,0.75,0.8679190148544322,-0.7421905699604991
39,2,0.5,0.8630118783664193,-0.2514769211592105
39,2,0.25,0.8513719232097685,0.9125185945058734
39,2,0.0,0.8567680483327054,0.3729060822121877
39,3,1.0,0.8604971091548272,0.0
39,3,0.75,0.8625338993014897,-0.20367901466624705
39,3,0.5,0.8282098036337107,3.2287305521116583
39,3,0.25,0.8120011010937258,4.849600806110144
39,3,0.0,0.7496924626133722,11.080464654145505
39,4,1.0,0.8604971091548272,0.0
39,4,0.75,0.851700945170113,0.8796163984714278
39,4,0.5,0.8274203714831673,3.3076737671659973
39,4,0.25,0.8067854984055352,5.371161074929209
39,4,0.0,0.7989013902261987,6.159571892862859
39,5,1.0,0.8604971091548272,0.0
39,5,0.75,0.8495530435938411,1.094406556098615
39,5,0.5,0.846548727225398,1.3948381929429265
39,5,0.25,0.8444666776309778,1.603043152384942
39,5,0.0,0.8475998251696841,1.2897283985143115
39,6,1.0,0.8604971091548272,0.0
39,6,0.75,0.8660834485267304,-0.5586339371903115
39,6,0.5,0.8764317501569265,-1.5934641002099292
39,6,0.25,0.8838989769890426,-2.3401867834215384
39,6,0.0,0.8779944652463907,-1.7497356091563443
39,7,1.0,0.8604971091548272,0.0
39,7,0.75,0.8721494491271854,-1.165233997235815
39,7,0.5,0.860910575677521,-0.04134665226938061
39,7,0.25,0.863477495912945,-0.2980386758117737
39,7,0.0,0.8687525458633767,-0.8255436708549446
39,8,1.0,0.8604971091548272,0.0
39,8,0.75,0.8773866945282386,-1.6889585373411342
39,8,0.5,0.8890400909313994,-2.8542981776572107
39,8,0.25,0.8967525341495822,-3.625542499475498
39,8,0.0,0.8891613586511868,-2.8664249496359595
40,0,1.0,0.8232335298864084,0.0
40,0,0.75,0.8193276474769013,0.39058824095070666
40,0,0.5,0.7805977690848664,4.263576080154197
40,0,0.25,0.763438690390234,5.979483949617437
40,0,0.0,0.7385010811620603,8.473244872434815
40,1,1.0,0.8232335298864084,0.0
40,1,0.75,0.8184684739862927,0.47650559001156667
40,1,0.5,0.8220692034055657,0.11643264808427478
40,1,0.25,0.8158892764699053,0.7344253416503133
40,1,0.0,0.8133318298059198,0.9901700080488629
40,2,1.0,0.8232335298864084,0.0
40,2,0.75,0.8317260447660282,-0.8492514879619772
40,2,0.5,0.8461686274853921,-2.293509759898371
40,2,0.25,0.8624724925868612,-3.9238962700452795
40,2,0.0,0.8560510912046526,-3.2817561318244204
40,3,1.0,0.8232335298864084,0.0
40,3,0.75,0.8197892118355591,0.34443180508493265
40,3,0.5,0.82293329054799,0.030023933841838435
40,3,0.25,0.8233965436995666,-0.016301381315819707
40,3,0.0,0.822353456716855,0.08800731695534081
40,4,1.0,0.8232335298864084,0.0
40,4,0.75,0.8509711091097193,-2.773757922331088
40,4,0.5,0.8552395444536756,-3.200601456726715
40,4,0.25,0.8426112522859099,-1.937772239950153
40,4,0.0,0.8342797632840793,-1.1046233397670857
40,5,1.0,0.8232335298864084,0.0
40,5,0.75,0.817879915746004,0.5353614140404361
40,5,0.5,0.8216132676082615,0.16202622781469334
40,5,0.25,0.8302553453900139,-0.7021815503605477
40,5,0.0,0.8332439326958407,-1.0010402809432328
40,6,1.0,0.8232335298864084,0.0
40,6,0.75,0.8289824582143299,-0.574892832792151
40,6,0.5,0.8380269489362521,-1.479341904984366
40,6,0.25,0.8373679260188212,-1.413439613241274
40,6,0.0,0.8334253153747126,-1.019178548830424
40,7,1.0,0.8232335298864084,0.0
40,7,0.75,0.8208701672707636,0.23633626156448484
40,7,0.5,0.8076868802358721,1.5546649650536315
40,7,0.25,0.7838936515022705,3.9339878384137883
40,7,0.0,0.7548027309394691,6.843079894693926
40,8,1.0,0.8232335298864084,0.0
40,8,0.75,0.8314891564005369,-0.8255626514128478
40,8,0.5,0.8264992576326653,-0.32657277462568857
40,8,0.25,0.8097968238714285,1.3436706014979927
40,8,0.0,0.7798104291080495,4.3423100778358865
