subject,channel,f1_full,f1_occluded,drop_pp
1,0,0.6668962758581545,0.6403252643722119,2.657101148594254
1,1,0.6668962758581545,0.693317996356264,-2.6421720498109535
1,2,0.6668962758581545,0.687324316421835,-2.0428040563680527
1,3,0.6668962758581545,0.6314158154405516,3.548046041760289
1,4,0.6668962758581545,0.6824181466474788,-1.5521870789324321
1,5,0.6668962758581545,0.5358524272182312,13.104384863992324
1,6,0.6668962758581545,0.7237837357768696,-5.688745991871514
1,7,0.6668962758581545,0.6307084851459235,3.6187790712230994
1,8,0.6668962758581545,0.6473266990780255,1.9569576780128939
2,0,0.8744108618640549,0.8668283858636292,0.758247600042572
2,1,0.8744108618640549,0.8444877079492571,2.992315391479783
2,2,0.8744108618640549,0.816004601561173,5.840626030288187
2,3,0.8744108618640549,0.8960079795244474,-2.1597117660392517
2,4,0.8744108618640549,0.8689092631974132,0.5501598666641683
2,5,0.8744108618640549,0.8309478754030097,4.346298646104518
2,6,0.8744108618640549,0.87260226435988,0.1808597504174947
2,7,0.8744108618640549,0.8200376027285627,5.437325913549218
2,8,0.8744108618640549,0.876147672368951,-0.1736810504896047
3,0,0.8617385834777139,0.8747978714318032,-1.3059287954089283
3,1,0.8617385834777139,0.8545533090777366,0.7185274399977293
3,2,0.8617385834777139,0.8472251112052435,1.4513472272470462
3,3,0.8617385834777139,0.7620522375423467,9.968634593536718
3,4,0.8617385834777139,0.876208301232179,-1.446971775446504
3,5,0.8617385834777139,0.868803640502807,-0.706505702509308
3,6,0.8617385834777139,0.8515710227756379,1.0167560702076028
3,7,0.8617385834777139,0.8132153327097025,4.852325076801145
3,8,0.8617385834777139,0.8862076631047615,-2.4469079627047585
4,0,0.8691446747574094,0.8422457973322047,2.6898877425204692
4,1,0.8691446747574094,0.7779938086695146,9.115086608789479
4,2,0.8691446747574094,0.8242902551925215,4.485441956488789
4,3,0.8691446747574094,0.8686184298575691,0.05262448998403224
4,4,0.8691446747574094,0.8662819272901447,0.286274746726467
4,5,0.8691446747574094,0.8699267943629978,-0.07821196055883828
4,6,0.8691446747574094,0.8723029857297004,-0.3158310972291023
4,7,0.8691446747574094,0.8893691506104732,-2.022447585306375
4,8,0.8691446747574094,0.8272983497903292,4.184632496708018
5,0,0.6393477616485077,0.6458067131456149,-0.6458951497107179
5,1,0.6393477616485077,0.6697869543727709,-3.043919272426321
5,2,0.6393477616485077,0.631860123657572,0.7487637990935658
5,3,0.6393477616485077,0.6433194850739297,-0.3971723425421958
5,4,0.6393477616485077,0.6444669207662616,-0.5119159117753846
5,5,0.6393477616485077,0.6169782880349891,2.23694736135186
5,6,0.6393477616485077,0.6386534089337632,0.0694352714744495
5,7,0.6393477616485077,0.6427565108618352,-0.34087492133274555
5,8,0.6393477616485077,0.6120779914529915,2.726977019551624
6,0,0.7402748583508513,0.7366787347019905,0.35961236488607495
6,1,0.7402748583508513,0.7003599097036668,3.991494864718448
6,2,0.7402748583508513,0.7400862993127233,0.01885590381279778
6,3,0.7402748583508513,0.7764106048012036,-3.6135746450352335
6,4,0.7402748583508513,0.6952591429830359,4.501571536781535
6,5,0.7402748583508513,0.7127668934815931,2.7507964869258217
6,6,0.7402748583508513,0.7225292698084234,1.7745588542427915
6,7,0.7402748583508513,0.7009111075833844,3.93637507674669
6,8,0.7402748583508513,0.6959342412547537,4.43406170960976
7,0,0.7355727523464279,0.7342969932943975,0.12757590520304785
7,1,0.7355727523464279,0.7216195650899018,1.3953187256526167
7,2,0.7355727523464279,0.6881194478972356,4.745330444919238
7,3,0.7355727523464279,0.76468444576111,-2.9111693414682116
7,4,0.7355727523464279,0.7336547341195641,0.19180182268638823
7,5,0.7355727523464279,0.784983485760243,-4.941073341381507
7,6,0.7355727523464279,0.7231176539986172,1.2455098347810778
7,7,0.7355727523464279,0.6963986362793986,3.9174116067029363
7,8,0.7355727523464279,0.6759078285758621,5.966492377056587
8,0,0.8504124518352648,0.8191137167430271,3.1298735092237684
8,1,0.8504124518352648,0.839240295083365,1.1172156751899864
8,2,0.8504124518352648,0.840681554525048,0.9730897310216813
8,3,0.8504124518352648,0.8270041578308764,2.3408294004388375
8,4,0.8504124518352648,0.8172994444375653,3.311300739769951
8,5,0.8504124518352648,0.8120558925644179,3.8356559270846913
8,6,0.8504124518352648,0.8420680388590279,0.8344412976236892
8,7,0.8504124518352648,0.778381377027298,7.203107480796678
8,8,0.8504124518352648,0.84932120785772,0.10912439775447869
9,0,0.8400727947596495,0.8067860673755977,3.3286727384051806
9,1,0.8400727947596495,0.8127778442820531,2.7294950477596336
9,2,0.8400727947596495,0.8034023338931581,3.6670460866491394
9,3,0.8400727947596495,0.8382509904476181,0.18218043120313832
9,4,0.8400727947596495,0.8180579917805063,2.2014802979143155
9,5,0.8400727947596495,0.809538112258888,3.053468250076141
9,6,0.8400727947596495,0.8179669066296147,2.210588813003478
9,7,0.8400727947596495,0.7876111555162464,5.246163924340308
9,8,0.8400727947596495,0.8237577358975525,1.6315058862096943
10,0,0.7274363224213154,0.748262824966729,-2.0826502545413628
10,1,0.7274363224213154,0.744652466546675,-1.7216144125359656
10,2,0.7274363224213154,0.716939252733288,1.0497069688027438
10,3,0.7274363224213154,0.674235734086138,5.320058833517738
10,4,0.7274363224213154,0.7110297946470279,1.6406527774287527
10,5,0.7274363224213154,0.7295769889892567,-0.21406665679413184
10,6,0.7274363224213154,0.7499527068652184,-2.2516384443903026
10,7,0.7274363224213154,0.703294372610277,2.4141949811038343
10,8,0.7274363224213154,0.7244563832525556,0.29799391687598265
11,0,0.8907527949396882,0.8785975524368898,1.2155242502798425
11,1,0.8907527949396882,0.8401569941690735,5.059580077061465
11,2,0.8907527949396882,0.867930911954161,2.282188298552712
11,3,0.8907527949396882,0.8758383859640309,1.4914408975657323
11,4,0.8907527949396882,0.8709582279205307,1.9794567019157494
11,5,0.8907527949396882,0.8867613053767543,0.39914895629338254
11,6,0.8907527949396882,0.9022350710383713,-1.148227609868313
11,7,0.8907527949396882,0.8542535935108938,3.649920142879437
11,8,0.8907527949396882,0.8360977456148228,5.465504932486542
12,0,0.8729826609141135,0.8631499935115767,0.9832667402536743
12,1,0.8729826609141135,0.851581832720196,2.140082819391742
12,2,0.8729826609141135,0.8521775013421976,2.0805159571915866
12,3,0.8729826609141135,0.8249080904079078,4.807457050620567
12,4,0.8729826609141135,0.8630045372344686,0.9978123679644901
12,5,0.8729826609141135,0.8599162841808984,1.306637673321509
12,6,0.8729826609141135,0.871131759463702,0.18509014504114463
12,7,0.8729826609141135,0.8766186194757624,-0.3635958561648889
12,8,0.8729826609141135,0.8740729062996667,-0.10902453855532457
13,0,0.9083440596763507,0.9179255209085024,-0.9581461232151756
13,1,0.9083440596763507,0.9264939696089535,-1.8149909932602792
13,2,0.9083440596763507,0.9095677391862224,-0.1223679509871678
13,3,0.9083440596763507,0.8905977891732383,1.7746270503112394
13,4,0.9083440596763507,0.9057270801115958,0.2616979564754929
13,5,0.9083440596763507,0.8912779605742259,1.7066099102124754
13,6,0.9083440596763507,0.9060076110782199,0.2336448598130758
13,7,0.9083440596763507,0.9118377944889078,-0.3493734812557103
13,8,0.9083440596763507,0.8979981927783934,1.0345866897957245
14,0,0.8310333591757397,0.801129177807323,2.990418136841677
14,1,0.8310333591757397,0.8083353569114116,2.2698002264328165
14,2,0.8310333591757397,0.821090013464553,0.9943345711186713
14,3,0.8310333591757397,0.7683291506494758,6.2704208526263905
14,4,0.8310333591757397,0.8362153035906412,-0.5181944414901496
14,5,0.8310333591757397,0.8418313056994764,-1.0797946523736668
14,6,0.8310333591757397,0.8353889332094573,-0.43555740337175575
14,7,0.8310333591757397,0.791025316760516,4.000804241522371
14,8,0.8310333591757397,0.8133229566947158,1.7710402481023957
15,0,0.8690343989344675,0.8357236382025176,3.331076073194994
15,1,0.8690343989344675,0.8468867191597527,2.214767977471488
15,2,0.8690343989344675,0.8508206526640739,1.8213746270393627
15,3,0.8690343989344675,0.8519814373952541,1.705296153921343
15,4,0.8690343989344675,0.8725026598029689,-0.34682608685013827
15,5,0.8690343989344675,0.8535488819833156,1.5485516951151967
15,6,0.8690343989344675,0.8430890905957762,2.5945308338691353
15,7,0.8690343989344675,0.844505845819107,2.4528553115360507
15,8,0.8690343989344675,0.8493076256683761,1.9726773266091402
16,0,0.8433024130445758,0.8550905025992532,-1.1788089554677472
16,1,0.8433024130445758,0.8755819642506499,-3.2279551206074175
16,2,0.8433024130445758,0.8193444748773946,2.395793816718117
16,3,0.8433024130445758,0.8680518221843078,-2.4749409139732004
16,4,0.8433024130445758,0.841405228851268,0.1897184193307755
16,5,0.8433024130445758,0.781340671378214,6.196174166636181
16,6,0.8433024130445758,0.8436420468819449,-0.033963383736912434
16,7,0.8433024130445758,0.8015184508877441,4.178396215683167
16,8,0.8433024130445758,0.8407585859244042,0.2543827120171538
17,0,0.8347660640089053,0.7995700663495853,3.519599765932002
17,1,0.8347660640089053,0.827471655453935,0.7294408554970322
17,2,0.8347660640089053,0.8247584202549,1.0007643754005313
17,3,0.8347660640089053,0.8194113692858624,1.535469472304285
17,4,0.8347660640089053,0.8166681963375166,1.8097867671388657
17,5,0.8347660640089053,0.816782642024967,1.798342198393832
17,6,0.8347660640089053,0.8295914256341863,0.5174638374718987
17,7,0.8347660640089053,0.8369901205655695,-0.22240565566642445
17,8,0.8347660640089053,0.7858975043380808,4.8868559670824485
18,0,0.8830878728541824,0.8769778791708616,0.610999368332088
18,1,0.8830878728541824,0.8792122123643018,0.3875660489880639
18,2,0.8830878728541824,0.8888887547733345,-0.5800881919152068
18,3,0.8830878728541824,0.7699287323667711,11.315914048741138
18,4,0.8830878728541824,0.8710075039566872,1.2080368897495197
18,5,0.8830878728541824,0.8842181943646932,-0.11303215105107345
18,6,0.8830878728541824,0.8808098863371198,0.227798651706268
18,7,0.8830878728541824,0.8674223479237055,1.5665524930476904
18,8,0.8830878728541824,0.9002040011687383,-1.711612831455589
19,0,0.8072774701345905,0.8102623499522262,-0.2984879817635733
19,1,0.8072774701345905,0.8006086238455136,0.6668846289076935
19,2,0.8072774701345905,0.8152916297901589,-0.8014159655568398
19,3,0.8072774701345905,0.7715862098258632,3.569126030872727
19,4,0.8072774701345905,0.8062893004026821,0.0988169731908406
19,5,0.8072774701345905,0.8071904842502156,0.008698588437494603
19,6,0.8072774701345905,0.8440834374443508,-3.680596730976027
19,7,0.8072774701345905,0.8051963897905331,0.20810803440574066
19,8,0.8072774701345905,0.7959187475139589,1.1358722620631645
20,0,0.819915679015886,0.7978392033044914,2.2076475711394594
20,1,0.819915679015886,0.786404761253677,3.3510917762209047
20,2,0.819915679015886,0.7857283631645967,3.4187315851289313
20,3,0.819915679015886,0.8184717864847106,0.14438925311753836
20,4,0.819915679015886,0.8111914253685074,0.872425364737861
20,5,0.819915679015886,0.8198619552765501,0.005372373933587582
20,6,0.819915679015886,0.7867897149254603,3.3125964090425675
20,7,0.819915679015886,0.7839807467778006,3.5934932238085415
20,8,0.819915679015886,0.7602568817166584,5.965879729922763
21,0,0.8539795079733864,0.7936813208657347,6.029818710765166
21,1,0.8539795079733864,0.8585043842482373,-0.45248762748508753
21,2,0.8539795079733864,0.8319799937409252,2.199951423246116
21,3,0.8539795079733864,0.8093532489620027,4.462625901138373
21,4,0.8539795079733864,0.8328044220932325,2.117508588015393
21,5,0.8539795079733864,0.8632504425127704,-0.927093453938399
21,6,0.8539795079733864,0.8569449156649399,-0.2965407691553512
21,7,0.8539795079733864,0.8425521256380408,1.142738233534557
21,8,0.8539795079733864,0.8389618764729202,1.50176315004662
22,0,0.83977425816671,0.8309948288745392,0.8779429292170793
22,1,0.83977425816671,0.8571715622467401,-1.739730408003004
22,2,0.83977425816671,0.858141888022098,-1.836762985538798
22,3,0.83977425816671,0.8129744677000537,2.679979046665637
22,4,0.83977425816671,0.8197934644830516,1.998079368365846
22,5,0.83977425816671,0.8296802687829619,1.009398938374817
22,6,0.83977425816671,0.831012558412679,0.8761699754031071
22,7,0.83977425816671,0.7720335010404541,6.774075712625594
22,8,0.83977425816671,0.8080891122167788,3.1685145949931215
23,0,0.7738885325595711,0.7273999661401974,4.648856641937371
23,1,0.7738885325595711,0.7777093869426979,-0.3820854383126737
23,2,0.7738885325595711,0.814706317686368,-4.081778512679691
23,3,0.7738885325595711,0.7704788741751194,0.34096583844517303
23,4,0.7738885325595711,0.7486509076995598,2.5237624860011354
23,5,0.7738885325595711,0.7794651351215273,-0.5576602561956134
23,6,0.7738885325595711,0.7596595731492068,1.4228959410364284
23,7,0.7738885325595711,0.7732824663636773,0.06060661958938729
23,8,0.7738885325595711,0.7546635132637707,1.922501929580045
24,0,0.7744001788027073,0.745958082712552,2.8442096090155244
24,1,0.7744001788027073,0.7746884866734212,-0.028830787071387753
24,2,0.7744001788027073,0.7531226001465969,2.127757865611035
24,3,0.7744001788027073,0.7897315597618916,-1.5331380959184293
24,4,0.7744001788027073,0.7181472681293366,5.625291067337068
24,5,0.7744001788027073,0.7396422785397629,3.475790026294434
24,6,0.7744001788027073,0.7440819644289909,3.03182143737164
24,7,0.7744001788027073,0.7313136167425185,4.308656206018879
24,8,0.7744001788027073,0.7240026786079419,5.039750019476541
25,0,0.8701760548283873,0.8863582219023253,-1.6182167073937936
25,1,0.8701760548283873,0.866051725623022,0.4124329205365318
25,2,0.8701760548283873,0.8534846499066683,1.6691404921719055
25,3,0.8701760548283873,0.8680833716157393,0.20926832126479944
25,4,0.8701760548283873,0.8162873817086115,5.388867311977585
25,5,0.8701760548283873,0.8705702788432408,-0.03942240148534504
25,6,0.8701760548283873,0.8707521204368518,-0.057606560846446
25,7,0.8701760548283873,0.8019798733564876,6.819618147189976
25,8,0.8701760548283873,0.8622221963644514,0.7953858463935926
26,0,0.7839234217780016,0.8069762998986472,-2.3052878120645603
26,1,0.7839234217780016,0.8101846333828139,-2.626121160481232
26,2,0.7839234217780016,0.7345982031190466,4.932521865895501
26,3,0.7839234217780016,0.7763676273527532,0.7555794425248341
26,4,0.7839234217780016,0.779921762973828,0.400165880417358
26,5,0.7839234217780016,0.7489568355082883,3.4966586269713273
26,6,0.7839234217780016,0.7660969945043188,1.7826427273682777
26,7,0.7839234217780016,0.7400222666120977,4.390115516590387
26,8,0.7839234217780016,0.7478396751528424,3.608374662515912
27,0,0.8669190926390264,0.8792401831663679,-1.2321090527341427
27,1,0.8669190926390264,0.8633397544080036,0.3579338231022855
27,2,0.8669190926390264,0.8325169139803286,3.440217865869788
27,3,0.8669190926390264,0.8586476232379817,0.8271469401044729
27,4,0.8669190926390264,0.8482955796048774,1.8623513034148997
27,5,0.8669190926390264,0.8547374491040329,1.2181643534993514
27,6,0.8669190926390264,0.8848228143101576,-1.790372167113119
27,7,0.8669190926390264,0.8537004978795519,1.3218594759474511
27,8,0.8669190926390264,0.871362709665462,-0.4443617026435587
28,0,0.7462098835489206,0.8162055819898348,-6.9995698440914245
28,1,0.7462098835489206,0.8075141315896881,-6.130424804076751
28,2,0.7462098835489206,0.7516061515549912,-0.5396268006070626
28,3,0.7462098835489206,0.7800658076772878,-3.3855924128367243
28,4,0.7462098835489206,0.7436873495335299,0.25225340153907094
28,5,0.7462098835489206,0.6684879670455143,7.772191650340632
28,6,0.7462098835489206,0.7356864527526528,1.052343079626783
28,7,0.7462098835489206,0.7324457511309327,1.3764132417987907
28,8,0.7462098835489206,0.7680875061278465,-2.1877622578925893
29,0,0.826958921362646,0.793891510212042,3.3067411150604076
29,1,0.826958921362646,0.8231568978907475,0.3802023471898508
29,2,0.826958921362646,0.8154242717037078,1.1534649658938245
29,3,0.826958921362646,0.8116855693158762,1.5273352046769828
29,4,0.826958921362646,0.7832796456218752,4.367927574077079
29,5,0.826958921362646,0.8032599415895636,2.369897977308244
29,6,0.826958921362646,0.8316012069112897,-0.46422855486436543
29,7,0.826958921362646,0.835066824735333,-0.8107903372686964
29,8,0.826958921362646,0.7784927640669148,4.846615729573123
30,0,0.785980875913375,0.8046905191768601,-1.870964326348512
30,1,0.785980875913375,0.7442585677505724,4.172230816280253
30,2,0.785980875913375,0.809555310474112,-2.3574434560737045
30,3,0.785980875913375,0.7916878028173087,-0.5706926903933707
30,4,0.785980875913375,0.758645125559331,2.733575035404401
30,5,0.785980875913375,0.7397066802528629,4.627419566051206
30,6,0.785980875913375,0.8141185312424417,-2.8137655329066757
30,7,0.785980875913375,0.7810118733007716,0.4969002612603357
30,8,0.785980875913375,0.8155872444202263,-2.960636850685139
31,0,0.6689642712986683,0.6550391856293076,1.3925085669360682
31,1,0.6689642712986683,0.6604686967453935,0.8495574553274765
31,2,0.6689642712986683,0.6550901739674234,1.3874097331244895
31,3,0.6689642712986683,0.6592884526397119,0.9675818658956392
31,4,0.6689642712986683,0.6343351553808155,3.462911591785278
31,5,0.6689642712986683,0.6647021654960387,0.42621058026296454
31,6,0.6689642712986683,0.6932576051378074,-2.429333383913912
31,7,0.6689642712986683,0.6463131798770966,2.2651091421571734
31,8,0.6689642712986683,0.6261560838858429,4.280818741282544
32,0,0.8115134357433709,0.801390532736597,1.0122903006773876
32,1,0.8115134357433709,0.7986085127719538,1.2904922971417099
32,2,0.8115134357433709,0.8120175588343221,-0.05041230909512695
32,3,0.8115134357433709,0.7949240014886211,1.658943425474979
32,4,0.8115134357433709,0.823116303034771,-1.1602867291400143
32,5,0.8115134357433709,0.8189904021960627,-0.7476966452691802
32,6,0.8115134357433709,0.7998807878634503,1.1632647879920577
32,7,0.8115134357433709,0.7802898814206186,3.1223554322752256
32,8,0.8115134357433709,0.8374327603154381,-2.591932457206725
33,0,0.7655407513105696,0.7570918740413384,0.844887726923127
33,1,0.7655407513105696,0.7414401273043283,2.4100624006241356
33,2,0.7655407513105696,0.7485919032674555,1.694884804311414
33,3,0.7655407513105696,0.7039186012831986,6.162215002737104
33,4,0.7655407513105696,0.780530545481112,-1.4989794170542359
33,5,0.7655407513105696,0.78899406733957,-2.345331602900036
33,6,0.7655407513105696,0.7604711255199775,0.5069625790592114
33,7,0.7655407513105696,0.7400046286486825,2.5536122661887095
33,8,0.7655407513105696,0.7557944923524254,0.9746258958144294
34,0,0.8776678898194707,0.8541184010502518,2.354948876921892
34,1,0.8776678898194707,0.8946069253427454,-1.6939035523274693
34,2,0.8776678898194707,0.8912078700713808,-1.3539980251910055
34,3,0.8776678898194707,0.8623516022741383,1.531628754533243
34,4,0.8776678898194707,0.8637235849277733,1.39443048916974
34,5,0.8776678898194707,0.8717710729506588,0.5896816868811938
34,6,0.8776678898194707,0.8937468033778168,-1.6078913558346009
34,7,0.8776678898194707,0.8504795562950201,2.7188333524450603
34,8,0.8776678898194707,0.8482805628162291,2.938732700324165
35,0,0.6676005439151194,0.646824242529666,2.077630138545339
35,1,0.6676005439151194,0.6704218498225252,-0.28213059074058133
35,2,0.6676005439151194,0.6759242631190587,-0.8323719203939373
35,3,0.6676005439151194,0.6792671451881954,-1.166660127307606
35,4,0.6676005439151194,0.6815376793831964,-1.3937135468077066
35,5,0.6676005439151194,0.658659549210888,0.8940994704231375
35,6,0.6676005439151194,0.6634571969085151,0.41433470066042366
35,7,0.6676005439151194,0.6633504911442482,0.42500527708712044
35,8,0.6676005439151194,0.6839214743568002,-1.6320930441680814
36,0,0.7030392770647644,0.6760212514881148,2.7018025576649674
36,1,0.7030392770647644,0.6423767531036773,6.066252396108718
36,2,0.7030392770647644,0.6707592654270769,3.2280011637687567
36,3,0.7030392770647644,0.6861158901257038,1.6923386939060592
36,4,0.7030392770647644,0.7178481979763903,-1.480892091162589
36,5,0.7030392770647644,0.7625014685584299,-5.9462191493665495
36,6,0.7030392770647644,0.6927859406413435,1.0253336423420967
36,7,0.7030392770647644,0.6611297139605119,4.190956310425253
36,8,0.7030392770647644,0.6844155976836896,1.8623679381074787
37,0,0.8484850374239248,0.8377895497457448,1.069548767817996
37,1,0.8484850374239248,0.8426399720654902,0.5845065358434542
37,2,0.8484850374239248,0.81192843120848,3.6556606215444765
37,3,0.8484850374239248,0.8525186828431184,-0.4033645419193599
37,4,0.8484850374239248,0.8582446486531445,-0.9759611229219756
37,5,0.8484850374239248,0.8574482549185652,-0.8963217494640463
37,6,0.8484850374239248,0.8386661622019178,0.9818875222006973
37,7,0.8484850374239248,0.8004591554490135,4.802588197491131
37,8,0.8484850374239248,0.8226122439449433,2.5872793478981526
38,0,0.8229588647808936,0.8027093372563556,2.0249527524538014
38,1,0.8229588647808936,0.7960071659169153,2.69516988639783
38,2,0.8229588647808936,0.8359504222418339,-1.2991557460940273
38,3,0.8229588647808936,0.8299908235423588,-0.7031958761465118
38,4,0.8229588647808936,0.7960519696204724,2.690689516042122
38,5,0.8229588647808936,0.8235743046126913,-0.06154398317976817
38,6,0.8229588647808936,0.8006732860821384,2.228557869875525
38,7,0.8229588647808936,0.7726435135253051,5.03153512555885
38,8,0.8229588647808936,0.8112174411220261,1.1741423658867545
39,0,0.8554130625166156,0.8160600054158426,3.935305710077308
39,1,0.8554130625166156,0.8749816491514876,-1.9568586634871932
39,2,0.8554130625166156,0.8590457696745802,-0.36327071579645986
39,3,0.8554130625166156,0.7926870543533306,6.2726008163285
39,4,0.8554130625166156,0.7936860535994349,6.172700891718074
39,5,0.8554130625166156,0.8439044383742227,1.1508624142392954
39,6,0.8554130625166156,0.8513874002431161,0.4025662273499542
39,7,0.8554130625166156,0.8361122789441617,1.9300783572453906
39,8,0.8554130625166156,0.8387618123844097,1.665125013220592
40,0,0.7990677904363628,0.7312477935825159,6.781999685384688
40,1,0.7990677904363628,0.7462118948615828,5.285589557477999
40,2,0.7990677904363628,0.7870727758716404,1.1995014564722406
40,3,0.7990677904363628,0.7564895515698211,4.257823886654166
40,4,0.7990677904363628,0.785939747693873,1.3128042742489798
40,5,0.7990677904363628,0.8059293802330577,-0.6861589796694934
40,6,0.7990677904363628,0.7947819001741423,0.4285890262220482
40,7,0.7990677904363628,0.7594846476871997,3.958314274916308
40,8,0.7990677904363628,0.7759898103999432,2.3077980036419588
