subject,channel,r,f1_drop_mean,f1_drop_sd
1,0,5,0.0716499643897152,0.013944054219024045
1,1,5,0.0570972165278665,0.014106220564202498
1,2,5,0.06268808702466147,0.007146138958079672
1,3,5,0.059112753066033676,0.013013720060386442
1,4,5,-0.01613806547495571,0.01098800597845795
1,5,5,0.13088097585415065,0.0073235889320661905
1,6,5,0.026365657801895037,0.012925568604343615
1,7,5,0.10636829325941399,0.011068258046669617
1,8,5,0.07352885780312997,0.014252070153148754
2,0,5,0.11383341629492352,0.008160102520141894
2,1,5,0.07345165583793553,0.00789611682413074
2,2,5,0.07929776860333633,0.010226377431334139
2,3,5,0.04603925251298433,0.011193077603297324
2,4,5,0.12190353298112633,0.01662317300637596
2,5,5,0.10349676556409577,0.017074665657825866
2,6,5,0.03468118938551736,0.013485492444946918
2,7,5,0.12206014452114249,0.014465343047251035
2,8,5,0.09096611747025322,0.0011827277266818884
3,0,5,0.08056011278342115,0.025970487338334465
3,1,5,0.11155282559862194,0.014009318244065296
3,2,5,0.13018860748326008,0.013866651136333952
3,3,5,0.09875955218005132,0.0073028796884446155
3,4,5,0.1038254001365109,0.007401848489212964
3,5,5,0.06131975620494727,0.0064011869485432185
3,6,5,0.03891743057291264,0.008895203621474697
3,7,5,0.12634588228563493,0.005635159023897217
3,8,5,0.10458520518031614,0.009529198520497528
4,0,5,0.07573286788035083,0.006961410884435822
4,1,5,0.13487012795779768,0.015460870687668275
4,2,5,0.0737814114493002,0.014639372646320179
4,3,5,0.04440433881890713,0.00525316896910202
4,4,5,0.18971185330146773,0.009107402954392795
4,5,5,0.1113634707029624,0.013136330833578125
4,6,5,0.02411393703207858,0.007571840436389321
4,7,5,0.1036605557352855,0.017528856754018766
4,8,5,0.11799097634464292,0.008214707871286048
5,0,5,0.031102229926851032,0.016044745511131345
5,1,5,0.035016395306803894,0.012123012912449879
5,2,5,0.05085531684290703,0.007880479018370535
5,3,5,0.05261449315639266,0.010655126064247816
5,4,5,0.09472681587771739,0.009942609897676761
5,5,5,0.06783417135302901,0.009604936296213437
5,6,5,0.029354264348468728,0.011624731571276999
5,7,5,0.044019197650340215,0.009149335971511206
5,8,5,0.09502450950630084,0.012557493950235131
6,0,5,0.09886546647265534,0.012101935004657309
6,1,5,0.0806336621147669,0.014172500919330637
6,2,5,0.08229666295731872,0.01881597855987349
6,3,5,0.024657628209586703,0.00489980340444379
6,4,5,0.12341711357723084,0.015014645283803025
6,5,5,0.06712460547704664,0.014731604103192802
6,6,5,0.055274276853845894,0.011860898805463697
6,7,5,0.07968098920872838,0.007408909232905712
6,8,5,0.09391448353949523,0.014280091913523833
7,0,5,0.0610069679820265,0.010763988871035272
7,1,5,0.06812094535773376,0.01673868290795305
7,2,5,0.09417373589610731,0.013958579046994561
7,3,5,0.002954872548746779,0.02010812731435121
7,4,5,0.06657331898170235,0.01765223718017925
7,5,5,0.11699786505899805,0.01607248355470959
7,6,5,0.038408322160068245,0.009540089376379988
7,7,5,0.09925207128253047,0.007406483861121913
7,8,5,0.09949764383745266,0.008791409147033413
8,0,5,0.10591972047883924,0.02344624818041073
8,1,5,0.07734152967001443,0.01819921053860871
8,2,5,0.08866173450203615,0.005404283848704545
8,3,5,0.07664159779764794,0.017785745034428264
8,4,5,0.14152018887173917,0.015761175607250832
8,5,5,0.15934336284985012,0.022420711900317733
8,6,5,0.04251549632699845,0.007969154510308421
8,7,5,0.1897608953396376,0.013951791792493513
8,8,5,0.08575005689746804,0.011890064511830358
9,0,5,0.08763756317425593,0.010057574023446498
9,1,5,0.12002104227879477,0.011010784688603432
9,2,5,0.12517240545839448,0.006628351551239346
9,3,5,0.04640880121067257,0.005118110746100111
9,4,5,0.10625396423094029,0.0055168244833033175
9,5,5,0.1074581599676487,0.016800819232754356
9,6,5,0.07368945342575192,0.004916600641724631
9,7,5,0.1660415648193512,0.013845944423326819
9,8,5,0.09003961885934379,0.017316041025782408
10,0,5,0.017469472117926554,0.012432100905420813
10,1,5,0.014677690687520584,0.016747673785486097
10,2,5,0.0545683981964364,0.006832844434663119
10,3,5,0.0900364527875382,0.011900502044226866
10,4,5,0.1139941743012036,0.013509406940861175
10,5,5,0.10808157158446899,0.01898002089822191
10,6,5,0.016154514772346175,0.01736972174350726
10,7,5,0.08497239266600778,0.006618666680852203
10,8,5,0.09810091970162496,0.014567308197434639
11,0,5,0.0996674761516789,0.014607348167039489
11,1,5,0.1678260702379354,0.01570386219990221
11,2,5,0.07884912192542319,0.004940531628860176
11,3,5,0.07824636388462206,0.009507727114394621
11,4,5,0.1560353407921665,0.007065494993939002
11,5,5,0.11200894375588717,0.006705768354333308
11,6,5,0.04036102297218691,0.007929105501034477
11,7,5,0.15202634216880478,0.011542888036112548
11,8,5,0.12940189323470858,0.011589106522880761
12,0,5,0.08213123488770366,0.011564288385306936
12,1,5,0.10905674522160129,0.015214709485588219
12,2,5,0.08971961264111206,0.006484166465412686
12,3,5,0.06357431700612663,0.019848816532001108
12,4,5,0.14383122105187388,0.01659194658077226
12,5,5,0.06397614871588737,0.020193177710154206
12,6,5,0.048642701826223746,0.013472322586396638
12,7,5,0.08842476003675345,0.008984511845097009
12,8,5,0.07485744405417165,0.021550585166424756
13,0,5,0.05116593634208137,0.008158191602508455
13,1,5,0.07436377335109004,0.009362763485842937
13,2,5,0.05509549865703158,0.0031753448816050217
13,3,5,0.04801535610728429,0.007650139864746959
13,4,5,0.16014377409525105,0.010068505101298588
13,5,5,0.11220800030248593,0.019224979235350027
13,6,5,0.04264558140724688,0.0036104027966423658
13,7,5,0.07592979588802402,0.007632896302781069
13,8,5,0.10122579029839696,0.01326934875053645
14,0,5,0.09861594231215268,0.005178335021105119
14,1,5,0.09085317538906161,0.0021141977125989325
14,2,5,0.08201218477136259,0.008635132389378417
14,3,5,0.09916647599733072,0.008853711750926311
14,4,5,0.09171572043723944,0.013263867302778167
14,5,5,0.09856051542022708,0.01058850048368998
14,6,5,0.027013691492060878,0.01122034559412916
14,7,5,0.12450867953754248,0.00650362112637523
14,8,5,0.10523861126545794,0.009882214040440679
15,0,5,0.10390492415330796,0.020643918816159065
15,1,5,0.09754855172058186,0.014166465108438582
15,2,5,0.056710073053865995,0.0047442603995151685
15,3,5,0.07730193502018759,0.005326892467465497
15,4,5,0.18035788771411604,0.019342187977985717
15,5,5,0.10211853699135476,0.020772532534220994
15,6,5,0.0714740863664034,0.01294170819070032
15,7,5,0.10034542075429882,0.009443705111177952
15,8,5,0.090608235790993,0.020373223385030483
16,0,5,0.09631622685470835,0.008143209631891841
16,1,5,0.07064521941077148,0.018666075535770908
16,2,5,0.08492509402394577,0.013831949022470135
16,3,5,0.036605979994083084,0.011290751312451537
16,4,5,0.10249252689519588,0.008296462254611527
16,5,5,0.12472985189322845,0.018185992990881857
16,6,5,0.030989114209583214,0.007589441923604115
16,7,5,0.1558928053900717,0.014746206331128555
16,8,5,0.15424866643451982,0.015919302172858182
17,0,5,0.14123191790493614,0.011871970199406794
17,1,5,0.09294478161610194,0.006745282221385441
17,2,5,0.10041704548117321,0.01719398899872988
17,3,5,0.08451399435944676,0.004413400809471185
17,4,5,0.12598935733201932,0.008925021597005117
17,5,5,0.17370275254602302,0.00654420440086664
17,6,5,0.05714569780203489,0.011379358064381355
17,7,5,0.11262741463325734,0.005116901164018069
17,8,5,0.12053784300242179,0.0032220834060451356
18,0,5,0.04876316542308281,0.02166445364537098
18,1,5,0.05617221795614884,0.013591682082047033
18,2,5,0.05416748098057507,0.009673352697865149
18,3,5,0.08594593007798708,0.008165726750483156
18,4,5,0.04333643600445203,0.007838123983947136
18,5,5,0.19751405708680164,0.019258591039379137
18,6,5,0.048502320383095876,0.010760834054523268
18,7,5,0.12844430484919153,0.011449318554351584
18,8,5,0.053294617638762844,0.006786041152880048
19,0,5,0.03702173935694821,0.007036958938381032
19,1,5,0.07560462176695963,0.0158777029688398
19,2,5,0.06173624371003905,0.008950125132741042
19,3,5,0.0632508364952346,0.01136116550649964
19,4,5,0.13080005846087392,0.00831951501755518
19,5,5,0.032187738650237385,0.00548001234669683
19,6,5,0.02705399427060411,0.010568148955119967
19,7,5,0.12581144894098567,0.010676911029610455
19,8,5,0.06560557955008768,0.011772491827304473
20,0,5,0.058066804499442994,0.004167133548843358
20,1,5,0.07489632913182867,0.01614841169300987
20,2,5,0.07619817360390882,0.009657509231257442
20,3,5,0.023236742956893396,0.013254897631664845
20,4,5,0.07565694241655321,0.019660853133804786
20,5,5,0.1424187056070797,0.026313590497897884
20,6,5,0.05317121522174666,0.00592313365058718
20,7,5,0.0866915911124497,0.010949087193579822
20,8,5,0.12795364790882824,0.010865237093999525
21,0,5,0.08953332276997553,0.010371633382889909
21,1,5,0.07294824604948842,0.003929590919319067
21,2,5,0.0902331715436844,0.015062479525723463
21,3,5,0.055034369804322525,0.022310099794845696
21,4,5,0.09537731643206213,0.0158218835238186
21,5,5,0.12340621250325076,0.005466217744132893
21,6,5,0.02735122527315772,0.00857411852328681
21,7,5,0.11030074590712564,0.00809375288701426
21,8,5,0.09603467677939845,0.012502852196485515
22,0,5,0.08395730738204377,0.017374029103157818
22,1,5,0.0639240343883694,0.009953088495308644
22,2,5,0.0660119970761299,0.016466162702010137
22,3,5,0.04193736464183515,0.005702023080304893
22,4,5,0.11134195857417566,0.007276244992223822
22,5,5,0.1027441381274555,0.016722923525717574
22,6,5,0.03560581298395844,0.0066255341700596744
22,7,5,0.14044131309579275,0.013618753552512675
22,8,5,0.12972621302502624,0.006236684200328605
23,0,5,0.13098025762811963,0.018476774437036145
23,1,5,0.08904461381705397,0.011794447368826124
23,2,5,0.07256806176998279,0.007020894341539013
23,3,5,0.05459628820814366,0.004438780809222551
23,4,5,0.10240685651995303,0.011106666274456153
23,5,5,0.10099441531394024,0.011815273656733174
23,6,5,0.0699747056735471,0.009798448993348708
23,7,5,0.12073813607053308,0.01238115588730396
23,8,5,0.09945254219768632,0.01455182796630037
24,0,5,0.07390383271181385,0.014589166189781838
24,1,5,0.044292677135519695,0.013804981213702577
24,2,5,0.09890461948269065,0.010957131516533138
24,3,5,0.05100559604591139,0.015926312662500088
24,4,5,0.12426517378105273,0.007683590124653535
24,5,5,0.13308573552244574,0.015437223300159593
24,6,5,0.0596300364149428,0.005215210633393521
24,7,5,0.12595158498066258,0.010511676210411111
24,8,5,0.11669959738545817,0.012574510531491763
25,0,5,0.06733425579325676,0.009158404245452697
25,1,5,0.07626077160696154,0.010738002345689243
25,2,5,0.06280640218982556,0.014687318882711872
25,3,5,0.07945289581310969,0.01606238713889915
25,4,5,0.14492464281697037,0.010105177501176963
25,5,5,0.097109086912083,0.009511546832828063
25,6,5,0.04789923538351633,0.0037471171871386196
25,7,5,0.11098251895686369,0.006324681382540761
25,8,5,0.08201015070700021,0.00893909295074715
26,0,5,0.0625465218534039,0.009619674452361246
26,1,5,0.0739412436031373,0.007319813399842066
26,2,5,0.12711554019907628,0.006540221961682491
26,3,5,0.06694588716186242,0.006290471738872557
26,4,5,0.06686857716583232,0.011231747184608573
26,5,5,0.19865459932030644,0.017417134428461142
26,6,5,0.06046950895541581,0.004093204652792004
26,7,5,0.13495553865920684,0.010809585826966759
26,8,5,0.11941119640350631,0.010311107133249795
27,0,5,0.007705967572088324,0.008376062562692611
27,1,5,0.05556245665739181,0.010124646821206621
27,2,5,0.0691883847378079,0.011226178576929799
27,3,5,0.04570642782225032,0.005860339152401565
27,4,5,0.1194323906846045,0.004991646486107183
27,5,5,0.1271708234528226,0.017486302603974074
27,6,5,0.0369230433901915,0.011029345601087334
27,7,5,0.12048292300699961,0.009891738036636157
27,8,5,0.07006761804771806,0.008036392664891631
28,0,5,0.04089416470273537,0.010819441230794122
28,1,5,0.039667397344133784,0.017818392861353984
28,2,5,0.029295397906267607,0.007347670434550058
28,3,5,0.036746734486315026,0.015813069637793026
28,4,5,0.09310578461406897,0.004125742869585034
28,5,5,0.1743739316650907,0.014209539286822268
28,6,5,0.0360324164711493,0.005811568717178963
28,7,5,0.06359355638274082,0.005187096650994875
28,8,5,0.10664144312652653,0.006901054429969895
29,0,5,0.11461114914969983,0.01746398905019155
29,1,5,0.06588890518493618,0.013708451782404714
29,2,5,0.07644757920881236,0.009356993939679925
29,3,5,0.03960918719160067,0.007433433386715111
29,4,5,0.15129184124450762,0.011337003865737097
29,5,5,0.16339449428982844,0.002208988541487036
29,6,5,0.03740347052403592,0.0076438742959088705
29,7,5,0.10458629081944679,0.015465294878479386
29,8,5,0.12478751357983756,0.007217662701899852
30,0,5,0.055065615763565036,0.004787517234921668
30,1,5,0.05068964000647944,0.007592028297155932
30,2,5,0.0541468211054025,0.013454791284726422
30,3,5,0.0491373374151272,0.013083598002904102
30,4,5,0.08324393968053494,0.007811983381621187
30,5,5,0.21664344997584534,0.019279506124264285
30,6,5,0.010789081502590791,0.00863941683388601
30,7,5,0.11554068145403987,0.00844090900142123
30,8,5,0.04343484933863053,0.00417445556701096
31,0,5,0.04972587151092178,0.00887297031722537
31,1,5,0.08019341043889627,0.007024752359936749
31,2,5,0.038611174638374934,0.009055844143874779
31,3,5,0.05868239653243386,0.009276472244985904
31,4,5,0.14035378257971814,0.011386321342428233
31,5,5,0.1121473065096672,0.005327082561045225
31,6,5,0.040918755767563875,0.006534556700603169
31,7,5,0.07976219879855292,0.006416692856593857
31,8,5,0.08471946059486986,0.010154623988414649
32,0,5,0.07610082830958757,0.018093704811854062
32,1,5,0.0635231725932405,0.011752086912110271
32,2,5,0.06675067869217015,0.007917926152198473
32,3,5,0.021430006174294247,0.009599438058115037
32,4,5,0.19418662260692152,0.011088429726640894
32,5,5,0.14283215478952532,0.01333062113540521
32,6,5,0.05479885383578731,0.012439330687751948
32,7,5,0.11599768362697578,0.008166944333686345
32,8,5,0.0843134458595753,0.005508695840314827
33,0,5,0.05659028651265676,0.007327862064026564
33,1,5,0.052628809177534965,0.023227050420597865
33,2,5,0.027462738106576557,0.01210084868884403
33,3,5,0.05815553938791973,0.008550519771370342
33,4,5,0.11992906635279135,0.007240916215635133
33,5,5,0.09098689052348682,0.018037018835806513
33,6,5,0.05503048687606764,0.00614981974684554
33,7,5,0.08226164831294733,0.008493753217598887
33,8,5,0.08491003048219578,0.010074276150174992
34,0,5,0.11681328672945963,0.021413246484671807
34,1,5,0.06355310507356278,0.008884778924674359
34,2,5,0.07884337643311234,0.015577731960738505
34,3,5,0.037895799047432385,0.010353835369190587
34,4,5,0.06901895401369999,0.012809110280761577
34,5,5,0.1388613608466908,0.014740315369047123
34,6,5,0.03531836539416766,0.01599278397926609
34,7,5,0.12964544941573128,0.00665997374362228
34,8,5,0.10873577566783424,0.010214345599809839
35,0,5,0.07809639577248535,0.008912293828671689
35,1,5,0.03473196030796015,0.011259514087765944
35,2,5,0.031098727143480453,0.0044798264348102634
35,3,5,0.05013214082784208,0.006216749852445219
35,4,5,0.05217913353545563,0.014615294608969171
35,5,5,0.13216640509019267,0.015036033952434838
35,6,5,0.023184667899261678,0.008234314948660944
35,7,5,0.07734499166179047,0.00744587855039873
35,8,5,0.022223976160013904,0.016402382056046844
36,0,5,0.031184224614752853,0.014853027678799912
36,1,5,0.10710961355731481,0.010345299241969088
36,2,5,0.04063458318621536,0.012397372211414744
36,3,5,0.02956832660066395,0.013144407799038638
36,4,5,0.12724759832763904,0.014084672681317375
36,5,5,0.06391687069649335,0.014691554857809389
36,6,5,0.035650677771010456,0.008134455328093591
36,7,5,0.13395331133763735,0.008794657803945541
36,8,5,0.065236326315779,0.008606552408625727
37,0,5,0.06950275687918309,0.02102120481560737
37,1,5,0.08886437526347479,0.011755846418903655
37,2,5,0.07240455077429772,0.013689040328939035
37,3,5,0.018729163828954686,0.014415931906037807
37,4,5,0.13415323917262872,0.01388637765842478
37,5,5,0.12270084322921346,0.020173550644567984
37,6,5,0.022912260782888928,0.007463050446759993
37,7,5,0.11767993884527965,0.01585740543120693
37,8,5,0.057782830270547335,0.004225559372248021
38,0,5,0.08165330222335773,0.010827648045027097
38,1,5,0.06738461323451157,0.014012206484551516
38,2,5,0.05058069103936835,0.008251997044178077
38,3,5,0.07220892797689886,0.008836490573155829
38,4,5,0.08637845189982744,0.015124862080172854
38,5,5,0.11387075757359646,0.018105899556711866
38,6,5,0.04684424189837062,0.01770320917816868
38,7,5,0.10207065963007877,0.015867620287236324
38,8,5,0.0867923294877238,0.012332241640947369
39,0,5,0.08527439189204619,0.012315650079239439
39,1,5,0.11296255651706295,0.014749106684641708
39,2,5,0.08826011558490572,0.013101420924016996
39,3,5,0.07204977523937495,0.02112425632327531
39,4,5,0.0906398205271961,0.017297693756033922
39,5,5,0.152744008090815,0.01142804693520318
39,6,5,0.07291837239366653,0.0065981042424455485
39,7,5,0.12122670471041566,0.015601055266527365
39,8,5,0.08077725483805456,0.016272314668014834
40,0,5,0.062468272354076794,0.015171136804088676
40,1,5,0.08015553169656515,0.011431339508487185
40,2,5,0.030597238643188595,0.006111003683557238
40,3,5,0.03318181312126926,0.009692040407768231
40,4,5,0.12409644458046461,0.009870864040894283
40,5,5,0.08625545357514808,0.010147964771573465
40,6,5,0.0374881934340382,0.0065634318978125515
40,7,5,0.11464881029368887,0.006559908837172763
40,8,5,0.10306871210932574,0.013779972718896707
