subject,block,block_width,feature_channel,gate_mean,gate_sd
156,0,32,0,0.4539664685726166,0.07579264789819717
156,0,32,1,0.4867786765098572,0.10298152267932892
156,0,32,2,0.6362189054489136,0.07081529498100281
156,0,32,3,0.3925432562828064,0.07321701943874359
156,0,32,4,0.4901587963104248,0.07406354695558548
156,0,32,5,0.47249698638916016,0.03287401795387268
156,0,32,6,0.5677174925804138,0.054972510784864426
156,0,32,7,0.5933375358581543,0.08769812434911728
156,0,32,8,0.5103296637535095,0.028290526941418648
156,0,32,9,0.3996063768863678,0.06031695380806923
156,0,32,10,0.34220021963119507,0.04955681413412094
156,0,32,11,0.5024586915969849,0.06255399435758591
156,0,32,12,0.4872726500034332,0.05038246139883995
156,0,32,13,0.366463840007782,0.05759182572364807
156,0,32,14,0.5653625726699829,0.0462435819208622
156,0,32,15,0.5796642303466797,0.0461537204682827
156,0,32,16,0.4921918213367462,0.029082080349326134
156,0,32,17,0.47574692964553833,0.09859480708837509
156,0,32,18,0.6029562950134277,0.02728443220257759
156,0,32,19,0.45534858107566833,0.0498000904917717
156,0,32,20,0.5985357761383057,0.021527903154492378
156,0,32,21,0.5020890831947327,0.036475036293268204
156,0,32,22,0.43830522894859314,0.06866223365068436
156,0,32,23,0.345595121383667,0.037487298250198364
156,0,32,24,0.3916241228580475,0.058783382177352905
156,0,32,25,0.48921218514442444,0.0274472925812006
156,0,32,26,0.47596633434295654,0.07700781524181366
156,0,32,27,0.5074927806854248,0.027472497895359993
156,0,32,28,0.3865511417388916,0.056392088532447815
156,0,32,29,0.4286295771598816,0.058083660900592804
156,0,32,30,0.43836918473243713,0.07411028444766998
156,0,32,31,0.5662409663200378,0.09768250584602356
156,1,32,0,0.5551828145980835,0.04344473406672478
156,1,32,1,0.43410855531692505,0.02545105665922165
156,1,32,2,0.43161022663116455,0.03581845387816429
156,1,32,3,0.39257797598838806,0.03805747255682945
156,1,32,4,0.39901718497276306,0.08723343908786774
156,1,32,5,0.4347109794616699,0.034296780824661255
156,1,32,6,0.4630148708820343,0.05086154863238335
156,1,32,7,0.47793975472450256,0.053434841334819794
156,1,32,8,0.5192919373512268,0.037556979805231094
156,1,32,9,0.6206141114234924,0.040388353168964386
156,1,32,10,0.6271843910217285,0.04331357777118683
156,1,32,11,0.5137580633163452,0.017822040244936943
156,1,32,12,0.44133827090263367,0.01335583534091711
156,1,32,13,0.5275869965553284,0.0441773422062397
156,1,32,14,0.43924129009246826,0.022386208176612854
156,1,32,15,0.5234901309013367,0.040819279849529266
156,1,32,16,0.6555752158164978,0.05185474082827568
156,1,32,17,0.48401033878326416,0.030156821012496948
156,1,32,18,0.3679591715335846,0.03232325240969658
156,1,32,19,0.6177304983139038,0.025670981034636497
156,1,32,20,0.5609599947929382,0.044535692781209946
156,1,32,21,0.5796161890029907,0.029778171330690384
156,1,32,22,0.5575636029243469,0.04522883892059326
156,1,32,23,0.6505894064903259,0.03686871752142906
156,1,32,24,0.6178171038627625,0.016772303730249405
156,1,32,25,0.5265489220619202,0.055895376950502396
156,1,32,26,0.4382479190826416,0.033594537526369095
156,1,32,27,0.40688055753707886,0.07611067593097687
156,1,32,28,0.4187847375869751,0.03334395959973335
156,1,32,29,0.41050422191619873,0.0412927120923996
156,1,32,30,0.5204796195030212,0.02615254558622837
156,1,32,31,0.4168258309364319,0.03765726462006569
156,2,64,0,0.5205253958702087,0.05569647252559662
156,2,64,1,0.5225141048431396,0.03407434746623039
156,2,64,2,0.5242705941200256,0.06040896102786064
156,2,64,3,0.45485830307006836,0.01844324916601181
156,2,64,4,0.45923325419425964,0.0850798711180687
156,2,64,5,0.49367234110832214,0.10059498250484467
156,2,64,6,0.4145354628562927,0.06199132278561592
156,2,64,7,0.448423832654953,0.03963475301861763
156,2,64,8,0.4262717366218567,0.08833509683609009
156,2,64,9,0.442086786031723,0.06036553159356117
156,2,64,10,0.51949143409729,0.0824899822473526
156,2,64,11,0.5495221018791199,0.07288739830255508
156,2,64,12,0.43929433822631836,0.05763299763202667
156,2,64,13,0.4504894018173218,0.0649176687002182
156,2,64,14,0.4481160342693329,0.1039206013083458
156,2,64,15,0.5474779009819031,0.051736779510974884
156,2,64,16,0.4318802058696747,0.11342282593250275
156,2,64,17,0.552361249923706,0.06466991454362869
156,2,64,18,0.5012115836143494,0.06822606176137924
156,2,64,19,0.5391759872436523,0.08534356951713562
156,2,64,20,0.4225601553916931,0.08397342264652252
156,2,64,21,0.4450085759162903,0.08398441225290298
156,2,64,22,0.4053891897201538,0.06190294772386551
156,2,64,23,0.577092707157135,0.0557657815515995
156,2,64,24,0.35493987798690796,0.08409532159566879
156,2,64,25,0.5934809446334839,0.09245459735393524
156,2,64,26,0.5224146842956543,0.1029757484793663
156,2,64,27,0.4229319393634796,0.08997095376253128
156,2,64,28,0.6217237114906311,0.07240213453769684
156,2,64,29,0.46880584955215454,0.05068298429250717
156,2,64,30,0.4605322778224945,0.03162059187889099
156,2,64,31,0.38061070442199707,0.08107805252075195
156,2,64,32,0.5641461610794067,0.04194111004471779
156,2,64,33,0.4995783269405365,0.0750943198800087
156,2,64,34,0.5987250208854675,0.059676360338926315
156,2,64,35,0.4384908676147461,0.05764375254511833
156,2,64,36,0.4958905875682831,0.07509808987379074
156,2,64,37,0.37278518080711365,0.1161227598786354
156,2,64,38,0.5389918684959412,0.05594616010785103
156,2,64,39,0.38082942366600037,0.06715809553861618
156,2,64,40,0.5482303500175476,0.08385494351387024
156,2,64,41,0.46697184443473816,0.07130473852157593
156,2,64,42,0.5081706643104553,0.07446704804897308
156,2,64,43,0.43965116143226624,0.1054874137043953
156,2,64,44,0.5685552954673767,0.07978477329015732
156,2,64,45,0.5595443248748779,0.06014898046851158
156,2,64,46,0.44674262404441833,0.07744477689266205
156,2,64,47,0.4123615324497223,0.03284823149442673
156,2,64,48,0.43696141242980957,0.06843062490224838
156,2,64,49,0.46205979585647583,0.06089315190911293
156,2,64,50,0.4137628972530365,0.05826488509774208
156,2,64,51,0.5133240222930908,0.0894617885351181
156,2,64,52,0.41705039143562317,0.05435974895954132
156,2,64,53,0.5410829186439514,0.0879325196146965
156,2,64,54,0.5093888640403748,0.047512855380773544
156,2,64,55,0.5410664677619934,0.0930793434381485
156,2,64,56,0.4370628297328949,0.06770660728216171
156,2,64,57,0.4869655966758728,0.06202996149659157
156,2,64,58,0.40040144324302673,0.04687664285302162
156,2,64,59,0.47355785965919495,0.07337915152311325
156,2,64,60,0.4542940855026245,0.0745357871055603
156,2,64,61,0.4140565097332001,0.05260532349348068
156,2,64,62,0.4071911573410034,0.09017360210418701
156,2,64,63,0.5330806374549866,0.03638327866792679
156,3,64,0,0.5019146800041199,0.045299652963876724
156,3,64,1,0.4800459146499634,0.05432342737913132
156,3,64,2,0.5321207046508789,0.051679614931344986
156,3,64,3,0.45759737491607666,0.051144134253263474
156,3,64,4,0.5662804245948792,0.04588254168629646
156,3,64,5,0.5252941846847534,0.04048334062099457
156,3,64,6,0.5456209182739258,0.0579107366502285
156,3,64,7,0.4692489206790924,0.026970697566866875
156,3,64,8,0.4268115758895874,0.0446794293820858
156,3,64,9,0.48377254605293274,0.029573578387498856
156,3,64,10,0.43968749046325684,0.05873109772801399
156,3,64,11,0.42781904339790344,0.03878052905201912
156,3,64,12,0.4745437204837799,0.042557861655950546
156,3,64,13,0.45762237906455994,0.051197126507759094
156,3,64,14,0.6073044538497925,0.05709318444132805
156,3,64,15,0.47113481163978577,0.023851506412029266
156,3,64,16,0.49982136487960815,0.06590148061513901
156,3,64,17,0.3815478980541229,0.07353201508522034
156,3,64,18,0.5777429342269897,0.025542937219142914
156,3,64,19,0.505344033241272,0.015934057533740997
156,3,64,20,0.5323168039321899,0.03121407888829708
156,3,64,21,0.4546760320663452,0.04477662220597267
156,3,64,22,0.4607126712799072,0.04040902480483055
156,3,64,23,0.4924761652946472,0.06779197603464127
156,3,64,24,0.45813503861427307,0.027552932500839233
156,3,64,25,0.39029017090797424,0.05823122709989548
156,3,64,26,0.35610947012901306,0.05513210594654083
156,3,64,27,0.565712034702301,0.10846659541130066
156,3,64,28,0.6075739860534668,0.04925164952874184
156,3,64,29,0.5399751663208008,0.022971536964178085
156,3,64,30,0.4424154460430145,0.025342926383018494
156,3,64,31,0.4239007234573364,0.02884947694838047
156,3,64,32,0.5594344735145569,0.0360586941242218
156,3,64,33,0.3869207501411438,0.04040871188044548
156,3,64,34,0.5707899332046509,0.0492430254817009
156,3,64,35,0.508816123008728,0.035824231803417206
156,3,64,36,0.37629538774490356,0.03454373776912689
156,3,64,37,0.48812970519065857,0.06886216998100281
156,3,64,38,0.6134945750236511,0.037737634032964706
156,3,64,39,0.5825455188751221,0.07722640037536621
156,3,64,40,0.4892634451389313,0.038938507437705994
156,3,64,41,0.44094303250312805,0.09200481325387955
156,3,64,42,0.5304727554321289,0.06525806337594986
156,3,64,43,0.41733476519584656,0.05529610812664032
156,3,64,44,0.5397669076919556,0.03408973664045334
156,3,64,45,0.47235479950904846,0.03352376073598862
156,3,64,46,0.400057315826416,0.06440240144729614
156,3,64,47,0.4777402877807617,0.032524190843105316
156,3,64,48,0.43053266406059265,0.03861750289797783
156,3,64,49,0.5774307250976562,0.020199893042445183
156,3,64,50,0.4303411543369293,0.08797580748796463
156,3,64,51,0.49996283650398254,0.04305948317050934
156,3,64,52,0.49400386214256287,0.05778306722640991
156,3,64,53,0.5252282023429871,0.06742836534976959
156,3,64,54,0.47354385256767273,0.02719911001622677
156,3,64,55,0.5236219167709351,0.05039553344249725
156,3,64,56,0.38999971747398376,0.0827607586979866
156,3,64,57,0.5842786431312561,0.04438834264874458
156,3,64,58,0.40532249212265015,0.042485807090997696
156,3,64,59,0.5289045572280884,0.03952277824282646
156,3,64,60,0.6122264266014099,0.03819258511066437
156,3,64,61,0.5664623379707336,0.043015576899051666
156,3,64,62,0.5407863259315491,0.042276531457901
156,3,64,63,0.5135319828987122,0.020901836454868317
156,4,128,0,0.43461668491363525,0.07568293809890747
156,4,128,1,0.3692046105861664,0.09340883791446686
156,4,128,2,0.5578902363777161,0.12318514287471771
156,4,128,3,0.5543298721313477,0.06763213127851486
156,4,128,4,0.5778936743736267,0.10524386167526245
156,4,128,5,0.646090030670166,0.07785771042108536
156,4,128,6,0.34666740894317627,0.0973922461271286
156,4,128,7,0.6250929236412048,0.1164545863866806
156,4,128,8,0.40341684222221375,0.1055254265666008
156,4,128,9,0.49362912774086,0.09999919682741165
156,4,128,10,0.4820123612880707,0.08724239468574524
156,4,128,11,0.41498225927352905,0.08985886722803116
156,4,128,12,0.5688502192497253,0.05379626899957657
156,4,128,13,0.4623313546180725,0.06898491084575653
156,4,128,14,0.544314980506897,0.07231432944536209
156,4,128,15,0.4083099365234375,0.07466929405927658
156,4,128,16,0.5301924347877502,0.0905756726861
156,4,128,17,0.4394664764404297,0.08174122124910355
156,4,128,18,0.4325205981731415,0.025900211185216904
156,4,128,19,0.5454708933830261,0.02569267712533474
156,4,128,20,0.4410899579524994,0.1474331021308899
156,4,128,21,0.45402759313583374,0.05925668403506279
156,4,128,22,0.4413079023361206,0.10573770850896835
156,4,128,23,0.36738061904907227,0.09520718455314636
156,4,128,24,0.6228403449058533,0.05919261649250984
156,4,128,25,0.49374109506607056,0.07744360715150833
156,4,128,26,0.5074212551116943,0.04778550565242767
156,4,128,27,0.5772800445556641,0.09351636469364166
156,4,128,28,0.3653584420681,0.10113371908664703
156,4,128,29,0.537858247756958,0.07522686570882797
156,4,128,30,0.5883620381355286,0.14422239363193512
156,4,128,31,0.5702155828475952,0.05793255940079689
156,4,128,32,0.6292464137077332,0.06315182894468307
156,4,128,33,0.441782146692276,0.07225090265274048
156,4,128,34,0.5890356302261353,0.10371781885623932
156,4,128,35,0.5800488591194153,0.0994136780500412
156,4,128,36,0.5140436291694641,0.02967734821140766
156,4,128,37,0.6488763093948364,0.11445758491754532
156,4,128,38,0.5231977701187134,0.08587189018726349
156,4,128,39,0.5976933836936951,0.03942229226231575
156,4,128,40,0.54897540807724,0.09088022261857986
156,4,128,41,0.5523542761802673,0.09712308645248413
156,4,128,42,0.5203525424003601,0.08615903556346893
156,4,128,43,0.48846834897994995,0.03777291253209114
156,4,128,44,0.6181294918060303,0.06506408751010895
156,4,128,45,0.5907114744186401,0.06248292699456215
156,4,128,46,0.39691397547721863,0.09833968430757523
156,4,128,47,0.6419984102249146,0.09727295488119125
156,4,128,48,0.6733075976371765,0.113116055727005
156,4,128,49,0.5164397954940796,0.09107862412929535
156,4,128,50,0.5363138318061829,0.05284606292843819
156,4,128,51,0.39372897148132324,0.09623204916715622
156,4,128,52,0.5578265190124512,0.10770688951015472
156,4,128,53,0.5359494090080261,0.11640127003192902
156,4,128,54,0.36568719148635864,0.14704282581806183
156,4,128,55,0.4712274372577667,0.09204964339733124
156,4,128,56,0.5115718245506287,0.05000174045562744
156,4,128,57,0.4428544044494629,0.07847581058740616
156,4,128,58,0.3142259418964386,0.12760761380195618
156,4,128,59,0.3095143437385559,0.06967173516750336
156,4,128,60,0.5957990884780884,0.0927223190665245
156,4,128,61,0.5977460145950317,0.07917888462543488
156,4,128,62,0.3974161148071289,0.11149674654006958
156,4,128,63,0.46027231216430664,0.06109846383333206
156,4,128,64,0.5032153129577637,0.07221882045269012
156,4,128,65,0.5220506191253662,0.09596490859985352
156,4,128,66,0.529609203338623,0.08420119434595108
156,4,128,67,0.6588563323020935,0.12898869812488556
156,4,128,68,0.742557168006897,0.13040722906589508
156,4,128,69,0.44653743505477905,0.11722913384437561
156,4,128,70,0.6239418983459473,0.08363001048564911
156,4,128,71,0.5741575956344604,0.13296957314014435
156,4,128,72,0.591103732585907,0.05671779066324234
156,4,128,73,0.31768879294395447,0.1394290030002594
156,4,128,74,0.5351791381835938,0.06355998665094376
156,4,128,75,0.38226518034935,0.10106372833251953
156,4,128,76,0.6279986500740051,0.13519714772701263
156,4,128,77,0.42781391739845276,0.0906655415892601
156,4,128,78,0.609027624130249,0.09205946326255798
156,4,128,79,0.5276431441307068,0.10340110957622528
156,4,128,80,0.4184376299381256,0.06345178186893463
156,4,128,81,0.5115589499473572,0.07675424963235855
156,4,128,82,0.4911547601222992,0.06294674426317215
156,4,128,83,0.5233805179595947,0.10431770235300064
156,4,128,84,0.4939826726913452,0.05426638573408127
156,4,128,85,0.4399993419647217,0.10483571141958237
156,4,128,86,0.49420687556266785,0.0938657596707344
156,4,128,87,0.5301371812820435,0.17669400572776794
156,4,128,88,0.47727513313293457,0.09756592661142349
156,4,128,89,0.43906277418136597,0.056502413004636765
156,4,128,90,0.5983682870864868,0.06782262772321701
156,4,128,91,0.6240399479866028,0.12476464360952377
156,4,128,92,0.4998193383216858,0.09171061962842941
156,4,128,93,0.4068584442138672,0.07264477759599686
156,4,128,94,0.507215142250061,0.11402318626642227
156,4,128,95,0.6689420342445374,0.11525671184062958
156,4,128,96,0.5481323599815369,0.050396595150232315
156,4,128,97,0.5883542895317078,0.09234460443258286
156,4,128,98,0.6799962520599365,0.1358715146780014
156,4,128,99,0.5310991406440735,0.12773743271827698
156,4,128,100,0.6495871543884277,0.060649577528238297
156,4,128,101,0.6194885969161987,0.08520970493555069
156,4,128,102,0.4706581234931946,0.08818227052688599
156,4,128,103,0.44875025749206543,0.06256046146154404
156,4,128,104,0.31979623436927795,0.10932423174381256
156,4,128,105,0.5983614921569824,0.058267030864953995
156,4,128,106,0.4701310098171234,0.0727735310792923
156,4,128,107,0.3621855080127716,0.06781992316246033
156,4,128,108,0.5909360647201538,0.0783187597990036
156,4,128,109,0.5822785496711731,0.09210284054279327
156,4,128,110,0.42268767952919006,0.055815909057855606
156,4,128,111,0.3962569236755371,0.09256589412689209
156,4,128,112,0.6243201494216919,0.06669022887945175
156,4,128,113,0.6347622871398926,0.03850000351667404
156,4,128,114,0.47974926233291626,0.07837569713592529
156,4,128,115,0.5803738832473755,0.11268027126789093
156,4,128,116,0.3722110390663147,0.050575170665979385
156,4,128,117,0.5675719380378723,0.08499585092067719
156,4,128,118,0.6923546195030212,0.09516281634569168
156,4,128,119,0.383602499961853,0.08344300836324692
156,4,128,120,0.5972347259521484,0.06824562698602676
156,4,128,121,0.5627914071083069,0.14909295737743378
156,4,128,122,0.5754976868629456,0.08884578198194504
156,4,128,123,0.5619497895240784,0.10095932334661484
156,4,128,124,0.4592820703983307,0.06422161310911179
156,4,128,125,0.534415066242218,0.04558713361620903
156,4,128,126,0.3293926417827606,0.08024808764457703
156,4,128,127,0.5503144264221191,0.12439398467540741
156,5,128,0,0.6040220260620117,0.051300354301929474
156,5,128,1,0.5884981155395508,0.06379364430904388
156,5,128,2,0.5877086520195007,0.04748660698533058
156,5,128,3,0.5078445076942444,0.03560648486018181
156,5,128,4,0.4920974671840668,0.04582800343632698
156,5,128,5,0.4865162968635559,0.03691575303673744
156,5,128,6,0.44218361377716064,0.07820542901754379
156,5,128,7,0.49593523144721985,0.04672970622777939
156,5,128,8,0.5030667185783386,0.028453683480620384
156,5,128,9,0.43685007095336914,0.06239311397075653
156,5,128,10,0.5463939309120178,0.052136972546577454
156,5,128,11,0.5923517346382141,0.09323270618915558
156,5,128,12,0.5007643103599548,0.04931899160146713
156,5,128,13,0.5314534902572632,0.023024341091513634
156,5,128,14,0.5197331309318542,0.04947900027036667
156,5,128,15,0.4505351483821869,0.09030608087778091
156,5,128,16,0.39330053329467773,0.0368785485625267
156,5,128,17,0.4257267415523529,0.1147211566567421
156,5,128,18,0.3947567641735077,0.044692158699035645
156,5,128,19,0.49695882201194763,0.11687634140253067
156,5,128,20,0.4308282136917114,0.08022549748420715
156,5,128,21,0.5977618098258972,0.06954959034919739
156,5,128,22,0.5436837673187256,0.02884388342499733
156,5,128,23,0.47736576199531555,0.07005622982978821
156,5,128,24,0.565396785736084,0.05055809020996094
156,5,128,25,0.4985175132751465,0.08962281793355942
156,5,128,26,0.5905450582504272,0.024236449971795082
156,5,128,27,0.44640401005744934,0.04343409836292267
156,5,128,28,0.5392544269561768,0.015522888861596584
156,5,128,29,0.46123555302619934,0.026994280517101288
156,5,128,30,0.46860238909721375,0.07391481101512909
156,5,128,31,0.6245099902153015,0.05905632674694061
156,5,128,32,0.49193406105041504,0.05614564195275307
156,5,128,33,0.41770139336586,0.042206231504678726
156,5,128,34,0.5427409410476685,0.03239208459854126
156,5,128,35,0.5736442804336548,0.08309479057788849
156,5,128,36,0.5347321629524231,0.06359443068504333
156,5,128,37,0.5865352153778076,0.09163030982017517
156,5,128,38,0.49879610538482666,0.10190055519342422
156,5,128,39,0.46683043241500854,0.04761114716529846
156,5,128,40,0.5297913551330566,0.09090738743543625
156,5,128,41,0.4649900197982788,0.030830949544906616
156,5,128,42,0.49027758836746216,0.02710413746535778
156,5,128,43,0.5443617701530457,0.06621493399143219
156,5,128,44,0.4637446701526642,0.06630180776119232
156,5,128,45,0.5663405060768127,0.05175602808594704
156,5,128,46,0.4534827172756195,0.11647778004407883
156,5,128,47,0.4537694752216339,0.029491771012544632
156,5,128,48,0.48776498436927795,0.08037783950567245
156,5,128,49,0.5734439492225647,0.041724830865859985
156,5,128,50,0.4664398729801178,0.0634450763463974
156,5,128,51,0.4848552346229553,0.039206914603710175
156,5,128,52,0.49793538451194763,0.09193545579910278
156,5,128,53,0.5368306040763855,0.058378588408231735
156,5,128,54,0.4165317416191101,0.07883533835411072
156,5,128,55,0.41296225786209106,0.05080808699131012
156,5,128,56,0.4983424246311188,0.0629589781165123
156,5,128,57,0.48206064105033875,0.08015917241573334
156,5,128,58,0.45296144485473633,0.02021138370037079
156,5,128,59,0.4304313659667969,0.03748257830739021
156,5,128,60,0.4376833140850067,0.10528187453746796
156,5,128,61,0.5211014151573181,0.10867178440093994
156,5,128,62,0.624677300453186,0.06362831592559814
156,5,128,63,0.5640038847923279,0.03988991305232048
156,5,128,64,0.48814505338668823,0.03928656503558159
156,5,128,65,0.49806222319602966,0.06857023388147354
156,5,128,66,0.47619113326072693,0.05528724938631058
156,5,128,67,0.541527509689331,0.06370673328638077
156,5,128,68,0.5775937438011169,0.0755990669131279
156,5,128,69,0.518994927406311,0.084029421210289
156,5,128,70,0.5212544202804565,0.04658229276537895
156,5,128,71,0.40328124165534973,0.06540147215127945
156,5,128,72,0.6148602366447449,0.042123839259147644
156,5,128,73,0.4765256941318512,0.08553048223257065
156,5,128,74,0.49610522389411926,0.02498306706547737
156,5,128,75,0.5436121821403503,0.09765106439590454
156,5,128,76,0.44351914525032043,0.06232907250523567
156,5,128,77,0.4400113523006439,0.08379044383764267
156,5,128,78,0.5902469158172607,0.0816916823387146
156,5,128,79,0.4657664895057678,0.0501592680811882
156,5,128,80,0.5149463415145874,0.07939600944519043
156,5,128,81,0.490228533744812,0.08184575289487839
156,5,128,82,0.5277363657951355,0.07424037903547287
156,5,128,83,0.4172430634498596,0.09114596247673035
156,5,128,84,0.4503994584083557,0.04376458376646042
156,5,128,85,0.5186139941215515,0.08395091444253922
156,5,128,86,0.5478389263153076,0.07801581174135208
156,5,128,87,0.4988451302051544,0.06896054744720459
156,5,128,88,0.47283822298049927,0.08930011093616486
156,5,128,89,0.5499659180641174,0.05971493199467659
156,5,128,90,0.5242344737052917,0.06685496866703033
156,5,128,91,0.5280041098594666,0.04338289424777031
156,5,128,92,0.41450849175453186,0.04207237437367439
156,5,128,93,0.4675186574459076,0.0739167332649231
156,5,128,94,0.4170300364494324,0.03663783520460129
156,5,128,95,0.35389161109924316,0.0973905399441719
156,5,128,96,0.47786274552345276,0.052759647369384766
156,5,128,97,0.5516474843025208,0.09445884078741074
156,5,128,98,0.4515325725078583,0.03791080787777901
156,5,128,99,0.586575984954834,0.05821964889764786
156,5,128,100,0.525628924369812,0.06378957629203796
156,5,128,101,0.5615084767341614,0.06988944858312607
156,5,128,102,0.6402203440666199,0.05546193942427635
156,5,128,103,0.49627619981765747,0.03950001299381256
156,5,128,104,0.46307724714279175,0.11225569248199463
156,5,128,105,0.48903706669807434,0.07386022806167603
156,5,128,106,0.5954869389533997,0.07704892009496689
156,5,128,107,0.5743975043296814,0.06523407995700836
156,5,128,108,0.5600448250770569,0.06228351965546608
156,5,128,109,0.525295615196228,0.05356082320213318
156,5,128,110,0.5699025392532349,0.07058840990066528
156,5,128,111,0.5228064060211182,0.04991493001580238
156,5,128,112,0.5272252559661865,0.09566062688827515
156,5,128,113,0.5798584818840027,0.033521510660648346
156,5,128,114,0.5379389524459839,0.08800777047872543
156,5,128,115,0.5875397324562073,0.09083440154790878
156,5,128,116,0.5087358355522156,0.1133035272359848
156,5,128,117,0.5093129873275757,0.032640062272548676
156,5,128,118,0.5694544911384583,0.05126542970538139
156,5,128,119,0.4244150221347809,0.04529091715812683
156,5,128,120,0.5275439620018005,0.027892136946320534
156,5,128,121,0.5602772831916809,0.09612194448709488
156,5,128,122,0.4891648292541504,0.08954615890979767
156,5,128,123,0.4884248971939087,0.055964671075344086
156,5,128,124,0.4984305500984192,0.048339422792196274
156,5,128,125,0.5275355577468872,0.026411429047584534
156,5,128,126,0.49333688616752625,0.059245962649583817
156,5,128,127,0.4711572229862213,0.0713675245642662
185,0,32,0,0.4705245792865753,0.07142937183380127
185,0,32,1,0.5980815291404724,0.03517119958996773
185,0,32,2,0.3981718420982361,0.08751363307237625
185,0,32,3,0.57651287317276,0.030751440674066544
185,0,32,4,0.6665073037147522,0.09075939655303955
185,0,32,5,0.5810428857803345,0.10077501833438873
185,0,32,6,0.4361155033111572,0.08879280835390091
185,0,32,7,0.6578020453453064,0.0922354981303215
185,0,32,8,0.4587998390197754,0.03740489110350609
185,0,32,9,0.5613128542900085,0.039005156606435776
185,0,32,10,0.666700005531311,0.064570851624012
185,0,32,11,0.5115031599998474,0.05638238415122032
185,0,32,12,0.39344164729118347,0.08047963678836823
185,0,32,13,0.6383488178253174,0.05737897753715515
185,0,32,14,0.5235596299171448,0.11317528039216995
185,0,32,15,0.6622306704521179,0.05275309085845947
185,0,32,16,0.37107497453689575,0.031026162207126617
185,0,32,17,0.5116821527481079,0.09024126082658768
185,0,32,18,0.5115980505943298,0.05917522683739662
185,0,32,19,0.36287546157836914,0.07819332927465439
185,0,32,20,0.5296272039413452,0.06416402012109756
185,0,32,21,0.3950861394405365,0.04759807139635086
185,0,32,22,0.49514028429985046,0.08631427586078644
185,0,32,23,0.4677131772041321,0.06071478873491287
185,0,32,24,0.5101810097694397,0.04894162714481354
185,0,32,25,0.3809579908847809,0.06128644570708275
185,0,32,26,0.4306359887123108,0.06906753033399582
185,0,32,27,0.49042779207229614,0.0827847495675087
185,0,32,28,0.49098438024520874,0.09429419040679932
185,0,32,29,0.3786940276622772,0.03764116019010544
185,0,32,30,0.487330824136734,0.03040402941405773
185,0,32,31,0.5563046932220459,0.01979011669754982
185,1,32,0,0.6384126543998718,0.06066703051328659
185,1,32,1,0.4957939088344574,0.05067102983593941
185,1,32,2,0.5255913138389587,0.03081548772752285
185,1,32,3,0.5372572541236877,0.07731841504573822
185,1,32,4,0.5525767803192139,0.06513431668281555
185,1,32,5,0.5187792778015137,0.06310670077800751
185,1,32,6,0.5612815618515015,0.07753913104534149
185,1,32,7,0.5200400948524475,0.05834353715181351
185,1,32,8,0.4552134573459625,0.05582710728049278
185,1,32,9,0.42150232195854187,0.06990981847047806
185,1,32,10,0.4983693063259125,0.06004216521978378
185,1,32,11,0.3895878195762634,0.03079790249466896
185,1,32,12,0.4931133985519409,0.047852929681539536
185,1,32,13,0.5009528398513794,0.04889530688524246
185,1,32,14,0.4189963936805725,0.07976041734218597
185,1,32,15,0.5690867304801941,0.09841085225343704
185,1,32,16,0.4490276277065277,0.06502516567707062
185,1,32,17,0.5138713717460632,0.07165241986513138
185,1,32,18,0.5033932328224182,0.0718122124671936
185,1,32,19,0.4994744658470154,0.06259993463754654
185,1,32,20,0.5796487927436829,0.04787173867225647
185,1,32,21,0.4836888909339905,0.055969659239053726
185,1,32,22,0.4689728617668152,0.05581950023770332
185,1,32,23,0.5132645964622498,0.05917878821492195
185,1,32,24,0.39829257130622864,0.043098852038383484
185,1,32,25,0.5416815280914307,0.04241384193301201
185,1,32,26,0.37879857420921326,0.05606479197740555
185,1,32,27,0.5938119292259216,0.022252539172768593
185,1,32,28,0.5122026205062866,0.0651472881436348
185,1,32,29,0.5374323129653931,0.04783456400036812
185,1,32,30,0.620642364025116,0.03643125668168068
185,1,32,31,0.46297502517700195,0.06365808099508286
185,2,64,0,0.5979997515678406,0.06443038582801819
185,2,64,1,0.43020766973495483,0.08410065621137619
185,2,64,2,0.4384208619594574,0.11800723522901535
185,2,64,3,0.43553873896598816,0.05613420531153679
185,2,64,4,0.5112282633781433,0.06611206382513046
185,2,64,5,0.565310001373291,0.06987341493368149
185,2,64,6,0.40155166387557983,0.05304546281695366
185,2,64,7,0.4298175573348999,0.07160476595163345
185,2,64,8,0.5866501927375793,0.05594915896654129
185,2,64,9,0.4087333381175995,0.07272584736347198
185,2,64,10,0.5153780579566956,0.13602474331855774
185,2,64,11,0.5915977954864502,0.04329285770654678
185,2,64,12,0.40963318943977356,0.050996579229831696
185,2,64,13,0.5276392102241516,0.12153096497058868
185,2,64,14,0.4294663667678833,0.09546355158090591
185,2,64,15,0.4894165098667145,0.11343953758478165
185,2,64,16,0.48472660779953003,0.0880802571773529
185,2,64,17,0.5630356073379517,0.04491574689745903
185,2,64,18,0.4690755605697632,0.08977567404508591
185,2,64,19,0.5366960167884827,0.0979083701968193
185,2,64,20,0.41198983788490295,0.04672130197286606
185,2,64,21,0.5450858473777771,0.0708111822605133
185,2,64,22,0.6003640294075012,0.064209945499897
185,2,64,23,0.4834980368614197,0.05039340257644653
185,2,64,24,0.4929734170436859,0.08173583447933197
185,2,64,25,0.6361762881278992,0.03697489574551582
185,2,64,26,0.37493082880973816,0.07911522686481476
185,2,64,27,0.5022113919258118,0.09308655560016632
185,2,64,28,0.5051563382148743,0.045816145837306976
185,2,64,29,0.3518153429031372,0.06180563196539879
185,2,64,30,0.449839323759079,0.08932478725910187
185,2,64,31,0.5931351780891418,0.08374745398759842
185,2,64,32,0.440335750579834,0.07794410735368729
185,2,64,33,0.3744707703590393,0.05529537796974182
185,2,64,34,0.5982161164283752,0.08451739698648453
185,2,64,35,0.6158654689788818,0.07967007905244827
185,2,64,36,0.48520058393478394,0.09890681505203247
185,2,64,37,0.4215279221534729,0.04571126401424408
185,2,64,38,0.5488505363464355,0.058522339910268784
185,2,64,39,0.4929073452949524,0.08877605199813843
185,2,64,40,0.42111748456954956,0.08073076605796814
185,2,64,41,0.4010447859764099,0.07361710071563721
185,2,64,42,0.5549286007881165,0.11471668630838394
185,2,64,43,0.5468928813934326,0.06909234821796417
185,2,64,44,0.4299435019493103,0.09902778267860413
185,2,64,45,0.48400282859802246,0.032022759318351746
185,2,64,46,0.39416372776031494,0.07708558440208435
185,2,64,47,0.45368096232414246,0.08813058584928513
185,2,64,48,0.40968114137649536,0.06880905479192734
185,2,64,49,0.5156344175338745,0.08074074238538742
185,2,64,50,0.4450884759426117,0.07230070233345032
185,2,64,51,0.4927813708782196,0.08908741921186447
185,2,64,52,0.4728827178478241,0.10859662294387817
185,2,64,53,0.5586742758750916,0.05864795669913292
185,2,64,54,0.420144647359848,0.07322653383016586
185,2,64,55,0.409233033657074,0.07703673839569092
185,2,64,56,0.6329842209815979,0.08661885559558868
185,2,64,57,0.35388877987861633,0.0717616081237793
185,2,64,58,0.4176403880119324,0.07842527329921722
185,2,64,59,0.5390634536743164,0.10668677091598511
185,2,64,60,0.6660347580909729,0.06960170716047287
185,2,64,61,0.6203893423080444,0.07306985557079315
185,2,64,62,0.40541887283325195,0.11236142367124557
185,2,64,63,0.4571083188056946,0.03821003437042236
185,3,64,0,0.5855159163475037,0.07328024506568909
185,3,64,1,0.5512254238128662,0.09896770864725113
185,3,64,2,0.4480506479740143,0.08035856485366821
185,3,64,3,0.4582075774669647,0.0629461333155632
185,3,64,4,0.44745033979415894,0.07928548753261566
185,3,64,5,0.5343378782272339,0.09167233109474182
185,3,64,6,0.4921618103981018,0.08414212614297867
185,3,64,7,0.43701276183128357,0.062001246958971024
185,3,64,8,0.528088390827179,0.03626438230276108
185,3,64,9,0.4170835018157959,0.05935028940439224
185,3,64,10,0.606792151927948,0.05538143590092659
185,3,64,11,0.4223972260951996,0.05571284517645836
185,3,64,12,0.42105939984321594,0.11438247561454773
185,3,64,13,0.42368438839912415,0.07281303405761719
185,3,64,14,0.5379936695098877,0.08728387951850891
185,3,64,15,0.4882203936576843,0.11571571975946426
185,3,64,16,0.49160483479499817,0.10372257977724075
185,3,64,17,0.5186648368835449,0.137131467461586
185,3,64,18,0.5363455414772034,0.04630846530199051
185,3,64,19,0.47464990615844727,0.09472322463989258
185,3,64,20,0.4732052981853485,0.07038843631744385
185,3,64,21,0.42285001277923584,0.09010516852140427
185,3,64,22,0.42403608560562134,0.09395139664411545
185,3,64,23,0.5008995532989502,0.08465766161680222
185,3,64,24,0.44039809703826904,0.051431138068437576
185,3,64,25,0.5743476152420044,0.08274619281291962
185,3,64,26,0.42066800594329834,0.05194811150431633
185,3,64,27,0.46615973114967346,0.03820279613137245
185,3,64,28,0.5735235214233398,0.08824571222066879
185,3,64,29,0.5395798683166504,0.05426391214132309
185,3,64,30,0.44721168279647827,0.03940621763467789
185,3,64,31,0.4292043447494507,0.07709915190935135
185,3,64,32,0.4958292245864868,0.08112328499555588
185,3,64,33,0.3849124610424042,0.10377002507448196
185,3,64,34,0.5593864917755127,0.09949201345443726
185,3,64,35,0.5317968726158142,0.09469357132911682
185,3,64,36,0.5552497506141663,0.08575791120529175
185,3,64,37,0.5288574695587158,0.07701495289802551
185,3,64,38,0.490499347448349,0.03811443969607353
185,3,64,39,0.3617277145385742,0.048080895096063614
185,3,64,40,0.5513225197792053,0.07497332245111465
185,3,64,41,0.5203070044517517,0.08461185544729233
185,3,64,42,0.4953126311302185,0.04644279181957245
185,3,64,43,0.5548893213272095,0.08276703953742981
185,3,64,44,0.5085288882255554,0.0792219415307045
185,3,64,45,0.5034019351005554,0.061350274831056595
185,3,64,46,0.48339778184890747,0.07461420446634293
185,3,64,47,0.6152806282043457,0.05433220788836479
185,3,64,48,0.4868937134742737,0.08129533380270004
185,3,64,49,0.49314817786216736,0.08284657448530197
185,3,64,50,0.44919657707214355,0.03346974402666092
185,3,64,51,0.5078502297401428,0.1078629121184349
185,3,64,52,0.5915994644165039,0.07063063979148865
185,3,64,53,0.578261137008667,0.0559222549200058
185,3,64,54,0.39431115984916687,0.04180074483156204
185,3,64,55,0.4447811543941498,0.07956606894731522
185,3,64,56,0.5251696109771729,0.08148783445358276
185,3,64,57,0.39831236004829407,0.04916522279381752
185,3,64,58,0.4649723172187805,0.06285258382558823
185,3,64,59,0.395686537027359,0.1132459044456482
185,3,64,60,0.4535287320613861,0.08884622901678085
185,3,64,61,0.3972913920879364,0.07251489907503128
185,3,64,62,0.49805349111557007,0.05176015943288803
185,3,64,63,0.445403128862381,0.06975652277469635
185,4,128,0,0.47693222761154175,0.1693713665008545
185,4,128,1,0.42955416440963745,0.10491256415843964
185,4,128,2,0.5815432071685791,0.09714395552873611
185,4,128,3,0.47211888432502747,0.088143490254879
185,4,128,4,0.5686994791030884,0.09951824694871902
185,4,128,5,0.3540149927139282,0.07802051305770874
185,4,128,6,0.48380815982818604,0.1024845540523529
185,4,128,7,0.4593604803085327,0.076429583132267
185,4,128,8,0.6364099979400635,0.13074618577957153
185,4,128,9,0.5156490802764893,0.17035704851150513
185,4,128,10,0.5487452745437622,0.17030152678489685
185,4,128,11,0.6118341684341431,0.11822139471769333
185,4,128,12,0.6720202565193176,0.1847476065158844
185,4,128,13,0.537872314453125,0.13158659636974335
185,4,128,14,0.45048704743385315,0.12907366454601288
185,4,128,15,0.5238319039344788,0.13869990408420563
185,4,128,16,0.5265817642211914,0.12004491686820984
185,4,128,17,0.5759630799293518,0.12701599299907684
185,4,128,18,0.4837702512741089,0.0653744786977768
185,4,128,19,0.6501598954200745,0.10995566844940186
185,4,128,20,0.523840606212616,0.11261989176273346
185,4,128,21,0.6353024244308472,0.09542766958475113
185,4,128,22,0.571868360042572,0.07811065018177032
185,4,128,23,0.4350455403327942,0.15244436264038086
185,4,128,24,0.30429863929748535,0.14778801798820496
185,4,128,25,0.5163611769676208,0.189420685172081
185,4,128,26,0.695070743560791,0.1290591061115265
185,4,128,27,0.3616950213909149,0.1367529034614563
185,4,128,28,0.39918410778045654,0.17346036434173584
185,4,128,29,0.4945201575756073,0.17840778827667236
185,4,128,30,0.30519628524780273,0.11436500400304794
185,4,128,31,0.49025997519493103,0.1382390707731247
185,4,128,32,0.5042075514793396,0.09042162448167801
185,4,128,33,0.5496149659156799,0.22389325499534607
185,4,128,34,0.5335853695869446,0.2197689712047577
185,4,128,35,0.4356532394886017,0.13882271945476532
185,4,128,36,0.4716886281967163,0.135703906416893
185,4,128,37,0.5352010726928711,0.16364532709121704
185,4,128,38,0.6013133525848389,0.1511930525302887
185,4,128,39,0.5834398865699768,0.22971390187740326
185,4,128,40,0.5678926706314087,0.07190191000699997
185,4,128,41,0.6360049247741699,0.1587982028722763
185,4,128,42,0.5000908970832825,0.10261192172765732
185,4,128,43,0.5905085802078247,0.10576024651527405
185,4,128,44,0.6172505021095276,0.25631585717201233
185,4,128,45,0.6386082768440247,0.08258160203695297
185,4,128,46,0.6218746900558472,0.12098144739866257
185,4,128,47,0.485442578792572,0.0861857533454895
185,4,128,48,0.5034927129745483,0.08848924189805984
185,4,128,49,0.6096211671829224,0.10650897771120071
185,4,128,50,0.3828008770942688,0.1374819278717041
185,4,128,51,0.48656004667282104,0.08519963175058365
185,4,128,52,0.6132851243019104,0.14865562319755554
185,4,128,53,0.5211885571479797,0.17337357997894287
185,4,128,54,0.4467713236808777,0.15981021523475647
185,4,128,55,0.5652620792388916,0.04678768292069435
185,4,128,56,0.4779053330421448,0.09966447204351425
185,4,128,57,0.5318617820739746,0.11281008273363113
185,4,128,58,0.49395474791526794,0.16366508603096008
185,4,128,59,0.6920913457870483,0.21319344639778137
185,4,128,60,0.612492024898529,0.06223084777593613
185,4,128,61,0.38435396552085876,0.2970523238182068
185,4,128,62,0.5143142342567444,0.06100727990269661
185,4,128,63,0.5950098633766174,0.11018379032611847
185,4,128,64,0.34531503915786743,0.08869699388742447
185,4,128,65,0.614367663860321,0.13437379896640778
185,4,128,66,0.5758448839187622,0.195253387093544
185,4,128,67,0.5898112654685974,0.09707003831863403
185,4,128,68,0.5168885588645935,0.15519724786281586
185,4,128,69,0.5924272537231445,0.1745828092098236
185,4,128,70,0.49250784516334534,0.22785820066928864
185,4,128,71,0.5094954371452332,0.19718889892101288
185,4,128,72,0.3980841040611267,0.1173224076628685
185,4,128,73,0.5493066310882568,0.1080458015203476
185,4,128,74,0.4970227777957916,0.14724034070968628
185,4,128,75,0.5337070822715759,0.21426178514957428
185,4,128,76,0.43319886922836304,0.2218295931816101
185,4,128,77,0.5118334889411926,0.1679859608411789
185,4,128,78,0.4346840977668762,0.059191398322582245
185,4,128,79,0.5434066653251648,0.10963243246078491
185,4,128,80,0.45338931679725647,0.0939047709107399
185,4,128,81,0.4656997323036194,0.0734594538807869
185,4,128,82,0.5424227714538574,0.20192186534404755
185,4,128,83,0.6948257088661194,0.10481514036655426
185,4,128,84,0.38843780755996704,0.06994087249040604
185,4,128,85,0.5089297890663147,0.11913824826478958
185,4,128,86,0.4068250358104706,0.26748421788215637
185,4,128,87,0.5747552514076233,0.15696480870246887
185,4,128,88,0.5466300845146179,0.07067258656024933
185,4,128,89,0.48426440358161926,0.1876547932624817
185,4,128,90,0.42893898487091064,0.1508185714483261
185,4,128,91,0.5878867506980896,0.14185954630374908
185,4,128,92,0.5787231922149658,0.11204147338867188
185,4,128,93,0.6000184416770935,0.051516953855752945
185,4,128,94,0.4623606204986572,0.12197370827198029
185,4,128,95,0.5111882090568542,0.1035902351140976
185,4,128,96,0.6594876050949097,0.1157052293419838
185,4,128,97,0.5999372005462646,0.07827454060316086
185,4,128,98,0.561466634273529,0.1620696783065796
185,4,128,99,0.5576520562171936,0.2003416121006012
185,4,128,100,0.7072535157203674,0.11970716714859009
185,4,128,101,0.3615836501121521,0.2225370705127716
185,4,128,102,0.616813063621521,0.07492636889219284
185,4,128,103,0.5983933210372925,0.0893268957734108
185,4,128,104,0.5258568525314331,0.07181806862354279
185,4,128,105,0.49830904603004456,0.11631297320127487
185,4,128,106,0.33174240589141846,0.07495326548814774
185,4,128,107,0.3976479470729828,0.11750772595405579
185,4,128,108,0.4833492934703827,0.05668746680021286
185,4,128,109,0.44004371762275696,0.26677975058555603
185,4,128,110,0.4828123450279236,0.10674715787172318
185,4,128,111,0.45421940088272095,0.12480101734399796
185,4,128,112,0.5178233981132507,0.24507655203342438
185,4,128,113,0.3604987859725952,0.18762440979480743
185,4,128,114,0.631620466709137,0.1186588853597641
185,4,128,115,0.4831286072731018,0.11512114107608795
185,4,128,116,0.5747621655464172,0.12700539827346802
185,4,128,117,0.6473178267478943,0.10521676391363144
185,4,128,118,0.3560359477996826,0.11893776804208755
185,4,128,119,0.4645024240016937,0.17537514865398407
185,4,128,120,0.6021248698234558,0.10683201998472214
185,4,128,121,0.5509589910507202,0.09058506041765213
185,4,128,122,0.3800119459629059,0.18275736272335052
185,4,128,123,0.5280548930168152,0.13474853336811066
185,4,128,124,0.5214078426361084,0.14890456199645996
185,4,128,125,0.7249401807785034,0.1738899052143097
185,4,128,126,0.5653757452964783,0.178261861205101
185,4,128,127,0.5654414892196655,0.06834777444601059
185,5,128,0,0.5732787251472473,0.10790994763374329
185,5,128,1,0.582365095615387,0.04337015375494957
185,5,128,2,0.5578784942626953,0.03385767713189125
185,5,128,3,0.41605016589164734,0.0702044740319252
185,5,128,4,0.4535323977470398,0.10967563092708588
185,5,128,5,0.41249266266822815,0.07898478955030441
185,5,128,6,0.5465560555458069,0.06914272904396057
185,5,128,7,0.5678181052207947,0.08055230230093002
185,5,128,8,0.49541032314300537,0.08999864757061005
185,5,128,9,0.5706030130386353,0.11060838401317596
185,5,128,10,0.5488020777702332,0.0886918231844902
185,5,128,11,0.496592253446579,0.07598836719989777
185,5,128,12,0.5583485960960388,0.09986685961484909
185,5,128,13,0.4975142180919647,0.10780040174722672
185,5,128,14,0.405515193939209,0.10040299594402313
185,5,128,15,0.6302624940872192,0.09996095299720764
185,5,128,16,0.6022261381149292,0.06642791628837585
185,5,128,17,0.4778324365615845,0.11849421262741089
185,5,128,18,0.44562700390815735,0.07469631731510162
185,5,128,19,0.5157690048217773,0.06507780402898788
185,5,128,20,0.42051205039024353,0.08393626660108566
185,5,128,21,0.5440688729286194,0.07862965017557144
185,5,128,22,0.60343998670578,0.089365653693676
185,5,128,23,0.4720984101295471,0.11167748272418976
185,5,128,24,0.4166962802410126,0.05869649350643158
185,5,128,25,0.4902610182762146,0.057843275368213654
185,5,128,26,0.4597569406032562,0.07070259004831314
185,5,128,27,0.4879472851753235,0.08612128347158432
185,5,128,28,0.6364024877548218,0.07316059619188309
185,5,128,29,0.5016785860061646,0.09957007318735123
185,5,128,30,0.3856194317340851,0.08063415437936783
185,5,128,31,0.5386567115783691,0.09334519505500793
185,5,128,32,0.6418749094009399,0.09607601165771484
185,5,128,33,0.5775537490844727,0.13067758083343506
185,5,128,34,0.5164635181427002,0.088935986161232
185,5,128,35,0.4662010669708252,0.09740552306175232
185,5,128,36,0.44094550609588623,0.09546611458063126
185,5,128,37,0.6325960755348206,0.06640823185443878
185,5,128,38,0.5180968642234802,0.060173071920871735
185,5,128,39,0.5665469169616699,0.11679059267044067
185,5,128,40,0.48410433530807495,0.08135654032230377
185,5,128,41,0.5326104164123535,0.04974035546183586
185,5,128,42,0.4448021948337555,0.048519328236579895
185,5,128,43,0.5168298482894897,0.08008799701929092
185,5,128,44,0.6013691425323486,0.07196107506752014
185,5,128,45,0.4296153485774994,0.07774312794208527
185,5,128,46,0.6958523392677307,0.136277437210083
185,5,128,47,0.5361725091934204,0.07540745288133621
185,5,128,48,0.4511914551258087,0.08446965366601944
185,5,128,49,0.524276614189148,0.09641335159540176
185,5,128,50,0.5052891969680786,0.07933810353279114
185,5,128,51,0.41401001811027527,0.0670420378446579
185,5,128,52,0.47812148928642273,0.069461889564991
185,5,128,53,0.5250688195228577,0.07611046731472015
185,5,128,54,0.604509174823761,0.09136562049388885
185,5,128,55,0.4626602530479431,0.0749242827296257
185,5,128,56,0.4775046706199646,0.12678727507591248
185,5,128,57,0.3461582660675049,0.08949301391839981
185,5,128,58,0.5532361268997192,0.08378123492002487
185,5,128,59,0.42384669184684753,0.06873759627342224
185,5,128,60,0.598266065120697,0.06447429209947586
185,5,128,61,0.4839020073413849,0.05378664657473564
185,5,128,62,0.5679098963737488,0.087949737906456
185,5,128,63,0.5388519167900085,0.08915113657712936
185,5,128,64,0.4776712656021118,0.09735804051160812
185,5,128,65,0.4408591389656067,0.05853015184402466
185,5,128,66,0.5121062994003296,0.17090344429016113
185,5,128,67,0.6051795482635498,0.07970087975263596
185,5,128,68,0.5198498368263245,0.07567404955625534
185,5,128,69,0.5515673756599426,0.08170218765735626
185,5,128,70,0.4277198612689972,0.07667072862386703
185,5,128,71,0.4515502154827118,0.08680928498506546
185,5,128,72,0.47670185565948486,0.05875116214156151
185,5,128,73,0.5606949329376221,0.12329565733671188
185,5,128,74,0.5272647738456726,0.07979979366064072
185,5,128,75,0.47065627574920654,0.043798111379146576
185,5,128,76,0.4705280065536499,0.0860072523355484
185,5,128,77,0.5559829473495483,0.10730999708175659
185,5,128,78,0.5446641445159912,0.041012607514858246
185,5,128,79,0.4276401400566101,0.0716126412153244
185,5,128,80,0.5652585029602051,0.1438513845205307
185,5,128,81,0.48969566822052,0.07452169805765152
185,5,128,82,0.4920206069946289,0.1244635060429573
185,5,128,83,0.4276972711086273,0.06282498687505722
185,5,128,84,0.5009770393371582,0.08724623918533325
185,5,128,85,0.5654926896095276,0.08929860591888428
185,5,128,86,0.6095498204231262,0.13284306228160858
185,5,128,87,0.538411021232605,0.10044914484024048
185,5,128,88,0.5556967258453369,0.07130146026611328
185,5,128,89,0.43009617924690247,0.04886852949857712
185,5,128,90,0.4322930574417114,0.13221769034862518
185,5,128,91,0.647719144821167,0.06999415904283524
185,5,128,92,0.5949821472167969,0.09904367476701736
185,5,128,93,0.5424867272377014,0.10224415361881256
185,5,128,94,0.5131223797798157,0.09427320212125778
185,5,128,95,0.45279350876808167,0.1164001002907753
185,5,128,96,0.4557890295982361,0.049103472381830215
185,5,128,97,0.4402204751968384,0.10066217929124832
185,5,128,98,0.48489606380462646,0.1423490196466446
185,5,128,99,0.45181015133857727,0.09287242591381073
185,5,128,100,0.4361981153488159,0.11319026350975037
185,5,128,101,0.5604159832000732,0.034274034202098846
185,5,128,102,0.6161336898803711,0.06178288906812668
185,5,128,103,0.5264930129051208,0.07601258158683777
185,5,128,104,0.5205352306365967,0.10861250013113022
185,5,128,105,0.553571343421936,0.16056784987449646
185,5,128,106,0.5087875723838806,0.05145161598920822
185,5,128,107,0.6069093942642212,0.06654678285121918
185,5,128,108,0.5268793106079102,0.10541494935750961
185,5,128,109,0.43998831510543823,0.08281634747982025
185,5,128,110,0.42119264602661133,0.04062860831618309
185,5,128,111,0.512089729309082,0.09340880066156387
185,5,128,112,0.6053901314735413,0.07420308887958527
185,5,128,113,0.5953410267829895,0.06106962263584137
185,5,128,114,0.455126017332077,0.06054827943444252
185,5,128,115,0.47935283184051514,0.037966039031744
185,5,128,116,0.4701605439186096,0.0973147377371788
185,5,128,117,0.4624497890472412,0.022764045745134354
185,5,128,118,0.5820346474647522,0.07584429532289505
185,5,128,119,0.5728495717048645,0.07608087360858917
185,5,128,120,0.4477943480014801,0.11546286940574646
185,5,128,121,0.368269145488739,0.06698737293481827
185,5,128,122,0.42761120200157166,0.07853434979915619
185,5,128,123,0.6313120722770691,0.1455133557319641
185,5,128,124,0.49912184476852417,0.0965685322880745
185,5,128,125,0.6005165576934814,0.1094495877623558
185,5,128,126,0.7065735459327698,0.10012330114841461
185,5,128,127,0.456034779548645,0.11353150010108948
186,0,32,0,0.48754531145095825,0.08057183772325516
186,0,32,1,0.582657516002655,0.0502505823969841
186,0,32,2,0.5047459602355957,0.10674187541007996
186,0,32,3,0.6420484185218811,0.06659477204084396
186,0,32,4,0.6218850016593933,0.06257613748311996
186,0,32,5,0.49049636721611023,0.05643042176961899
186,0,32,6,0.538094162940979,0.09732839465141296
186,0,32,7,0.5207766890525818,0.07956790179014206
186,0,32,8,0.5858933329582214,0.07005637139081955
186,0,32,9,0.6116536259651184,0.08910631388425827
186,0,32,10,0.3484354615211487,0.03414381667971611
186,0,32,11,0.52202308177948,0.09080721437931061
186,0,32,12,0.5325024127960205,0.08785053342580795
186,0,32,13,0.4436315596103668,0.0966142863035202
186,0,32,14,0.5613299608230591,0.02692718803882599
186,0,32,15,0.38619503378868103,0.0873345360159874
186,0,32,16,0.5919647216796875,0.04699517413973808
186,0,32,17,0.40752947330474854,0.08005823194980621
186,0,32,18,0.4736135005950928,0.11861225217580795
186,0,32,19,0.42502060532569885,0.04449479281902313
186,0,32,20,0.41455110907554626,0.07015205919742584
186,0,32,21,0.47321632504463196,0.0887075737118721
186,0,32,22,0.5614609122276306,0.06494911015033722
186,0,32,23,0.4443923234939575,0.04837528243660927
186,0,32,24,0.4915934205055237,0.05182824656367302
186,0,32,25,0.5859177112579346,0.07709082216024399
186,0,32,26,0.4019258916378021,0.05799497663974762
186,0,32,27,0.3581394851207733,0.055560123175382614
186,0,32,28,0.5419028401374817,0.04050913825631142
186,0,32,29,0.5278659462928772,0.017022589221596718
186,0,32,30,0.4428282678127289,0.09923041611909866
186,0,32,31,0.5430970788002014,0.0758800134062767
186,1,32,0,0.519450843334198,0.04467018321156502
186,1,32,1,0.5507502555847168,0.06995439529418945
186,1,32,2,0.42623981833457947,0.06092742457985878
186,1,32,3,0.43002623319625854,0.07214289903640747
186,1,32,4,0.49779120087623596,0.04139251634478569
186,1,32,5,0.39203155040740967,0.06524568051099777
186,1,32,6,0.5549364686012268,0.028922144323587418
186,1,32,7,0.5108636021614075,0.050123751163482666
186,1,32,8,0.4302721917629242,0.06612098962068558
186,1,32,9,0.5976319909095764,0.023256920278072357
186,1,32,10,0.39925429224967957,0.053502533584833145
186,1,32,11,0.4959523677825928,0.03471987321972847
186,1,32,12,0.45800960063934326,0.0848158746957779
186,1,32,13,0.5372045040130615,0.05442308261990547
186,1,32,14,0.5362152457237244,0.07029401510953903
186,1,32,15,0.5179567337036133,0.056233957409858704
186,1,32,16,0.3998512327671051,0.07730568200349808
186,1,32,17,0.44905856251716614,0.046698786318302155
186,1,32,18,0.3861430287361145,0.058083049952983856
186,1,32,19,0.618580162525177,0.045705992728471756
186,1,32,20,0.39315494894981384,0.04956391453742981
186,1,32,21,0.6653340458869934,0.05068040266633034
186,1,32,22,0.5434139370918274,0.06767845153808594
186,1,32,23,0.5247419476509094,0.03728602081537247
186,1,32,24,0.6163496971130371,0.026962950825691223
186,1,32,25,0.5209776759147644,0.01919552870094776
186,1,32,26,0.6095449924468994,0.03913731500506401
186,1,32,27,0.5655176639556885,0.04232398793101311
186,1,32,28,0.48460856080055237,0.04048990458250046
186,1,32,29,0.4326893091201782,0.04667912423610687
186,1,32,30,0.4708397090435028,0.10107982903718948
186,1,32,31,0.630581259727478,0.019464543089270592
186,2,64,0,0.4423612356185913,0.0372488908469677
186,2,64,1,0.39117613434791565,0.08415450900793076
186,2,64,2,0.5283018350601196,0.0644005760550499
186,2,64,3,0.48065879940986633,0.0535169281065464
186,2,64,4,0.49415597319602966,0.08714376389980316
186,2,64,5,0.5224162340164185,0.08950240164995193
186,2,64,6,0.4677231013774872,0.062274254858493805
186,2,64,7,0.5494602918624878,0.06360221654176712
186,2,64,8,0.5651883482933044,0.08910837024450302
186,2,64,9,0.3845430016517639,0.17243097722530365
186,2,64,10,0.5793703198432922,0.0649990513920784
186,2,64,11,0.492093950510025,0.07745052874088287
186,2,64,12,0.4255065619945526,0.11658108234405518
186,2,64,13,0.5595299005508423,0.07944212853908539
186,2,64,14,0.2596455216407776,0.10336659848690033
186,2,64,15,0.6014040112495422,0.05028187483549118
186,2,64,16,0.5528931021690369,0.06848569959402084
186,2,64,17,0.4023304879665375,0.10249380767345428
186,2,64,18,0.464494526386261,0.05707640200853348
186,2,64,19,0.6126253604888916,0.05622510239481926
186,2,64,20,0.38562169671058655,0.05444925278425217
186,2,64,21,0.6095240712165833,0.049153875559568405
186,2,64,22,0.526698887348175,0.08545380085706711
186,2,64,23,0.39636626839637756,0.15497750043869019
186,2,64,24,0.598957896232605,0.1084594577550888
186,2,64,25,0.6039451360702515,0.10496897995471954
186,2,64,26,0.42162901163101196,0.15448790788650513
186,2,64,27,0.49397239089012146,0.06803712248802185
186,2,64,28,0.449843168258667,0.06188950315117836
186,2,64,29,0.532223105430603,0.09218203276395798
186,2,64,30,0.36402973532676697,0.09962353110313416
186,2,64,31,0.4539998769760132,0.06637153029441833
186,2,64,32,0.4796351194381714,0.12979444861412048
186,2,64,33,0.5189114212989807,0.09713967144489288
186,2,64,34,0.507780134677887,0.099981889128685
186,2,64,35,0.5350342988967896,0.12301139533519745
186,2,64,36,0.5316983461380005,0.14872822165489197
186,2,64,37,0.6463934779167175,0.07882940024137497
186,2,64,38,0.5555227994918823,0.08263115584850311
186,2,64,39,0.383400022983551,0.12472278624773026
186,2,64,40,0.3964173495769501,0.04425369203090668
186,2,64,41,0.5357769131660461,0.13886137306690216
186,2,64,42,0.6704824566841125,0.11992661654949188
186,2,64,43,0.5276761054992676,0.07877279072999954
186,2,64,44,0.44256317615509033,0.05375973880290985
186,2,64,45,0.4669438302516937,0.05664271116256714
186,2,64,46,0.42497140169143677,0.1258402317762375
186,2,64,47,0.4695419371128082,0.05889609083533287
186,2,64,48,0.3910233676433563,0.09574077278375626
186,2,64,49,0.35628408193588257,0.08473357558250427
186,2,64,50,0.6575011610984802,0.08206994086503983
186,2,64,51,0.3108620047569275,0.06714095920324326
186,2,64,52,0.48048627376556396,0.09840081632137299
186,2,64,53,0.5653265118598938,0.026303047314286232
186,2,64,54,0.509000837802887,0.10911699384450912
186,2,64,55,0.538384199142456,0.09762648493051529
186,2,64,56,0.45660310983657837,0.0994202196598053
186,2,64,57,0.3432748019695282,0.08608856052160263
186,2,64,58,0.4101424813270569,0.1302865594625473
186,2,64,59,0.4886103868484497,0.06868936866521835
186,2,64,60,0.6070467233657837,0.06009526550769806
186,2,64,61,0.5828052759170532,0.1318053901195526
186,2,64,62,0.46667227149009705,0.057588931173086166
186,2,64,63,0.5319184064865112,0.06609108299016953
186,3,64,0,0.5642602443695068,0.07810866087675095
186,3,64,1,0.454126238822937,0.08625289797782898
186,3,64,2,0.4827730357646942,0.07979855686426163
186,3,64,3,0.4411093294620514,0.04871150106191635
186,3,64,4,0.5700397491455078,0.08446644991636276
186,3,64,5,0.5136563777923584,0.047314807772636414
186,3,64,6,0.480927973985672,0.04334573820233345
186,3,64,7,0.6283016204833984,0.05393129587173462
186,3,64,8,0.4814227521419525,0.0641193762421608
186,3,64,9,0.6275252103805542,0.046378787606954575
186,3,64,10,0.36166098713874817,0.06250589340925217
186,3,64,11,0.5262856483459473,0.058874450623989105
186,3,64,12,0.4577397108078003,0.13100509345531464
186,3,64,13,0.5407594442367554,0.05397054925560951
186,3,64,14,0.378601998090744,0.0788419172167778
186,3,64,15,0.4197617769241333,0.06277678906917572
186,3,64,16,0.4180605709552765,0.047890059649944305
186,3,64,17,0.4550418555736542,0.059956640005111694
186,3,64,18,0.497597873210907,0.05130610242486
186,3,64,19,0.5246403217315674,0.05764114856719971
186,3,64,20,0.4032011926174164,0.057779327034950256
186,3,64,21,0.4916156828403473,0.029218830168247223
186,3,64,22,0.5805825591087341,0.06990121304988861
186,3,64,23,0.5180776119232178,0.06836707890033722
186,3,64,24,0.5883539319038391,0.07992206513881683
186,3,64,25,0.443498820066452,0.08369597792625427
186,3,64,26,0.47779199481010437,0.06283962726593018
186,3,64,27,0.4688226878643036,0.10114222019910812
186,3,64,28,0.5319797396659851,0.04792950302362442
186,3,64,29,0.4846609830856323,0.03058282658457756
186,3,64,30,0.536543071269989,0.0371674969792366
186,3,64,31,0.4887518286705017,0.05035790428519249
186,3,64,32,0.4153887629508972,0.04718654230237007
186,3,64,33,0.4413277804851532,0.03467487916350365
186,3,64,34,0.5292153358459473,0.07558979094028473
186,3,64,35,0.4778025448322296,0.03938824683427811
186,3,64,36,0.4621080756187439,0.03706703335046768
186,3,64,37,0.5687302947044373,0.02367548830807209
186,3,64,38,0.4248116612434387,0.0902785137295723
186,3,64,39,0.4921853840351105,0.04095328226685524
186,3,64,40,0.5867993831634521,0.082267165184021
186,3,64,41,0.5353751182556152,0.04617287218570709
186,3,64,42,0.49371466040611267,0.11184062063694
186,3,64,43,0.487921804189682,0.02931816689670086
186,3,64,44,0.468778133392334,0.06518281251192093
186,3,64,45,0.37192320823669434,0.05011191964149475
186,3,64,46,0.6088302731513977,0.07290662825107574
186,3,64,47,0.48282375931739807,0.07510893791913986
186,3,64,48,0.42487621307373047,0.06029317155480385
186,3,64,49,0.4293209910392761,0.048839449882507324
186,3,64,50,0.5891900658607483,0.06717298924922943
186,3,64,51,0.48527050018310547,0.0842772051692009
186,3,64,52,0.5336375832557678,0.0733463242650032
186,3,64,53,0.5094914436340332,0.03967289999127388
186,3,64,54,0.42998814582824707,0.04213173687458038
186,3,64,55,0.3940039873123169,0.04646766930818558
186,3,64,56,0.4701015055179596,0.06910781562328339
186,3,64,57,0.4182050824165344,0.0737857073545456
186,3,64,58,0.3973858952522278,0.07138288021087646
186,3,64,59,0.48111769556999207,0.03816216066479683
186,3,64,60,0.4165808856487274,0.06365205347537994
186,3,64,61,0.3756513297557831,0.048565685749053955
186,3,64,62,0.4646885395050049,0.04195251688361168
186,3,64,63,0.479128360748291,0.06107476353645325
186,4,128,0,0.5011635422706604,0.07506898045539856
186,4,128,1,0.41622674465179443,0.16807280480861664
186,4,128,2,0.5568885803222656,0.11610269546508789
186,4,128,3,0.5469478964805603,0.14517486095428467
186,4,128,4,0.4891151487827301,0.13806194067001343
186,4,128,5,0.5423065423965454,0.13045893609523773
186,4,128,6,0.4939805269241333,0.19734498858451843
186,4,128,7,0.5170373916625977,0.1467404067516327
186,4,128,8,0.578851580619812,0.07101856917142868
186,4,128,9,0.6177332997322083,0.1414540410041809
186,4,128,10,0.6832695007324219,0.12035544216632843
186,4,128,11,0.4600904881954193,0.12854155898094177
186,4,128,12,0.5177878737449646,0.19048833847045898
186,4,128,13,0.5410623550415039,0.08646053075790405
186,4,128,14,0.4170214831829071,0.08990352600812912
186,4,128,15,0.5421352386474609,0.03533656522631645
186,4,128,16,0.6492740511894226,0.10561555624008179
186,4,128,17,0.4196006953716278,0.1147097572684288
186,4,128,18,0.5490933060646057,0.09992270171642303
186,4,128,19,0.5636029839515686,0.1105663999915123
186,4,128,20,0.6355640292167664,0.07170296460390091
186,4,128,21,0.5806920528411865,0.0907600075006485
186,4,128,22,0.5087278485298157,0.16070367395877838
186,4,128,23,0.3766646385192871,0.1383424699306488
186,4,128,24,0.5220093131065369,0.06671276688575745
186,4,128,25,0.5972064733505249,0.22001825273036957
186,4,128,26,0.4507206380367279,0.15256163477897644
186,4,128,27,0.4154724180698395,0.09861500561237335
186,4,128,28,0.44020023941993713,0.0828004851937294
186,4,128,29,0.45252203941345215,0.13199500739574432
186,4,128,30,0.47906526923179626,0.12193327397108078
186,4,128,31,0.5803487300872803,0.15522868931293488
186,4,128,32,0.3717155456542969,0.07277341932058334
186,4,128,33,0.4551627039909363,0.0584995299577713
186,4,128,34,0.42482835054397583,0.1396350860595703
186,4,128,35,0.4141196012496948,0.1045038104057312
186,4,128,36,0.5015910267829895,0.1305919736623764
186,4,128,37,0.6092894673347473,0.16089482605457306
186,4,128,38,0.6229870319366455,0.06570308655500412
186,4,128,39,0.47730115056037903,0.08239246159791946
186,4,128,40,0.4566217064857483,0.21284553408622742
186,4,128,41,0.5090008974075317,0.11031994223594666
186,4,128,42,0.4998033940792084,0.0736861601471901
186,4,128,43,0.5264503955841064,0.15737181901931763
186,4,128,44,0.513108491897583,0.12017425149679184
186,4,128,45,0.5941435694694519,0.14027461409568787
186,4,128,46,0.5168501734733582,0.07855281978845596
186,4,128,47,0.6067872643470764,0.05308375880122185
186,4,128,48,0.5164238214492798,0.1879151612520218
186,4,128,49,0.541212797164917,0.1549665778875351
186,4,128,50,0.4256446361541748,0.11917895078659058
186,4,128,51,0.5620443820953369,0.08264531195163727
186,4,128,52,0.46370193362236023,0.11988315731287003
186,4,128,53,0.5503255724906921,0.11567606776952744
186,4,128,54,0.5527171492576599,0.07036253064870834
186,4,128,55,0.41901060938835144,0.05255952104926109
186,4,128,56,0.4315568208694458,0.09480693936347961
186,4,128,57,0.6243613362312317,0.0925317108631134
186,4,128,58,0.5812327265739441,0.10025345534086227
186,4,128,59,0.5837017297744751,0.06708087027072906
186,4,128,60,0.641670286655426,0.0475519634783268
186,4,128,61,0.6163020133972168,0.15074904263019562
186,4,128,62,0.5570551753044128,0.09024757891893387
186,4,128,63,0.45584920048713684,0.12268760055303574
186,4,128,64,0.5429436564445496,0.08542648702859879
186,4,128,65,0.6024940013885498,0.19983969628810883
186,4,128,66,0.49799787998199463,0.1394975781440735
186,4,128,67,0.6441286206245422,0.0765591487288475
186,4,128,68,0.48007968068122864,0.1666620671749115
186,4,128,69,0.5376792550086975,0.13373273611068726
186,4,128,70,0.719636857509613,0.09066823124885559
186,4,128,71,0.46944209933280945,0.06967996805906296
186,4,128,72,0.48774150013923645,0.10224154591560364
186,4,128,73,0.5415882468223572,0.12834736704826355
186,4,128,74,0.507804274559021,0.1709507554769516
186,4,128,75,0.44846048951148987,0.17368294298648834
186,4,128,76,0.6007959842681885,0.16387447714805603
186,4,128,77,0.5959870219230652,0.09013282507658005
186,4,128,78,0.455309122800827,0.12598393857479095
186,4,128,79,0.5410796999931335,0.05967908725142479
186,4,128,80,0.40811118483543396,0.14762218296527863
186,4,128,81,0.5179377198219299,0.11362456530332565
186,4,128,82,0.5813640356063843,0.13405779004096985
186,4,128,83,0.4908267557621002,0.05710262432694435
186,4,128,84,0.4323297142982483,0.1421593576669693
186,4,128,85,0.6776869297027588,0.11870497465133667
186,4,128,86,0.5178989768028259,0.096317820250988
186,4,128,87,0.535112202167511,0.08987491577863693
186,4,128,88,0.49473294615745544,0.20487423241138458
186,4,128,89,0.5892630815505981,0.08784062415361404
186,4,128,90,0.6059172749519348,0.12457546591758728
186,4,128,91,0.550898551940918,0.10389110445976257
186,4,128,92,0.5281038284301758,0.1573953777551651
186,4,128,93,0.525838315486908,0.07118244469165802
186,4,128,94,0.6019307374954224,0.08941146731376648
186,4,128,95,0.562897264957428,0.11900108307600021
186,4,128,96,0.5638580322265625,0.18565548956394196
186,4,128,97,0.5171203017234802,0.03924776241183281
186,4,128,98,0.5250927805900574,0.05866124480962753
186,4,128,99,0.4139326214790344,0.16848500072956085
186,4,128,100,0.4607366919517517,0.08839759230613708
186,4,128,101,0.5751639008522034,0.0885402038693428
186,4,128,102,0.5490961074829102,0.06862790137529373
186,4,128,103,0.6198748350143433,0.09945643693208694
186,4,128,104,0.4186958074569702,0.16261397302150726
186,4,128,105,0.5108537077903748,0.10750684142112732
186,4,128,106,0.4045497477054596,0.14999966323375702
186,4,128,107,0.4113636314868927,0.11130809783935547
186,4,128,108,0.4737448990345001,0.14812611043453217
186,4,128,109,0.6050174832344055,0.14015038311481476
186,4,128,110,0.5688809156417847,0.11509276181459427
186,4,128,111,0.555008053779602,0.08753789216279984
186,4,128,112,0.4871057868003845,0.10342849045991898
186,4,128,113,0.5617741942405701,0.17994324862957
186,4,128,114,0.5218793153762817,0.17612984776496887
186,4,128,115,0.5378623008728027,0.14996367692947388
186,4,128,116,0.6467111110687256,0.24748282134532928
186,4,128,117,0.5266440510749817,0.1075095385313034
186,4,128,118,0.47890180349349976,0.11165008693933487
186,4,128,119,0.5853482484817505,0.06131798028945923
186,4,128,120,0.5149607062339783,0.123441182076931
186,4,128,121,0.5146563053131104,0.13164985179901123
186,4,128,122,0.4767368733882904,0.07594065368175507
186,4,128,123,0.5192301869392395,0.06430522352457047
186,4,128,124,0.5241841077804565,0.09230540692806244
186,4,128,125,0.4828881025314331,0.12542366981506348
186,4,128,126,0.7051326036453247,0.12576399743556976
186,4,128,127,0.4324408769607544,0.1333005428314209
186,5,128,0,0.6389487385749817,0.0625380352139473
186,5,128,1,0.5798707604408264,0.06966780871152878
186,5,128,2,0.4788850247859955,0.0629827007651329
186,5,128,3,0.5913744568824768,0.07122881710529327
186,5,128,4,0.6486013531684875,0.1526598036289215
186,5,128,5,0.5675382614135742,0.05897068232297897
186,5,128,6,0.6088637113571167,0.09461626410484314
186,5,128,7,0.3722348213195801,0.12645819783210754
186,5,128,8,0.42342984676361084,0.07978294789791107
186,5,128,9,0.635368287563324,0.16072887182235718
186,5,128,10,0.51010662317276,0.056226495653390884
186,5,128,11,0.42580950260162354,0.060946572571992874
186,5,128,12,0.337044358253479,0.11081865429878235
186,5,128,13,0.4951004087924957,0.19683144986629486
186,5,128,14,0.4133809506893158,0.1195872500538826
186,5,128,15,0.5365098714828491,0.045126449316740036
186,5,128,16,0.451674222946167,0.11274367570877075
186,5,128,17,0.542824923992157,0.07915741205215454
186,5,128,18,0.5098690986633301,0.11292363703250885
186,5,128,19,0.5644958019256592,0.10239946097135544
186,5,128,20,0.6048339009284973,0.08116823434829712
186,5,128,21,0.6353071928024292,0.09988777339458466
186,5,128,22,0.6686721444129944,0.10428769141435623
186,5,128,23,0.5494005680084229,0.0787101536989212
186,5,128,24,0.3350198566913605,0.06353474408388138
186,5,128,25,0.5519910454750061,0.15107165277004242
186,5,128,26,0.42283228039741516,0.07645212858915329
186,5,128,27,0.5463811755180359,0.12807399034500122
186,5,128,28,0.4705762565135956,0.0940987765789032
186,5,128,29,0.501146137714386,0.1514892578125
186,5,128,30,0.629768431186676,0.1220824345946312
186,5,128,31,0.7106322050094604,0.13233916461467743
186,5,128,32,0.5809481143951416,0.11335992068052292
186,5,128,33,0.6166333556175232,0.11994609236717224
186,5,128,34,0.5892324447631836,0.1317010074853897
186,5,128,35,0.3079073429107666,0.1366736739873886
186,5,128,36,0.6156607270240784,0.16669698059558868
186,5,128,37,0.69605952501297,0.11773784458637238
186,5,128,38,0.6383228898048401,0.08910605311393738
186,5,128,39,0.5571130514144897,0.15282687544822693
186,5,128,40,0.6901148557662964,0.0909729152917862
186,5,128,41,0.5270962715148926,0.14881280064582825
186,5,128,42,0.4496282935142517,0.1241304948925972
186,5,128,43,0.556878387928009,0.11282696574926376
186,5,128,44,0.6176143884658813,0.13912726938724518
186,5,128,45,0.4269183576107025,0.17430324852466583
186,5,128,46,0.5367435812950134,0.13232329487800598
186,5,128,47,0.5520052909851074,0.07386662065982819
186,5,128,48,0.30670368671417236,0.1139054000377655
186,5,128,49,0.6223733425140381,0.06156058609485626
186,5,128,50,0.525216817855835,0.10807371139526367
186,5,128,51,0.5697280764579773,0.1708015501499176
186,5,128,52,0.6093526482582092,0.050421759486198425
186,5,128,53,0.5644475221633911,0.12504664063453674
186,5,128,54,0.6502923369407654,0.17912790179252625
186,5,128,55,0.434137761592865,0.08859781175851822
186,5,128,56,0.4159333109855652,0.08217917382717133
186,5,128,57,0.5473465919494629,0.06956523656845093
186,5,128,58,0.4827503263950348,0.03991848975419998
186,5,128,59,0.5690580606460571,0.08779999613761902
186,5,128,60,0.6388148665428162,0.17909163236618042
186,5,128,61,0.7189728021621704,0.10381732136011124
186,5,128,62,0.4941381514072418,0.13736118376255035
186,5,128,63,0.5850297808647156,0.10312768816947937
186,5,128,64,0.4807770848274231,0.04892057180404663
186,5,128,65,0.459616482257843,0.09353940933942795
186,5,128,66,0.4660579264163971,0.16026060283184052
186,5,128,67,0.6856220960617065,0.13780730962753296
186,5,128,68,0.5123293995857239,0.09831833839416504
186,5,128,69,0.5054330229759216,0.09464044123888016
186,5,128,70,0.3941066265106201,0.10063450783491135
186,5,128,71,0.6072149276733398,0.1377921998500824
186,5,128,72,0.6412665843963623,0.16675513982772827
186,5,128,73,0.5581156611442566,0.03959423303604126
186,5,128,74,0.6450377702713013,0.15389636158943176
186,5,128,75,0.49382543563842773,0.13935153186321259
186,5,128,76,0.5559638142585754,0.13895589113235474
186,5,128,77,0.4697294533252716,0.19093316793441772
186,5,128,78,0.5250898599624634,0.1299707293510437
186,5,128,79,0.5543200373649597,0.09583970904350281
186,5,128,80,0.6768155694007874,0.10292315483093262
186,5,128,81,0.4935058653354645,0.07864466309547424
186,5,128,82,0.5063614249229431,0.14494886994361877
186,5,128,83,0.5338470339775085,0.1290164589881897
186,5,128,84,0.656897783279419,0.1112746149301529
186,5,128,85,0.73823481798172,0.11542929708957672
186,5,128,86,0.5931421518325806,0.050643548369407654
186,5,128,87,0.41359883546829224,0.10459298640489578
186,5,128,88,0.4672938883304596,0.09722410142421722
186,5,128,89,0.5039353966712952,0.09786973893642426
186,5,128,90,0.5887860655784607,0.13314063847064972
186,5,128,91,0.620988130569458,0.16762559115886688
186,5,128,92,0.5573294758796692,0.13771015405654907
186,5,128,93,0.5379923582077026,0.07343181222677231
186,5,128,94,0.4762924313545227,0.12235365808010101
186,5,128,95,0.5336793661117554,0.09389281272888184
186,5,128,96,0.5016780495643616,0.07010122388601303
186,5,128,97,0.5990923643112183,0.1328037530183792
186,5,128,98,0.3487953543663025,0.15825186669826508
186,5,128,99,0.5426433682441711,0.2536459267139435
186,5,128,100,0.5949612855911255,0.10494201630353928
186,5,128,101,0.6479475498199463,0.12115680426359177
186,5,128,102,0.5194838047027588,0.04268355295062065
186,5,128,103,0.5374698638916016,0.08693639934062958
186,5,128,104,0.47814854979515076,0.09209874272346497
186,5,128,105,0.6346310377120972,0.1387140154838562
186,5,128,106,0.6501511931419373,0.06945788115262985
186,5,128,107,0.48441824316978455,0.07404926419258118
186,5,128,108,0.4978580176830292,0.11482901126146317
186,5,128,109,0.5704675316810608,0.09676947444677353
186,5,128,110,0.535243034362793,0.09253507107496262
186,5,128,111,0.48028364777565,0.07600998878479004
186,5,128,112,0.5244556069374084,0.16898946464061737
186,5,128,113,0.6833420395851135,0.12225925177335739
186,5,128,114,0.574700653553009,0.12292184680700302
186,5,128,115,0.5293524265289307,0.10722281038761139
186,5,128,116,0.4735589623451233,0.08975229412317276
186,5,128,117,0.4917543828487396,0.0609164759516716
186,5,128,118,0.5840345025062561,0.09629713743925095
186,5,128,119,0.6546380519866943,0.11861515045166016
186,5,128,120,0.6129559874534607,0.10303284227848053
186,5,128,121,0.32854220271110535,0.09447891265153885
186,5,128,122,0.49635154008865356,0.0961531326174736
186,5,128,123,0.5595963001251221,0.09709825366735458
186,5,128,124,0.5660866498947144,0.11239135265350342
186,5,128,125,0.72145015001297,0.12445268779993057
186,5,128,126,0.42726290225982666,0.1419265866279602
186,5,128,127,0.6447630524635315,0.17282766103744507
188,0,32,0,0.5062752962112427,0.06838624179363251
188,0,32,1,0.5294644832611084,0.07072953879833221
188,0,32,2,0.4792722463607788,0.09464600682258606
188,0,32,3,0.6104251146316528,0.06924724578857422
188,0,32,4,0.6508095264434814,0.05284060537815094
188,0,32,5,0.46401336789131165,0.043521348387002945
188,0,32,6,0.5381141901016235,0.05673256143927574
188,0,32,7,0.5552266240119934,0.08083732426166534
188,0,32,8,0.5966429710388184,0.05726426839828491
188,0,32,9,0.591987133026123,0.054030004888772964
188,0,32,10,0.3570331931114197,0.03684071823954582
188,0,32,11,0.5261515974998474,0.04284820333123207
188,0,32,12,0.5733256340026855,0.09872917085886002
188,0,32,13,0.41635528206825256,0.08684013783931732
188,0,32,14,0.5449531078338623,0.02377024106681347
188,0,32,15,0.3589080572128296,0.05537242442369461
188,0,32,16,0.5827571749687195,0.03458017110824585
188,0,32,17,0.44511061906814575,0.08247645944356918
188,0,32,18,0.4645083546638489,0.05577626824378967
188,0,32,19,0.39387160539627075,0.03637838363647461
188,0,32,20,0.4899834394454956,0.0871603712439537
188,0,32,21,0.4561760127544403,0.0691889151930809
188,0,32,22,0.5243307948112488,0.05180756747722626
188,0,32,23,0.4369637370109558,0.04085049033164978
188,0,32,24,0.4885457754135132,0.06303560733795166
188,0,32,25,0.6100959181785583,0.054756708443164825
188,0,32,26,0.4414573907852173,0.059459421783685684
188,0,32,27,0.3828762173652649,0.06203237548470497
188,0,32,28,0.5721358060836792,0.05123216286301613
188,0,32,29,0.5182114243507385,0.019893862307071686
188,0,32,30,0.43865349888801575,0.08442463725805283
188,0,32,31,0.5097609758377075,0.07809539139270782
188,1,32,0,0.5038008689880371,0.04686419293284416
188,1,32,1,0.5582798719406128,0.09521311521530151
188,1,32,2,0.41314032673835754,0.06688353419303894
188,1,32,3,0.4364622235298157,0.09820792824029922
188,1,32,4,0.49260208010673523,0.02581196278333664
188,1,32,5,0.3995090425014496,0.0969095230102539
188,1,32,6,0.5428795218467712,0.03191782161593437
188,1,32,7,0.4929526746273041,0.0613701157271862
188,1,32,8,0.4004814624786377,0.05602950602769852
188,1,32,9,0.6270702481269836,0.031328994780778885
188,1,32,10,0.39893561601638794,0.05007423460483551
188,1,32,11,0.49602609872817993,0.03873961791396141
188,1,32,12,0.43239787220954895,0.09088661521673203
188,1,32,13,0.5240575075149536,0.04675264284014702
188,1,32,14,0.554496705532074,0.11773410439491272
188,1,32,15,0.5064432621002197,0.08795525878667831
188,1,32,16,0.37098217010498047,0.08745843172073364
188,1,32,17,0.4390662610530853,0.06736264377832413
188,1,32,18,0.4045543372631073,0.09125970304012299
188,1,32,19,0.6554311513900757,0.05619196593761444
188,1,32,20,0.41574349999427795,0.07629484683275223
188,1,32,21,0.6854658722877502,0.043311815708875656
188,1,32,22,0.5698849558830261,0.0549468956887722
188,1,32,23,0.5229638814926147,0.0505523644387722
188,1,32,24,0.644387423992157,0.035218577831983566
188,1,32,25,0.5130449533462524,0.02997279353439808
188,1,32,26,0.6053594350814819,0.050934307277202606
188,1,32,27,0.5951445698738098,0.04278968274593353
188,1,32,28,0.5028183460235596,0.0648367702960968
188,1,32,29,0.46166208386421204,0.055991970002651215
188,1,32,30,0.5055338144302368,0.16207820177078247
188,1,32,31,0.6676791906356812,0.030092990025877953
188,2,64,0,0.4755839407444,0.07442329078912735
188,2,64,1,0.4135670065879822,0.06303109228610992
188,2,64,2,0.5180279016494751,0.05497785657644272
188,2,64,3,0.5425612926483154,0.11432500183582306
188,2,64,4,0.4781639873981476,0.09999052435159683
188,2,64,5,0.3893982768058777,0.10743846744298935
188,2,64,6,0.4351753890514374,0.07147791981697083
188,2,64,7,0.616180419921875,0.08103732019662857
188,2,64,8,0.49025535583496094,0.056469082832336426
188,2,64,9,0.46644219756126404,0.09556710720062256
188,2,64,10,0.6803233027458191,0.10320401191711426
188,2,64,11,0.5182360410690308,0.052836570888757706
188,2,64,12,0.4412287175655365,0.0754537433385849
188,2,64,13,0.5859482288360596,0.073827363550663
188,2,64,14,0.27173730731010437,0.1350853592157364
188,2,64,15,0.5913227200508118,0.0809219628572464
188,2,64,16,0.6559299826622009,0.07367852330207825
188,2,64,17,0.45156538486480713,0.08880344778299332
188,2,64,18,0.5328493118286133,0.04826529324054718
188,2,64,19,0.5617440342903137,0.037765633314847946
188,2,64,20,0.35842540860176086,0.0708426982164383
188,2,64,21,0.5932973623275757,0.0940447747707367
188,2,64,22,0.5648626685142517,0.09307534247636795
188,2,64,23,0.4639744162559509,0.1123507022857666
188,2,64,24,0.5870776772499084,0.18883965909481049
188,2,64,25,0.6750850677490234,0.10639946162700653
188,2,64,26,0.48735514283180237,0.07482364773750305
188,2,64,27,0.5732532739639282,0.09042809158563614
188,2,64,28,0.4149588644504547,0.06276233494281769
188,2,64,29,0.5058174729347229,0.09770135581493378
188,2,64,30,0.3287980854511261,0.1340944766998291
188,2,64,31,0.5139874815940857,0.10344012081623077
188,2,64,32,0.3974740505218506,0.04109901189804077
188,2,64,33,0.5594860911369324,0.041251204907894135
188,2,64,34,0.496372789144516,0.05731955170631409
188,2,64,35,0.42199039459228516,0.07100044935941696
188,2,64,36,0.3972180187702179,0.07249774783849716
188,2,64,37,0.6477925777435303,0.0963636189699173
188,2,64,38,0.6007007360458374,0.05663413554430008
188,2,64,39,0.3800045847892761,0.09041411429643631
188,2,64,40,0.3617977201938629,0.09010685235261917
188,2,64,41,0.456009179353714,0.09034772217273712
188,2,64,42,0.6953107714653015,0.10127760469913483
188,2,64,43,0.5662227869033813,0.04383630305528641
188,2,64,44,0.47548162937164307,0.03925184905529022
188,2,64,45,0.4371299743652344,0.144333615899086
188,2,64,46,0.43443894386291504,0.14451970160007477
188,2,64,47,0.4837707281112671,0.1095234677195549
188,2,64,48,0.4816543161869049,0.09964811056852341
188,2,64,49,0.3337535262107849,0.0991213321685791
188,2,64,50,0.5980675220489502,0.07076539099216461
188,2,64,51,0.31675928831100464,0.09747776389122009
188,2,64,52,0.44245418906211853,0.04109892621636391
188,2,64,53,0.5144128799438477,0.04710900038480759
188,2,64,54,0.6335431933403015,0.0854533463716507
188,2,64,55,0.49554359912872314,0.07551167905330658
188,2,64,56,0.5391263961791992,0.109189473092556
188,2,64,57,0.37257492542266846,0.04703294858336449
188,2,64,58,0.5158502459526062,0.07668597251176834
188,2,64,59,0.47301965951919556,0.03214661777019501
188,2,64,60,0.6179081201553345,0.06387539207935333
188,2,64,61,0.4521138668060303,0.07959554344415665
188,2,64,62,0.3964459002017975,0.09382177144289017
188,2,64,63,0.5335739254951477,0.049235377460718155
188,3,64,0,0.6168615818023682,0.14548732340335846
188,3,64,1,0.41202065348625183,0.08651110529899597
188,3,64,2,0.4485120177268982,0.10578496009111404
188,3,64,3,0.4658466577529907,0.03235534578561783
188,3,64,4,0.52362060546875,0.12283605337142944
188,3,64,5,0.5338610410690308,0.04097146913409233
188,3,64,6,0.43858179450035095,0.04453413560986519
188,3,64,7,0.6464167833328247,0.05427232012152672
188,3,64,8,0.459777295589447,0.06970515102148056
188,3,64,9,0.6755295395851135,0.06823498755693436
188,3,64,10,0.3540976941585541,0.0633249580860138
188,3,64,11,0.5160597562789917,0.08885008096694946
188,3,64,12,0.4661717712879181,0.13509099185466766
188,3,64,13,0.5554316639900208,0.07986898720264435
188,3,64,14,0.3946005702018738,0.10580535978078842
188,3,64,15,0.45289427042007446,0.09897321462631226
188,3,64,16,0.45430880784988403,0.04328228905797005
188,3,64,17,0.4268262982368469,0.05671847239136696
188,3,64,18,0.46737003326416016,0.03515718877315521
188,3,64,19,0.5084388256072998,0.05593579635024071
188,3,64,20,0.38666829466819763,0.047976769506931305
188,3,64,21,0.557346761226654,0.04820765554904938
188,3,64,22,0.6520567536354065,0.061138007789850235
188,3,64,23,0.4661635458469391,0.09078987687826157
188,3,64,24,0.6856134533882141,0.0978500172495842
188,3,64,25,0.44406598806381226,0.1022031232714653
188,3,64,26,0.5044956207275391,0.11045631766319275
188,3,64,27,0.47340425848960876,0.12631762027740479
188,3,64,28,0.4254830479621887,0.0764770656824112
188,3,64,29,0.48352178931236267,0.023967688903212547
188,3,64,30,0.5438407063484192,0.05856320634484291
188,3,64,31,0.4550650417804718,0.09146106988191605
188,3,64,32,0.35345718264579773,0.07318142801523209
188,3,64,33,0.4433082938194275,0.06287648528814316
188,3,64,34,0.47657322883605957,0.1351122260093689
188,3,64,35,0.48865678906440735,0.06768476963043213
188,3,64,36,0.5031893849372864,0.08207909762859344
188,3,64,37,0.5352246165275574,0.030462151393294334
188,3,64,38,0.44053223729133606,0.09645386040210724
188,3,64,39,0.487954318523407,0.06769280135631561
188,3,64,40,0.5806934833526611,0.10212632268667221
188,3,64,41,0.50815349817276,0.07685035467147827
188,3,64,42,0.5236046314239502,0.13819211721420288
188,3,64,43,0.5433487296104431,0.047700610011816025
188,3,64,44,0.4478905200958252,0.09891617298126221
188,3,64,45,0.3113693296909332,0.0681183710694313
188,3,64,46,0.6134935021400452,0.04474099725484848
188,3,64,47,0.45445510745048523,0.10653311759233475
188,3,64,48,0.5070686936378479,0.09565452486276627
188,3,64,49,0.42082881927490234,0.043624114245176315
188,3,64,50,0.6237095594406128,0.04485050216317177
188,3,64,51,0.4876349866390228,0.08886335045099258
188,3,64,52,0.539807915687561,0.09403911232948303
188,3,64,53,0.5492244958877563,0.06239473447203636
188,3,64,54,0.44495102763175964,0.039441294968128204
188,3,64,55,0.3700237274169922,0.10694900900125504
188,3,64,56,0.45826390385627747,0.07916255295276642
188,3,64,57,0.4152093529701233,0.04888119921088219
188,3,64,58,0.3733258545398712,0.0757002905011177
188,3,64,59,0.4753319323062897,0.06126508489251137
188,3,64,60,0.39230814576148987,0.05294979736208916
188,3,64,61,0.31117919087409973,0.05961604788899422
188,3,64,62,0.44846633076667786,0.08141893148422241
188,3,64,63,0.558129608631134,0.0657137781381607
188,4,128,0,0.5638670921325684,0.12495123594999313
188,4,128,1,0.4980616867542267,0.15197773277759552
188,4,128,2,0.5999231338500977,0.06601123511791229
188,4,128,3,0.39979633688926697,0.15353593230247498
188,4,128,4,0.5325533747673035,0.168511301279068
188,4,128,5,0.5873644351959229,0.09972459822893143
188,4,128,6,0.6250450611114502,0.18601040542125702
188,4,128,7,0.660053551197052,0.08288818597793579
188,4,128,8,0.6064934134483337,0.11075198650360107
188,4,128,9,0.544105052947998,0.12927953898906708
188,4,128,10,0.702316164970398,0.10353361815214157
188,4,128,11,0.37447547912597656,0.13128113746643066
188,4,128,12,0.46396544575691223,0.07708993554115295
188,4,128,13,0.5062622427940369,0.061567522585392
188,4,128,14,0.5746846795082092,0.1651407927274704
188,4,128,15,0.5581548810005188,0.05593891069293022
188,4,128,16,0.6910193562507629,0.12758396565914154
188,4,128,17,0.36822372674942017,0.15816433727741241
188,4,128,18,0.6331015825271606,0.06924495846033096
188,4,128,19,0.6159697771072388,0.13426312804222107
188,4,128,20,0.6958251595497131,0.13302507996559143
188,4,128,21,0.5881583094596863,0.08520077168941498
188,4,128,22,0.6156536936759949,0.14829722046852112
188,4,128,23,0.35565751791000366,0.07086461782455444
188,4,128,24,0.5434132814407349,0.1305977702140808
188,4,128,25,0.4949289858341217,0.22881454229354858
188,4,128,26,0.380727082490921,0.16437537968158722
188,4,128,27,0.4226038455963135,0.18424361944198608
188,4,128,28,0.5230058431625366,0.12121915072202682
188,4,128,29,0.5273867249488831,0.11558306962251663
188,4,128,30,0.5413190126419067,0.13071462512016296
188,4,128,31,0.5703122615814209,0.12278713285923004
188,4,128,32,0.45240509510040283,0.12806764245033264
188,4,128,33,0.4984673261642456,0.14568287134170532
188,4,128,34,0.5115711688995361,0.11164601892232895
188,4,128,35,0.4779905676841736,0.10508987307548523
188,4,128,36,0.6088215112686157,0.15920457243919373
188,4,128,37,0.4722491502761841,0.22473715245723724
188,4,128,38,0.6744334697723389,0.07809924334287643
188,4,128,39,0.5580564141273499,0.1051219180226326
188,4,128,40,0.5464826226234436,0.19518890976905823
188,4,128,41,0.4200124740600586,0.10530464351177216
188,4,128,42,0.6133797764778137,0.1302395910024643
188,4,128,43,0.622774600982666,0.11150362342596054
188,4,128,44,0.573760986328125,0.17532747983932495
188,4,128,45,0.628558337688446,0.10762976855039597
188,4,128,46,0.6269333362579346,0.11617805063724518
188,4,128,47,0.5772472023963928,0.1024477481842041
188,4,128,48,0.6715888381004333,0.14770032465457916
188,4,128,49,0.49047577381134033,0.1316484808921814
188,4,128,50,0.46453139185905457,0.13471274077892303
188,4,128,51,0.6770352125167847,0.12359392642974854
188,4,128,52,0.44852226972579956,0.09255094081163406
188,4,128,53,0.5336304306983948,0.12912413477897644
188,4,128,54,0.46438661217689514,0.1931796371936798
188,4,128,55,0.512493908405304,0.11660955846309662
188,4,128,56,0.4634939432144165,0.12649694085121155
188,4,128,57,0.6999387741088867,0.10057517886161804
188,4,128,58,0.611203670501709,0.07882991433143616
188,4,128,59,0.5218052268028259,0.14276345074176788
188,4,128,60,0.5613971948623657,0.15423934161663055
188,4,128,61,0.5887513756752014,0.0944719910621643
188,4,128,62,0.47376686334609985,0.20380899310112
188,4,128,63,0.5894713401794434,0.1338610202074051
188,4,128,64,0.5653818845748901,0.04254985973238945
188,4,128,65,0.38045498728752136,0.2554628551006317
188,4,128,66,0.5435947179794312,0.11273859441280365
188,4,128,67,0.5993172526359558,0.08262190967798233
188,4,128,68,0.3966416120529175,0.102028027176857
188,4,128,69,0.5009209513664246,0.16310414671897888
188,4,128,70,0.7208763360977173,0.07765612006187439
188,4,128,71,0.5404900908470154,0.15319450199604034
188,4,128,72,0.49274250864982605,0.13303495943546295
188,4,128,73,0.6340069770812988,0.1306612342596054
188,4,128,74,0.39967378973960876,0.22946445643901825
188,4,128,75,0.44061097502708435,0.1409665048122406
188,4,128,76,0.5597162842750549,0.1174725890159607
188,4,128,77,0.5910021662712097,0.1924353986978531
188,4,128,78,0.40306758880615234,0.23469345271587372
188,4,128,79,0.5514932870864868,0.07384147495031357
188,4,128,80,0.3475295603275299,0.13624277710914612
188,4,128,81,0.6548791527748108,0.11746300756931305
188,4,128,82,0.6192979216575623,0.16001087427139282
188,4,128,83,0.5723653435707092,0.22983482480049133
188,4,128,84,0.3700258135795593,0.16240020096302032
188,4,128,85,0.5845633149147034,0.13933615386486053
188,4,128,86,0.5665572881698608,0.15525780618190765
188,4,128,87,0.5353399515151978,0.088999442756176
188,4,128,88,0.3704787492752075,0.16029129922389984
188,4,128,89,0.5864242911338806,0.08168229460716248
188,4,128,90,0.6399097442626953,0.14346736669540405
188,4,128,91,0.5779712200164795,0.10828503966331482
188,4,128,92,0.552049458026886,0.17687566578388214
188,4,128,93,0.5670517683029175,0.09325271099805832
188,4,128,94,0.6393642425537109,0.18428750336170197
188,4,128,95,0.6051152348518372,0.09758028388023376
188,4,128,96,0.6818861961364746,0.11141922324895859
188,4,128,97,0.5024111270904541,0.10517405718564987
188,4,128,98,0.520312488079071,0.1836763322353363
188,4,128,99,0.5093976855278015,0.12692110240459442
188,4,128,100,0.4385692775249481,0.1038229763507843
188,4,128,101,0.6428959965705872,0.08570358157157898
188,4,128,102,0.5177370309829712,0.16527743637561798
188,4,128,103,0.5642654895782471,0.12216035276651382
188,4,128,104,0.47484147548675537,0.09545860439538956
188,4,128,105,0.5270448923110962,0.09056955575942993
188,4,128,106,0.4556991755962372,0.12613224983215332
188,4,128,107,0.4044816792011261,0.11631970852613449
188,4,128,108,0.40939104557037354,0.18427756428718567
188,4,128,109,0.4006420969963074,0.24237899482250214
188,4,128,110,0.5692336559295654,0.21108117699623108
188,4,128,111,0.5261059403419495,0.20871590077877045
188,4,128,112,0.3973408043384552,0.22980903089046478
188,4,128,113,0.5632916688919067,0.11169666051864624
188,4,128,114,0.5764808654785156,0.1307903379201889
188,4,128,115,0.6768813729286194,0.1136958971619606
188,4,128,116,0.4978594183921814,0.2629963457584381
188,4,128,117,0.6384313106536865,0.15146203339099884
188,4,128,118,0.4427604079246521,0.10989871621131897
188,4,128,119,0.6191257834434509,0.14425501227378845
188,4,128,120,0.4634806513786316,0.08615577965974808
188,4,128,121,0.5294082760810852,0.1341542899608612
188,4,128,122,0.5770852565765381,0.07304412126541138
188,4,128,123,0.5739612579345703,0.09035012871026993
188,4,128,124,0.6543293595314026,0.11075977236032486
188,4,128,125,0.40156424045562744,0.17238730192184448
188,4,128,126,0.7464298605918884,0.11678530275821686
188,4,128,127,0.3779296278953552,0.13370680809020996
188,5,128,0,0.6605685949325562,0.08368788659572601
188,5,128,1,0.691178560256958,0.2061634659767151
188,5,128,2,0.5734100937843323,0.06280690431594849
188,5,128,3,0.6806900501251221,0.21021419763565063
188,5,128,4,0.715368390083313,0.19300247728824615
188,5,128,5,0.6747876405715942,0.11191607266664505
188,5,128,6,0.5178536772727966,0.22032113373279572
188,5,128,7,0.5436020493507385,0.20464716851711273
188,5,128,8,0.4673459529876709,0.14274024963378906
188,5,128,9,0.773473858833313,0.1515035182237625
188,5,128,10,0.6158907413482666,0.0799882709980011
188,5,128,11,0.6391832232475281,0.2110462635755539
188,5,128,12,0.32118889689445496,0.07736765593290329
188,5,128,13,0.4752618670463562,0.1823815107345581
188,5,128,14,0.3979342579841614,0.19207945466041565
188,5,128,15,0.6330901384353638,0.13812880218029022
188,5,128,16,0.41527462005615234,0.128954216837883
188,5,128,17,0.6118395924568176,0.21859712898731232
188,5,128,18,0.5288770794868469,0.06774290651082993
188,5,128,19,0.6620178818702698,0.16460435092449188
188,5,128,20,0.6849308013916016,0.08893251419067383
188,5,128,21,0.7039709091186523,0.1706630140542984
188,5,128,22,0.7814889550209045,0.11765605211257935
188,5,128,23,0.6378412842750549,0.2091302126646042
188,5,128,24,0.41382402181625366,0.08722124248743057
188,5,128,25,0.7183389067649841,0.20460081100463867
188,5,128,26,0.6067150831222534,0.11548745632171631
188,5,128,27,0.4903777837753296,0.19188107550144196
188,5,128,28,0.4631785452365875,0.0894136056303978
188,5,128,29,0.6009833216667175,0.18840229511260986
188,5,128,30,0.6857986450195312,0.1688065081834793
188,5,128,31,0.7905014157295227,0.14037318527698517
188,5,128,32,0.6998440027236938,0.13315777480602264
188,5,128,33,0.7148874402046204,0.14229716360569
188,5,128,34,0.6740999221801758,0.18262740969657898
188,5,128,35,0.3080037832260132,0.19611482322216034
188,5,128,36,0.7098074555397034,0.19331839680671692
188,5,128,37,0.7768106460571289,0.16447193920612335
188,5,128,38,0.8207078576087952,0.10175007581710815
188,5,128,39,0.6507104635238647,0.16897764801979065
188,5,128,40,0.6959561705589294,0.18208810687065125
188,5,128,41,0.6016594171524048,0.261308878660202
188,5,128,42,0.5669233202934265,0.1231137365102768
188,5,128,43,0.619246244430542,0.12413686513900757
188,5,128,44,0.6154770255088806,0.10068737715482712
188,5,128,45,0.4014824330806732,0.12182057648897171
188,5,128,46,0.415921151638031,0.2252362072467804
188,5,128,47,0.7143207788467407,0.19849278032779694
188,5,128,48,0.31696656346321106,0.20870454609394073
188,5,128,49,0.7108588218688965,0.16824287176132202
188,5,128,50,0.6411564350128174,0.22641374170780182
188,5,128,51,0.6714135408401489,0.22514444589614868
188,5,128,52,0.7042211890220642,0.12775713205337524
188,5,128,53,0.5160617232322693,0.1164378970861435
188,5,128,54,0.7556524276733398,0.17683081328868866
188,5,128,55,0.5541846752166748,0.06763207167387009
188,5,128,56,0.4294183850288391,0.11531101912260056
188,5,128,57,0.5809481739997864,0.14170044660568237
188,5,128,58,0.6575202345848083,0.06938721984624863
188,5,128,59,0.6016741394996643,0.06160983443260193
188,5,128,60,0.7288445830345154,0.20050179958343506
188,5,128,61,0.8008341193199158,0.12459046393632889
188,5,128,62,0.60091233253479,0.12483534961938858
188,5,128,63,0.6971232891082764,0.1414545774459839
188,5,128,64,0.4348401725292206,0.09236948937177658
188,5,128,65,0.4212031960487366,0.18452692031860352
188,5,128,66,0.5560780763626099,0.2661067545413971
188,5,128,67,0.7510131001472473,0.19334493577480316
188,5,128,68,0.5957208275794983,0.0959504097700119
188,5,128,69,0.530537486076355,0.05764813348650932
188,5,128,70,0.3886091113090515,0.16719180345535278
188,5,128,71,0.7488624453544617,0.16280338168144226
188,5,128,72,0.727285623550415,0.2129524052143097
188,5,128,73,0.5702998042106628,0.0681276023387909
188,5,128,74,0.6609548330307007,0.25553324818611145
188,5,128,75,0.48646917939186096,0.042901646345853806
188,5,128,76,0.6692833304405212,0.23849160969257355
188,5,128,77,0.3913688063621521,0.21610379219055176
188,5,128,78,0.6493474841117859,0.2468554675579071
188,5,128,79,0.6741558313369751,0.11823667585849762
188,5,128,80,0.7639676332473755,0.1368163824081421
188,5,128,81,0.6364705562591553,0.13380376994609833
188,5,128,82,0.6518169045448303,0.2330155372619629
188,5,128,83,0.6088429093360901,0.18539197742938995
188,5,128,84,0.7038565278053284,0.15204940736293793
188,5,128,85,0.7911449670791626,0.13949799537658691
188,5,128,86,0.4930560290813446,0.22774340212345123
188,5,128,87,0.43587467074394226,0.06604982912540436
188,5,128,88,0.589836597442627,0.1771235466003418
188,5,128,89,0.4062184691429138,0.2214767187833786
188,5,128,90,0.6968187093734741,0.1699475795030594
188,5,128,91,0.5781251192092896,0.09333495050668716
188,5,128,92,0.6717283129692078,0.1474553942680359
188,5,128,93,0.6311888098716736,0.0755462571978569
188,5,128,94,0.597331702709198,0.09401070326566696
188,5,128,95,0.49204379320144653,0.08517497032880783
188,5,128,96,0.6320599913597107,0.12469320744276047
188,5,128,97,0.6005255579948425,0.20842814445495605
188,5,128,98,0.3821975886821747,0.21808934211730957
188,5,128,99,0.6217226982116699,0.2931986451148987
188,5,128,100,0.7061612010002136,0.15918448567390442
188,5,128,101,0.7126747369766235,0.1640956550836563
188,5,128,102,0.5549930930137634,0.0937584787607193
188,5,128,103,0.7278011441230774,0.16977088153362274
188,5,128,104,0.5801699161529541,0.09205102920532227
188,5,128,105,0.7298228144645691,0.15326426923274994
188,5,128,106,0.7155935168266296,0.09718823432922363
188,5,128,107,0.4942483901977539,0.18730346858501434
188,5,128,108,0.6396474838256836,0.22421814501285553
188,5,128,109,0.6512296199798584,0.18747864663600922
188,5,128,110,0.566020667552948,0.08130676299333572
188,5,128,111,0.5960518717765808,0.050449591130018234
188,5,128,112,0.6356536746025085,0.2034948319196701
188,5,128,113,0.748792290687561,0.18634803593158722
188,5,128,114,0.6091951131820679,0.27305781841278076
188,5,128,115,0.7212480306625366,0.16366222500801086
188,5,128,116,0.5879228711128235,0.24258092045783997
188,5,128,117,0.5025396943092346,0.07114092260599136
188,5,128,118,0.5591881275177002,0.1587168127298355
188,5,128,119,0.7241458296775818,0.15102523565292358
188,5,128,120,0.7384606003761292,0.13940666615962982
188,5,128,121,0.29323118925094604,0.1819867640733719
188,5,128,122,0.6088570356369019,0.1338890641927719
188,5,128,123,0.6985923647880554,0.10132276266813278
188,5,128,124,0.6452615857124329,0.23717960715293884
188,5,128,125,0.7841349840164185,0.14471426606178284
188,5,128,126,0.42585983872413635,0.20833267271518707
188,5,128,127,0.7150752544403076,0.1711985468864441
189,0,32,0,0.6278053522109985,0.045636456459760666
189,0,32,1,0.42696890234947205,0.05549301952123642
189,0,32,2,0.5967399477958679,0.03852170333266258
189,0,32,3,0.47736749053001404,0.07315721362829208
189,0,32,4,0.5461656451225281,0.03741384297609329
189,0,32,5,0.5127837657928467,0.03214295580983162
189,0,32,6,0.5397039651870728,0.05186600238084793
189,0,32,7,0.3937179744243622,0.02329711616039276
189,0,32,8,0.45583224296569824,0.045138392597436905
189,0,32,9,0.4319817125797272,0.045012619346380234
189,0,32,10,0.5675480961799622,0.0390387661755085
189,0,32,11,0.3831770718097687,0.02198643423616886
189,0,32,12,0.4565255045890808,0.06815440207719803
189,0,32,13,0.5521315336227417,0.025945942848920822
189,0,32,14,0.4369795620441437,0.03658927604556084
189,0,32,15,0.4155171811580658,0.0703105553984642
189,0,32,16,0.5046688318252563,0.03595447167754173
189,0,32,17,0.489700585603714,0.05259593948721886
189,0,32,18,0.4407500922679901,0.043777406215667725
189,0,32,19,0.439964234828949,0.04905066639184952
189,0,32,20,0.48706480860710144,0.03626363351941109
189,0,32,21,0.41017821431159973,0.02840386889874935
189,0,32,22,0.558169424533844,0.05933782830834389
189,0,32,23,0.40770822763442993,0.034269172698259354
189,0,32,24,0.3742525577545166,0.04046683385968208
189,0,32,25,0.4136646091938019,0.04682102054357529
189,0,32,26,0.427047461271286,0.016127921640872955
189,0,32,27,0.4962664544582367,0.05631258711218834
189,0,32,28,0.6244667172431946,0.026494435966014862
189,0,32,29,0.5002042055130005,0.02227490022778511
189,0,32,30,0.46217891573905945,0.039879292249679565
189,0,32,31,0.42750129103660583,0.046796564012765884
189,1,32,0,0.5461863875389099,0.0457601360976696
189,1,32,1,0.5369583368301392,0.05040092021226883
189,1,32,2,0.5258037447929382,0.07292690128087997
189,1,32,3,0.4613479971885681,0.05072665214538574
189,1,32,4,0.47299084067344666,0.02730754017829895
189,1,32,5,0.4331844449043274,0.024924922734498978
189,1,32,6,0.42978277802467346,0.06403468549251556
189,1,32,7,0.5241968035697937,0.05406663194298744
189,1,32,8,0.41080769896507263,0.029119519516825676
189,1,32,9,0.5070258975028992,0.0873829647898674
189,1,32,10,0.4683593511581421,0.07601295411586761
189,1,32,11,0.5723347663879395,0.08346062898635864
189,1,32,12,0.6531699895858765,0.043092627078294754
189,1,32,13,0.43478289246559143,0.07085882127285004
189,1,32,14,0.551793098449707,0.08074033260345459
189,1,32,15,0.5489348769187927,0.03475010767579079
189,1,32,16,0.4996342957019806,0.09330755472183228
189,1,32,17,0.48042160272598267,0.054324664175510406
189,1,32,18,0.5325786471366882,0.08692732453346252
189,1,32,19,0.6406636238098145,0.03470085188746452
189,1,32,20,0.43766406178474426,0.03426356241106987
189,1,32,21,0.47817903757095337,0.091106116771698
189,1,32,22,0.501065194606781,0.028938833624124527
189,1,32,23,0.4695809483528137,0.035529252141714096
189,1,32,24,0.45541292428970337,0.06768923997879028
189,1,32,25,0.5233616828918457,0.02209637127816677
189,1,32,26,0.5421977639198303,0.05697644501924515
189,1,32,27,0.5132036209106445,0.10953289270401001
189,1,32,28,0.5099780559539795,0.05696812644600868
189,1,32,29,0.40294262766838074,0.0476033091545105
189,1,32,30,0.5061460733413696,0.07165708392858505
189,1,32,31,0.5136986970901489,0.03685525059700012
189,2,64,0,0.5853706002235413,0.04706158861517906
189,2,64,1,0.5055397152900696,0.0346931554377079
189,2,64,2,0.4014940559864044,0.02721056528389454
189,2,64,3,0.5631852746009827,0.05203630402684212
189,2,64,4,0.4754437208175659,0.08150959759950638
189,2,64,5,0.5271261930465698,0.046518873423337936
189,2,64,6,0.5263205170631409,0.04323732107877731
189,2,64,7,0.6303642392158508,0.05603902414441109
189,2,64,8,0.426850289106369,0.0817897766828537
189,2,64,9,0.583373486995697,0.06947381049394608
189,2,64,10,0.41867169737815857,0.05861311033368111
189,2,64,11,0.42209529876708984,0.06367422640323639
189,2,64,12,0.5353911519050598,0.12104427814483643
189,2,64,13,0.4779941737651825,0.06039568781852722
189,2,64,14,0.533760130405426,0.08423776924610138
189,2,64,15,0.46481961011886597,0.029087498784065247
189,2,64,16,0.48341476917266846,0.06795913726091385
189,2,64,17,0.5415924787521362,0.055885378271341324
189,2,64,18,0.4095105826854706,0.024344222620129585
189,2,64,19,0.4127628803253174,0.06952569633722305
189,2,64,20,0.5322041511535645,0.03526203706860542
189,2,64,21,0.5793293714523315,0.06252161413431168
189,2,64,22,0.43327435851097107,0.05718410760164261
189,2,64,23,0.48886966705322266,0.08607927709817886
189,2,64,24,0.4959653615951538,0.029824605211615562
189,2,64,25,0.5265352129936218,0.06791386008262634
189,2,64,26,0.5059512853622437,0.04463421180844307
189,2,64,27,0.40605390071868896,0.04149779677391052
189,2,64,28,0.4437316358089447,0.04509785398840904
189,2,64,29,0.48312878608703613,0.029427548870444298
189,2,64,30,0.48964372277259827,0.05018019303679466
189,2,64,31,0.5092320442199707,0.04046797379851341
189,2,64,32,0.5532533526420593,0.05178654566407204
189,2,64,33,0.4043278694152832,0.06839478015899658
189,2,64,34,0.5562278628349304,0.04592716321349144
189,2,64,35,0.5628748536109924,0.03926834091544151
189,2,64,36,0.5358814597129822,0.07343214005231857
189,2,64,37,0.46178579330444336,0.04987505450844765
189,2,64,38,0.5100625157356262,0.0442638099193573
189,2,64,39,0.35970503091812134,0.059940263628959656
189,2,64,40,0.5074288845062256,0.0808669924736023
189,2,64,41,0.6163549423217773,0.05291813984513283
189,2,64,42,0.5938200354576111,0.08504089713096619
189,2,64,43,0.6204265356063843,0.03832308575510979
189,2,64,44,0.41804182529449463,0.1046709269285202
189,2,64,45,0.39850714802742004,0.06150442734360695
189,2,64,46,0.3656502664089203,0.05095592141151428
189,2,64,47,0.4662751257419586,0.0568525530397892
189,2,64,48,0.5477342009544373,0.0645650178194046
189,2,64,49,0.5668262839317322,0.05603964999318123
189,2,64,50,0.37296006083488464,0.04290396720170975
189,2,64,51,0.521799623966217,0.0644088014960289
189,2,64,52,0.5434691309928894,0.02098006010055542
189,2,64,53,0.4269438087940216,0.060857582837343216
189,2,64,54,0.5978468060493469,0.04513351991772652
189,2,64,55,0.40415623784065247,0.051404211670160294
189,2,64,56,0.5861649513244629,0.04032173007726669
189,2,64,57,0.5697020292282104,0.09520543366670609
189,2,64,58,0.5733799934387207,0.056996993720531464
189,2,64,59,0.4738498628139496,0.09052766114473343
189,2,64,60,0.5021020770072937,0.03990406170487404
189,2,64,61,0.5402654409408569,0.031511519104242325
189,2,64,62,0.5368189215660095,0.045294612646102905
189,2,64,63,0.5499367117881775,0.051751960068941116
189,3,64,0,0.6365014910697937,0.03774438425898552
189,3,64,1,0.44046443700790405,0.10384107381105423
189,3,64,2,0.4375717341899872,0.044230442494153976
189,3,64,3,0.4641938805580139,0.05103254318237305
189,3,64,4,0.36275964975357056,0.04050811007618904
189,3,64,5,0.4813438355922699,0.04403294622898102
189,3,64,6,0.5094208121299744,0.02475876733660698
189,3,64,7,0.4466259777545929,0.03716157004237175
189,3,64,8,0.4513989984989166,0.035857804119586945
189,3,64,9,0.44822683930397034,0.044978782534599304
189,3,64,10,0.4808989465236664,0.02733846940100193
189,3,64,11,0.539187490940094,0.03745720162987709
189,3,64,12,0.5484856963157654,0.07660031318664551
189,3,64,13,0.4095028340816498,0.08626393228769302
189,3,64,14,0.5429835319519043,0.09017729759216309
189,3,64,15,0.36702990531921387,0.039782460778951645
189,3,64,16,0.5882409811019897,0.06410177052021027
189,3,64,17,0.5341001749038696,0.05806745961308479
189,3,64,18,0.5723837614059448,0.052860990166664124
189,3,64,19,0.5271101593971252,0.058467693626880646
189,3,64,20,0.4646245837211609,0.034765876829624176
189,3,64,21,0.38822588324546814,0.05757356435060501
189,3,64,22,0.5559423565864563,0.10428197681903839
189,3,64,23,0.48400676250457764,0.06416797637939453
189,3,64,24,0.42494121193885803,0.022034162655472755
189,3,64,25,0.5458647608757019,0.07042974978685379
189,3,64,26,0.4544401168823242,0.10142675042152405
189,3,64,27,0.48389124870300293,0.023387257009744644
189,3,64,28,0.47438469529151917,0.0444909892976284
189,3,64,29,0.5069098472595215,0.04485291615128517
189,3,64,30,0.5573883652687073,0.02554815262556076
189,3,64,31,0.4554341733455658,0.0782005786895752
189,3,64,32,0.4104028642177582,0.0787736177444458
189,3,64,33,0.4350300431251526,0.0357125960290432
189,3,64,34,0.5735002160072327,0.053239621222019196
189,3,64,35,0.4624245762825012,0.0560029000043869
189,3,64,36,0.47537466883659363,0.03964373469352722
189,3,64,37,0.3605198860168457,0.07099831104278564
189,3,64,38,0.6034048795700073,0.03630668297410011
189,3,64,39,0.41878655552864075,0.061156321316957474
189,3,64,40,0.46566513180732727,0.032845158129930496
189,3,64,41,0.5403007864952087,0.09794586151838303
189,3,64,42,0.4307686686515808,0.023975756019353867
189,3,64,43,0.4217723309993744,0.045443855226039886
189,3,64,44,0.5060426592826843,0.05107295140624046
189,3,64,45,0.49043458700180054,0.07315663993358612
189,3,64,46,0.46043139696121216,0.09104359894990921
189,3,64,47,0.4615579843521118,0.046131014823913574
189,3,64,48,0.5444439053535461,0.02809417061507702
189,3,64,49,0.4921167194843292,0.08743159472942352
189,3,64,50,0.5015917420387268,0.07485044747591019
189,3,64,51,0.5772847533226013,0.09979128837585449
189,3,64,52,0.42616358399391174,0.03659597039222717
189,3,64,53,0.5669547915458679,0.03768296539783478
189,3,64,54,0.4542050063610077,0.0990435779094696
189,3,64,55,0.46583762764930725,0.02401433326303959
189,3,64,56,0.49556946754455566,0.035729557275772095
189,3,64,57,0.5688274502754211,0.06968560814857483
189,3,64,58,0.5258257985115051,0.05160489305853844
189,3,64,59,0.34922000765800476,0.06986035406589508
189,3,64,60,0.5072956085205078,0.06092718243598938
189,3,64,61,0.567712664604187,0.07704838365316391
189,3,64,62,0.5266391038894653,0.018450986593961716
189,3,64,63,0.45574304461479187,0.02594645507633686
189,4,128,0,0.47169229388237,0.06222451850771904
189,4,128,1,0.4597043991088867,0.0539635606110096
189,4,128,2,0.4992324411869049,0.06005086749792099
189,4,128,3,0.5371769070625305,0.06710779666900635
189,4,128,4,0.4267479479312897,0.04412323608994484
189,4,128,5,0.44623252749443054,0.03603126481175423
189,4,128,6,0.4937457740306854,0.06829811632633209
189,4,128,7,0.5605336427688599,0.048183001577854156
189,4,128,8,0.5195738077163696,0.05149032548069954
189,4,128,9,0.5754434466362,0.05860812962055206
189,4,128,10,0.46597152948379517,0.08344939351081848
189,4,128,11,0.5432491302490234,0.0700531080365181
189,4,128,12,0.46495628356933594,0.067596934735775
189,4,128,13,0.44860705733299255,0.02973829209804535
189,4,128,14,0.4861024022102356,0.04607487469911575
189,4,128,15,0.6248077750205994,0.08793625235557556
189,4,128,16,0.486712247133255,0.04497843608260155
189,4,128,17,0.5646926760673523,0.05193350464105606
189,4,128,18,0.5360561609268188,0.039803799241781235
189,4,128,19,0.44285088777542114,0.03380484879016876
189,4,128,20,0.5468023419380188,0.07665219902992249
189,4,128,21,0.4803175926208496,0.05419398844242096
189,4,128,22,0.5061083436012268,0.04588755965232849
189,4,128,23,0.4228305518627167,0.039762064814567566
189,4,128,24,0.5766921043395996,0.055248476564884186
189,4,128,25,0.5164139866828918,0.05179733410477638
189,4,128,26,0.4421577453613281,0.061402447521686554
189,4,128,27,0.5263610482215881,0.025453956797719002
189,4,128,28,0.46024370193481445,0.06871435046195984
189,4,128,29,0.45159751176834106,0.03745582699775696
189,4,128,30,0.597536027431488,0.06344202160835266
189,4,128,31,0.4491159915924072,0.05170079693198204
189,4,128,32,0.4949127733707428,0.06050165742635727
189,4,128,33,0.4732914865016937,0.06527864933013916
189,4,128,34,0.5096532106399536,0.05225921794772148
189,4,128,35,0.49008113145828247,0.04345668479800224
189,4,128,36,0.5671658515930176,0.04002104327082634
189,4,128,37,0.549848735332489,0.059129148721694946
189,4,128,38,0.430093914270401,0.09303298592567444
189,4,128,39,0.4741290807723999,0.05917257070541382
189,4,128,40,0.5370165705680847,0.06546197086572647
189,4,128,41,0.5312440395355225,0.038629427552223206
189,4,128,42,0.5402640104293823,0.07621890306472778
189,4,128,43,0.5415747761726379,0.047516342252492905
189,4,128,44,0.49029260873794556,0.048717670142650604
189,4,128,45,0.5289106965065002,0.0601910799741745
189,4,128,46,0.5233527421951294,0.034694310277700424
189,4,128,47,0.5311817526817322,0.038616716861724854
189,4,128,48,0.5601047873497009,0.057479068636894226
189,4,128,49,0.4434968829154968,0.04304315149784088
189,4,128,50,0.4517385959625244,0.027097152546048164
189,4,128,51,0.4612770676612854,0.04708365723490715
189,4,128,52,0.5093337893486023,0.06251231580972672
189,4,128,53,0.5350841879844666,0.03760557621717453
189,4,128,54,0.4277747869491577,0.047044623643159866
189,4,128,55,0.5166569352149963,0.08496981859207153
189,4,128,56,0.45206475257873535,0.05505860596895218
189,4,128,57,0.474587082862854,0.04340513050556183
189,4,128,58,0.5984533429145813,0.03881301358342171
189,4,128,59,0.47297605872154236,0.027085615321993828
189,4,128,60,0.5901058912277222,0.06231370568275452
189,4,128,61,0.4915717840194702,0.04527001082897186
189,4,128,62,0.45795121788978577,0.07186944782733917
189,4,128,63,0.5001952052116394,0.035644132643938065
189,4,128,64,0.5444305539131165,0.02925950661301613
189,4,128,65,0.5440191030502319,0.027850763872265816
189,4,128,66,0.49196088314056396,0.029421035200357437
189,4,128,67,0.5401989221572876,0.07036954164505005
189,4,128,68,0.5172029733657837,0.04037613794207573
189,4,128,69,0.5043271780014038,0.05008600652217865
189,4,128,70,0.4373501241207123,0.03505910187959671
189,4,128,71,0.4693697392940521,0.02192660979926586
189,4,128,72,0.534975528717041,0.04474695026874542
189,4,128,73,0.5210556983947754,0.05591476336121559
189,4,128,74,0.47641700506210327,0.06387020647525787
189,4,128,75,0.5496670603752136,0.06415790319442749
189,4,128,76,0.4569387137889862,0.04178943857550621
189,4,128,77,0.4846546947956085,0.044264644384384155
189,4,128,78,0.5343639850616455,0.04951281100511551
189,4,128,79,0.49167686700820923,0.04829622060060501
189,4,128,80,0.4770798087120056,0.06132132187485695
189,4,128,81,0.5186737179756165,0.08865977823734283
189,4,128,82,0.5314211845397949,0.04340410232543945
189,4,128,83,0.4672001600265503,0.062127891927957535
189,4,128,84,0.5577603578567505,0.03901597857475281
189,4,128,85,0.49222368001937866,0.08921163529157639
189,4,128,86,0.5300792455673218,0.07717479765415192
189,4,128,87,0.4809694290161133,0.07828779518604279
189,4,128,88,0.44442638754844666,0.03790576756000519
189,4,128,89,0.48878422379493713,0.049636438488960266
189,4,128,90,0.5438222885131836,0.04034500941634178
189,4,128,91,0.5224168300628662,0.048612646758556366
189,4,128,92,0.4275258779525757,0.056417807936668396
189,4,128,93,0.5161715149879456,0.07908983528614044
189,4,128,94,0.5194466710090637,0.04666994512081146
189,4,128,95,0.4977457821369171,0.04992881417274475
189,4,128,96,0.48954567313194275,0.06557697802782059
189,4,128,97,0.5119650363922119,0.06125567480921745
189,4,128,98,0.42954856157302856,0.09938937425613403
189,4,128,99,0.5726020336151123,0.050778038799762726
189,4,128,100,0.5147210359573364,0.06694041937589645
189,4,128,101,0.4729239344596863,0.08784259855747223
189,4,128,102,0.4887351393699646,0.04503451660275459
189,4,128,103,0.4504460096359253,0.06288664042949677
189,4,128,104,0.5512233972549438,0.04146324843168259
189,4,128,105,0.42856404185295105,0.03356971591711044
189,4,128,106,0.519662618637085,0.03804473578929901
189,4,128,107,0.5406008362770081,0.04099864140152931
189,4,128,108,0.531631350517273,0.0522790253162384
189,4,128,109,0.5380983352661133,0.06538133323192596
189,4,128,110,0.49469006061553955,0.04390646144747734
189,4,128,111,0.5139898657798767,0.0728013664484024
189,4,128,112,0.40235254168510437,0.07034967839717865
189,4,128,113,0.5455917716026306,0.060893915593624115
189,4,128,114,0.540198802947998,0.07795415073633194
189,4,128,115,0.5216825604438782,0.0668795257806778
189,4,128,116,0.5830821990966797,0.05625162646174431
189,4,128,117,0.48234814405441284,0.04156796634197235
189,4,128,118,0.41230592131614685,0.04555844888091087
189,4,128,119,0.4785725772380829,0.04698267579078674
189,4,128,120,0.49891307950019836,0.04066793993115425
189,4,128,121,0.4611817002296448,0.09375908225774765
189,4,128,122,0.49873650074005127,0.05380776897072792
189,4,128,123,0.5234030485153198,0.04222673177719116
189,4,128,124,0.5795177221298218,0.07648560404777527
189,4,128,125,0.5356455445289612,0.07504396885633469
189,4,128,126,0.4965786039829254,0.04406919330358505
189,4,128,127,0.5425307154655457,0.08521721512079239
189,5,128,0,0.42460939288139343,0.019781971350312233
189,5,128,1,0.5560646057128906,0.07833397388458252
189,5,128,2,0.4496559500694275,0.05995728820562363
189,5,128,3,0.524825394153595,0.050716787576675415
189,5,128,4,0.5024560689926147,0.050396986305713654
189,5,128,5,0.39364591240882874,0.11453069746494293
189,5,128,6,0.4402564465999603,0.07222025096416473
189,5,128,7,0.5881141424179077,0.07181502878665924
189,5,128,8,0.5159384608268738,0.17188848555088043
189,5,128,9,0.39338982105255127,0.10639599710702896
189,5,128,10,0.4627443253993988,0.07177947461605072
189,5,128,11,0.41679564118385315,0.05670175328850746
189,5,128,12,0.43034863471984863,0.03397831320762634
189,5,128,13,0.34658104181289673,0.054960791021585464
189,5,128,14,0.5923804044723511,0.06107397377490997
189,5,128,15,0.5255591869354248,0.10652709752321243
189,5,128,16,0.47188034653663635,0.15111592411994934
189,5,128,17,0.49942833185195923,0.06116009131073952
189,5,128,18,0.3857613205909729,0.07219898700714111
189,5,128,19,0.5186115503311157,0.09562252461910248
189,5,128,20,0.4819110929965973,0.06745605170726776
189,5,128,21,0.5544471144676208,0.024218816310167313
189,5,128,22,0.5421966910362244,0.051003288477659225
189,5,128,23,0.502552330493927,0.09336914867162704
189,5,128,24,0.44726672768592834,0.05198930576443672
189,5,128,25,0.4318448603153229,0.08617518097162247
189,5,128,26,0.4469999372959137,0.08261776715517044
189,5,128,27,0.4995625615119934,0.05129147693514824
189,5,128,28,0.49302780628204346,0.1164504811167717
189,5,128,29,0.6177747249603271,0.09609772264957428
189,5,128,30,0.5168156623840332,0.11181855946779251
189,5,128,31,0.523247241973877,0.0533972829580307
189,5,128,32,0.5182250142097473,0.09394995868206024
189,5,128,33,0.48882174491882324,0.052228495478630066
189,5,128,34,0.43897899985313416,0.10374542325735092
189,5,128,35,0.4373438358306885,0.055816855281591415
189,5,128,36,0.6421065330505371,0.09475958347320557
189,5,128,37,0.5525781512260437,0.07730574905872345
189,5,128,38,0.5266700983047485,0.03702770173549652
189,5,128,39,0.46549108624458313,0.0773133635520935
189,5,128,40,0.5328301191329956,0.04439947381615639
189,5,128,41,0.403227299451828,0.03908386826515198
189,5,128,42,0.5123819708824158,0.18396759033203125
189,5,128,43,0.5115681290626526,0.0777662917971611
189,5,128,44,0.4271266460418701,0.03482986241579056
189,5,128,45,0.6054656505584717,0.10864125937223434
189,5,128,46,0.5359678268432617,0.059697143733501434
189,5,128,47,0.4039328098297119,0.042199570685625076
189,5,128,48,0.5547974109649658,0.040527742356061935
189,5,128,49,0.6020078659057617,0.06625726073980331
189,5,128,50,0.4157082736492157,0.019631879404187202
189,5,128,51,0.5705093741416931,0.04867216572165489
189,5,128,52,0.5285153985023499,0.05664350837469101
189,5,128,53,0.5769898295402527,0.03670833632349968
189,5,128,54,0.42314791679382324,0.020335817709565163
189,5,128,55,0.5227206945419312,0.06753615289926529
189,5,128,56,0.3671572804450989,0.09459204226732254
189,5,128,57,0.4584612548351288,0.06869164854288101
189,5,128,58,0.5354517102241516,0.05555146932601929
189,5,128,59,0.5916532278060913,0.050109606236219406
189,5,128,60,0.5499109029769897,0.10197944194078445
189,5,128,61,0.5958690047264099,0.08427070826292038
189,5,128,62,0.45821163058280945,0.06092530116438866
189,5,128,63,0.42393258213996887,0.11376850306987762
189,5,128,64,0.4643372893333435,0.061349306255578995
189,5,128,65,0.3826412558555603,0.07989319413900375
189,5,128,66,0.5461673140525818,0.05362182483077049
189,5,128,67,0.5121735334396362,0.08244234323501587
189,5,128,68,0.5092930197715759,0.04906020686030388
189,5,128,69,0.5023359060287476,0.11769590526819229
189,5,128,70,0.5229108929634094,0.028781358152627945
189,5,128,71,0.5016600489616394,0.07557637989521027
189,5,128,72,0.4778312146663666,0.13627980649471283
189,5,128,73,0.5886303186416626,0.04647797346115112
189,5,128,74,0.5289715528488159,0.06727994233369827
189,5,128,75,0.4707053601741791,0.049599140882492065
189,5,128,76,0.5569694638252258,0.0877980962395668
189,5,128,77,0.43877720832824707,0.07674968242645264
189,5,128,78,0.4129258394241333,0.03348517045378685
189,5,128,79,0.5769195556640625,0.05444229021668434
189,5,128,80,0.5374351143836975,0.12056171149015427
189,5,128,81,0.4205911159515381,0.06775948405265808
189,5,128,82,0.43216878175735474,0.023509765043854713
189,5,128,83,0.6175569295883179,0.07147224992513657
189,5,128,84,0.6412709951400757,0.06760985404253006
189,5,128,85,0.6159059405326843,0.1194164901971817
189,5,128,86,0.42402780055999756,0.11491122841835022
189,5,128,87,0.46661776304244995,0.05160432308912277
189,5,128,88,0.45422253012657166,0.029424037784337997
189,5,128,89,0.5245739817619324,0.13069245219230652
189,5,128,90,0.48524701595306396,0.0575125478208065
189,5,128,91,0.4340536892414093,0.12215813994407654
189,5,128,92,0.5510956048965454,0.05466841161251068
189,5,128,93,0.490374356508255,0.03271707892417908
189,5,128,94,0.5457233786582947,0.0918605700135231
189,5,128,95,0.4863593876361847,0.04700569435954094
189,5,128,96,0.4777419865131378,0.048966873437166214
189,5,128,97,0.47611868381500244,0.10496844351291656
189,5,128,98,0.41107088327407837,0.0697249174118042
189,5,128,99,0.5072991847991943,0.039052415639162064
189,5,128,100,0.5050546526908875,0.11645036190748215
189,5,128,101,0.5686742663383484,0.07495362311601639
189,5,128,102,0.5005722641944885,0.06854066252708435
189,5,128,103,0.38256385922431946,0.077500119805336
189,5,128,104,0.570366621017456,0.05220061540603638
189,5,128,105,0.5862617492675781,0.10996156185865402
189,5,128,106,0.4711577594280243,0.08460830897092819
189,5,128,107,0.5886152386665344,0.0838690996170044
189,5,128,108,0.5590997934341431,0.13208045065402985
189,5,128,109,0.5224142670631409,0.045618683099746704
189,5,128,110,0.4673117697238922,0.07545661181211472
189,5,128,111,0.5196444988250732,0.060855645686388016
189,5,128,112,0.6129099130630493,0.09389258176088333
189,5,128,113,0.45835232734680176,0.04929646849632263
189,5,128,114,0.4835316836833954,0.037142351269721985
189,5,128,115,0.5191406011581421,0.1241908073425293
189,5,128,116,0.5003530979156494,0.04253898933529854
189,5,128,117,0.638761043548584,0.08656730502843857
189,5,128,118,0.4578738808631897,0.05897299945354462
189,5,128,119,0.5172550678253174,0.03117895871400833
189,5,128,120,0.35583221912384033,0.08950340747833252
189,5,128,121,0.4194047152996063,0.08311436325311661
189,5,128,122,0.686819314956665,0.0881049856543541
189,5,128,123,0.44617345929145813,0.05878974124789238
189,5,128,124,0.5740398168563843,0.07947025448083878
189,5,128,125,0.536161482334137,0.1153017207980156
189,5,128,126,0.43181294202804565,0.06956614553928375
189,5,128,127,0.6235117316246033,0.05888485908508301
190,0,32,0,0.5875242948532104,0.04716934263706207
190,0,32,1,0.5584623217582703,0.058286380022764206
190,0,32,2,0.5152278542518616,0.051552798599004745
190,0,32,3,0.4421917796134949,0.06295345723628998
190,0,32,4,0.5017526745796204,0.07285097986459732
190,0,32,5,0.6145872473716736,0.0719204917550087
190,0,32,6,0.5603755116462708,0.08538229018449783
190,0,32,7,0.6091970205307007,0.049454882740974426
190,0,32,8,0.5499685406684875,0.07575197517871857
190,0,32,9,0.6127791404724121,0.05642286315560341
190,0,32,10,0.5907196402549744,0.07623325288295746
190,0,32,11,0.5425282120704651,0.06458691507577896
190,0,32,12,0.5615522861480713,0.05317891761660576
190,0,32,13,0.4924546480178833,0.06801168620586395
190,0,32,14,0.49054262042045593,0.04058385640382767
190,0,32,15,0.5222511887550354,0.06779991835355759
190,0,32,16,0.6251033544540405,0.055910270661115646
190,0,32,17,0.4475073218345642,0.03358634561300278
190,0,32,18,0.36681824922561646,0.10743328183889389
190,0,32,19,0.5709043145179749,0.039727095514535904
190,0,32,20,0.4740416407585144,0.0927787721157074
190,0,32,21,0.5370445251464844,0.08576683700084686
190,0,32,22,0.3598878085613251,0.05326852574944496
190,0,32,23,0.5003271698951721,0.07359813153743744
190,0,32,24,0.5054536461830139,0.07771872729063034
190,0,32,25,0.37221142649650574,0.08944021910429001
190,0,32,26,0.5878795385360718,0.0593678280711174
190,0,32,27,0.3531351387500763,0.06998153030872345
190,0,32,28,0.6573590040206909,0.10565672814846039
190,0,32,29,0.4077640473842621,0.06226280331611633
190,0,32,30,0.4433532655239105,0.0638556107878685
190,0,32,31,0.4413357973098755,0.05939596891403198
190,1,32,0,0.471506267786026,0.05629350244998932
190,1,32,1,0.427070677280426,0.14238308370113373
190,1,32,2,0.5352153182029724,0.12659765779972076
190,1,32,3,0.373732328414917,0.043378207832574844
190,1,32,4,0.3900321125984192,0.05256498605012894
190,1,32,5,0.5232234001159668,0.06827317178249359
190,1,32,6,0.4966372847557068,0.10594039410352707
190,1,32,7,0.5179253220558167,0.06589914113283157
190,1,32,8,0.5741424560546875,0.11622192710638046
190,1,32,9,0.5508134365081787,0.029654085636138916
190,1,32,10,0.5745938420295715,0.09747359156608582
190,1,32,11,0.4182973802089691,0.08999186754226685
190,1,32,12,0.6330233216285706,0.08974891901016235
190,1,32,13,0.5738798379898071,0.06804928183555603
190,1,32,14,0.4431428015232086,0.060051433742046356
190,1,32,15,0.3337308466434479,0.07296936959028244
190,1,32,16,0.44168373942375183,0.07320959120988846
190,1,32,17,0.36631861329078674,0.08259780704975128
190,1,32,18,0.6244933605194092,0.06500762701034546
190,1,32,19,0.41948217153549194,0.08322896808385849
190,1,32,20,0.47937846183776855,0.05349427089095116
190,1,32,21,0.5102483034133911,0.06296401470899582
190,1,32,22,0.5580970048904419,0.11787530034780502
190,1,32,23,0.4832307696342468,0.05650479719042778
190,1,32,24,0.6667587757110596,0.09879491478204727
190,1,32,25,0.628108561038971,0.10792411118745804
190,1,32,26,0.5486854314804077,0.06214812397956848
190,1,32,27,0.544613242149353,0.1006147637963295
190,1,32,28,0.4370446801185608,0.04185839369893074
190,1,32,29,0.4684382975101471,0.07240477204322815
190,1,32,30,0.4543417990207672,0.05964051932096481
190,1,32,31,0.6077203750610352,0.04354141652584076
190,2,64,0,0.5705357193946838,0.13796205818653107
190,2,64,1,0.6579626798629761,0.1498139351606369
190,2,64,2,0.5346827507019043,0.18271003663539886
190,2,64,3,0.5429112911224365,0.1406111866235733
190,2,64,4,0.49026304483413696,0.048948224633932114
190,2,64,5,0.4480958580970764,0.1536988765001297
190,2,64,6,0.43519049882888794,0.16828885674476624
190,2,64,7,0.3467985987663269,0.17754444479942322
190,2,64,8,0.45069077610969543,0.1730276644229889
190,2,64,9,0.48833128809928894,0.14697544276714325
190,2,64,10,0.5037606358528137,0.09396406263113022
190,2,64,11,0.553094208240509,0.15847109258174896
190,2,64,12,0.5163140892982483,0.15039567649364471
190,2,64,13,0.48397183418273926,0.16190677881240845
190,2,64,14,0.4053533971309662,0.13555411994457245
190,2,64,15,0.5857835412025452,0.22674460709095
190,2,64,16,0.4487364888191223,0.1772228479385376
190,2,64,17,0.6388136744499207,0.15117265284061432
190,2,64,18,0.5053003430366516,0.08792755752801895
190,2,64,19,0.4215019643306732,0.10519888997077942
190,2,64,20,0.5286027193069458,0.12161034345626831
