subject,channel,r,f1_drop_mean,f1_drop_sd
1,0,5,0.10362012589285936,0.01330905454400435
1,1,5,0.09702863663891062,0.01190504332316746
1,2,5,0.14990578562719978,0.01659563842237447
1,3,5,0.05426332548033204,0.012765390111970183
1,4,5,0.05516140747018479,0.006946799597943882
1,5,5,0.09992757302069111,0.00903454624987973
1,6,5,0.08882226125276893,0.012356877920703929
1,7,5,0.08616347779356581,0.011982823840298279
1,8,5,0.11848795969756265,0.009446465581951743
2,0,5,0.05913568750669536,0.013600887874289055
2,1,5,0.06337094902143985,0.023231651149282745
2,2,5,0.09364870422942377,0.00898323496705714
2,3,5,0.07045699115271023,0.020675825680933697
2,4,5,0.09840651335509384,0.024308663200754928
2,5,5,0.10764796716944273,0.023730647332001222
2,6,5,0.10846292294361122,0.01994139884943809
2,7,5,0.14771782030562972,0.021094305058961323
2,8,5,0.13101877590832042,0.01718536045229841
3,0,5,0.19277448084884513,0.011462731302386104
3,1,5,0.14147246096837546,0.01795593294917079
3,2,5,0.19009193028450502,0.011731938193305981
3,3,5,0.21676200320990704,0.009546194456859567
3,4,5,0.13610551165758,0.00800182920102745
3,5,5,0.12995295688014333,0.010630028893391473
3,6,5,0.04829966257985587,0.010075502522289576
3,7,5,0.1787788289414169,0.020940325897544906
3,8,5,0.16096302785568695,0.015486089885682765
4,0,5,0.16523706641609062,0.020180091849289043
4,1,5,0.09673418433490844,0.009349118729959187
4,2,5,0.16360945348587927,0.01821158044251538
4,3,5,0.14798713211706385,0.02091837251248777
4,4,5,0.1525967059970273,0.021746928154674404
4,5,5,0.10931369863997462,0.004509675133618786
4,6,5,0.047681640573608707,0.011779390710209944
4,7,5,0.17323236840625714,0.010456206557079718
4,8,5,0.15266349715279687,0.010805174290026632
5,0,5,0.04517514430525719,0.013191843346023018
5,1,5,0.05724802309004856,0.011443626336012112
5,2,5,0.05220420704979147,0.006793271930381848
5,3,5,0.05579695385890674,0.014592446982201097
5,4,5,0.0085386165570828,0.008352119799708912
5,5,5,0.061123086884243505,0.011304887010678109
5,6,5,0.013577382909813862,0.011693507021705813
5,7,5,0.02686713745322783,0.011156725595677638
5,8,5,0.08280003465862987,0.010994463848849572
6,0,5,0.09300822604436447,0.015296118040671328
6,1,5,0.13679496825616105,0.017722603994529292
6,2,5,0.10221412196281307,0.013870992162018243
6,3,5,0.02058700617629372,0.010901663519058684
6,4,5,0.06880827610802269,0.008012165345631232
6,5,5,0.12717690849421082,0.011385185007696504
6,6,5,0.04617137437588361,0.017117290459632256
6,7,5,0.21558903434274654,0.02530109623958866
6,8,5,0.14522705037845407,0.016437560211359597
7,0,5,0.14406460160628926,0.018533643269890307
7,1,5,0.12977900691350328,0.013152589823823446
7,2,5,0.10133216799017608,0.020404089893159994
7,3,5,0.053080516763063,0.018420428961798647
7,4,5,0.09664633464881196,0.01805804266155927
7,5,5,0.05652435550012125,0.016227877946670796
7,6,5,0.15422966236738853,0.011395151417039937
7,7,5,0.19016458741188183,0.012415785029184152
7,8,5,0.17622851655657062,0.023718954210721472
8,0,5,0.08779485501827636,0.017877421639317315
8,1,5,0.04509076230749072,0.01124267634728146
8,2,5,0.09537478075382685,0.010297810738634627
8,3,5,0.1309095022465176,0.021794123104211957
8,4,5,0.09452752802906148,0.010290557794140546
8,5,5,0.1719013991443003,0.013387300886795577
8,6,5,0.039249607783356066,0.007994986693195615
8,7,5,0.1185755546574517,0.017082190038512433
8,8,5,0.1620346210729677,0.006125589438379458
9,0,5,0.10272157531683193,0.02763120131649828
9,1,5,0.12279358217393088,0.010441752889858285
9,2,5,0.10018317321083765,0.01152762362429522
9,3,5,0.07801810643945531,0.014927211736227375
9,4,5,0.1162563491466401,0.007580171552619911
9,5,5,0.17908198779286166,0.010370661279350782
9,6,5,0.045152198629810125,0.016567264524679777
9,7,5,0.15076822039889665,0.006547662860491298
9,8,5,0.1547448722439947,0.012533511020607105
10,0,5,0.13612501996035214,0.01490742084694424
10,1,5,0.08915811143454086,0.010548823089568464
10,2,5,0.09102390281771891,0.01781922530596887
10,3,5,0.1295576012496753,0.012610754885576295
10,4,5,0.052572380849384405,0.011999438450574693
10,5,5,0.16899829235418068,0.0033125396655596835
10,6,5,0.03633208277462394,0.015796256998420487
10,7,5,0.14738391112217447,0.007345645348885252
10,8,5,0.1827140605059359,0.01615363603101476
11,0,5,0.1310973469036869,0.015545611216874547
11,1,5,0.11422323739570125,0.01792383655641312
11,2,5,0.12066260690992825,0.015571969882674074
11,3,5,0.12638088629169822,0.024448653216783158
11,4,5,0.16350443220823485,0.010288581796561733
11,5,5,0.16814030543247024,0.005972196458480117
11,6,5,0.0655323968630966,0.0055193494380987
11,7,5,0.16072727315408736,0.0034224930775895107
11,8,5,0.15947617833460456,0.014772974109844506
12,0,5,0.09903572352535876,0.011711186329530702
12,1,5,0.1255218872141053,0.01665958368252404
12,2,5,0.16128659199730927,0.019293787465947537
12,3,5,0.1792584178171568,0.021082542011204942
12,4,5,0.11657909197265226,0.007907925678905992
12,5,5,0.14057898618040043,0.023390686789104338
12,6,5,0.05587259751030964,0.0064652412783495795
12,7,5,0.15622454559639795,0.020100172842087913
12,8,5,0.0944038823723865,0.009703514265020615
13,0,5,0.10061211342743241,0.021351320619485106
13,1,5,0.10730713643403392,0.019105789247319992
13,2,5,0.146369852887062,0.015943906006439853
13,3,5,0.05928324647713432,0.01439471330786924
13,4,5,0.09580634613644594,0.013483415672221317
13,5,5,0.17217154684695107,0.014802400743356675
13,6,5,0.0553486915642557,0.012188415374570695
13,7,5,0.15295421108752993,0.007213748346066529
13,8,5,0.11565264901800362,0.012944479638736059
14,0,5,0.12797355168630534,0.019599427556320593
14,1,5,0.10286407088315805,0.011777909179887271
14,2,5,0.13405146909315807,0.011372007812392186
14,3,5,0.11825310706884232,0.00872969124175549
14,4,5,0.15505410067097594,0.009923737001151605
14,5,5,0.09594492063489421,0.007921325313230204
14,6,5,0.03843761390743126,0.009615666426947318
14,7,5,0.16554589400592454,0.012559415254133864
14,8,5,0.15277602562611445,0.01661021289184262
15,0,5,0.1544556925188682,0.010057109476492448
15,1,5,0.18869025605059098,0.016539563241880714
15,2,5,0.21450320887647728,0.014016190828984367
15,3,5,0.09805681584992634,0.0126012678673008
15,4,5,0.15207266962916444,0.016781309139181806
15,5,5,0.14597814119913993,0.016599900219948324
15,6,5,0.1103683992291454,0.01844575634513013
15,7,5,0.16720509742252518,0.017162313192440277
15,8,5,0.14184979668381165,0.019835461667186277
16,0,5,0.15698654871533696,0.011470587064196139
16,1,5,0.11783820561102228,0.010275659894039502
16,2,5,0.1067169686040319,0.007135338973720504
16,3,5,0.10507758173336541,0.010136388201020557
16,4,5,0.1526923330697539,0.014105559532609087
16,5,5,0.1899978022710833,0.007906481094908735
16,6,5,0.03448575159711664,0.013758076064416282
16,7,5,0.17084079271354216,0.014177616773408362
16,8,5,0.20773188269390044,0.014447603740483561
17,0,5,0.18507222533269554,0.014741237395206429
17,1,5,0.1948764099892371,0.013136059032258679
17,2,5,0.14965976370447015,0.009777736728065256
17,3,5,0.12712119417848,0.01509861250925423
17,4,5,0.11077950817701325,0.01177005714522604
17,5,5,0.19552413479161168,0.012569086661732677
17,6,5,0.09823365465541904,0.00973659034279137
17,7,5,0.14001330084727676,0.007913352406034028
17,8,5,0.15399246341553444,0.015503609867052097
18,0,5,0.1126687055461389,0.006045196613562301
18,1,5,0.08559173083233858,0.022756858703114474
18,2,5,0.1095227517203907,0.01389390920207792
18,3,5,0.16513340206611524,0.0220474025824848
18,4,5,0.1721570992278566,0.007184232673986892
18,5,5,0.15846190898447354,0.006816011171971209
18,6,5,0.03430831718673562,0.009510481070629776
18,7,5,0.17076200129220936,0.009687170663792426
18,8,5,0.14805206475774527,0.018967415494052807
19,0,5,0.10282301916427299,0.006406217696435303
19,1,5,0.14939491323567705,0.010092963937929956
19,2,5,0.09089889884320321,0.00870650705436902
19,3,5,0.10843823443001441,0.015236818259870052
19,4,5,0.10059295210776893,0.009101282289937632
19,5,5,0.11840423677367043,0.010051970284466936
19,6,5,0.04081417230004884,0.01868244009078458
19,7,5,0.15765649429753045,0.009659160728839598
19,8,5,0.13410716182761,0.012199275684348134
20,0,5,0.10670271837343026,0.01950300648463498
20,1,5,0.08507574988404465,0.016267030266998724
20,2,5,0.1369672970069998,0.012356012895312888
20,3,5,0.013296793677759756,0.008423814129189305
20,4,5,0.108383892216811,0.014703570602334745
20,5,5,0.16332338792199252,0.011379869372671412
20,6,5,0.02870119543677101,0.01338873470509695
20,7,5,0.09310064124949571,0.009211385108238048
20,8,5,0.11817018774884618,0.022135759184387347
21,0,5,0.14261317740172913,0.0205325988196896
21,1,5,0.10348248035909813,0.01893654288385375
21,2,5,0.07843219387656475,0.011737661389499351
21,3,5,0.11592054188304264,0.0095787809857876
21,4,5,0.07998422957006705,0.009287999552317622
21,5,5,0.1448324454459742,0.014863874435479466
21,6,5,0.04457603388511795,0.005427239540857878
21,7,5,0.10213810848383724,0.0186809449656002
21,8,5,0.10642657400756302,0.010431515503748849
22,0,5,0.10621901034639566,0.013881470197684565
22,1,5,0.12708756234135835,0.011781330741475438
22,2,5,0.18660353480795872,0.012197251160914462
22,3,5,0.10663457587940936,0.018891404212437783
22,4,5,0.10677793253544803,0.011655928310343086
22,5,5,0.15036979976568934,0.007396058298043665
22,6,5,0.029958858041348457,0.009048620790720859
22,7,5,0.146412102137422,0.010780263814451543
22,8,5,0.16666823793098606,0.008562075723125333
23,0,5,0.1152544339497028,0.015727597519065828
23,1,5,0.10925642129976545,0.0160799096370011
23,2,5,0.09193487487853691,0.011293674073399382
23,3,5,0.09025135024262794,0.011914984182831217
23,4,5,0.0948523683052501,0.01614272553025492
23,5,5,0.14657001228848487,0.01518095495528307
23,6,5,0.08342804559296232,0.009358317047119447
23,7,5,0.14969313451086866,0.014978172129066275
23,8,5,0.1495260926569201,0.009116533139959923
24,0,5,0.07250258260283693,0.010103785956816784
24,1,5,0.050836976231863916,0.017765805365318122
24,2,5,0.13238300637871978,0.007328054480921456
24,3,5,0.04306197058290826,0.014278740919438222
24,4,5,0.14878394290418934,0.0055937366400992325
24,5,5,0.13979033889360487,0.00848876741212109
24,6,5,0.061516451892393145,0.007304239013912633
24,7,5,0.12422504372544096,0.007470256965776686
24,8,5,0.06992633216353436,0.008796908970125847
25,0,5,0.1136139638679925,0.008327917428579171
25,1,5,0.07997064005298231,0.005580101066594139
25,2,5,0.1779356603765423,0.013402330833585302
25,3,5,0.15488206197597534,0.009674606566808882
25,4,5,0.1273543963551043,0.007596935183963091
25,5,5,0.174449546512708,0.0074895599428474
25,6,5,0.04070087374866249,0.008252218361922258
25,7,5,0.14079208659280357,0.010954916014919786
25,8,5,0.09405368564255949,0.008587335444796371
26,0,5,0.11903147466789817,0.013003902383698418
26,1,5,0.10775437272127579,0.00994459294484284
26,2,5,0.14182883868861867,0.012913501903567314
26,3,5,0.08317218133927724,0.016553809923296327
26,4,5,0.1292950928943064,0.01688526680655108
26,5,5,0.20469445382160267,0.013662609478283511
26,6,5,0.06766989418801017,0.014765939669276905
26,7,5,0.14212929811252678,0.016341156304528214
26,8,5,0.12281233762794075,0.009726755580616123
27,0,5,0.1048056747103248,0.012396619718036036
27,1,5,0.07461829639599726,0.013574246731353157
27,2,5,0.14233469612146138,0.006063798392801437
27,3,5,0.16785183897361394,0.015725597290424248
27,4,5,0.13944522658734784,0.0066425719161738814
27,5,5,0.16425825269930328,0.008823178385744984
27,6,5,0.04208114936053131,0.010060591803419252
27,7,5,0.16643529019382658,0.014264130564619965
27,8,5,0.14096064323905444,0.0031400217879818237
28,0,5,0.12293176307257443,0.011130404503664475
28,1,5,0.07501137308127262,0.009784831186245499
28,2,5,0.080681834836316,0.007219957979963959
28,3,5,0.15065736104775782,0.018428129445324216
28,4,5,0.16318368814731726,0.015388647431599073
28,5,5,0.1770934968298113,0.011644064244783007
28,6,5,0.045205403580203904,0.013292369176372222
28,7,5,0.11245361877141016,0.014509022420279979
28,8,5,0.15344421385096405,0.011911195262554021
29,0,5,0.16741412126170893,0.011735168436236483
29,1,5,0.07390707420616342,0.006780847085381133
29,2,5,0.1278101315360099,0.0019952748785141052
29,3,5,0.0371664583375602,0.014240797243355554
29,4,5,0.09669835368741823,0.007366633360606506
29,5,5,0.1828917003844706,0.019118770631941475
29,6,5,0.005998541265029811,0.008017254050772298
29,7,5,0.12402807803081595,0.01768823568468214
29,8,5,0.17702339663555094,0.004666480457830445
30,0,5,0.1083255587178588,0.021595536986299565
30,1,5,0.06691041620033208,0.020124364140435422
30,2,5,0.11134423273662801,0.009961891590511916
30,3,5,0.07039704663595155,0.011496440450887524
30,4,5,0.10976222944426206,0.010556925512311105
30,5,5,0.1710400138526959,0.01927724473639791
30,6,5,0.06585765938895552,0.015654525407022165
30,7,5,0.1562704879107341,0.009503859269658296
30,8,5,0.08643036756021602,0.00868241965369836
31,0,5,0.12054311322682054,0.0032834490884230787
31,1,5,0.10350872751271249,0.00332852957622241
31,2,5,0.10490742328707173,0.006830622369936536
31,3,5,0.062260437361434606,0.0116746397334101
31,4,5,0.16449845172618793,0.009549942163800534
31,5,5,0.1863779136331015,0.008678631634450977
31,6,5,0.08448839920933075,0.010697151676468635
31,7,5,0.16280434383465622,0.014216907679639635
31,8,5,0.17714647038710366,0.013127077686862646
32,0,5,0.16989643978160654,0.008949130695208298
32,1,5,0.15460096215384073,0.018875575621187437
32,2,5,0.15766110552682064,0.01760632647487824
32,3,5,0.06477007246036384,0.012270138470048007
32,4,5,0.162384905230796,0.01779519274915084
32,5,5,0.20849156103637298,0.019352569313745783
32,6,5,0.12313614753794697,0.004260489033009475
32,7,5,0.19307926466396513,0.01265203869226946
32,8,5,0.18062376547977693,0.02047006582987797
33,0,5,0.14663830700411815,0.01183897231713948
33,1,5,0.12866996131938277,0.02927342765246455
33,2,5,0.14538538548430785,0.012933364221648333
33,3,5,0.044021962026406694,0.010096828437354313
33,4,5,0.07959186671897105,0.01663717565830745
33,5,5,0.05311471907130481,0.013223619007946557
33,6,5,0.08518512731457342,0.004275635814294443
33,7,5,0.133521447517982,0.009495599745883779
33,8,5,0.15269114418885774,0.011793186406298214
34,0,5,0.1159990781694132,0.007592628784103744
34,1,5,0.10951641683543116,0.0053531845358034446
34,2,5,0.1358262202498906,0.012336773190430127
34,3,5,0.09686947299213558,0.00954213098278201
34,4,5,0.0977585109653569,0.01575526706553702
34,5,5,0.18402500767446686,0.016683681809462045
34,6,5,0.10329547546562752,0.012068262620529251
34,7,5,0.18940699708964312,0.012121152493654306
34,8,5,0.1272951348968061,0.007906619223070548
35,0,5,0.08585385392999742,0.014795218268334659
35,1,5,0.10868272429820842,0.009337308242636752
35,2,5,0.11343667831053927,0.016046281530930413
35,3,5,0.07626015837331161,0.013809035481850526
35,4,5,0.04882524821313439,0.015156619680269252
35,5,5,0.10924150686501714,0.006693758243936297
35,6,5,0.010027907210144793,0.006883978641261104
35,7,5,0.11347345549534775,0.0209274673960555
35,8,5,0.07817949197312227,0.009405471788175706
36,0,5,0.08332742436060359,0.007830555532404663
36,1,5,0.05234258197235912,0.013627136888360791
36,2,5,0.048751274730958215,0.013510113220572443
36,3,5,0.07631894936107515,0.0047186861889531
36,4,5,0.08166841978031758,0.012896458226314236
36,5,5,0.05921399575372956,0.023139411285454523
36,6,5,0.0760183186731592,0.00851454123147762
36,7,5,0.14929142517833743,0.011282619638290192
36,8,5,0.06638508871271227,0.009244532058579509
37,0,5,0.15283473616720752,0.016238277792106997
37,1,5,0.1576779836752406,0.005716106363097369
37,2,5,0.16469914317895257,0.011919287534003672
37,3,5,0.08366031769638996,0.017993964556740526
37,4,5,0.14569536526626556,0.015873556085551924
37,5,5,0.13048663100230193,0.008820392879617191
37,6,5,0.10624039374175995,0.006271619338102662
37,7,5,0.14185735588999115,0.008848737739509924
37,8,5,0.12276768578017747,0.0073230045702564715
38,0,5,0.08700184514942433,0.011339824946348616
38,1,5,0.0903344293954712,0.017421481755034933
38,2,5,0.12001725076727358,0.013899557181283863
38,3,5,0.08710015439563645,0.010272800189213102
38,4,5,0.1328705334924776,0.012621213342863383
38,5,5,0.17167926593673416,0.007539267106671462
38,6,5,0.05544621627796335,0.01094670956871767
38,7,5,0.16094716163308972,0.0062466547508397315
38,8,5,0.11206374000700552,0.013987970506561082
39,0,5,0.15402148280923642,0.018344057814622703
39,1,5,0.09383529962114505,0.014912930867493195
39,2,5,0.12046322535951089,0.009380111510604854
39,3,5,0.11912104125520535,0.023126357949457804
39,4,5,0.06293815582192216,0.005956149560779393
39,5,5,0.1695159068200022,0.013446235406564868
39,6,5,0.072668811780033,0.007886692466691972
39,7,5,0.1761568726755495,0.013244424412942903
39,8,5,0.062015592404007225,0.011457897530683209
40,0,5,0.10907513158323823,0.0070722133690819325
40,1,5,0.0448128784580988,0.01762665632103549
40,2,5,0.10499387661841723,0.014036201537562104
40,3,5,0.0953434374755135,0.00955648280612426
40,4,5,0.10961344330455233,0.014700084751421717
40,5,5,0.12899074277082304,0.0267585106017262
40,6,5,0.11382810488132014,0.01585779931306099
40,7,5,0.1914640501032385,0.0067288950015297905
40,8,5,0.12141154747403786,0.0163738238469894
