epoch,train_ce,train_coral,val_loss,best,subject,coral_lambda
1,0.8761146543990999,0.0002400045111807274,0.8491154880722852,1,1,30.0
2,0.7724376739490599,0.00015595316428863,0.8981216047261212,0,1,30.0
3,0.7356422238406681,0.00014106084554874716,0.8002354586593056,1,1,30.0
4,0.7074325709115892,0.00013447699469300764,0.8535054838920987,0,1,30.0
5,0.6734796265761057,0.00011651738610193465,0.6551724203095682,1,1,30.0
6,0.6658036354042235,0.00011399436014125102,0.7701152023870763,0,1,30.0
7,0.6434136742637271,0.00011199583786947187,0.7034599510691969,0,1,30.0
8,0.6333781445310229,9.514147539101985e-05,0.7166980928372986,0,1,30.0
9,0.6068568534794307,0.00010352371793401072,0.6918896079356313,0,1,30.0
10,0.5961077663870085,9.834846440796918e-05,0.6810302169668586,0,1,30.0
11,0.5831263413031896,9.104127877348911e-05,0.725461976958727,0,1,30.0
12,0.5672397680935406,8.443190264577944e-05,0.6830601881997298,0,1,30.0
1,0.9223865665668665,0.00020048258358106385,0.6375002077488815,1,2,30.0
2,0.808054315489392,0.00013161242777430236,0.5958475471991143,1,2,30.0
3,0.7804258742997813,0.00010844833318409402,0.56319881827696,1,2,30.0
4,0.7452688522117082,0.0001078470001609043,0.5574892353014994,1,2,30.0
5,0.7248646145643189,0.00010944580783469192,0.5012604253699782,1,2,30.0
6,0.7073984769887702,0.00010237086191705731,0.4746154217499117,1,2,30.0
7,0.6861426296622254,0.00010331472714274559,0.4776760223467174,0,2,30.0
8,0.6585113406181335,9.583713992554315e-05,0.5334430268141489,0,2,30.0
9,0.647155303594678,8.589414049543679e-05,0.4507137990084758,1,2,30.0
10,0.6300082788910977,8.910453233997835e-05,0.4311003865283213,1,2,30.0
11,0.6147419519202654,8.425585081060362e-05,0.5018848487346511,0,2,30.0
12,0.6038279034370599,7.864616820243523e-05,0.4180822725473097,1,2,30.0
13,0.580309965582781,7.50871090002515e-05,0.45417429913067275,0,2,30.0
14,0.574204160030498,7.507290032409337e-05,0.3967949963747938,1,2,30.0
15,0.5516791610523711,6.957905726415257e-05,0.3953894265475535,1,2,30.0
16,0.5442959222682687,7.290645610970218e-05,0.4170683025237391,0,2,30.0
17,0.5318003674579221,6.655721538896446e-05,0.3618775015089701,1,2,30.0
18,0.5248454691365708,6.607861761822701e-05,0.40105368276421466,0,2,30.0
19,0.5073902437160182,7.170392699515295e-05,0.36286664909935384,0,2,30.0
20,0.5021067188922749,6.768543819414972e-05,0.3511618085485417,1,2,30.0
21,0.49411037633585375,6.998506987022052e-05,0.3511135176084456,1,2,30.0
22,0.48123653510282205,7.22877500879275e-05,0.3273988483551452,1,2,30.0
23,0.4775971555432608,6.762949855921e-05,0.3563424133572611,0,2,30.0
24,0.46007305660913156,6.435733417294064e-05,0.3613586087090029,0,2,30.0
25,0.4613768998966661,6.888485163366314e-05,0.37865533910854177,0,2,30.0
26,0.44458995447602384,6.671686686215338e-05,0.3908031015633159,0,2,30.0
27,0.44929381407970603,6.238317685127313e-05,0.3563341499803603,0,2,30.0
28,0.4409424319516781,6.765153629266722e-05,0.34557875417444944,0,2,30.0
29,0.43078503463157386,6.419559526135387e-05,0.3375981683853357,0,2,30.0
1,0.9145044025252848,0.0002558795829399434,0.6630049990361346,1,3,30.0
2,0.8084279993001152,0.00015881095006240202,0.6277996598625638,1,3,30.0
3,0.7682141444262336,0.00015527633111239137,0.6171984554805118,1,3,30.0
4,0.7337753415107727,0.00012936366812723197,0.5809779105570844,1,3,30.0
5,0.7157666465815375,0.00012428920762271018,0.5890981749085872,0,3,30.0
6,0.6976844149477341,0.00011667244689306244,0.5513955424571343,1,3,30.0
7,0.6700375227367177,0.00011473315928870922,0.6106851174472474,0,3,30.0
8,0.6468652220333324,0.00010917399374781833,0.5601593723329176,0,3,30.0
9,0.6396587273653815,9.985856749528252e-05,0.5603213714996035,0,3,30.0
10,0.6166421813123366,9.390411124674275e-05,0.5544200874911867,0,3,30.0
11,0.6024060571894926,9.997501329053193e-05,0.5565951360615692,0,3,30.0
12,0.5794998856151805,9.452287888373523e-05,0.5360832708351994,1,3,30.0
13,0.5782022051951464,8.452114416286349e-05,0.5440099430154633,0,3,30.0
14,0.5622579136315514,7.716014789526953e-05,0.5018411689246232,1,3,30.0
15,0.5443422394640306,8.16975837070084e-05,0.5586455701306167,0,3,30.0
16,0.5311825331519632,7.730715014451348e-05,0.560343553726174,0,3,30.0
17,0.5332826330381282,7.40311346924179e-05,0.5127599238899971,0,3,30.0
18,0.5018159273792716,7.62404383482028e-05,0.5596919660218909,0,3,30.0
19,0.5144637966857237,7.338712106609498e-05,0.48499317272849707,1,3,30.0
20,0.4863014792694765,7.36927883254419e-05,0.45518814075244796,1,3,30.0
21,0.4810810264419107,7.356086096157977e-05,0.5490873307925908,0,3,30.0
22,0.4670080626712126,7.548690854866222e-05,0.5100543676878107,0,3,30.0
23,0.45976025707581464,7.197922938811484e-05,0.5114698873958746,0,3,30.0
24,0.450202592681436,7.566363479675013e-05,0.5317364858454512,0,3,30.0
25,0.4378939572502585,6.965857190901742e-05,0.47104942767531405,0,3,30.0
26,0.4274025352562175,6.860739406821427e-05,0.4909297896108606,0,3,30.0
27,0.4330000614418703,6.62614032454953e-05,0.4875504342222609,0,3,30.0
1,0.9152228860294118,0.0001970555241260787,0.6261782876586318,1,4,30.0
2,0.8094930480508243,0.00012913249083794652,0.6096889822743591,1,4,30.0
3,0.7775291989831363,0.00010517907392247306,0.5692024488845322,1,4,30.0
4,0.7396628877695869,0.00010150300012730227,0.5885592005636487,0,4,30.0
5,0.718944403704475,0.00010723801863016835,0.5593115370444066,1,4,30.0
6,0.7074839977657094,9.51598805413061e-05,0.494241384662713,1,4,30.0
7,0.6816592924735125,8.855194584398037e-05,0.5162044150536959,0,4,30.0
8,0.6595012440400965,8.811957766952486e-05,0.5206983372720464,0,4,30.0
9,0.636460585453931,9.502824318855453e-05,0.4963592701795574,0,4,30.0
10,0.6174785024979536,8.355022210333332e-05,0.45835520181146006,1,4,30.0
11,0.6136708017657785,7.793656135190224e-05,0.4785401528547381,0,4,30.0
12,0.5936898235012503,8.400899066199439e-05,0.4527325781431475,1,4,30.0
13,0.5891163910136503,7.188762491055326e-05,0.4727544532421667,0,4,30.0
14,0.5727907850461847,6.558072076158543e-05,0.43084343327934715,1,4,30.0
15,0.5453775693388546,7.120884705834802e-05,0.4520245069566572,0,4,30.0
16,0.5395871320191552,6.416220387430204e-05,0.4146881550482534,1,4,30.0
17,0.5173340324093314,6.67863326431389e-05,0.38092631248135717,1,4,30.0
18,0.5195407429162193,6.511311103702824e-05,0.42759220130250586,0,4,30.0
19,0.4982145782779245,6.363146338331075e-05,0.40627920903279063,0,4,30.0
20,0.4881968568353092,5.8106356899610115e-05,0.3678819721253644,1,4,30.0
21,0.4738084340796751,5.738315928337055e-05,0.40568937118354176,0,4,30.0
22,0.46562913060188293,5.575205641969874e-05,0.39941093436529407,0,4,30.0
23,0.4531537462683285,6.274343840606674e-05,0.38782734477634884,0,4,30.0
24,0.45075663468417,5.549088485114386e-05,0.3830894449122656,0,4,30.0
25,0.44242926765890683,5.7183488730943815e-05,0.36488813174950113,1,4,30.0
26,0.4336574589504915,5.44587332971038e-05,0.3748794340662703,0,4,30.0
27,0.42453326056985297,5.760692695142044e-05,0.35170804325604726,1,4,30.0
28,0.41021990670877345,5.4225829893873786e-05,0.35946580610623985,0,4,30.0
29,0.40455414793070626,6.03078470329124e-05,0.3923778746206256,0,4,30.0
30,0.4005763195893344,5.7742861570338446e-05,0.3804713948099726,0,4,30.0
31,0.39293639239142925,5.9240241791806455e-05,0.35786184102129925,0,4,30.0
32,0.38115168038536523,5.657256898463375e-05,0.3487548112420947,1,4,30.0
33,0.38042781212750604,5.69206754281528e-05,0.35083024088010933,0,4,30.0
34,0.3704205565592822,5.8688465094960786e-05,0.3607396803176218,0,4,30.0
35,0.3691081120687373,5.8239859615295086e-05,0.36120129102614434,0,4,30.0
36,0.3755505688050214,5.7370039062601896e-05,0.3592620482690114,0,4,30.0
37,0.361239532512777,5.630091716953115e-05,0.3535872978939694,0,4,30.0
38,0.36568091722095714,5.762372525436256e-05,0.35592319130194966,0,4,30.0
39,0.3604026962729061,5.807232365066953e-05,0.3553417366949973,0,4,30.0
1,0.9031312605913948,0.00023888979203012936,0.6634284267936298,1,5,30.0
2,0.7943859983893001,0.00016185092835632316,0.5932137517103758,1,5,30.0
3,0.7532779581406537,0.0001397976207526346,0.5901060800021354,1,5,30.0
4,0.7266614163623136,0.00012393862031304331,0.6994489786604022,0,5,30.0
5,0.7019408801022697,0.00010987036854631322,0.5529981699144457,1,5,30.0
6,0.6922329369713278,0.00011835759950746947,0.5838134572966079,0,5,30.0
7,0.6676080058602726,0.00010578687155537088,0.5399982410102078,1,5,30.0
8,0.6606047083349789,9.6601178195081e-05,0.5053155344955669,1,5,30.0
9,0.6372039808946497,9.294161705731634e-05,0.5404165500178162,0,5,30.0
10,0.6167523061527925,8.983193389105829e-05,0.5002470981494831,1,5,30.0
11,0.5985840029576246,9.395781359190176e-05,0.5054454519792912,0,5,30.0
12,0.5943508281427271,8.363649047918015e-05,0.49138560177936835,1,5,30.0
13,0.5745921941364512,8.007318388348829e-05,0.506314048078282,0,5,30.0
14,0.5665530832374797,7.758360088166014e-05,0.47544698873477936,1,5,30.0
15,0.5541547021445106,7.365110145388719e-05,0.4283761940926179,1,5,30.0
16,0.5452856852727778,7.17953547684695e-05,0.452358392037833,0,5,30.0
17,0.5348911446683547,6.619937870281694e-05,0.49235901747908584,0,5,30.0
18,0.5218630015850068,6.867075297871934e-05,0.4378167860890324,0,5,30.0
19,0.513147829210057,6.587403763927902e-05,0.4667525404333902,0,5,30.0
20,0.48771129110280204,6.802431851289893e-05,0.4421809813497726,0,5,30.0
21,0.4816008774673238,6.511656576870283e-05,0.43618862182079937,0,5,30.0
22,0.4778516723829157,6.219575837295612e-05,0.431216228784974,0,5,30.0
1,0.93130619540101,0.00021458945610945755,0.5220072666030914,1,6,30.0
2,0.8315891453198024,0.00015390200626695462,0.49026311612198786,1,6,30.0
3,0.7881153793562026,0.00012746975387147228,0.4690922666775925,1,6,30.0
4,0.7585290386563256,0.00012624880842590107,0.47933877795818713,0,6,30.0
5,0.7337082986320768,0.00011161411159610863,0.48728767796945016,0,6,30.0
6,0.7163698141063962,0.00010575421098716713,0.4305192143565718,1,6,30.0
7,0.6927822402545384,9.940431300492492e-05,0.4292125470559421,1,6,30.0
8,0.6687249278738385,9.412438109956427e-05,0.41690609518598026,1,6,30.0
9,0.6506431258860088,9.390186256669473e-05,0.39249661232159994,1,6,30.0
10,0.6333841433127722,8.384990689505468e-05,0.3696831792868413,1,6,30.0
11,0.6223145758821851,8.533204401742079e-05,0.3958535587219413,0,6,30.0
12,0.606580009772664,7.256036496983143e-05,0.3567615817844549,1,6,30.0
13,0.592618255388169,6.99470455445061e-05,0.3670649964811737,0,6,30.0
14,0.5914369044559342,7.117460968618703e-05,0.3362195467801062,1,6,30.0
15,0.5667007877713158,7.527311511997443e-05,0.38951877914441585,0,6,30.0
16,0.5617800943908238,6.599722365492544e-05,0.35402127332325867,0,6,30.0
17,0.5493150321500642,6.265200231393378e-05,0.33879705617776873,0,6,30.0
18,0.5427340602590924,6.249110386609875e-05,0.32981365903168336,1,6,30.0
19,0.5208660307384673,6.490639086786403e-05,0.3594584307644212,0,6,30.0
20,0.5077914215979122,6.271845341827776e-05,0.3326956562784859,0,6,30.0
21,0.49580462738161996,6.428751510698238e-05,0.322633199049486,1,6,30.0
22,0.49586155868711923,6.210239366953916e-05,0.30035776722857344,1,6,30.0
23,0.47493312543346766,6.40949565855581e-05,0.3448237918719562,0,6,30.0
24,0.46815712466126397,5.970836207866558e-05,0.3136368079386391,0,6,30.0
25,0.45683987012931276,6.260360680157429e-05,0.2924787485718379,1,6,30.0
26,0.4608330460531371,6.242278028540091e-05,0.3040194894814074,0,6,30.0
27,0.44423272531656993,6.048061082505488e-05,0.2970226319716946,0,6,30.0
28,0.4353720017132305,5.6818162496104684e-05,0.2808477718089544,1,6,30.0
29,0.43310422556740896,6.0933485309804036e-05,0.29626091547919153,0,6,30.0
30,0.4251470682876451,5.850771347987964e-05,0.2671116153901653,1,6,30.0
31,0.4198700725322678,6.120953756700536e-05,0.2783726903787499,0,6,30.0
32,0.4099830435145469,5.876193808078478e-05,0.28316627401343986,0,6,30.0
33,0.4037688899607885,6.070388419521762e-05,0.2846166168426522,0,6,30.0
34,0.39561170942726587,6.523524145796684e-05,0.27391189001210703,0,6,30.0
35,0.400940817736444,6.063475969616169e-05,0.2782418339255951,0,6,30.0
36,0.3906514673005967,5.9623255202452474e-05,0.28145868961376785,0,6,30.0
37,0.3867607897236234,6.271522233007653e-05,0.276720357899362,0,6,30.0
1,0.9178614399012397,0.0002436170101110988,0.6237071940019422,1,7,30.0
2,0.797126244096195,0.0001465164719026207,0.6326819276463711,0,7,30.0
3,0.7557087358306436,0.00014346860133467571,0.5795290447707836,1,7,30.0
4,0.7261181256350349,0.00012944780165151528,0.5479803992931044,1,7,30.0
5,0.6930134878439062,0.00011950759559541064,0.5707812181027883,0,7,30.0
6,0.670423150062561,0.0001219879013232832,0.5062111314501007,1,7,30.0
7,0.6580009074772105,0.00010570973262314082,0.5845636849531272,0,7,30.0
8,0.6462965775938595,8.901942945907221e-05,0.5247878860522966,0,7,30.0
9,0.6239753120085773,9.670094638268518e-05,0.48132810642231805,1,7,30.0
10,0.6051491218454698,8.885219576768578e-05,0.4970337673384589,0,7,30.0
11,0.5859109601553749,8.572428568560795e-05,0.47433108930244566,1,7,30.0
12,0.5754778858493356,8.93456899896538e-05,0.4502077243206615,1,7,30.0
13,0.5620180308818817,7.985212141647935e-05,0.4744034913223962,0,7,30.0
14,0.5512220803429099,8.126110380330561e-05,0.5063735520316085,0,7,30.0
15,0.5365545118556303,7.30386347961886e-05,0.45725715930140926,0,7,30.0
16,0.5278725950156942,7.429145737071796e-05,0.4527769953999055,0,7,30.0
17,0.5104122670257792,7.31915607021245e-05,0.4553175834940332,0,7,30.0
18,0.5030185331316556,7.062220748219474e-05,0.4121345878844435,1,7,30.0
19,0.4999653349904453,7.1999153613647e-05,0.4017651936130554,1,7,30.0
20,0.4786699543980991,6.66059940960943e-05,0.40623298680289605,0,7,30.0
21,0.4612367226796992,6.99426772103727e-05,0.3948311552397635,1,7,30.0
22,0.47073369341738086,6.805208853192573e-05,0.3942444883325567,1,7,30.0
23,0.45930905903086944,6.66389767823549e-05,0.41841034853773496,0,7,30.0
24,0.4366393397836124,6.549885279930416e-05,0.39083025630792284,1,7,30.0
25,0.43947389581624197,6.287572973900858e-05,0.3852817703170707,1,7,30.0
26,0.42410518036169165,6.625527915757094e-05,0.3888432153397565,0,7,30.0
27,0.41247031618567076,5.973640487782712e-05,0.3924213085148844,0,7,30.0
28,0.4198790385442622,6.368683033917264e-05,0.39853892542313696,0,7,30.0
29,0.4059816690052257,6.320248443551142e-05,0.3719190762560003,1,7,30.0
30,0.39749081310103923,6.389059554374613e-05,0.3729692182447409,0,7,30.0
31,0.39246605564566217,6.520095955827e-05,0.3867264632036681,0,7,30.0
32,0.37402843938154334,6.364206244196634e-05,0.37478939642302883,0,7,30.0
33,0.37969890236854553,6.575122195713715e-05,0.36718882510381123,1,7,30.0
34,0.3764568651423735,6.370016935226672e-05,0.3700157021246918,0,7,30.0
35,0.37208825402400075,6.537157926633132e-05,0.3737496230413403,0,7,30.0
36,0.3681499810779796,6.245583867626812e-05,0.36476099657425265,1,7,30.0
37,0.3675359694396748,6.196398757952813e-05,0.3728605985866406,0,7,30.0
38,0.365831272391712,6.465501056107529e-05,0.366256450579472,0,7,30.0
39,0.36565486788749696,6.368474693290944e-05,0.3686655022357896,0,7,30.0
40,0.3633186822428423,6.365425895851599e-05,0.3648247250285068,0,7,30.0
1,0.9253434854395249,0.0002530809271026074,0.6125979429723984,1,8,30.0
2,0.8168077819487628,0.00014307034828508382,0.6400259004615847,0,8,30.0
3,0.7717148303985596,0.00013328331363428493,0.5775687986091582,1,8,30.0
4,0.751211587821736,0.00011237858972676536,0.4771769909567778,1,8,30.0
5,0.7298278605236727,0.00011769643537905615,0.4894442638491114,0,8,30.0
6,0.7012366329922396,0.00010538885655799223,0.45178241210605125,1,8,30.0
7,0.668023891659344,0.00010142642610898131,0.511886616375444,0,8,30.0
8,0.6664553887703839,9.319069705431021e-05,0.4833886658646284,0,8,30.0
9,0.6392184608122882,9.561644260162104e-05,0.5394531224706502,0,8,30.0
10,0.6164025292677038,8.52633938741158e-05,0.43886813808743386,1,8,30.0
11,0.6076367879615111,8.721286456634784e-05,0.43675313468235244,1,8,30.0
12,0.5800007501069238,8.754972368478775e-05,0.41898555778701013,1,8,30.0
13,0.5847274475237902,7.997978524037855e-05,0.3782060972769089,1,8,30.0
14,0.5560004399103277,7.927862855414039e-05,0.404110745874958,0,8,30.0
15,0.5419314489645116,8.093963260762394e-05,0.3560898638197087,1,8,30.0
16,0.5219048906775082,7.418625956394381e-05,0.40445379405376997,0,8,30.0
17,0.5143530936802134,7.279069768093691e-05,0.4047169849672512,0,8,30.0
18,0.49328442075673273,7.158499039873919e-05,0.38722443627975706,0,8,30.0
19,0.48016116794417885,7.173282732872073e-05,0.349402106864115,1,8,30.0
20,0.4720861108864055,7.592561322620467e-05,0.37055644215061034,0,8,30.0
21,0.46982450625475713,6.931352566907128e-05,0.38954839495511007,0,8,30.0
22,0.4557422417051652,6.881253875155166e-05,0.3760903849917625,0,8,30.0
23,0.4466708835433511,7.089134429834837e-05,0.372467837508653,0,8,30.0
24,0.4429397081627565,6.443098934730241e-05,0.3594710566252881,0,8,30.0
25,0.4273214175420649,6.619148176362025e-05,0.35052081539957974,0,8,30.0
26,0.42072913085713104,6.972952366649063e-05,0.3553519868514881,0,8,30.0
1,0.9292528678389157,0.00019545137697337742,0.526869505461195,1,9,30.0
2,0.8207455663120046,0.00015236423222471357,0.5230127195537516,1,9,30.0
3,0.7806221415014828,0.00012552975351675687,0.5245078781332375,0,9,30.0
4,0.7469872516744277,0.00010884162731920642,0.48893276339471037,1,9,30.0
5,0.7082224908997031,0.00010828295725171782,0.4439819334445862,1,9,30.0
6,0.6855520956656512,0.00010653059588923284,0.4255516720865306,1,9,30.0
7,0.6691966828177957,0.00010361836787470726,0.4871613879186749,0,9,30.0
8,0.6444394420174991,9.823171824203147e-05,0.4477843614989574,0,9,30.0
9,0.6308248618069817,8.985802329227548e-05,0.4214781780667276,1,9,30.0
10,0.6022271605098949,9.210694316767759e-05,0.4252711959312593,0,9,30.0
11,0.5843252006699057,8.998984451275593e-05,0.42735763480154315,0,9,30.0
12,0.5742679490762599,7.59886765616316e-05,0.3908494870131788,1,9,30.0
13,0.5615082022021799,7.861942709389362e-05,0.4039292632315814,0,9,30.0
14,0.5385745655087864,8.008554462268127e-05,0.4059494423534459,0,9,30.0
15,0.5298470335848191,7.71710708624382e-05,0.36971277214274706,1,9,30.0
16,0.5216920779031866,7.626653168699705e-05,0.40113585491011167,0,9,30.0
17,0.5083336153451135,7.35197430699105e-05,0.3660977516814199,1,9,30.0
18,0.49329095623072455,7.546261168660267e-05,0.3674933976656448,0,9,30.0
19,0.48256891159450305,7.051834147526226e-05,0.37288249969725956,0,9,30.0
20,0.47906363571391386,6.739759367466083e-05,0.33728662141588295,1,9,30.0
21,0.4573342666906469,6.855761928497539e-05,0.31905198513137306,1,9,30.0
22,0.4513871999347911,6.753997350803248e-05,0.34222103014542693,0,9,30.0
23,0.4320137497256784,6.88906570276766e-05,0.31767886939465206,1,9,30.0
24,0.4283580152427449,7.204525057151092e-05,0.32125759394925024,0,9,30.0
25,0.42989195164512184,6.981817063848105e-05,0.32202081541712485,0,9,30.0
26,0.4183624621699838,6.95944596801008e-05,0.2990586774269608,1,9,30.0
27,0.40555485451922696,6.84799113728599e-05,0.2966609417448492,1,9,30.0
28,0.4088137637166416,6.733451899729997e-05,0.3060928214915987,0,9,30.0
29,0.38557263262131636,6.490375963039697e-05,0.30219870093407014,0,9,30.0
30,0.3867265694281634,6.9099881383248e-05,0.2975986302298502,0,9,30.0
31,0.38370520612772774,6.351797513643225e-05,0.28174304977379,1,9,30.0
32,0.3751577031963012,6.831043463214027e-05,0.2965828807067518,0,9,30.0
33,0.3752069641562069,6.584987923441291e-05,0.29141888086350143,0,9,30.0
34,0.3661518710501054,6.295602472485317e-05,0.2897630473475169,0,9,30.0
35,0.3592611114768421,6.504749732865843e-05,0.29154563705276115,0,9,30.0
36,0.36089184827664317,6.354807055151254e-05,0.2848062936380216,0,9,30.0
37,0.3460389338872012,6.049804918909692e-05,0.2929479249118541,0,9,30.0
38,0.354776727977921,6.412671984221293e-05,0.2898443017851284,0,9,30.0
1,0.8935808595489053,0.00024927913841298397,0.7057906824866009,1,10,30.0
2,0.7949428810792811,0.00015475185158292707,0.7463953437256237,0,10,30.0
3,0.7549829644315383,0.00013739250143236646,0.7117574763261627,0,10,30.0
4,0.7328914235619938,0.00011417801014270962,0.6863211986430712,1,10,30.0
5,0.7083250235108768,0.00011370634490637767,0.6668328475648255,1,10,30.0
6,0.6918925895410426,0.00011082494105828706,0.646287595961411,1,10,30.0
7,0.6617495691075045,0.00010368213950320805,0.6601706335873222,0,10,30.0
8,0.6477584007908316,9.16853200418272e-05,0.6446959904423604,1,10,30.0
9,0.6332748896935407,8.702444653916994e-05,0.5805781941235854,1,10,30.0
10,0.6184371236492606,8.989306096576483e-05,0.6521655529230365,0,10,30.0
11,0.5936855638728422,9.303743011996095e-05,0.6065853178320948,0,10,30.0
12,0.5941328932257259,8.650661702096626e-05,0.5730507716692556,1,10,30.0
13,0.5825537060990053,7.963735633358523e-05,0.5718987682284901,1,10,30.0
14,0.5563262942959281,8.130093132529188e-05,0.5566820810367619,1,10,30.0
15,0.5432940966942731,7.216832733213189e-05,0.6330504010967136,0,10,30.0
16,0.5432378618156208,7.657537126386373e-05,0.6135018639005507,0,10,30.0
17,0.5301057794514824,7.572118757867857e-05,0.5374103870574405,1,10,30.0
18,0.5245982226203469,7.442676497328862e-05,0.5327528377433455,1,10,30.0
19,0.5118393841911765,7.184845256715027e-05,0.5619389664753714,0,10,30.0
20,0.510523049621021,6.822120442794745e-05,0.5882979065451025,0,10,30.0
21,0.4977495838614071,7.167418747592498e-05,0.5537076085929884,0,10,30.0
22,0.47595149559133193,6.621655184597544e-05,0.5713757104104525,0,10,30.0
23,0.4728136392200694,6.709909396115964e-05,0.5580783992503289,0,10,30.0
24,0.46600069053032817,6.998804785646773e-05,0.5529452803967522,0,10,30.0
25,0.45720895528793337,6.753802436458713e-05,0.5487683573154938,0,10,30.0
1,0.908264714830062,0.0002176422142998918,0.6151621753658524,1,11,30.0
2,0.8103474701152128,0.00013088221654898542,0.5842797047356426,1,11,30.0
3,0.7695175865117241,0.00010876467730507584,0.5425411029079998,1,11,30.0
4,0.7431003584581263,0.00010389660027987488,0.526923547543682,1,11,30.0
5,0.7089051246643067,9.229802556493429e-05,0.48906245853085345,1,11,30.0
6,0.6903551936149597,8.63816294226768e-05,0.5114992752398174,0,11,30.0
7,0.6713225238463458,8.246065010419389e-05,0.510021326675173,0,11,30.0
8,0.658614139697131,7.713553559904753e-05,0.4728159945041935,1,11,30.0
9,0.6409543745657977,7.460966358741965e-05,0.4651974534616348,1,11,30.0
10,0.6233438505845912,7.730003776754636e-05,0.46617516524450686,0,11,30.0
11,0.6100978448110468,6.900893362506074e-05,0.4401563870243882,1,11,30.0
12,0.5949700727182277,6.877799216240151e-05,0.43476841330422067,1,11,30.0
13,0.5859269836369683,6.913253451142843e-05,0.4322635928644391,1,11,30.0
14,0.5633671855225283,6.830381975947496e-05,0.42474554212027665,1,11,30.0
15,0.5509761336971731,6.303930533570512e-05,0.4451732799054315,0,11,30.0
16,0.5375203935539021,6.173331554129939e-05,0.41724355219486225,1,11,30.0
17,0.5331584720050587,5.712828013415941e-05,0.38838049197286467,1,11,30.0
18,0.5152326015865102,6.0487239940865786e-05,0.3934723895619611,0,11,30.0
19,0.5011027164318982,5.804658045663553e-05,0.4062806715599512,0,11,30.0
20,0.49841914562618034,6.116449029136942e-05,0.3886059230199659,0,11,30.0
21,0.4886151492595673,5.60989956926171e-05,0.41173844547934224,0,11,30.0
22,0.4709453070864958,5.615156365178443e-05,0.3803604992282439,1,11,30.0
23,0.4602993172757766,5.564677701519994e-05,0.4051092285297851,0,11,30.0
24,0.45228582760866953,5.7507567886632925e-05,0.3777064691577652,1,11,30.0
25,0.43937279161284953,5.557302514823866e-05,0.37671414325637165,1,11,30.0
26,0.4347496057257933,5.572986654656501e-05,0.381207250382919,0,11,30.0
27,0.42960821565459756,5.86883480376427e-05,0.3666327500155968,1,11,30.0
28,0.41813762994373543,5.762105542731554e-05,0.37234006782855716,0,11,30.0
29,0.41100727985886965,5.798738206709352e-05,0.38271334173608657,0,11,30.0
30,0.4109088182449341,5.9132187529672484e-05,0.3683443410944532,0,11,30.0
31,0.40392228400006014,5.659916584109477e-05,0.3618183492979883,1,11,30.0
32,0.39292438240612254,5.8907764212242055e-05,0.36671737104570873,0,11,30.0
33,0.396514834726558,5.640865428551264e-05,0.3670130656085402,0,11,30.0
34,0.3830808071529164,5.766357252843377e-05,0.3677916144205508,0,11,30.0
35,0.3800244822221644,5.88827530223438e-05,0.3596034003433516,1,11,30.0
36,0.3846600749913384,5.855780370492379e-05,0.3670272835463733,0,11,30.0
37,0.37342729323050555,5.76378548216513e-05,0.3687387608592824,0,11,30.0
38,0.3707354766481063,5.429918639813824e-05,0.36218795571528367,0,11,30.0
39,0.37024926718543555,6.088648018810679e-05,0.36067564090390064,0,11,30.0
40,0.369735330693862,6.0658769935424275e-05,0.3659178843234871,0,11,30.0
1,0.9151770642825535,0.0002140209379874813,0.6519693530700231,1,12,30.0
2,0.809085684872809,0.00016017048273213384,0.6369948831144941,1,12,30.0
3,0.7802696873744329,0.0001276059176580886,0.5920899113382229,1,12,30.0
4,0.7384210186345237,0.00011935713493065643,0.6050799998472595,0,12,30.0
5,0.7234848680950347,0.00010301055486447044,0.5586003857585027,1,12,30.0
6,0.6929900660401299,0.00010474776397694812,0.5388477363831718,1,12,30.0
7,0.6701492624623435,0.00010460199566642543,0.4767066789553809,1,12,30.0
8,0.669710717740513,9.272642546420684e-05,0.47082599429375277,1,12,30.0
9,0.6315995078711283,9.143935581267302e-05,0.4639991113309313,1,12,30.0
10,0.6291495029415403,7.82966503504126e-05,0.4416322246927559,1,12,30.0
11,0.6124170152913957,8.157517346435703e-05,0.44195458659571973,0,12,30.0
12,0.5885947690833182,8.337404467186258e-05,0.45107784122070504,0,12,30.0
13,0.5793728597816967,8.092518397634627e-05,0.42157391180821246,1,12,30.0
14,0.5670268539161909,8.003440468330934e-05,0.385638437982673,1,12,30.0
15,0.5510412788107282,7.611637920490466e-05,0.4053492913153199,0,12,30.0
16,0.5356255716511181,7.092178882539017e-05,0.40310781200606355,0,12,30.0
17,0.525847770628475,7.46293617772781e-05,0.4228089420879795,0,12,30.0
18,0.5125662730563254,7.094570476814017e-05,0.38440030062060215,1,12,30.0
19,0.5006231087304297,7.648068272135875e-05,0.3917554109225155,0,12,30.0
20,0.4927138803260667,6.892281349532173e-05,0.3838991066099854,1,12,30.0
21,0.4803861106435458,6.521892941063492e-05,0.36156418340304597,1,12,30.0
22,0.4757296797775087,6.951889030287497e-05,0.3696640592579837,0,12,30.0
23,0.46515647570292157,6.989879351576314e-05,0.36943656171276973,0,12,30.0
24,0.4489218532329514,6.560649754170473e-05,0.3720553177936315,0,12,30.0
25,0.43680603092625025,6.854019232248123e-05,0.37108697748955105,0,12,30.0
26,0.4359955024861154,6.537895573966948e-05,0.3722781716463507,0,12,30.0
27,0.4255637065285728,6.718734697469266e-05,0.3443776932672631,1,12,30.0
28,0.4217517908130373,6.623490147224705e-05,0.3566880306351425,0,12,30.0
29,0.41369994304009844,6.196598068137453e-05,0.3464493466594932,0,12,30.0
30,0.4063449026573272,6.531351560365042e-05,0.3532134634854867,0,12,30.0
31,0.4006853476166725,6.272068155036929e-05,0.34802635670478066,0,12,30.0
32,0.3936396503732318,6.07529234132796e-05,0.3483695216951727,0,12,30.0
33,0.3866995739794913,6.698000790839571e-05,0.34944841687224415,0,12,30.0
34,0.37747052205460413,6.186957207752304e-05,0.3555956102660088,0,12,30.0
1,0.8992337378717604,0.00022003735752410388,0.8296310600736672,1,13,30.0
2,0.7890217062972841,0.00015691130153884712,0.6877015664482602,1,13,30.0
3,0.7455546089581081,0.00014264028452868973,0.6737560636014995,1,13,30.0
4,0.7269720236460367,0.00012036282909580873,0.723954640890495,0,13,30.0
5,0.7020077485413778,0.00011827394484412035,0.5773485512069724,1,13,30.0
6,0.6716813785689217,0.00010913713032052674,0.6042617993111088,0,13,30.0
7,0.6426956082383791,0.00010709050292505362,0.6295942124242585,0,13,30.0
8,0.6353455299422854,0.00010511944388521702,0.6165530898532293,0,13,30.0
9,0.6116449889682588,0.00010414578337943004,0.5838517006385047,0,13,30.0
10,0.6078693015234811,9.665426270138206e-05,0.517104093570095,1,13,30.0
11,0.5782180236918586,8.55853414101321e-05,0.5270612423559672,0,13,30.0
12,0.5733266753100213,8.228781929834181e-05,0.5616370468399726,0,13,30.0
13,0.5495817164580027,8.703618355606782e-05,0.5536953189363854,0,13,30.0
14,0.5475496156584649,7.85100809523664e-05,0.5359353240447278,0,13,30.0
15,0.532996650607813,7.530755114463059e-05,0.516545031665638,1,13,30.0
16,0.526225480295363,7.784435326487125e-05,0.5283193153130828,0,13,30.0
17,0.5063865372822398,8.07856376923155e-05,0.510352820795821,1,13,30.0
18,0.4963525593990371,7.528650621679844e-05,0.5041531783688196,1,13,30.0
19,0.49155297804446446,7.199414999160494e-05,0.5061701988261457,0,13,30.0
20,0.47730677468436106,6.674317431870371e-05,0.47481498083789264,1,13,30.0
21,0.47063659060569035,7.102740251173687e-05,0.4973573985477476,0,13,30.0
22,0.4580328868968146,7.090755259144186e-05,0.46549758105406003,1,13,30.0
23,0.451947410546598,7.219353972773423e-05,0.4537139813947528,1,13,30.0
24,0.43429058222543626,6.780371369954774e-05,0.47349849411838557,0,13,30.0
25,0.42942276455107187,6.591970222438075e-05,0.4462776208997739,1,13,30.0
26,0.42739334383181166,7.149867416869494e-05,0.41957704593620765,1,13,30.0
27,0.4032465907789412,7.231967932360324e-05,0.4200638630709149,0,13,30.0
28,0.39599787372918355,7.633479132588643e-05,0.43364685297415523,0,13,30.0
29,0.3914883839232581,7.262559401646112e-05,0.43419168694644517,0,13,30.0
30,0.3941213878847304,6.83737755805071e-05,0.44123930423865737,0,13,30.0
31,0.3909544735437348,7.478301739909165e-05,0.4194864569756184,1,13,30.0
32,0.36998925996678217,7.17084455702986e-05,0.4241899837137743,0,13,30.0
33,0.3684973691900571,7.122617595693252e-05,0.4162858495743474,1,13,30.0
34,0.3709806377689044,7.960747881865938e-05,0.41597189117689953,1,13,30.0
35,0.3603563033753917,7.380957434915694e-05,0.4206281535164863,0,13,30.0
36,0.36927601340271177,7.457434479701555e-05,0.4221673323808641,0,13,30.0
37,0.35606178765495616,7.582879386193651e-05,0.4209762722145957,0,13,30.0
38,0.3496419322632608,7.403176429458351e-05,0.42384041449022286,0,13,30.0
39,0.3552774948378404,7.042217510475201e-05,0.41163712204942016,1,13,30.0
40,0.35319266095757484,7.288940057714215e-05,0.41536839629211475,0,13,30.0
1,0.9250631729761759,0.00022194722311853963,0.5834979064315289,1,14,30.0
2,0.812610686534927,0.00013425725743824538,0.5788468508910377,1,14,30.0
3,0.7761943361588887,0.00011423123309907082,0.5010602082351654,1,14,30.0
4,0.7521578052214214,0.00010635394989679168,0.5420023440446967,0,14,30.0
5,0.728197767620995,0.00010127348797964042,0.5037733660835684,0,14,30.0
6,0.6987623292065802,0.0001101169954424785,0.518063269338636,0,14,30.0
7,0.6772967974344889,0.00010200886550765496,0.48934389225307334,1,14,30.0
8,0.6700295500812077,9.350147891901932e-05,0.44823137297218485,1,14,30.0
9,0.6447012513166382,8.56564017903154e-05,0.41524706823337143,1,14,30.0
10,0.6316616393270946,8.144480038719762e-05,0.4414264005646052,0,14,30.0
11,0.618805682730107,7.735577613251128e-05,0.46082131947224914,0,14,30.0
12,0.6023004558824357,7.364236197255585e-05,0.4150810047381319,1,14,30.0
13,0.5945274687948681,7.079004873438472e-05,0.4114847045782469,1,14,30.0
14,0.5826031583405676,7.338147484655824e-05,0.38126351740964753,1,14,30.0
15,0.5776893900973457,7.241379166987913e-05,0.37921601002212807,1,14,30.0
16,0.5695960943897566,7.25910783027454e-05,0.38064904649101466,0,14,30.0
17,0.5426697496856961,7.343732973129677e-05,0.3572769442386493,1,14,30.0
18,0.5301966117251486,7.073251942659096e-05,0.3735506593100237,0,14,30.0
19,0.5179983561947232,7.319197603854783e-05,0.33209306784732473,1,14,30.0
20,0.5052799646343503,6.854155890323455e-05,0.36927313972106146,0,14,30.0
21,0.4975613270487104,7.112458964305309e-05,0.35043250941962995,0,14,30.0
22,0.4892949802534921,6.67354546142936e-05,0.3143277240639202,1,14,30.0
23,0.47878484356971013,7.000197135875212e-05,0.3273922390477524,0,14,30.0
24,0.466342782335622,6.747864578452815e-05,0.33428962671247625,0,14,30.0
25,0.4510128778361139,7.165463202476357e-05,0.3381825196102004,0,14,30.0
26,0.4477821836868922,6.863831766254624e-05,0.3007900150700601,1,14,30.0
27,0.44285946765116285,6.419622461960119e-05,0.30530951040226045,0,14,30.0
28,0.437607599511033,6.544965756239392e-05,0.3203193568215408,0,14,30.0
29,0.42595983083759037,6.813072351568345e-05,0.30229761620469464,0,14,30.0
30,0.4150868971787748,6.550653969974345e-05,0.299593059543335,1,14,30.0
31,0.4043507533414023,6.743255627433038e-05,0.31584493328616337,0,14,30.0
32,0.40537101172265555,7.177139026940235e-05,0.30529195603527487,0,14,30.0
33,0.4009819807750838,6.911021808350814e-05,0.3110346578525202,0,14,30.0
34,0.3942878274690537,6.805138201300343e-05,0.3164478986106738,0,14,30.0
35,0.3980969616344997,6.901023724432369e-05,0.3006003094082125,0,14,30.0
36,0.38409913934412454,6.609882283165851e-05,0.30424515778211797,0,14,30.0
37,0.3917424895224117,6.613493444872023e-05,0.3007233540780211,0,14,30.0
1,0.9164946773472954,0.00022024358836728532,0.6262170905886144,1,15,30.0
2,0.8086231428034165,0.0001382116019479273,0.6780848423381206,0,15,30.0
3,0.7697822241222158,0.00011154357553630903,0.636426496576439,0,15,30.0
4,0.7490709564265083,0.00010739259801887195,0.5402803806921389,1,15,30.0
5,0.7291574506198659,9.626642062999855e-05,0.5868963826757045,0,15,30.0
6,0.6996829671018264,9.096593387178419e-05,0.5425717389771101,0,15,30.0
7,0.682037762333365,8.642974605797516e-05,0.5674300048963319,0,15,30.0
8,0.6553199673400206,8.703152518993354e-05,0.5021106229865441,1,15,30.0
9,0.6433105475762311,8.830205735969631e-05,0.471898627690798,1,15,30.0
10,0.6245305145488066,8.619009202127072e-05,0.5290610571711287,0,15,30.0
11,0.6176556692403905,7.848915368359646e-05,0.5072875783220125,0,15,30.0
12,0.5968782077817356,7.680964173392996e-05,0.4861140295963056,0,15,30.0
13,0.5856753920807558,7.782635383431197e-05,0.4881848521029184,0,15,30.0
14,0.5767093942445867,7.463757758480771e-05,0.47889711693805354,0,15,30.0
15,0.5606790468973272,7.063626638709513e-05,0.4889978220798709,0,15,30.0
16,0.5384044566575219,7.093113308656029e-05,0.5109962782524277,0,15,30.0
1,0.9362580488709843,0.00017911862609360147,0.7631396295302482,1,16,30.0
2,0.8200463252909044,0.00015078580455498442,0.7883166413935044,0,16,30.0
3,0.7730348180322086,0.00011090211979428525,0.8057919899558663,0,16,30.0
4,0.7450833587085499,0.00011246593562913511,0.6493560049865673,1,16,30.0
5,0.7253012404722325,9.993044882054057e-05,0.640201326604502,1,16,30.0
6,0.6958084709504071,9.407348903443883e-05,0.6412573229630405,0,16,30.0
7,0.6817480269600363,9.433114066589897e-05,0.7149049494086849,0,16,30.0
8,0.6642656445503234,8.428712257334743e-05,0.703062333700068,0,16,30.0
9,0.6510728934231926,8.344546380719882e-05,0.660452609472666,0,16,30.0
10,0.6342172096757328,7.364590119858108e-05,0.6570556045505629,0,16,30.0
11,0.6120832807877484,7.087948902421083e-05,0.6165385760324958,1,16,30.0
12,0.5995788381380194,7.199840166482745e-05,0.6636689350540436,0,16,30.0
13,0.5866624667364009,6.974133930805906e-05,0.7198956657843412,0,16,30.0
14,0.5776881025117986,6.490562300314196e-05,0.583664438941262,1,16,30.0
15,0.5612237674348495,6.662525847787038e-05,0.546530473516786,1,16,30.0
16,0.5561739739249735,5.9595874207683234e-05,0.6273112880157447,0,16,30.0
17,0.5404658836476943,5.805523435222259e-05,0.5240797251023374,1,16,30.0
18,0.5328144858865177,5.946564385393525e-05,0.6410278575162717,0,16,30.0
19,0.5258224448736977,5.650389913866735e-05,0.5435029055676469,0,16,30.0
20,0.500486787627725,5.9348396376556e-05,0.5702758283581866,0,16,30.0
21,0.49536350509699656,6.131445817813716e-05,0.43933576737053753,1,16,30.0
22,0.4920898493598489,5.934274672386784e-05,0.5506999000974877,0,16,30.0
23,0.4748344901730033,6.18027695642976e-05,0.5520411788953729,0,16,30.0
24,0.46547145212397856,6.237930771449636e-05,0.5507203476395099,0,16,30.0
25,0.46373690121314104,6.352575681590037e-05,0.5032271178103094,0,16,30.0
26,0.4566998050493353,5.82976993481519e-05,0.5862605677881136,0,16,30.0
27,0.44665895455023824,6.182291906631744e-05,0.5077024453700979,0,16,30.0
28,0.42831978657666375,5.769359687452807e-05,0.5230878033053622,0,16,30.0
1,0.9059445666415351,0.00020762478994757182,0.6397338602235335,1,17,30.0
2,0.7955907859972545,0.00012887588551772447,0.5736103509065095,1,17,30.0
3,0.759642053218115,0.00012250652491188486,0.5142396775566136,1,17,30.0
4,0.7350896036341077,0.00010851614366575155,0.5576985169623594,0,17,30.0
5,0.7091674613101142,0.00011046718949122199,0.4969004663825773,1,17,30.0
6,0.6897628335725694,8.842901254302844e-05,0.49769748233426586,0,17,30.0
7,0.6693366347324281,9.218737029316668e-05,0.4708872493794573,1,17,30.0
8,0.6612139883495513,8.889410756161115e-05,0.4708988508041261,0,17,30.0
9,0.645344676715987,8.647405238228938e-05,0.48245271098114945,0,17,30.0
10,0.6251528717222667,7.475733972179504e-05,0.4604039524330689,1,17,30.0
11,0.6099508021559034,7.494159459990139e-05,0.4232507458777084,1,17,30.0
12,0.5957876450958706,7.612678802529227e-05,0.44948184919456174,0,17,30.0
13,0.5823774004266375,7.351325603806236e-05,0.43102384626304613,0,17,30.0
14,0.563810004719666,6.662197297590042e-05,0.40594048839589103,1,17,30.0
15,0.5498594698451814,6.589412498128478e-05,0.3985312348902668,1,17,30.0
16,0.5299071584429059,6.739884459724028e-05,0.403269811936219,0,17,30.0
17,0.5161513757138025,6.479544169581329e-05,0.3868201388409082,1,17,30.0
18,0.51606171471732,6.222643692342986e-05,0.39034768510134865,0,17,30.0
19,0.49577492227156955,6.366169933850567e-05,0.35948507005902663,1,17,30.0
20,0.4853364339187032,6.708851266185298e-05,0.37008691900535423,0,17,30.0
21,0.477540543391591,6.466632385127014e-05,0.40169558277956385,0,17,30.0
22,0.457075026063692,6.536875402421824e-05,0.3583867185382257,1,17,30.0
23,0.4513905271887779,6.389748856842441e-05,0.35923495158501473,0,17,30.0
24,0.4531963176670529,6.11253887351874e-05,0.3295943678019365,1,17,30.0
25,0.43966966228825705,6.140046765982074e-05,0.3550423499492836,0,17,30.0
26,0.43263813853263855,6.412223003627289e-05,0.3528294946207921,0,17,30.0
27,0.4240157043650037,6.192505510885635e-05,0.33451900180723443,0,17,30.0
28,0.41281641771396,5.9959032460894724e-05,0.3450093767959666,0,17,30.0
29,0.41232187833104816,6.215904418890464e-05,0.33346431507763813,0,17,30.0
30,0.40205016838652746,5.8952723390705485e-05,0.3265149592278757,1,17,30.0
31,0.409277920566854,5.711745788652306e-05,0.3181939150060786,1,17,30.0
32,0.39489052693049115,5.732077685631035e-05,0.3288312766938022,0,17,30.0
33,0.3833962686005093,5.845061964681095e-05,0.32245712197498944,0,17,30.0
34,0.38905990797848927,6.188159919215e-05,0.32728630929653135,0,17,30.0
35,0.38022540970927193,6.087476924135228e-05,0.3259139406649517,0,17,30.0
36,0.3756985792091915,6.092081955665933e-05,0.31689512481399695,1,17,30.0
37,0.37648106561530204,6.119959687653353e-05,0.32765458876695497,0,17,30.0
38,0.3735163186987241,5.840812597549908e-05,0.32530684205056654,0,17,30.0
39,0.3609480701741718,5.801312636322109e-05,0.3287746647244177,0,17,30.0
40,0.3623262345790863,6.181357825664149e-05,0.3283593106238293,0,17,30.0
1,0.9128237387713264,0.00024040977689711486,0.6384498054160717,1,18,30.0
2,0.7993228414479424,0.00016667918646228773,0.5475135955371355,1,18,30.0
3,0.7640269665157093,0.0001314243606483454,0.5702703586328864,0,18,30.0
4,0.7251647900132572,0.00011389159618000335,0.5863620226381382,0,18,30.0
5,0.7041938206728767,0.00010871795230367057,0.5555660869311361,0,18,30.0
6,0.6881247450323665,0.00011130288861322162,0.5222133961132612,1,18,30.0
7,0.6727261318879969,9.998546036727288e-05,0.5179433767923178,1,18,30.0
8,0.6458098783212549,9.203438359477065e-05,0.507601224757849,1,18,30.0
9,0.63512523875517,8.86843866764513e-05,0.48749918196356046,1,18,30.0
10,0.61919386176502,9.222874051535173e-05,0.5024674784470164,0,18,30.0
11,0.6072783389512231,7.94681120383115e-05,0.45570503609653756,1,18,30.0
12,0.588143189163769,8.929001367719406e-05,0.4663156790808262,0,18,30.0
13,0.5769328075296739,7.241361047764418e-05,0.4223132835216649,1,18,30.0
14,0.5731390658546897,8.11133804210626e-05,0.467714912763011,0,18,30.0
15,0.5590005576610565,7.524365060175221e-05,0.4549564040843236,0,18,30.0
16,0.5396289523910074,7.018727581667276e-05,0.43338838142738334,0,18,30.0
17,0.5377444172606749,6.932464654228705e-05,0.41911230645179137,1,18,30.0
18,0.5194817760411431,6.987941669649445e-05,0.41468660453858885,1,18,30.0
19,0.5042060852050781,6.439569474690978e-05,0.43500755713204675,0,18,30.0
20,0.49250142819741194,7.273759393309078e-05,0.4219534932105104,0,18,30.0
21,0.4796631504507626,7.045895558001255e-05,0.4227973388495589,0,18,30.0
22,0.48004630067769216,6.981426974080557e-05,0.4158681424741058,0,18,30.0
23,0.4725364923477173,6.811308361220119e-05,0.42473553568238986,0,18,30.0
24,0.4566470072549932,6.595068587236764e-05,0.3903516679621498,1,18,30.0
25,0.4450377976193148,6.863102398175911e-05,0.4046128071943563,0,18,30.0
26,0.4421684159952052,6.889012849355554e-05,0.3939461552118716,0,18,30.0
27,0.43624735649894264,6.773953641908627e-05,0.4225008175915367,0,18,30.0
28,0.42882591871654285,6.439365773557631e-05,0.4181551474070878,0,18,30.0
29,0.4239846296170179,6.865934688796508e-05,0.40286669355908034,0,18,30.0
30,0.41253449461039376,6.777161902659025e-05,0.4035215702138205,0,18,30.0
31,0.4114844623733969,6.857907184680431e-05,0.41532175372914815,0,18,30.0
1,0.9244211519465727,0.00019491305686054094,0.5240359164225428,1,19,30.0
2,0.8156439437585719,0.00015108362486524344,0.4987522412130707,1,19,30.0
3,0.7712655796724207,0.00011864243604256498,0.4981463601400978,1,19,30.0
4,0.7575121620122124,0.00011440829103401697,0.47957146616358504,1,19,30.0
5,0.7284664020818823,0.00010695732729372513,0.4862468943784111,0,19,30.0
6,0.6967472258736106,0.00010207162721438662,0.4541513105285795,1,19,30.0
7,0.6863336464937996,9.615760555949665e-05,0.4337668967874427,1,19,30.0
8,0.6622626325663399,8.952559938359841e-05,0.4274664268760305,1,19,30.0
9,0.6476618247873643,9.72866295984097e-05,0.410749118355544,1,19,30.0
10,0.6319547204410328,8.701261198011173e-05,0.39631629365839455,1,19,30.0
11,0.6253984353121589,8.960366548682727e-05,0.3854785282674589,1,19,30.0
12,0.6056483763105729,8.340588216978016e-05,0.37284810786184513,1,19,30.0
13,0.5915384373244117,8.037554422009956e-05,0.38028466881105777,0,19,30.0
14,0.5826051042360418,7.63601549431983e-05,0.3687596873193979,1,19,30.0
15,0.5627668506958905,7.517124313915916e-05,0.3658212616725972,1,19,30.0
16,0.547188699946684,7.67031340407865e-05,0.3598169424620114,1,19,30.0
17,0.5369962124263539,7.765216753742768e-05,0.3474776544853261,1,19,30.0
18,0.5291046121541192,7.455253751900541e-05,0.3624529471993446,0,19,30.0
19,0.5197898251168868,6.96597170591464e-05,0.3403163520717307,1,19,30.0
20,0.5116460446049186,6.571614186909487e-05,0.3308513779075522,1,19,30.0
21,0.4944288415067336,6.619651351630797e-05,0.35194803086550613,0,19,30.0
22,0.48983061173382925,6.720131615806809e-05,0.3309493017118228,0,19,30.0
23,0.47052745328230017,7.013368470806573e-05,0.32337765179966627,1,19,30.0
24,0.45687828134087954,7.264123662881662e-05,0.32938915082890735,0,19,30.0
25,0.4553455219549291,7.186891615514041e-05,0.3253312404963531,0,19,30.0
26,0.4509197063305799,6.335178038759349e-05,0.31564321212862667,1,19,30.0
27,0.4485468138666714,6.969500438358142e-05,0.29710693068018085,1,19,30.0
28,0.4349501914837781,7.034038807272308e-05,0.30812044342097483,0,19,30.0
29,0.4274489402770996,6.591947680777487e-05,0.31303968502502694,0,19,30.0
30,0.42361417482880986,6.854549133362632e-05,0.3153406405527341,0,19,30.0
31,0.4126665494021247,6.755012860487434e-05,0.30300934190028594,0,19,30.0
32,0.4031811258372138,6.597715845975258e-05,0.3136675255941717,0,19,30.0
33,0.40573115068323473,6.668549784294822e-05,0.30082773156856235,0,19,30.0
34,0.3999985042740317,7.079300844720017e-05,0.30827168105072095,0,19,30.0
1,0.8815786558039048,0.00022935589684707606,0.8807364129239157,1,20,30.0
2,0.7753552072188433,0.0001527980766053695,0.8109867522261174,1,20,30.0
3,0.7454214846386629,0.00013903766118935034,0.8177151263505033,0,20,30.0
4,0.7150482458226821,0.00012248246648061253,0.7034325006671158,1,20,30.0
5,0.6994590822388144,0.0001159941397525151,0.7159566669429802,0,20,30.0
6,0.6767888623125413,0.0001111880799084354,0.7587662504172873,0,20,30.0
7,0.6567299779723672,0.00010546601808849065,0.7156133634390719,0,20,30.0
8,0.6403201923650854,9.695948088740218e-05,0.6410011714891002,1,20,30.0
9,0.6274085602339576,9.558857474236421e-05,0.6424077099447327,0,20,30.0
10,0.6144811255090377,9.827568706789274e-05,0.7014190977765165,0,20,30.0
11,0.596203561039532,8.387322035131921e-05,0.6205140189581584,1,20,30.0
12,0.5807454971706166,8.734955254647717e-05,0.7159585728733505,0,20,30.0
13,0.5648118650212007,7.546660139376079e-05,0.6972314947611814,0,20,30.0
14,0.5602782382684596,7.419785350280376e-05,0.6638543116071254,0,20,30.0
15,0.5234839968821582,7.699627479750609e-05,0.6671784382780914,0,20,30.0
16,0.5213270829004399,8.251993516323102e-05,0.6383910372409367,0,20,30.0
17,0.5159557002432206,7.109749721541234e-05,0.5785633521838731,1,20,30.0
18,0.5013690948486328,7.25238820664612e-05,0.6485650771257778,0,20,30.0
19,0.4857095960308524,7.326209897120648e-05,0.5892609285792146,0,20,30.0
20,0.47707624014686134,6.956829191254014e-05,0.6129221725410448,0,20,30.0
21,0.47545859322828404,7.055772225345101e-05,0.7320570104506936,0,20,30.0
22,0.45682526546366076,6.874626569162287e-05,0.707409736862826,0,20,30.0
23,0.44031659224454095,6.137556231217733e-05,0.6297596379064966,0,20,30.0
24,0.4339392521802117,6.440355547751738e-05,0.5786255990385226,0,20,30.0
1,0.9232218868592206,0.00022640519943225253,0.554714491909536,1,21,30.0
2,0.8071604497292463,0.0001506692516747588,0.5216322077896247,1,21,30.0
3,0.766389421154471,0.0001277319561375086,0.5936482062401842,0,21,30.0
4,0.7386748026399051,0.00012241329313837922,0.5652476490666115,0,21,30.0
5,0.7141062533154207,0.00010765448798124185,0.45682383339220384,1,21,30.0
6,0.6868214340770946,0.0001003379149016623,0.5419103726132714,0,21,30.0
7,0.6689281645943137,9.773862137294868e-05,0.49064612252854745,0,21,30.0
8,0.6384820664630216,9.431009298971141e-05,0.4375983259636162,1,21,30.0
9,0.6324135236880358,9.758917482994387e-05,0.4251117921738664,1,21,30.0
10,0.6190801802803488,9.118472089004868e-05,0.45782268351983746,0,21,30.0
11,0.6053719520568848,9.294516344465699e-05,0.4292924105330251,0,21,30.0
12,0.592535967686597,8.289871783584685e-05,0.43101756115690426,0,21,30.0
13,0.5859678015989416,8.542332186206135e-05,0.41653638587554265,1,21,30.0
14,0.5683264988310197,7.44421368033406e-05,0.42059843289993737,0,21,30.0
15,0.5535513642956229,7.69011136606637e-05,0.38149103180627486,1,21,30.0
16,0.5334087368320016,7.524658585145302e-05,0.4107367136667014,0,21,30.0
17,0.5286720254841972,7.00835745459806e-05,0.38225528729892655,0,21,30.0
18,0.5213579528472003,7.364230623352341e-05,0.3980354357648256,0,21,30.0
19,0.5102420456269208,6.779608173768365e-05,0.38178822884205726,0,21,30.0
20,0.5040382195921506,6.36958026649047e-05,0.38343024559108135,0,21,30.0
21,0.48338852700065166,6.62899339444908e-05,0.40208318461338044,0,21,30.0
22,0.47792907672769885,7.225984556819587e-05,0.3509350484347694,1,21,30.0
23,0.47742047169629265,6.77240418821491e-05,0.36751016381151724,0,21,30.0
24,0.4522993094780866,6.70474032898817e-05,0.3920482636380179,0,21,30.0
25,0.4465960309785955,6.962014226968784e-05,0.37255506584030573,0,21,30.0
26,0.43172440493808073,7.040987761951436e-05,0.35439711181027495,0,21,30.0
27,0.4366770106203416,6.442031787146869e-05,0.3508527286156319,1,21,30.0
28,0.4237920270246618,6.880353021723054e-05,0.36448845496678445,0,21,30.0
29,0.4216622776844922,6.871289964799551e-05,0.3623926430740101,0,21,30.0
30,0.40408122714828043,6.44608171783415e-05,0.35857437798597575,0,21,30.0
31,0.40239252903882194,6.641611150424817e-05,0.3604953859993679,0,21,30.0
32,0.39947465833495643,6.700225194970912e-05,0.35693967259670933,0,21,30.0
33,0.3980039053103503,6.598089890116278e-05,0.35267283925106424,0,21,30.0
34,0.3806883443804348,6.942747469806551e-05,0.3447740130069519,1,21,30.0
35,0.3872016387827256,6.677015545017853e-05,0.3416566641599746,1,21,30.0
36,0.38537819613428675,6.586140589206479e-05,0.3442593782423274,0,21,30.0
37,0.37470451067475713,7.299069030148744e-05,0.338281922661604,1,21,30.0
38,0.3779079924611484,6.16858689360978e-05,0.3413504328666265,0,21,30.0
39,0.3761795114068424,6.513590997201391e-05,0.3458065597450143,0,21,30.0
40,0.3796110360061421,6.569007395335255e-05,0.339830435243371,0,21,30.0
1,0.9390039836659151,0.0002277576534063829,0.6059485556562638,1,22,30.0
2,0.8208201674854054,0.00014576549232622388,0.5418555684212605,1,22,30.0
3,0.7788792448885301,0.00013248198622878751,0.5587289502275208,0,22,30.0
4,0.7546918869018555,0.00012221651764668745,0.5062969924848011,1,22,30.0
5,0.7359531970585094,0.00010957976093563689,0.5358761589692094,0,22,30.0
6,0.7139180169386022,9.851828478584888e-05,0.4772791553492957,1,22,30.0
7,0.6866826905923731,0.00010325763056136887,0.5047397979479235,0,22,30.0
8,0.6758053751552806,8.346032306743677e-05,0.4500763958101173,1,22,30.0
9,0.6490013585371129,8.821837871116313e-05,0.4787147770973783,0,22,30.0
10,0.6358325993313508,8.533561699818272e-05,0.40705551259978323,1,22,30.0
11,0.6260434627532959,8.01020284758552e-05,0.46452591349577466,0,22,30.0
12,0.6128883442457984,7.660194246187423e-05,0.43915576685813323,0,22,30.0
13,0.5955793910166797,7.480460035902284e-05,0.43857114671804887,0,22,30.0
14,0.5844503900584053,7.320283830802724e-05,0.4077251987595004,0,22,30.0
15,0.5693953710443833,7.772164766827379e-05,0.41553323750941,0,22,30.0
16,0.555255992973552,7.561992315459065e-05,0.4115140739215572,0,22,30.0
17,0.5383782001102672,6.867414960973239e-05,0.4384937584633616,0,22,30.0
1,0.9147394391752425,0.0002111579481043875,0.5432372644371931,1,23,30.0
2,0.8138677406878698,0.00014476985978988176,0.50919577053506,1,23,30.0
3,0.7725480078231721,0.00013699931705126627,0.4940031007103975,1,23,30.0
4,0.7479118350006285,0.00011024513679287684,0.44709160377518314,1,23,30.0
5,0.7265913181361698,0.00011192460745708861,0.46989098136884455,0,23,30.0
6,0.7049279908339182,9.972459403278273e-05,0.42900935545201185,1,23,30.0
7,0.6822546983049029,9.8877642293311e-05,0.4161271474540005,1,23,30.0
8,0.6648935909782138,9.30201279386113e-05,0.4444268878811682,0,23,30.0
9,0.6504431842338472,9.206123481167847e-05,0.43528821544671636,0,23,30.0
10,0.63327908657846,8.911220218232345e-05,0.42970894358565653,0,23,30.0
11,0.6194810111607824,8.054032527330232e-05,0.40613777674114504,1,23,30.0
12,0.6049873176075163,7.876495571205548e-05,0.41221365545722494,0,23,30.0
13,0.5934523209219887,7.813237325968831e-05,0.3890990069443682,1,23,30.0
14,0.5722368895297959,7.147419468570401e-05,0.37948655122211356,1,23,30.0
15,0.5637343124974341,7.156411660010538e-05,0.39506087889954467,0,23,30.0
16,0.553289284663541,6.822676282137676e-05,0.37567541404161003,1,23,30.0
17,0.5432847273491678,6.959089508503287e-05,0.383497377827754,0,23,30.0
18,0.5372698197052592,6.220295004563272e-05,0.3506322177353574,1,23,30.0
19,0.5239919133129574,6.949411722633245e-05,0.35062383333562125,1,23,30.0
20,0.5129307174966449,6.619937106560905e-05,0.37252810573665646,0,23,30.0
21,0.5083500111386889,6.245900944382552e-05,0.3609814924496809,0,23,30.0
22,0.49073002700294766,6.536051439200361e-05,0.37034893029735505,0,23,30.0
23,0.4855884395184971,6.416490266149464e-05,0.33686706454072163,1,23,30.0
24,0.47424812402044025,6.281402667290032e-05,0.34973049912310744,0,23,30.0
25,0.46020533747616266,6.00039429627941e-05,0.36319241785717393,0,23,30.0
26,0.45643215555520283,6.267202622569e-05,0.3585924979176482,0,23,30.0
27,0.45202374422834035,6.580144106140194e-05,0.33752992354850936,0,23,30.0
28,0.4396597118604751,6.121553451521322e-05,0.3416253862008166,0,23,30.0
29,0.431477814912796,6.359957634621034e-05,0.34566647910635806,0,23,30.0
30,0.4247339279169128,6.268619346796878e-05,0.3314344392545645,1,23,30.0
31,0.4266293254636583,6.381905049714814e-05,0.3322833676096267,0,23,30.0
32,0.4158626482600257,6.62306606283805e-05,0.33753019674596463,0,23,30.0
33,0.4088951203794706,6.407477827624895e-05,0.3303586244862169,1,23,30.0
34,0.3984516600058192,6.33633980691056e-05,0.3282549983289966,1,23,30.0
35,0.4045774166782697,6.579823578552653e-05,0.3277648958203439,1,23,30.0
36,0.3990443792371523,6.502073228191529e-05,0.3265008783944562,1,23,30.0
37,0.39917938836983274,6.316793687368598e-05,0.32455542644607466,1,23,30.0
38,0.38830814758936566,6.333322107821004e-05,0.32451519386570965,1,23,30.0
39,0.386778491238753,6.202159983374822e-05,0.3238229097799659,1,23,30.0
40,0.3920695285002391,6.538957824800274e-05,0.3241150846227851,0,23,30.0
1,0.9139565428098043,0.00024574612888543577,0.6330227445899033,1,24,30.0
2,0.824722326937176,0.00016481673646055804,0.5436457900081094,1,24,30.0
3,0.7811834996654874,0.000139695955762623,0.5063769741086509,1,24,30.0
4,0.7539054112774985,0.00013643795786525255,0.5331461915350336,0,24,30.0
5,0.7253971348206202,0.0001288275620719928,0.4466868084598714,1,24,30.0
6,0.7080523180110114,0.00012949774251562,0.5069159979191352,0,24,30.0
7,0.6883485111452284,0.00011742400493815131,0.46963836018025407,0,24,30.0
8,0.67849738966851,9.689773265736654e-05,0.4402509666685983,1,24,30.0
9,0.6579519708951315,0.00010864026634884621,0.4387642863815225,1,24,30.0
10,0.6399536423739933,9.910915464604928e-05,0.3920757940669698,1,24,30.0
11,0.6169142701796123,9.461037578668246e-05,0.46052369006036775,0,24,30.0
12,0.6004750008384386,9.08757941336565e-05,0.4320714384552062,0,24,30.0
13,0.5928790083243733,8.553770272729231e-05,0.42215653720099156,0,24,30.0
14,0.5895505143063409,8.546408207621425e-05,0.43705251766002085,0,24,30.0
15,0.5659443289041519,8.592555349466801e-05,0.4106556651160473,0,24,30.0
16,0.5501442615474973,8.44504413093784e-05,0.39301367984043334,0,24,30.0
17,0.5376529768109322,8.473172614945465e-05,0.38937496317653203,1,24,30.0
18,0.5272363665558043,8.131332924676826e-05,0.3523893593333838,1,24,30.0
19,0.5213310864000094,8.11612835171954e-05,0.39710386097431183,0,24,30.0
20,0.5077367368198576,7.389184186952964e-05,0.3593169627931174,0,24,30.0
21,0.49592307387363344,7.440483676916865e-05,0.36505772155804894,0,24,30.0
22,0.4819424670367014,7.344736600533084e-05,0.41160115165503947,0,24,30.0
23,0.47675589223702747,7.639861251802704e-05,0.3818359878060855,0,24,30.0
24,0.4686203187420255,7.142451011618722e-05,0.36881655354903436,0,24,30.0
25,0.46199245147761847,7.414599228165268e-05,0.3603296698782388,0,24,30.0
1,0.9159054238171804,0.00018034250232241384,0.5497742885515526,1,25,30.0
2,0.8114424503984905,0.00012821400594562182,0.5705115913552407,0,25,30.0
3,0.7639060942899614,0.00012380993610436452,0.5301495478334889,1,25,30.0
4,0.7345560483989262,0.00011753852301072107,0.5212069207454831,1,25,30.0
5,0.716692769811267,0.00010707737125076597,0.507138421611355,1,25,30.0
6,0.7029610978705543,9.588019440256868e-05,0.5131792674131842,0,25,30.0
7,0.6746628220592227,8.993263175701334e-05,0.4890458325537656,1,25,30.0
8,0.6537403450125739,9.755188368996772e-05,0.45478423724821315,1,25,30.0
9,0.6409866149936404,8.546631904339717e-05,0.47404294476786135,0,25,30.0
10,0.6281036252067203,8.361092040147577e-05,0.43328075500132707,1,25,30.0
11,0.6165753138207254,7.83662688350194e-05,0.44069342767147524,0,25,30.0
12,0.5980876652257783,8.098034911762668e-05,0.40006747277630544,1,25,30.0
13,0.6028845186034838,6.650880307764358e-05,0.40971747796078256,0,25,30.0
14,0.574567134536448,7.569504257498054e-05,0.4233883014237687,0,25,30.0
15,0.5504147722607567,6.966289575280999e-05,0.4029392745842903,0,25,30.0
16,0.543226128532773,6.624849555962664e-05,0.4148884960535065,0,25,30.0
17,0.530366392717475,6.477711940533482e-05,0.3709930588588933,1,25,30.0
18,0.5290653528202147,6.895759616738706e-05,0.39833440837426937,0,25,30.0
19,0.5218050479888916,6.784923789382447e-05,0.3849999655949723,0,25,30.0
20,0.5025669226334208,6.680351929216635e-05,0.35508753768347684,1,25,30.0
21,0.4978685967978977,6.45458248116137e-05,0.3500050060718826,1,25,30.0
22,0.4825742801740056,6.201003989623306e-05,0.36006210575266345,0,25,30.0
23,0.4754508293810345,6.740021239065321e-05,0.3541757672427177,0,25,30.0
24,0.46274520740622566,6.49535745434973e-05,0.3418558107268071,1,25,30.0
25,0.46369256717818125,6.851621579006037e-05,0.33535894466695204,1,25,30.0
26,0.44746035160053343,6.302052211789746e-05,0.3206318293494993,1,25,30.0
27,0.4404684372601055,6.305730524521398e-05,0.3224648923114683,0,25,30.0
28,0.43213477234045666,6.461005895765819e-05,0.3345801954174617,0,25,30.0
29,0.417867582823549,6.555809245799624e-05,0.310304584936342,1,25,30.0
30,0.41536236696300055,6.40993945732286e-05,0.3278018958364021,0,25,30.0
31,0.4194790603859084,6.47992216424124e-05,0.3251629188722839,0,25,30.0
32,0.40072342327662874,6.592562286165222e-05,0.31145987308257206,0,25,30.0
33,0.39766770388398853,6.712250788474367e-05,0.3108142320926937,0,25,30.0
34,0.3941356859036854,6.189436295417614e-05,0.3126154291965819,0,25,30.0
35,0.3897698510970388,6.409703170599339e-05,0.31142314878195626,0,25,30.0
36,0.39213815242761657,5.929763946845751e-05,0.3123562830967571,0,25,30.0
1,0.9177053987261761,0.00020775822152913805,0.6256777751454071,1,26,30.0
2,0.8032033558351448,0.00013991639150253283,0.5355538030534623,1,26,30.0
3,0.7635020563401371,0.00012660507613818263,0.5363416631559919,0,26,30.0
4,0.723970267427973,0.00011330445836009234,0.5030832101617738,1,26,30.0
5,0.6995389820581459,0.00011419102012008675,0.4692562515799824,1,26,30.0
6,0.675905621195414,0.00011101304111631969,0.46108120749726156,1,26,30.0
7,0.6638750649360289,0.00010165295583625178,0.45826860855894724,1,26,30.0
8,0.6462424591363195,9.169459021411813e-05,0.45881679439666434,0,26,30.0
9,0.6201362358518394,8.32292966787277e-05,0.45012445447615373,1,26,30.0
10,0.6063460194202791,8.674117459330696e-05,0.410144726041023,1,26,30.0
11,0.599961335759565,8.097277317442987e-05,0.4172007868874095,0,26,30.0
12,0.5749767523214041,7.83498362141538e-05,0.4087532855943883,1,26,30.0
13,0.5652457051966564,8.87860946219796e-05,0.40952003092099476,0,26,30.0
14,0.5581233777913702,7.649220016726057e-05,0.42043684565132705,0,26,30.0
15,0.5347439305609968,8.195615684752443e-05,0.3786206170363125,1,26,30.0
16,0.5197705037622566,7.028245783154292e-05,0.37191682663281816,1,26,30.0
17,0.5222617258508522,6.766508531326102e-05,0.3657390683968945,1,26,30.0
18,0.49139779123915245,7.166268257704754e-05,0.37530872528765524,0,26,30.0
19,0.47933223304978334,7.246307429439579e-05,0.3537597666263663,1,26,30.0
20,0.4797018094953284,7.518467700939222e-05,0.36019294206727515,0,26,30.0
21,0.4621972226234804,6.926869085522829e-05,0.36051340079836086,0,26,30.0
22,0.4680822093084634,7.34179725934308e-05,0.333535667586667,1,26,30.0
23,0.4462332607033741,7.022279787195723e-05,0.3474964063507379,0,26,30.0
24,0.4418756290372596,7.371255183481634e-05,0.34953709797606825,0,26,30.0
25,0.42663855258240757,7.684756341602104e-05,0.3464251207032119,0,26,30.0
26,0.4282179302479847,7.509891617361524e-05,0.358128765830554,0,26,30.0
27,0.41914488752204254,7.067162268100789e-05,0.33269320205096137,1,26,30.0
28,0.40154745313058415,7.115786940564895e-05,0.3414405954754397,0,26,30.0
29,0.39943103797464485,7.303001761299008e-05,0.3390549430762009,0,26,30.0
30,0.3871833640767867,7.300962165737222e-05,0.3340209731702436,0,26,30.0
31,0.385831944195621,7.287151337473609e-05,0.340620655101225,0,26,30.0
32,0.3797532698835235,7.527727321286809e-05,0.33917485184953683,0,26,30.0
33,0.3777027772851737,7.32797489912496e-05,0.3338629623620789,0,26,30.0
34,0.36969431049852486,7.124798485822696e-05,0.3337430332648112,0,26,30.0
1,0.88578901571386,0.00021711018147042898,0.9138848402007238,1,27,30.0
2,0.7805827049648061,0.0001459778134149554,0.8434703302395886,1,27,30.0
3,0.754857289089876,0.0001353216492348378,0.7896751285502877,1,27,30.0
4,0.7351116425850812,0.00012282567905084067,0.8321594474705738,0,27,30.0
5,0.7044984109261456,0.00011688836872481795,0.8055787490290369,0,27,30.0
6,0.680161732785842,0.00011437563739223954,0.7614747548813727,1,27,30.0
7,0.655237724500544,0.00010520918166388154,0.7396626894659729,1,27,30.0
8,0.6395855016568128,0.0001031849226445261,0.7323412836314619,1,27,30.0
9,0.6167148975765004,9.505547410192187e-05,0.6679690083439165,1,27,30.0
10,0.6036975800991058,8.383779024691595e-05,0.6810539281857432,0,27,30.0
11,0.5800969775985269,8.107117306173998e-05,0.7273878875167595,0,27,30.0
12,0.5727011834873873,8.826156293199507e-05,0.7129612103906902,0,27,30.0
13,0.5585383776356192,8.155584655469283e-05,0.6264664551941312,1,27,30.0
14,0.553282435501323,7.904501587344224e-05,0.6914853589639449,0,27,30.0
15,0.5372900058241451,6.61420744162409e-05,0.614440161935397,1,27,30.0
16,0.5236514438601101,6.841074813136776e-05,0.6523037126985944,0,27,30.0
17,0.506531984315199,6.650031423572834e-05,0.5983346859299881,1,27,30.0
18,0.49680420020047356,7.722766826833215e-05,0.6224087994376278,0,27,30.0
19,0.4846283348167644,6.486596105199116e-05,0.6227698756164739,0,27,30.0
20,0.4723387644571416,6.751647978329428e-05,0.6339684637605179,0,27,30.0
21,0.45518260107320896,6.881605171228704e-05,0.6005993596917351,0,27,30.0
22,0.45577635204090794,6.675925876205677e-05,0.584602911443967,1,27,30.0
23,0.4460885847316069,6.712454500409555e-05,0.5570689326593281,1,27,30.0
24,0.42811509265619163,6.925987532560933e-05,0.5681012591266283,0,27,30.0
25,0.42676257806665757,6.666932077838711e-05,0.5844850074626423,0,27,30.0
26,0.41671475277227515,6.75888233458596e-05,0.5882731240283614,0,27,30.0
27,0.4053030178827398,7.019092663540505e-05,0.561805539697767,0,27,30.0
28,0.40482667404062606,6.623588312376181e-05,0.5645233598589835,0,27,30.0
29,0.39556289876208584,7.019510312067509e-05,0.5918403647244133,0,27,30.0
30,0.3891358810312608,6.760745561811799e-05,0.577145695152765,0,27,30.0
1,0.9065188365824083,0.00022645631902645726,0.653573734406502,1,28,30.0
2,0.8160610549590167,0.00013994078189545476,0.6951803285537228,0,28,30.0
3,0.7713427529615514,0.00012143182547708206,0.6244561753734466,1,28,30.0
4,0.7445514714016633,0.00011289139100186088,0.5371942052225913,1,28,30.0
5,0.7156216333894169,0.00010754208804642343,0.5127185795537887,1,28,30.0
6,0.6921590973349179,0.00010604634521501687,0.5152892837870505,0,28,30.0
7,0.6748940215391271,0.00010016567736302557,0.49989076825111145,1,28,30.0
8,0.6478965093107785,9.827000694178209e-05,0.46687490940093995,1,28,30.0
9,0.6296263393233804,8.785496157703592e-05,0.5458781023025513,0,28,30.0
10,0.6264830596306745,7.65426544496543e-05,0.4576373766199235,1,28,30.0
11,0.5999671073520885,8.156518306350336e-05,0.42291355320715135,1,28,30.0
12,0.5802564568379346,7.193888437434318e-05,0.4583525089756135,0,28,30.0
13,0.5713751172318178,6.886853041257435e-05,0.4668642126629429,0,28,30.0
14,0.5466284769422868,6.779757365139256e-05,0.4586225235116097,0,28,30.0
15,0.5415906296056859,6.762868112726959e-05,0.42121140632129483,1,28,30.0
16,0.5344371848246631,7.297796978759031e-05,0.3962755448433661,1,28,30.0
17,0.5177738873397603,6.583891025751227e-05,0.38282949606449374,1,28,30.0
18,0.49988400305018704,6.2984545066309e-05,0.4169330047811231,0,28,30.0
19,0.48857928233988146,6.926054449971108e-05,0.36112296376497516,1,28,30.0
20,0.47879491027663734,6.366844840265591e-05,0.36990186626872706,0,28,30.0
21,0.47234120404019075,6.667606203871615e-05,0.4003232609956495,0,28,30.0
22,0.4579523139140185,6.62140352634357e-05,0.3836324909271732,0,28,30.0
23,0.4476075410842896,6.49832199783037e-05,0.4052297629415989,0,28,30.0
24,0.44539274783695443,6.284935721744071e-05,0.3901112716601741,0,28,30.0
25,0.4317847416681402,6.352469191530391e-05,0.36391978259240426,0,28,30.0
26,0.4307260173208573,6.394208578379167e-05,0.3857560588928961,0,28,30.0
1,0.9178404268764314,0.00021194831883587453,0.5915891008077963,1,29,30.0
2,0.8069608921096438,0.00012273515763116025,0.5797356770909794,1,29,30.0
3,0.7694042928162075,0.00010325786059270503,0.512897582174477,1,29,30.0
4,0.7581302984839394,0.00011182534464231659,0.48027507001327546,1,29,30.0
5,0.7227504948774973,0.00010446852944109455,0.5649530545027771,0,29,30.0
6,0.707913957181431,8.752114042311274e-05,0.4900051196667114,0,29,30.0
7,0.6842893291087377,8.945180135404891e-05,0.48906490149835813,0,29,30.0
8,0.6775882960785002,8.954644657760149e-05,0.44159120874256513,1,29,30.0
9,0.6489374261526835,8.599080549521161e-05,0.44715785095797295,0,29,30.0
10,0.6368011768375125,8.360166910798788e-05,0.4808938670394996,0,29,30.0
11,0.6218214148566836,8.19670826136384e-05,0.46601574358607745,0,29,30.0
12,0.600763432326771,8.392950024114856e-05,0.45066765141238707,0,29,30.0
13,0.5833847767540387,8.302946883174757e-05,0.4300170843470174,1,29,30.0
14,0.5792202413791702,7.70462969133708e-05,0.4269490898420259,1,29,30.0
15,0.5537196482930865,7.243576705410046e-05,0.4308562989321942,0,29,30.0
16,0.5548013310347285,7.739924123078319e-05,0.43600249154357135,0,29,30.0
17,0.5261896277467409,7.076638866281082e-05,0.3895570011488567,1,29,30.0
18,0.5216600763655844,7.3964109755512e-05,0.38404024508946294,1,29,30.0
19,0.5037462945495333,7.588003986061917e-05,0.4100477822413684,0,29,30.0
20,0.4898889054145132,6.483159424013658e-05,0.4198006002226531,0,29,30.0
21,0.48102041369392756,6.627918801747174e-05,0.3939077619629983,0,29,30.0
22,0.47274406325249446,6.739596808204493e-05,0.37778740181554044,1,29,30.0
23,0.4615841759812264,6.431447426231378e-05,0.3655681478569174,1,29,30.0
24,0.4546530424129395,6.591040970046638e-05,0.3648279862803079,1,29,30.0
25,0.4411411498274122,6.466440603010899e-05,0.34496945735116386,1,29,30.0
26,0.4329685707177435,6.081809611454706e-05,0.35964730436110254,0,29,30.0
27,0.4299259093545732,7.129383270477687e-05,0.3451044686686403,0,29,30.0
28,0.41892067307517644,6.450638225682528e-05,0.3514865284659708,0,29,30.0
29,0.42018733315524603,6.764330261094507e-05,0.3685954675058417,0,29,30.0
30,0.40268203438747496,6.366215257003205e-05,0.3490289530561124,0,29,30.0
31,0.3983231704859507,6.662551000079562e-05,0.3459686110531572,0,29,30.0
32,0.39085156257663456,6.954407763259951e-05,0.34940290638132887,0,29,30.0
1,0.9007179938083472,0.0002734923469942323,0.6936148526732092,1,30,30.0
2,0.7973625368850176,0.00015859899686738785,0.654391302154996,1,30,30.0
3,0.7665182248104451,0.00013868914606444927,0.6597026936022976,0,30,30.0
4,0.7378932909910069,0.00011329719931974217,0.6623544704380779,0,30,30.0
5,0.7155705967614817,0.00010959502511933922,0.6207334461470223,1,30,30.0
6,0.6909128115620724,0.00010219228127869767,0.6129675405340607,1,30,30.0
7,0.670005356849626,9.972369632525315e-05,0.5885880641317056,1,30,30.0
8,0.6596129862375038,9.530113819109405e-05,0.5966101475941412,0,30,30.0
9,0.6287192494370216,9.268276466342328e-05,0.5713299451690185,1,30,30.0
10,0.6175277652435525,9.225676314049769e-05,0.5897706878924454,0,30,30.0
11,0.5982572477917338,8.624463141110704e-05,0.5156054165065369,1,30,30.0
12,0.5960371948258821,8.22636435301785e-05,0.49098144867172505,1,30,30.0
13,0.5810351531172908,8.245960376624744e-05,0.5476848572403443,0,30,30.0
14,0.5707000563311022,7.899815073171847e-05,0.5282648863888384,0,30,30.0
15,0.5534511094176492,7.172765626184924e-05,0.47495634267843706,1,30,30.0
16,0.5400521994330162,7.347600626946037e-05,0.5526342353752394,0,30,30.0
17,0.5234150602373966,7.163533387769306e-05,0.4608422742975708,1,30,30.0
18,0.514338284037834,7.571968680442592e-05,0.4837662939054181,0,30,30.0
19,0.5017854245596154,6.921279054949991e-05,0.47251583154771454,0,30,30.0
20,0.49331671311411746,6.665061178060822e-05,0.4347732666700568,1,30,30.0
21,0.4898744222036628,6.684086834274091e-05,0.4074457496655905,1,30,30.0
22,0.4665711522102356,7.147861778807858e-05,0.4305200711589713,0,30,30.0
23,0.46699393869832506,7.370924643954251e-05,0.4236973796018544,0,30,30.0
24,0.46043264761913655,6.414522418750958e-05,0.40724750959762973,1,30,30.0
25,0.44841377541076305,6.254253356357452e-05,0.393421219217573,1,30,30.0
26,0.44553037126396977,6.875366747154594e-05,0.4019476230078201,0,30,30.0
27,0.4414177876572276,6.243780947887328e-05,0.39386438891830605,0,30,30.0
28,0.4240106430857681,6.126443504187994e-05,0.3841570295354968,1,30,30.0
29,0.4205676733061325,6.510653331006748e-05,0.3933865505901082,0,30,30.0
30,0.41371953522050103,6.629956387346177e-05,0.3618299247925457,1,30,30.0
31,0.4014808092006417,6.60435924273347e-05,0.3757136472102446,0,30,30.0
32,0.3973467363867649,6.848735625511793e-05,0.372850404308158,0,30,30.0
33,0.3981982843820439,6.723295633111225e-05,0.3760324864100431,0,30,30.0
34,0.3828991107469381,6.278596971919056e-05,0.37351961059433497,0,30,30.0
35,0.3908714818400006,6.438060666178624e-05,0.37566127068230665,0,30,30.0
36,0.39123842120170593,6.251853182918642e-05,0.37930493356256273,0,30,30.0
37,0.3790326049161512,7.078143273755031e-05,0.3832911009793133,0,30,30.0
1,0.8972140277133268,0.00018884599669357103,0.7277557534732562,1,31,30.0
2,0.7914729048224056,0.00013155672444126513,0.615107478160746,1,31,30.0
3,0.7550303003367256,0.0001184998629255193,0.6850635607462743,0,31,30.0
4,0.72667235697017,0.00010455149313202128,0.6578852874858032,0,31,30.0
5,0.6997439917396097,0.00010787865313057623,0.6545984740282188,0,31,30.0
6,0.6835761729408713,0.00010089873535702388,0.5927206508910158,1,31,30.0
7,0.6746128341730904,8.828818180892781e-05,0.6725260978250982,0,31,30.0
8,0.6531682701671825,9.361713352572063e-05,0.6291988940482854,0,31,30.0
9,0.6276513183818144,8.840579132939798e-05,0.5690721162451514,1,31,30.0
10,0.6030116603654974,8.314743865733308e-05,0.5730634585029147,0,31,30.0
11,0.5971154097248527,8.401087971458978e-05,0.5618781403418358,1,31,30.0
12,0.594774839106728,8.251770268543623e-05,0.485910210349941,1,31,30.0
13,0.5693119476823246,7.85153559905559e-05,0.5935792178713923,0,31,30.0
14,0.5634412201011882,7.973197361399583e-05,0.572894574049938,0,31,30.0
15,0.5401496256099028,7.455846134689637e-05,0.47978633215286476,1,31,30.0
16,0.5381630652091083,7.388612875194453e-05,0.4638446172923026,1,31,30.0
17,0.524017376759473,7.297043724547086e-05,0.4424610902209767,1,31,30.0
18,0.5143869217704324,6.799050743746407e-05,0.482426212631392,0,31,30.0
19,0.5031397595125087,7.147696378524415e-05,0.45640120577925625,0,31,30.0
20,0.48744876665227554,6.953132743707529e-05,0.49890463021805476,0,31,30.0
21,0.4872713888392729,5.9951648162335486e-05,0.446828243581616,0,31,30.0
22,0.46832977042478674,6.550865651019301e-05,0.4532453661420088,0,31,30.0
23,0.4623226968681111,6.850136102430577e-05,0.47867228410362517,0,31,30.0
24,0.455443832804175,6.792186130255954e-05,0.45100329772872766,0,31,30.0
1,0.922607462321009,0.00023372803480015136,0.6959677224379469,1,32,30.0
2,0.8022483686606089,0.00015523807451245375,0.6299675979627033,1,32,30.0
3,0.762481282154719,0.00014504709889435964,0.5938296285658717,1,32,30.0
4,0.7355884909629822,0.00014985653857972162,0.5831060050610043,1,32,30.0
5,0.7126581803673789,0.0001319082477407175,0.5604853477213997,1,32,30.0
6,0.6754581644421532,0.00011953618494382161,0.5320360998462189,1,32,30.0
7,0.6638811216467903,0.00011546671530162538,0.5285314592468887,1,32,30.0
8,0.6392508372664452,0.00010097146938884786,0.5325694349300926,0,32,30.0
9,0.623503314597266,9.524666832779378e-05,0.5258167044191404,1,32,30.0
10,0.6120294538282213,8.97859885992061e-05,0.484722629915728,1,32,30.0
11,0.597371173046884,8.474989330612257e-05,0.5132936256923186,0,32,30.0
12,0.5819901760135379,8.268110338706589e-05,0.45902506009021804,1,32,30.0
13,0.5650084256416276,8.151603777237359e-05,0.48225329405694445,0,32,30.0
14,0.5466998698455947,7.339073241989051e-05,0.4875550318065423,0,32,30.0
15,0.5362204770956721,7.859898258694946e-05,0.45851410469113946,1,32,30.0
16,0.5311615250649906,8.215849603792387e-05,0.46961217263153116,0,32,30.0
17,0.509257473051548,7.454488422808936e-05,0.48246196625289883,0,32,30.0
18,0.4921138130483173,7.59269228832896e-05,0.48485274764614833,0,32,30.0
19,0.4842704353587968,7.031649823017818e-05,0.4204015055917057,1,32,30.0
20,0.47775703987904955,7.60093631210371e-05,0.4499176657775526,0,32,30.0
21,0.4574086747708775,7.235415259423288e-05,0.44470136212272954,0,32,30.0
22,0.4503741491408575,6.67451658089357e-05,0.4471462801779433,0,32,30.0
23,0.44318057419288726,6.901069359411762e-05,0.43698808064712313,0,32,30.0
24,0.4329893961548805,7.159462131225847e-05,0.45390906330539305,0,32,30.0
25,0.41967322109710603,7.270573739030321e-05,0.4576148444667371,0,32,30.0
26,0.418829813954376,6.810619149854617e-05,0.43761877016632283,0,32,30.0
1,0.9154559650591442,0.0002485857549756821,0.8944106337210027,1,33,30.0
2,0.8155954877535502,0.00018153690481475287,0.8050444819178523,1,33,30.0
3,0.7683919150204885,0.00014668882743405578,0.6417211795834507,1,33,30.0
4,0.7508094367526826,0.00012798214750849488,0.6823433880816873,0,33,30.0
5,0.7201548346451351,0.00011824203266726163,0.6252529295951855,1,33,30.0
6,0.7007861932118734,0.00011075375680645396,0.5694487887075761,1,33,30.0
7,0.6704572013446263,0.00011125206968981296,0.5178225533546108,1,33,30.0
8,0.6526841698657899,0.00010702901870120383,0.4745122126526222,1,33,30.0
9,0.6386927980042639,0.00010136874174176704,0.4598537976658199,1,33,30.0
10,0.6164489629722777,0.00010011769561623667,0.5168913705846885,0,33,30.0
11,0.6046408918641862,8.369851682454326e-05,0.5388710663649368,0,33,30.0
12,0.5871802870006788,8.541860114789978e-05,0.48777924972154746,0,33,30.0
13,0.5829548452581678,7.978997287171383e-05,0.5916880635444711,0,33,30.0
14,0.5587612727568263,8.02242044474475e-05,0.4580170583525082,1,33,30.0
15,0.5517625134615671,7.836100740816965e-05,0.4455666066388168,1,33,30.0
16,0.5439740139104071,7.212626509759243e-05,0.570346169718882,0,33,30.0
17,0.523954169026443,7.295083794036015e-05,0.5560517250546595,0,33,30.0
18,0.5076939481354895,7.472717464094915e-05,0.5073283133651243,0,33,30.0
19,0.49883274804978145,7.23322537808036e-05,0.4767204289892461,0,33,30.0
20,0.49615537588085445,6.760388983128083e-05,0.4434776433675391,1,33,30.0
21,0.4772087431379727,6.89068579699129e-05,0.4562302028882976,0,33,30.0
22,0.46600096034152166,6.200322587530882e-05,0.46899944829822676,0,33,30.0
23,0.46173573640130816,6.175703912872233e-05,0.45522108781219617,0,33,30.0
24,0.44209603255703334,7.027784894966143e-05,0.47223859522219114,0,33,30.0
25,0.4466089489204543,6.607240469574684e-05,0.4875763632005035,0,33,30.0
26,0.4401838325318836,6.811565054660951e-05,0.4846017564696873,0,33,30.0
27,0.42225010302804766,6.862577161622799e-05,0.514021246264257,0,33,30.0
1,0.9176327859062746,0.0002308672850499917,0.7579955874557548,1,34,30.0
2,0.8056755223906183,0.0001562757400728493,0.7583011434016802,0,34,30.0
3,0.7667854895074684,0.00013309627903221422,0.7313003952391343,1,34,30.0
4,0.7337037648063108,0.00012978689176316587,0.6675989296708835,1,34,30.0
5,0.7137785273862173,0.00011724724885951504,0.6782763992961438,0,34,30.0
6,0.6834906404276928,0.00010636271081348679,0.6456319672615022,1,34,30.0
7,0.6771516211061592,0.00010528803648916634,0.6114355060576077,1,34,30.0
8,0.6524507762437843,0.00010761552701033764,0.5934044283633947,1,34,30.0
9,0.6292628301195351,9.566357801808605e-05,0.5751503112673649,1,34,30.0
10,0.6174210830625281,9.047235074699912e-05,0.6135332424951017,0,34,30.0
11,0.601590719567724,9.038130191178622e-05,0.5622932638393813,1,34,30.0
12,0.5823536278253578,8.950521152589964e-05,0.5572767106485454,1,34,30.0
13,0.5575955937425774,8.851148170406414e-05,0.5170802063451739,1,34,30.0
14,0.5404366308666138,8.967403692918471e-05,0.558334962232681,0,34,30.0
15,0.5325376506311348,8.330804252708107e-05,0.547270742105363,0,34,30.0
16,0.5211938468806715,7.625260809892283e-05,0.5385361575926787,0,34,30.0
17,0.5050247609615326,8.012841341502303e-05,0.5804419449385746,0,34,30.0
18,0.4838168836501707,8.264911129259987e-05,0.5323376038969385,0,34,30.0
19,0.4874362105346588,7.537905351575801e-05,0.48228010144547356,1,34,30.0
20,0.4708847288625786,7.302366171336553e-05,0.5175453472433555,0,34,30.0
21,0.4523851261081466,7.10194920440743e-05,0.49957551632381514,0,34,30.0
22,0.444422202656068,6.936761644053138e-05,0.5056047906830098,0,34,30.0
23,0.4298242409545255,6.998919632744482e-05,0.5110253387069965,0,34,30.0
24,0.4297299101410142,6.813782365278744e-05,0.4881062679328607,0,34,30.0
25,0.4242811027061508,6.685629622037355e-05,0.4979072716618308,0,34,30.0
26,0.4111497384237956,7.146733924494046e-05,0.49874253641632355,0,34,30.0
1,0.9211537291606268,0.00027354186065730614,0.619100096237396,1,35,30.0
2,0.8035400587887991,0.00017408746108620626,0.6420738814686772,0,35,30.0
3,0.758268837417875,0.00014853976704000074,0.523063344245548,1,35,30.0
4,0.728684561593192,0.00013170548343277049,0.5103431220947258,1,35,30.0
5,0.7022611960059121,0.00012905066649268737,0.49266058729631756,1,35,30.0
6,0.6876625468333563,0.00011978261391916367,0.47823257667478763,1,35,30.0
7,0.6648970927510943,0.00011250787576413824,0.48630263787524663,0,35,30.0
8,0.6395079039392018,0.0001062074869488632,0.4638890332078946,1,35,30.0
9,0.6152150893495196,9.744428150172877e-05,0.4660760641007185,0,35,30.0
10,0.6032991121922221,9.06288137879788e-05,0.5099813238463791,0,35,30.0
11,0.5953500593701998,9.371899505779202e-05,0.454955737838171,1,35,30.0
12,0.573798958389532,8.923723877766558e-05,0.45750997146434946,0,35,30.0
13,0.5626042893245107,7.695220414288564e-05,0.453655008763143,1,35,30.0
14,0.550848041616735,8.147345995114717e-05,0.41058748323874394,1,35,30.0
15,0.5268607788852283,7.370187354570676e-05,0.40518417202763246,1,35,30.0
16,0.5306366178251448,7.214231560023368e-05,0.3927970076420297,1,35,30.0
17,0.5054586923548153,6.928163087477082e-05,0.3823420787208844,1,35,30.0
18,0.4976207720381873,7.211888000061403e-05,0.3850219109986741,0,35,30.0
19,0.5015532140220914,7.12287838463713e-05,0.40387798964992405,0,35,30.0
20,0.4701738552678199,6.466846675071533e-05,0.38908839368081377,0,35,30.0
21,0.4617678260519391,7.381015672893097e-05,0.3762884911680573,1,35,30.0
22,0.4574936713491167,7.100272861342611e-05,0.3667954755126143,1,35,30.0
23,0.4560106804683095,6.8578830602443e-05,0.3692943099673278,0,35,30.0
24,0.43780707922719775,6.339370875572232e-05,0.37228814983143854,0,35,30.0
25,0.42384067532562075,6.862742239242099e-05,0.3718987217871768,0,35,30.0
26,0.4081894467983927,6.604069182815562e-05,0.3700881298344723,0,35,30.0
27,0.4116579670281637,6.908154240850958e-05,0.36778066609909243,0,35,30.0
28,0.40206195130234673,7.252037773598983e-05,0.3718622507012251,0,35,30.0
29,0.39741959138995125,6.816339910507114e-05,0.35977483379347297,1,35,30.0
30,0.39487935531707036,6.764291321728489e-05,0.3612319614368252,0,35,30.0
31,0.38600429750624154,7.004190246377784e-05,0.3576692814357032,1,35,30.0
32,0.3769583773045313,6.324377786118671e-05,0.3716498768917037,0,35,30.0
33,0.3775151006522633,7.027474666323368e-05,0.3496435158350215,1,35,30.0
34,0.3725016324647835,6.945724288969013e-05,0.35179078838593286,0,35,30.0
35,0.36255560123494696,6.653943304020989e-05,0.36355414994937196,0,35,30.0
36,0.35676642400877817,7.062514608454269e-05,0.3457084701604458,1,35,30.0
37,0.36924382245966364,7.067875469060492e-05,0.35976278458660194,0,35,30.0
38,0.36229490985472995,6.394560967323959e-05,0.355376131293251,0,35,30.0
39,0.3659989723847026,6.946484752136582e-05,0.3513249465966243,0,35,30.0
40,0.35168347951202167,6.649244850060703e-05,0.3521646057663153,0,35,30.0
1,0.9139722798551831,0.00022187309185115045,0.6534280169580747,1,36,30.0
2,0.8209447278862908,0.00016085029442148793,0.5985697067955751,1,36,30.0
3,0.7773485134045283,0.00013793870485166,0.612985764682385,0,36,30.0
4,0.7401373762459982,0.00014363338223553174,0.5383028972872863,1,36,30.0
5,0.7176735316004071,0.00011902461773431805,0.5520264435477068,0,36,30.0
6,0.7017707029978434,0.00011776247482062207,0.48995306807974226,1,36,30.0
7,0.6679878717377072,0.00011216321564418086,0.5691573927989033,0,36,30.0
8,0.6575874132769448,9.459445629458752e-05,0.5417002430449303,0,36,30.0
9,0.6405779556149528,9.188782466177751e-05,0.4945390893743631,0,36,30.0
10,0.6180923428563845,0.00010106541443140789,0.5171517622314405,0,36,30.0
11,0.6089585430565334,8.499756101324844e-05,0.5226276838711961,0,36,30.0
12,0.5971708042281014,8.589549681692872e-05,0.4754405282572012,1,36,30.0
13,0.5712212888257844,8.445691513597489e-05,0.5197115958933357,0,36,30.0
14,0.5705825044285684,7.49684488601772e-05,0.5351900031164143,0,36,30.0
15,0.5587763651495888,7.291832822548237e-05,0.5276558316833754,0,36,30.0
16,0.5422397071406955,7.507734166470723e-05,0.5243154210539375,0,36,30.0
17,0.5350616882954325,7.186355898219128e-05,0.5202553951580746,0,36,30.0
18,0.5184717557969547,6.835657036606877e-05,0.46865975525473663,1,36,30.0
19,0.5109553063909212,6.860452426086081e-05,0.44757879245115567,1,36,30.0
20,0.4899410530924797,6.529775137529387e-05,0.44602909985578865,1,36,30.0
21,0.4940645524433681,6.941017571599721e-05,0.48569312688620875,0,36,30.0
22,0.47574874652283533,6.717082461753827e-05,0.44489926729414553,1,36,30.0
23,0.4645532380257334,6.303110036415525e-05,0.4895050981059494,0,36,30.0
24,0.4475133812853268,5.9453032225151436e-05,0.505029973127734,0,36,30.0
25,0.4450414975484212,6.20158752575489e-05,0.49263642143172454,0,36,30.0
26,0.441767753589721,6.191945075919474e-05,0.46144496832029513,0,36,30.0
27,0.43328402297837393,5.885495273191953e-05,0.455061700014849,0,36,30.0
28,0.42022969147988726,6.066669010622372e-05,0.4889744824307577,0,36,30.0
29,0.411123079203424,6.0971351861856725e-05,0.4497887067078808,0,36,30.0
1,0.8913102902117229,0.00026099021436363855,1.2609234590760268,1,37,30.0
2,0.7945407231648763,0.0001756246292643482,1.4106772257238442,0,37,30.0
3,0.751957376797994,0.00014260718186657564,1.1457693922652303,1,37,30.0
4,0.7241531709829966,0.0001374612994758146,1.204731767131902,0,37,30.0
5,0.6969474390858695,0.00011621751608410185,1.1517386778102374,0,37,30.0
6,0.6843189178478151,0.00011054990184112241,1.0184722655046414,1,37,30.0
7,0.6636493227311543,9.82018095999679e-05,1.0477587350072024,0,37,30.0
8,0.6442943988811403,9.9056808721798e-05,1.2149085681650635,0,37,30.0
9,0.6232032130161921,9.819748828747487e-05,1.0039310717391143,1,37,30.0
10,0.6081516792376837,9.326625981235079e-05,0.9922994926774458,1,37,30.0
11,0.588501550257206,9.506624081993886e-05,1.0353398250339942,0,37,30.0
12,0.5773406802188783,8.57935398189944e-05,1.0333727221369595,0,37,30.0
13,0.5610962148223605,8.414119102304713e-05,0.9535598651550904,1,37,30.0
14,0.5497234889439174,8.754695309540867e-05,1.1520044264672566,0,37,30.0
15,0.5231445403326125,8.485806202294217e-05,0.8913584099490799,1,37,30.0
16,0.527806659184751,7.744078218474031e-05,0.9564051353997737,0,37,30.0
17,0.5111103068505015,7.395953672953293e-05,1.0455467225852502,0,37,30.0
18,0.496113100931758,7.384748884457319e-05,0.8686633448444574,1,37,30.0
19,0.4830055148119018,7.451271003013798e-05,0.8338869763798413,1,37,30.0
20,0.47157944916259675,6.993599228215836e-05,0.9656507519362736,0,37,30.0
21,0.4619075066986538,7.609750021705015e-05,0.940638949159344,0,37,30.0
22,0.4581754867519651,7.294140041700476e-05,0.883289384407225,0,37,30.0
23,0.44782219685259317,6.824534916848366e-05,0.8642921749497816,0,37,30.0
24,0.42836933866852805,6.771827299546982e-05,0.9428583323071412,0,37,30.0
25,0.4175604706009229,7.405397467491206e-05,0.8959819515091821,0,37,30.0
26,0.416955587764581,7.321741568808821e-05,0.8672067120358146,0,37,30.0
1,0.917994370772725,0.00027801093321094025,0.5214579567226053,1,38,30.0
2,0.8287833333015442,0.00017989424010184373,0.460167675225328,1,38,30.0
3,0.7738978011267525,0.00015029831930795417,0.46771169199823515,0,38,30.0
4,0.7543097408044905,0.00014363032468758146,0.43966125405731926,1,38,30.0
5,0.7293126320555097,0.00013566518464358523,0.4337333800257419,1,38,30.0
6,0.7061128204777127,0.00012111949252444209,0.43819075909213745,0,38,30.0
7,0.6732065464769091,0.00012250969276854967,0.4551637922568749,0,38,30.0
8,0.6542357461793082,0.00011285539282350025,0.41981749418064923,1,38,30.0
9,0.6514188484067008,9.957682652297773e-05,0.4368259044221543,0,38,30.0
10,0.6201390255065191,9.54952557939188e-05,0.37615539266533926,1,38,30.0
11,0.614271770630564,9.613841649254373e-05,0.40596723717919386,0,38,30.0
12,0.5990566370033082,8.712867262753814e-05,0.38886274523917513,0,38,30.0
13,0.5821568057650611,8.52198459792167e-05,0.44867469742799454,0,38,30.0
14,0.5722520951004255,8.16830854438151e-05,0.3618986110726053,1,38,30.0
15,0.5641223827288264,7.761190595157954e-05,0.36068182704014057,1,38,30.0
16,0.5455824895983651,7.59832091283724e-05,0.3432764536759158,1,38,30.0
17,0.5307814205686251,6.74542403603915e-05,0.37033392457888686,0,38,30.0
18,0.525747805479027,7.51179507330692e-05,0.3464563448193296,0,38,30.0
19,0.5161648570072084,7.151867815818627e-05,0.32333519050987386,1,38,30.0
20,0.497373402828262,7.166348530604627e-05,0.3650514200886727,0,38,30.0
21,0.4865791570572626,7.016683879815641e-05,0.3396999734202142,0,38,30.0
22,0.47641504520461675,7.246521389398757e-05,0.39115629008548,0,38,30.0
23,0.4632486456206867,7.275946583311972e-05,0.37264624526717116,0,38,30.0
24,0.46062533273583367,7.49714514919712e-05,0.3176540489259519,1,38,30.0
25,0.45545931799071177,6.330300853040258e-05,0.33817154940472527,0,38,30.0
26,0.44240586707989377,6.379344908747866e-05,0.3274369182180213,0,38,30.0
27,0.4357478242544901,6.553274860856444e-05,0.31550416719010244,1,38,30.0
28,0.4259285820381982,6.660128145172383e-05,0.3283045034265506,0,38,30.0
29,0.41987340045826776,6.883764953748877e-05,0.32349651629479825,0,38,30.0
30,0.40579876161756967,6.984699502070379e-05,0.3380650079624664,0,38,30.0
31,0.4117971704829307,6.609363944811602e-05,0.3313799890290075,0,38,30.0
32,0.40458892392260687,6.366239263332405e-05,0.3142428900520825,1,38,30.0
33,0.3961399772337505,6.226111136562568e-05,0.32354525481430046,0,38,30.0
34,0.3924706560515222,6.884762076099702e-05,0.32859261363115805,0,38,30.0
35,0.397275729903153,6.430164679234925e-05,0.32548529875436083,0,38,30.0
36,0.38712686867940993,6.467162958350465e-05,0.34360575081888056,0,38,30.0
37,0.391907937115147,6.466613649536157e-05,0.3237714698008233,0,38,30.0
38,0.386933096462772,6.603126075788168e-05,0.325202149185339,0,38,30.0
39,0.37796330735796974,6.10222787145176e-05,0.32511940517029686,0,38,30.0
1,0.9183831928774367,0.00024634073540868865,0.6544349272381571,1,39,30.0
2,0.8161572079325832,0.00016088284669527893,0.5805858652477733,1,39,30.0
3,0.7645187641299048,0.00013972307850815204,0.6447859836212672,0,39,30.0
4,0.7472473459188328,0.00012109781265851695,0.593322120711895,0,39,30.0
5,0.7196006747179253,0.00012759012577928018,0.5828391804191808,0,39,30.0
6,0.7032691205656806,0.0001077944328477146,0.48025443835395515,1,39,30.0
7,0.6905388700407605,0.00010520028275962876,0.4882468344650403,0,39,30.0
8,0.6666310339473015,0.00010311830826753448,0.5344719477913992,0,39,30.0
9,0.6517228518807611,9.851058365352084e-05,0.48602680686957006,0,39,30.0
10,0.643759642922601,9.390693763677073e-05,0.4795664815357226,1,39,30.0
11,0.6350365842497626,9.202270501741306e-05,0.4624436762277577,1,39,30.0
12,0.6141096156003863,9.013392699734839e-05,0.5281068101694123,0,39,30.0
13,0.6012769275626471,7.999020238267529e-05,0.4655357196321801,0,39,30.0
14,0.5951970264662144,8.535195347788028e-05,0.44116262909983295,1,39,30.0
15,0.5731153162412865,8.617066715635511e-05,0.4110476785797742,1,39,30.0
16,0.5607986644256947,8.365538278032841e-05,0.4504470217208172,0,39,30.0
17,0.5469495678363845,7.15087974873144e-05,0.46690577241425096,0,39,30.0
18,0.5349978052599486,7.739669799352562e-05,0.39600185848593417,1,39,30.0
19,0.5268176499494287,7.771945435473922e-05,0.3648616388938347,1,39,30.0
20,0.5133837000575177,7.800466410963265e-05,0.40600241465804393,0,39,30.0
21,0.5012276345907256,7.850114220779032e-05,0.37807140917483534,0,39,30.0
22,0.48871968409349753,7.672480780964306e-05,0.39821309484922285,0,39,30.0
23,0.47944917720417646,7.850455124774503e-05,0.40123747926566705,0,39,30.0
24,0.48419479298037155,7.67647546782364e-05,0.3774123320340056,0,39,30.0
25,0.4658589990333069,7.502234282498627e-05,0.3650196121892866,0,39,30.0
26,0.45474409779836966,7.131524318199723e-05,0.3762145908737288,0,39,30.0
1,0.9240533163150152,0.0003037233326765653,0.855715468111456,1,40,30.0
2,0.8120758696680977,0.00017411786713983886,0.8423258290776706,1,40,30.0
3,0.7789846509695053,0.0001588607366492007,0.787244053484623,1,40,30.0
4,0.7478006794339135,0.0001390403652164553,0.7171618592891674,1,40,30.0
5,0.7198083393630528,0.00012048663388885048,0.7443563073998216,0,40,30.0
6,0.7022664348284403,0.00011519337351187243,0.8029018365967135,0,40,30.0
7,0.6780169719741458,0.00011020279119596428,0.9093929404127401,0,40,30.0
8,0.6644898894287291,9.214883885717773e-05,0.736782766249624,0,40,30.0
9,0.6402172737178349,9.442901162921251e-05,0.8319419241731988,0,40,30.0
10,0.6210945500504403,9.996301074958562e-05,0.760957764392412,0,40,30.0
11,0.6123264673210326,9.365733382894957e-05,0.6307876794547422,1,40,30.0
12,0.5894251951859111,9.532636747843797e-05,0.7009442110433386,0,40,30.0
13,0.5784851699357941,8.278950164302452e-05,0.7931747847213083,0,40,30.0
14,0.5710178365310034,7.915435288027983e-05,0.8265808406257289,0,40,30.0
15,0.5648377175842013,7.763322961788315e-05,0.7186120025411985,0,40,30.0
16,0.544935713566485,7.26829706590728e-05,0.6678680715055088,0,40,30.0
17,0.5284979236977441,7.760700628707473e-05,0.6781470567875533,0,40,30.0
18,0.5213484710880688,7.417315966796152e-05,0.5728579501623946,1,40,30.0
19,0.50201351834195,7.725157878927089e-05,0.7145046984697544,0,40,30.0
20,0.4980460547265552,7.282817040547906e-05,0.6640423692904052,0,40,30.0
21,0.48053563031412305,7.229067848259416e-05,0.5939865984405874,0,40,30.0
22,0.48367436123745783,6.862604676002992e-05,0.5292229214942195,1,40,30.0
23,0.46614836901426315,6.9335276878389e-05,0.6020098920529211,0,40,30.0
24,0.4503104342591195,7.008698784851557e-05,0.503323018176785,1,40,30.0
25,0.44542862226565677,6.909403349536227e-05,0.5435280079820195,0,40,30.0
26,0.4485940202361062,6.787246292376603e-05,0.6942776531465178,0,40,30.0
27,0.43529833214623587,6.855558383124714e-05,0.5891075278924599,0,40,30.0
28,0.4140528781073434,6.365559875121107e-05,0.651533602721991,0,40,30.0
29,0.41898965516260694,6.370932606798652e-05,0.5339746409424296,0,40,30.0
30,0.4078626586567788,6.489076176443458e-05,0.5717570874532866,0,40,30.0
31,0.41305496933914365,6.773452194119316e-05,0.49935227420539535,1,40,30.0
32,0.40171476098753156,6.444248940949495e-05,0.5652221812165902,0,40,30.0
33,0.3993803695553825,6.07598319566889e-05,0.5939197329143688,0,40,30.0
34,0.3909449243829364,5.8592020953559164e-05,0.4814922669391282,1,40,30.0
35,0.3791351930371353,6.0892056158731324e-05,0.5312509255993991,0,40,30.0
36,0.37706381047055837,6.126852925566102e-05,0.5244529836948887,0,40,30.0
37,0.3788733588797705,6.211098692195567e-05,0.5767804242481659,0,40,30.0
38,0.37832334637641907,5.7656455066448653e-05,0.5586788984074723,0,40,30.0
39,0.3748504789102645,6.11749840442956e-05,0.5421642348878113,0,40,30.0
40,0.3737893297913529,6.181037939053827e-05,0.5694182078415263,0,40,30.0
