subject,channel,alpha,f1,drop_pp
1,0,1.0,0.6980518020148886,0.0
1,0,0.75,0.6959647532479001,0.20870487669885085
1,0,0.5,0.6878396847462533,1.0212117268635246
1,0,0.25,0.6953023538166546,0.27494481982339725
1,0,0.0,0.6925122011289095,0.5539600885979046
1,1,1.0,0.6980518020148886,0.0
1,1,0.75,0.6843853282654031,1.3666473749485486
1,1,0.5,0.6796107206190354,1.844108139585321
1,1,0.25,0.6791488069246787,1.8902995090209873
1,1,0.0,0.673420234111625,2.4631567903263596
1,2,1.0,0.6980518020148886,0.0
1,2,0.75,0.6912673144967274,0.6784487518161186
1,2,0.5,0.6852719988556143,1.2779803159274294
1,2,0.25,0.6798635022134776,1.8188299801411012
1,2,0.0,0.6852348677331954,1.281693428169317
1,3,1.0,0.6980518020148886,0.0
1,3,0.75,0.6816846433192811,1.6367158695607453
1,3,0.5,0.6670694833121358,3.098231870275281
1,3,0.25,0.659802354368348,3.824944764654059
1,3,0.0,0.6460865551866879,5.196524682820069
1,4,1.0,0.6980518020148886,0.0
1,4,0.75,0.7259065976508325,-2.785479563594395
1,4,0.5,0.7391144304799699,-4.106262846508136
1,4,0.25,0.753110981476022,-5.505917946113337
1,4,0.0,0.7203721387544917,-2.2320336739603097
1,5,1.0,0.6980518020148886,0.0
1,5,0.75,0.6193984321825472,7.865336983234139
1,5,0.5,0.5663140121332254,13.173778988166319
1,5,0.25,0.5967717095733698,10.128009244151881
1,5,0.0,0.5669560800046817,13.109572201020692
1,6,1.0,0.6980518020148886,0.0
1,6,0.75,0.713877131481575,-1.5825329466686355
1,6,0.5,0.7143848372352823,-1.6333035220393755
1,6,0.25,0.7166357564942087,-1.8583954479320153
1,6,0.0,0.7042923366899365,-0.6240534675047926
1,7,1.0,0.6980518020148886,0.0
1,7,0.75,0.6995573753363941,-0.15055733215054712
1,7,0.5,0.6916177685076718,0.643403350721683
1,7,0.25,0.6768693362768715,2.1182465738017076
1,7,0.0,0.6461729803149351,5.18788216999535
1,8,1.0,0.6980518020148886,0.0
1,8,0.75,0.702893419700341,-0.48416176854524373
1,8,0.5,0.7129905833104244,-1.493878129553583
1,8,0.25,0.6889183229559811,0.913347905890749
1,8,0.0,0.6716190148728417,2.6432787142046887
2,0,1.0,0.8297658229756587,0.0
2,0,0.75,0.8509264055426892,-2.116058256703046
2,0,0.5,0.85390598295093,-2.4140159975271303
2,0,0.25,0.844680268787456,-1.491444581179724
2,0,0.0,0.8442583697487697,-1.449254677311096
2,1,1.0,0.8297658229756587,0.0
2,1,0.75,0.8262428650784404,0.35229578972183484
2,1,0.5,0.8268865535739196,0.2879269401739104
2,1,0.25,0.8053196336130325,2.4446189362626214
2,1,0.0,0.8034290909346196,2.6336732041039146
2,2,1.0,0.8297658229756587,0.0
2,2,0.75,0.8347020174294929,-0.49361944538341973
2,2,0.5,0.8288475706821697,0.09182522934889636
2,2,0.25,0.8195388677656562,1.0226955210002497
2,2,0.0,0.7996026686031912,3.0163154372467527
2,3,1.0,0.8297658229756587,0.0
2,3,0.75,0.8329772425983208,-0.3211419622662137
2,3,0.5,0.830868020452973,-0.11021974773143262
2,3,0.25,0.8308192146100712,-0.10533916344125371
2,3,0.0,0.8089678695949506,2.079795338070811
2,4,1.0,0.8297658229756587,0.0
2,4,0.75,0.8452811462658433,-1.5515323290184568
2,4,0.5,0.8484130811466144,-1.8647258170955694
2,4,0.25,0.8549543450978089,-2.518852212215017
2,4,0.0,0.8486923053802662,-1.892648240460748
2,5,1.0,0.8297658229756587,0.0
2,5,0.75,0.8382962901602853,-0.8530467184626578
2,5,0.5,0.8301080204346677,-0.0342197459008986
2,5,0.25,0.8157660449893795,1.399977798627916
2,5,0.0,0.7851922281627344,4.457359481292434
2,6,1.0,0.8297658229756587,0.0
2,6,0.75,0.8492173766032479,-1.9451553627589213
2,6,0.5,0.8356017400939783,-0.5835917118319545
2,6,0.25,0.8122819621926823,1.7483860782976368
2,6,0.0,0.8062817654604163,2.3484057515242407
2,7,1.0,0.8297658229756587,0.0
2,7,0.75,0.8196260238930624,1.0139799082596324
2,7,0.5,0.8093308043776762,2.043501859798247
2,7,0.25,0.7816486004092116,4.811722256644712
2,7,0.0,0.7609907232456831,6.877509972997564
2,8,1.0,0.8297658229756587,0.0
2,8,0.75,0.8308397047656737,-0.10738817900149966
2,8,0.5,0.8279726437084928,0.1793179267165934
2,8,0.25,0.8179347666805784,1.18310562950803
2,8,0.0,0.8148733230816132,1.4892499894045508
3,0,1.0,0.8883395312147847,0.0
3,0,0.75,0.8967311373848249,-0.83916061700402
3,0,0.5,0.8986482637944571,-1.0308732579672353
3,0,0.25,0.8989113499700511,-1.057181875526636
3,0,0.0,0.8940207947203708,-0.5681263505586065
3,1,1.0,0.8883395312147847,0.0
3,1,0.75,0.8940140402788961,-0.5674509064111377
3,1,0.5,0.886026694297371,0.23128369174136854
3,1,0.25,0.8766156136409301,1.1723917573854603
3,1,0.0,0.87274960559365,1.5589925621134704
3,2,1.0,0.8883395312147847,0.0
3,2,0.75,0.8849109002235787,0.342863099120605
3,2,0.5,0.8884343065171854,-0.009477530240065146
3,2,0.25,0.8848391540930913,0.35003771216933766
3,2,0.0,0.8845008354807784,0.3838695734006303
3,3,1.0,0.8883395312147847,0.0
3,3,0.75,0.8726633120091538,1.5676219205630892
3,3,0.5,0.8619754685556862,2.636406265909852
3,3,0.25,0.8465171464352501,4.18223847795346
3,3,0.0,0.7987291692905688,8.96103619242159
3,4,1.0,0.8883395312147847,0.0
3,4,0.75,0.8843458331949381,0.39936980198466143
3,4,0.5,0.8918655030070104,-0.35259717922256906
3,4,0.25,0.8965716442637237,-0.8232113048939005
3,4,0.0,0.897855697588612,-0.951616637382724
3,5,1.0,0.8883395312147847,0.0
3,5,0.75,0.8582612038600583,3.0078327354726375
3,5,0.5,0.8936029307188703,-0.5263399504085609
3,5,0.25,0.9096244589714139,-2.1284927756629157
3,5,0.0,0.9150905791925815,-2.6751047977796816
3,6,1.0,0.8883395312147847,0.0
3,6,0.75,0.8812344296353434,0.7105101579441331
3,6,0.5,0.8838571685792711,0.44823626355136037
3,6,0.25,0.8645989565416811,2.3740574673103643
3,6,0.0,0.8455237206312133,4.281581058357142
3,7,1.0,0.8883395312147847,0.0
3,7,0.75,0.881286217640288,0.7053313574496678
3,7,0.5,0.8512515695109856,3.7087961703799133
3,7,0.25,0.816435528053108,7.190400316167667
3,7,0.0,0.7849395047103918,10.340002650439295
3,8,1.0,0.8883395312147847,0.0
3,8,0.75,0.8895370274620406,-0.1197496247255847
3,8,0.5,0.8929403589226476,-0.46008277078628534
3,8,0.25,0.8988436798509641,-1.0504148636179433
3,8,0.0,0.8931793988723036,-0.48398676575188704
4,0,1.0,0.8810436717492129,0.0
4,0,0.75,0.8567773019953171,2.4266369753895844
4,0,0.5,0.8366238468781886,4.441982487102436
4,0,0.25,0.8353270945603037,4.57165771889092
4,0,0.0,0.8427022949877878,3.8341376761425128
4,1,1.0,0.8810436717492129,0.0
4,1,0.75,0.8738083432777639,0.7235328471449032
4,1,0.5,0.8576054333705283,2.343823837868464
4,1,0.25,0.8396947755868682,4.134889616234472
4,1,0.0,0.8193416598567227,6.170201189249025
4,2,1.0,0.8810436717492129,0.0
4,2,0.75,0.852887878757489,2.8155792991723994
4,2,0.5,0.815439673270372,6.56039984788409
4,2,0.25,0.7993291354225217,8.171453632669124
4,2,0.0,0.7885583362678524,9.24853354813605
4,3,1.0,0.8810436717492129,0.0
4,3,0.75,0.8822028308149432,-0.11591590657302753
4,3,0.5,0.8841567092564191,-0.3113037507206151
4,3,0.25,0.9069033794840111,-2.5859707734798176
4,3,0.0,0.9104087080800705,-2.936503633085752
4,4,1.0,0.8810436717492129,0.0
4,4,0.75,0.9076531138282719,-2.660944207905891
4,4,0.5,0.9036621436276551,-2.2618471878442126
4,4,0.25,0.8851437127678927,-0.41000410186797787
4,4,0.0,0.8970744568560703,-1.6030785106857404
4,5,1.0,0.8810436717492129,0.0
4,5,0.75,0.8709109977183326,1.0132674030880362
4,5,0.5,0.8748268514211022,0.6216820328110773
4,5,0.25,0.8744161706490474,0.6627501100165523
4,5,0.0,0.8921941923374987,-1.1150520588285806
4,6,1.0,0.8810436717492129,0.0
4,6,0.75,0.8794406776833432,0.16029940658697228
4,6,0.5,0.8774598507404608,0.3583821008752097
4,6,0.25,0.8794969624443052,0.15467093049077452
4,6,0.0,0.8864882644502878,-0.5444592701074891
4,7,1.0,0.8810436717492129,0.0
4,7,0.75,0.8866843056374576,-0.564063388824465
4,7,0.5,0.8854299499498475,-0.438627820063453
4,7,0.25,0.8832912438789771,-0.22475721297641194
4,7,0.0,0.8767626709256164,0.42810008235965036
4,8,1.0,0.8810436717492129,0.0
4,8,0.75,0.8803954424478428,0.06482293013700957
4,8,0.5,0.8787005864232411,0.23430853259718276
4,8,0.25,0.867937305359527,1.3106366389685986
4,8,0.0,0.847117876189793,3.392579555941999
5,0,1.0,0.6467294696045607,0.0
5,0,0.75,0.6392532658048038,0.7476203799756886
5,0,0.5,0.6297561398974234,1.6973329707137275
5,0,0.25,0.6384986334406715,0.8230836163889199
5,0,0.0,0.6470531525628164,-0.03236829582556888
5,1,1.0,0.6467294696045607,0.0
5,1,0.75,0.6453883958620804,0.134107374248027
5,1,0.5,0.6536429575232545,-0.6913487918693839
5,1,0.25,0.6561219307542837,-0.939246114972303
5,1,0.0,0.656949917590081,-1.0220447985520353
5,2,1.0,0.6467294696045607,0.0
5,2,0.75,0.6390633461961439,0.766612340841677
5,2,0.5,0.6416330282638973,0.5096441340663338
5,2,0.25,0.6534624765571944,-0.673300695263368
5,2,0.0,0.6435678432994185,0.3161626305142162
5,3,1.0,0.6467294696045607,0.0
5,3,0.75,0.6570145949825095,-1.028512537794879
5,3,0.5,0.677667877205337,-3.0938407600776374
5,3,0.25,0.6842489094874591,-3.751943988289841
5,3,0.0,0.6895068770417199,-4.277740743715919
5,4,1.0,0.6467294696045607,0.0
5,4,0.75,0.622929551900356,2.3799917704204643
5,4,0.5,0.6104255637575675,3.6303905846993167
5,4,0.25,0.6075010786949451,3.9228390909615607
5,4,0.0,0.6214277089164242,2.53017606881365
5,5,1.0,0.6467294696045607,0.0
5,5,0.75,0.6287874013958035,1.7942068208757211
5,5,0.5,0.6296106200701326,1.7118849534428104
5,5,0.25,0.6218535259117945,2.4875943692766134
5,5,0.0,0.6320748492232531,1.4654620381307604
5,6,1.0,0.6467294696045607,0.0
5,6,0.75,0.6493175693463848,-0.2588099741824168
5,6,0.5,0.6529850125567888,-0.6255542952228077
5,6,0.25,0.6620613173760516,-1.533184777149088
5,6,0.0,0.6558685744551619,-0.913910485060121
5,7,1.0,0.6467294696045607,0.0
5,7,0.75,0.6441068087922308,0.2622660812329869
5,7,0.5,0.6547054953760654,-0.7976025771504691
5,7,0.25,0.6591686059493589,-1.2439136344798207
5,7,0.0,0.6489369543998672,-0.22074847953065246
5,8,1.0,0.6467294696045607,0.0
5,8,0.75,0.6572803381755437,-1.0550868570982974
5,8,0.5,0.6501861216217901,-0.34566520172294446
5,8,0.25,0.6420301539894812,0.46993156150795246
5,8,0.0,0.6401145324407305,0.6614937163830215
6,0,1.0,0.7980117731444586,0.0
6,0,0.75,0.7871125666322644,1.0899206512194226
6,0,0.5,0.790762519330635,0.7249253813823575
6,0,0.25,0.7858506790694421,1.2161094075016532
6,0,0.0,0.7796903690515482,1.8321404092910387
6,1,1.0,0.7980117731444586,0.0
6,1,0.75,0.780876276173581,1.7135496970877573
6,1,0.5,0.7638334830449922,3.417829009946638
6,1,0.25,0.7707324161945484,2.727935694991024
6,1,0.0,0.778313216837807,1.9698556306651627
6,2,1.0,0.7980117731444586,0.0
6,2,0.75,0.8012018901597376,-0.3190117015279048
6,2,0.5,0.7960816960816961,0.1930077062762492
6,2,0.25,0.8024247019790027,-0.44129288345441386
6,2,0.0,0.7951061941884853,0.290557895597332
6,3,1.0,0.7980117731444586,0.0
6,3,0.75,0.8043883985453735,-0.6376625400914882
6,3,0.5,0.8089635021202093,-1.0951728975750696
6,3,0.25,0.8114607177915866,-1.344894464712798
6,3,0.0,0.813471355397597,-1.545958225313837
6,4,1.0,0.7980117731444586,0.0
6,4,0.75,0.779225409390834,1.8786363753624635
6,4,0.5,0.7713891216580422,2.6622651486416404
6,4,0.25,0.76313549656623,3.487627657822856
6,4,0.0,0.7733606133629946,2.465115978146404
6,5,1.0,0.7980117731444586,0.0
6,5,0.75,0.7898741977558393,0.8137575388619256
6,5,0.5,0.7766074337142288,2.140433943022979
6,5,0.25,0.7794246646026832,1.8587108541775366
6,5,0.0,0.7816981023227352,1.6313670821723414
6,6,1.0,0.7980117731444586,0.0
6,6,0.75,0.7998521619045915,-0.18403887601329272
6,6,0.5,0.7866049597899137,1.1406813354544854
6,6,0.25,0.7835458806109201,1.4465892533538471
6,6,0.0,0.7843770322830118,1.3634740861446781
6,7,1.0,0.7980117731444586,0.0
6,7,0.75,0.7818864288095919,1.6125344334866676
6,7,0.5,0.754114653979715,4.38971191647436
6,7,0.25,0.746061490180593,5.195028296386561
6,7,0.0,0.7229180079403401,7.509376520411848
6,8,1.0,0.7980117731444586,0.0
6,8,0.75,0.7982859057571954,-0.027413261273678824
6,8,0.5,0.7808840526213147,1.712772052314393
6,8,0.25,0.7740309006913484,2.3980872453110202
6,8,0.0,0.7709217310076212,2.709004213683741
7,0,1.0,0.7394713498990839,0.0
7,0,0.75,0.7364719328391666,0.2999417059917353
7,0,0.5,0.7319808965780987,0.7490453320985191
7,0,0.25,0.7254644022276986,1.4006947671385328
7,0,0.0,0.7232159668810153,1.6255383018068614
7,1,1.0,0.7394713498990839,0.0
7,1,0.75,0.7177710619856483,2.170028791343559
7,1,0.5,0.7040736987511181,3.539765114796578
7,1,0.25,0.7084277423746511,3.1043607524432804
7,1,0.0,0.6858698268800045,5.360152301907939
7,2,1.0,0.7394713498990839,0.0
7,2,0.75,0.7187377096761348,2.07336402229491
7,2,0.5,0.7132887376615603,2.6182612237523606
7,2,0.25,0.7023989990694183,3.7072350829665646
7,2,0.0,0.6915734336183648,4.7897916280719155
7,3,1.0,0.7394713498990839,0.0
7,3,0.75,0.7425998421175911,-0.3128492218507195
7,3,0.5,0.7436107879448777,-0.4139438045793753
7,3,0.25,0.7429150229334224,-0.3443673034338457
7,3,0.0,0.7272718949348587,1.2199454964225254
7,4,1.0,0.7394713498990839,0.0
7,4,0.75,0.7199152300394615,1.9556119859622467
7,4,0.5,0.7224865273195158,1.6984822579568126
7,4,0.25,0.7174061118330197,2.2065238066064197
7,4,0.0,0.7299903926523323,0.9480957246751576
7,5,1.0,0.7394713498990839,0.0
7,5,0.75,0.7604575984697454,-2.0986248570661448
7,5,0.5,0.7611017684659495,-2.163041856686554
7,5,0.25,0.7685788657820605,-2.9107515882976553
7,5,0.0,0.771942316812206,-3.2470966913122123
7,6,1.0,0.7394713498990839,0.0
7,6,0.75,0.7343851452521348,0.5086204646949088
7,6,0.5,0.7182250834771624,2.124626642192151
7,6,0.25,0.7147704874885761,2.470086241050784
7,6,0.0,0.7188193512796244,2.0651998619459544
7,7,1.0,0.7394713498990839,0.0
7,7,0.75,0.7425143048430705,-0.3042954943986542
7,7,0.5,0.7309025065234509,0.8568843375633017
7,7,0.25,0.7176671732522797,2.180417664680423
7,7,0.0,0.6945321031536845,4.49392467453994
7,8,1.0,0.7394713498990839,0.0
7,8,0.75,0.7363539469469053,0.31174029521786606
7,8,0.5,0.7151498511715788,2.432149872750511
7,8,0.25,0.688496484140303,5.097486575878096
7,8,0.0,0.6650003061016011,7.447104379748282
8,0,1.0,0.8592828976289724,0.0
8,0,0.75,0.8675800212807796,-0.8297123651807237
8,0,0.5,0.871114513432838,-1.1831615803865603
8,0,0.25,0.8647257383577232,-0.5442840728750786
8,0,0.0,0.8464750572527544,1.280784037621796
8,1,1.0,0.8592828976289724,0.0
8,1,0.75,0.8600916593849243,-0.08087617559519034
8,1,0.5,0.8629750062009698,-0.3692108571997421
8,1,0.25,0.8685564757179991,-0.9273578089026735
8,1,0.0,0.8609332367577085,-0.16503391287361335
8,2,1.0,0.8592828976289724,0.0
8,2,0.75,0.866626761556238,-0.7343863927265604
8,2,0.5,0.8606370715089576,-0.13541738799852654
8,2,0.25,0.8563131267926118,0.2969770836360519
8,2,0.0,0.8515351136318878,0.7747783997084534
8,3,1.0,0.8592828976289724,0.0
8,3,0.75,0.855060741670026,0.4222155958946372
8,3,0.5,0.8436965811965812,1.5586316432391167
8,3,0.25,0.8308259321428247,2.8456965486147623
8,3,0.0,0.8271050993602362,3.2177798268736124
8,4,1.0,0.8592828976289724,0.0
8,4,0.75,0.8586001776834234,0.06827199455489152
8,4,0.5,0.8474694366173803,1.1813461011592086
8,4,0.25,0.8103296087620335,4.895328886693884
8,4,0.0,0.8373627828232149,2.1920114805757507
8,5,1.0,0.8592828976289724,0.0
8,5,0.75,0.8463653348590641,1.2917562769908297
8,5,0.5,0.8157131986999739,4.356969892899842
8,5,0.25,0.8070173385554231,5.226555907354924
8,5,0.0,0.8252127260250788,3.4070171603893584
8,6,1.0,0.8592828976289724,0.0
8,6,0.75,0.8604102395158839,-0.11273418869115481
8,6,0.5,0.8650736196378184,-0.5790722008846005
8,6,0.25,0.8613902621498299,-0.21073645208575797
8,6,0.0,0.852946680718899,0.6336216910073356
8,7,1.0,0.8592828976289724,0.0
8,7,0.75,0.8727822043710947,-1.3499306742122297
8,7,0.5,0.8599277393636123,-0.06448417346399671
8,7,0.25,0.8626503225314002,-0.3367424902427807
8,7,0.0,0.8188675239059549,4.041537372301751
8,8,1.0,0.8592828976289724,0.0
8,8,0.75,0.861679975599364,-0.2397077970391681
8,8,0.5,0.8635157929283448,-0.423289529937243
8,8,0.25,0.8521538998661182,0.7128997762854139
8,8,0.0,0.8484065444763464,1.0876353152625917
9,0,1.0,0.8355294044165362,0.0
9,0,0.75,0.829477018124744,0.6052386291792278
9,0,0.5,0.8298162282720023,0.5713176144533927
9,0,0.25,0.8365823056989744,-0.1052901282438179
9,0,0.0,0.8361397621544673,-0.06103577379310554
9,1,1.0,0.8355294044165362,0.0
9,1,0.75,0.8267048103411739,0.8824594075362291
9,1,0.5,0.836576017876973,-0.10466134604367738
9,1,0.25,0.8365168327678849,-0.09874283513486848
9,1,0.0,0.8256611837324048,0.9868220684131401
9,2,1.0,0.8355294044165362,0.0
9,2,0.75,0.8413056733051809,-0.5776268888644687
9,2,0.5,0.8433405091445799,-0.7811104728043694
9,2,0.25,0.833855809132419,0.16735952841172574
9,2,0.0,0.813575958256459,2.1953446160077217
9,3,1.0,0.8355294044165362,0.0
9,3,0.75,0.827380198922848,0.814920549368825
9,3,0.5,0.8108687604197312,2.466064399680501
9,3,0.25,0.7964865207958269,3.904288362070929
9,3,0.0,0.7887418990949995,4.678750532153675
9,4,1.0,0.8355294044165362,0.0
9,4,0.75,0.8441969393610722,-0.8667534944535982
9,4,0.5,0.8401126701991635,-0.4583265782627244
9,4,0.25,0.8136743457387656,2.18550586777706
9,4,0.0,0.8341661546794671,0.13632497370691388
9,5,1.0,0.8355294044165362,0.0
9,5,0.75,0.8267670115156271,0.8762392900909077
9,5,0.5,0.8257786594533408,0.975074496319539
9,5,0.25,0.8378547463021385,-0.23253418856022945
9,5,0.0,0.8370288104330657,-0.14994060165294254
9,6,1.0,0.8355294044165362,0.0
9,6,0.75,0.8315349367101621,0.39944677063741274
9,6,0.5,0.8287129436050005,0.6816460811535752
9,6,0.25,0.8301525478740668,0.5376856542469444
9,6,0.0,0.8278968000152183,0.7632604401317966
9,7,1.0,0.8355294044165362,0.0
9,7,0.75,0.8308208245842985,0.47085798322377137
9,7,0.5,0.8275552874930516,0.7974116923484598
9,7,0.25,0.8010834205383872,3.444598387814901
9,7,0.0,0.7809573040549707,5.457210036156557
9,8,1.0,0.8355294044165362,0.0
9,8,0.75,0.8334594574781671,0.20699469383691493
9,8,0.5,0.8342526120062468,0.127679241028944
9,8,0.25,0.8270291910470482,0.850021336948803
9,8,0.0,0.8162558199832297,1.9273584433306512
10,0,1.0,0.7655015902650069,0.0
10,0,0.75,0.7479606254617673,1.7540964803239523
10,0,0.5,0.7342155964956086,3.1285993769398224
10,0,0.25,0.7239504476786489,4.155114258635795
10,0,0.0,0.7119230843543971,5.357850591060975
10,1,1.0,0.7655015902650069,0.0
10,1,0.75,0.7534138235629984,1.2087766702008507
10,1,0.5,0.7362091940085783,2.9292396256428543
10,1,0.25,0.7217832940796884,4.371829618531842
10,1,0.0,0.7049280049280049,6.057358533700197
10,2,1.0,0.7655015902650069,0.0
10,2,0.75,0.7508340806465984,1.4667509618408459
10,2,0.5,0.7464790740181089,1.9022516246897991
10,2,0.25,0.7352084429047648,3.0293147360242023
10,2,0.0,0.7390205807632422,2.6481009501764685
10,3,1.0,0.7655015902650069,0.0
10,3,0.75,0.7548708370036499,1.0630753261356984
10,3,0.5,0.7449599988225017,2.0541591442505114
10,3,0.25,0.7455041549214596,1.9997435343547254
10,3,0.0,0.7228707591600584,4.263083110494847
10,4,1.0,0.7655015902650069,0.0
10,4,0.75,0.7446733018984094,2.0828288366597447
10,4,0.5,0.7353111497476388,3.019044051736808
10,4,0.25,0.7361660763895006,2.933551387550626
10,4,0.0,0.7455477817493296,1.9953808515677296
10,5,1.0,0.7655015902650069,0.0
10,5,0.75,0.7416379994402663,2.3863590824740544
10,5,0.5,0.7246637735553991,4.083781670960773
10,5,0.25,0.7222588604989767,4.324272976603016
10,5,0.0,0.7318333079889094,3.3668282276097417
10,6,1.0,0.7655015902650069,0.0
10,6,0.75,0.7691841190021831,-0.3682528737176227
10,6,0.5,0.7634968525078702,0.20047377571366098
10,6,0.25,0.7592405877939968,0.6261002471010024
10,6,0.0,0.7581640981423216,0.7337492122685307
10,7,1.0,0.7655015902650069,0.0
10,7,0.75,0.7527134588517697,1.2788131413237203
10,7,0.5,0.7392651888341544,2.6236401430852485
10,7,0.25,0.7196243609644862,4.587722930052063
10,7,0.0,0.6737948670013887,9.170672326361817
10,8,1.0,0.7655015902650069,0.0
10,8,0.75,0.7639091345236673,0.15924557413395934
10,8,0.5,0.7620339392245385,0.34676510404683114
10,8,0.25,0.7627635499124263,0.27380403525805175
10,8,0.0,0.7416580041580042,2.3843586107002657
11,0,1.0,0.8668710271414433,0.0
11,0,0.75,0.8767013112306994,-0.9830284089256125
11,0,0.5,0.8882559114825886,-2.1384884341145383
11,0,0.25,0.8948456754444778,-2.7974648303034533
11,0,0.0,0.8874528019257464,-2.058177478430312
11,1,1.0,0.8668710271414433,0.0
11,1,0.75,0.8721132931922934,-0.5242266050850097
11,1,0.5,0.8771442165839494,-1.0273189442506103
11,1,0.25,0.87977740371382,-1.2906376572376699
11,1,0.0,0.8610600471515963,0.581097998984692
11,2,1.0,0.8668710271414433,0.0
11,2,0.75,0.8670153918355545,-0.01443646941112764
11,2,0.5,0.8631013928822877,0.3769634259155552
11,2,0.25,0.8553443139842482,1.1526713157195112
11,2,0.0,0.8472730265585309,1.959800058291239
11,3,1.0,0.8668710271414433,0.0
11,3,0.75,0.8661319722198997,0.07390549215435804
11,3,0.5,0.8552484937014401,1.162253344000319
11,3,0.25,0.8526647855700449,1.4206241571398381
11,3,0.0,0.831116767539642,3.575425960180123
11,4,1.0,0.8668710271414433,0.0
11,4,0.75,0.8688730489764918,-0.20020218350484953
11,4,0.5,0.857467928393737,0.9403098747706284
11,4,0.25,0.8510184892283787,1.5852537913064513
11,4,0.0,0.8529651765031306,1.3905850638312622
11,5,1.0,0.8668710271414433,0.0
11,5,0.75,0.857656912979299,0.9214114162144238
11,5,0.5,0.8523358262863192,1.4535200855124053
11,5,0.25,0.8596375892132885,0.7233437928154784
11,5,0.0,0.8593379790940766,0.7533048047366653
11,6,1.0,0.8668710271414433,0.0
11,6,0.75,0.8747903695161808,-0.791934237473757
11,6,0.5,0.8766392383472155,-0.9768211205772204
11,6,0.25,0.8792361746707128,-1.2365147529269538
11,6,0.0,0.8897924309647598,-2.2921403823316533
11,7,1.0,0.8668710271414433,0.0
11,7,0.75,0.8805980832560307,-1.3727056114587466
11,7,0.5,0.8878100536450689,-2.093902650362567
11,7,0.25,0.8885771667329965,-2.170613959155321
11,7,0.0,0.8734013076733285,-0.6530280531885202
11,8,1.0,0.8668710271414433,0.0
11,8,0.75,0.8761111830006156,-0.9240155859172372
11,8,0.5,0.8727480503606748,-0.5877023219231559
11,8,0.25,0.8576063293328938,0.9264697808549438
11,8,0.0,0.8375438633654532,2.9327163775990095
12,0,1.0,0.8907093677431568,0.0
12,0,0.75,0.902215617392454,-1.150624964929725
12,0,0.5,0.9048835068954877,-1.41741391523309
12,0,0.25,0.885390550072896,0.5318817670260767
12,0,0.0,0.884351114597902,0.6358253145254733
12,1,1.0,0.8907093677431568,0.0
12,1,0.75,0.8844460847335702,0.6263283009586562
12,1,0.5,0.8636402543409147,2.706911340224205
12,1,0.25,0.856592909486884,3.411645825627274
12,1,0.0,0.8547418223759344,3.5967545367222353
12,2,1.0,0.8907093677431568,0.0
12,2,0.75,0.8914117810106889,-0.07024132675320649
12,2,0.5,0.8763587719134127,1.4350595829744073
12,2,0.25,0.8708994249249757,1.9809942818181048
12,2,0.0,0.8602334089265992,3.0475958816557625
12,3,1.0,0.8907093677431568,0.0
12,3,0.75,0.8912368558630895,-0.05274881199327508
12,3,0.5,0.8898699902918878,0.08393774512689411
12,3,0.25,0.85359537648046,3.7113991262696766
12,3,0.0,0.8421986410574054,4.85107266857514
12,4,1.0,0.8907093677431568,0.0
12,4,0.75,0.8783190377391588,1.239033000399803
12,4,0.5,0.8860282423755111,0.46811253676456444
12,4,0.25,0.8851674950334916,0.5541872709665219
12,4,0.0,0.8939463134978058,-0.32369457546490565
12,5,1.0,0.8907093677431568,0.0
12,5,0.75,0.8854265142186616,0.5282853524495201
12,5,0.5,0.8861646325760549,0.45447351671018543
12,5,0.25,0.8798696857153466,1.083968202781016
12,5,0.0,0.8820767507073934,0.8632617035763346
12,6,1.0,0.8907093677431568,0.0
12,6,0.75,0.9001555148841971,-0.9446147141040306
12,6,0.5,0.9023542013199168,-1.164483357676005
12,6,0.25,0.9075518875891313,-1.6842519845974513
12,6,0.0,0.900689680025365,-0.9980312282208192
12,7,1.0,0.8907093677431568,0.0
12,7,0.75,0.8957662223336087,-0.5056854590451909
12,7,0.5,0.8867065081053418,0.4002859637814993
12,7,0.25,0.9026926232988712,-1.1983255555714445
12,7,0.0,0.8993175349318613,-0.8608167188704496
12,8,1.0,0.8907093677431568,0.0
12,8,0.75,0.8963120783240592,-0.5602710580902448
12,8,0.5,0.8941540245752364,-0.3444656832079618
12,8,0.25,0.8831341238631794,0.7575243879977434
12,8,0.0,0.8829354898832839,0.7773877859872935
13,0,1.0,0.9185430867698895,0.0
13,0,0.75,0.9254025760096354,-0.6859489239745886
13,0,0.5,0.9264202980350806,-0.7877211265191142
13,0,0.25,0.9301732970751617,-1.1630210305272226
13,0,0.0,0.923108478607711,-0.4565391837821453
13,1,1.0,0.9185430867698895,0.0
13,1,0.75,0.9213133490771799,-0.2770262307290383
13,1,0.5,0.9166690252185873,0.18740615513022085
13,1,0.25,0.9048805138043141,1.3662572965575381
13,1,0.0,0.9014598767569125,1.7083210012976968
13,2,1.0,0.9185430867698895,0.0
13,2,0.75,0.9136301322489541,0.4912954520935431
13,2,0.5,0.9114524589116203,0.7090627858269194
13,2,0.25,0.9040173652141016,1.4525721555787907
13,2,0.0,0.8989389526568868,1.9604134113002658
13,3,1.0,0.9185430867698895,0.0
13,3,0.75,0.9225574507061716,-0.40143639362820727
13,3,0.5,0.9270601726593601,-0.8517085889470644
13,3,0.25,0.9220146631180761,-0.34715763481866224
13,3,0.0,0.9063348416289593,1.2208245140930218
13,4,1.0,0.9185430867698895,0.0
13,4,0.75,0.9115079365079365,0.7035150261953005
13,4,0.5,0.8993008062772492,1.9242280492640318
13,4,0.25,0.8892223130274459,2.9320773742443573
13,4,0.0,0.8962297648762144,2.2313321893675075
13,5,1.0,0.9185430867698895,0.0
13,5,0.75,0.9048706249812786,1.3672461788610923
13,5,0.5,0.9032179112291142,1.5325175540775282
13,5,0.25,0.8973668779215961,2.117620884829341
13,5,0.0,0.9022451276358426,1.6297959134046858
13,6,1.0,0.9185430867698895,0.0
13,6,0.75,0.9161630903781705,0.23799963917190414
13,6,0.5,0.9190282103024907,-0.04851235326012171
13,6,0.25,0.9196930798369014,-0.11499930670119118
13,6,0.0,0.9195047269894987,-0.09616402196092055
13,7,1.0,0.9185430867698895,0.0
13,7,0.75,0.9039376804979076,1.4605406271981924
13,7,0.5,0.8982846535291918,2.025843324069765
13,7,0.25,0.9102398188372884,0.8303267932601055
13,7,0.0,0.9111853523034941,0.7357734466395427
13,8,1.0,0.9185430867698895,0.0
13,8,0.75,0.9083545678852114,1.0188518884678088
13,8,0.5,0.9030191558981502,1.552393087173931
13,8,0.25,0.8903059757293521,2.823711104053739
13,8,0.0,0.8823995677659955,3.614351900389401
14,0,1.0,0.8392361368553646,0.0
14,0,0.75,0.8315390173182082,0.7697119537156349
14,0,0.5,0.8210800735334773,1.815606332188724
14,0,0.25,0.8133439674094792,2.589216944588535
14,0,0.0,0.8057388813912373,3.3497255464127296
14,1,1.0,0.8392361368553646,0.0
14,1,0.75,0.8361007065427797,0.3135430312584897
14,1,0.5,0.8283301701651943,1.09059666901703
14,1,0.25,0.8115879114958445,2.764822535952005
14,1,0.0,0.8069492159734268,3.228692088193774
14,2,1.0,0.8392361368553646,0.0
14,2,0.75,0.8470861993296209,-0.7850062474256347
14,2,0.5,0.8527915644151653,-1.355542755980077
14,2,0.25,0.852812945672288,-1.357680881692347
14,2,0.0,0.8439894008405269,-0.47532639851622926
14,3,1.0,0.8392361368553646,0.0
14,3,0.75,0.8345808151110751,0.4655321744289509
14,3,0.5,0.8313539873780837,0.7882149477280831
14,3,0.25,0.8157674602575224,2.346867659784213
14,3,0.0,0.7942110803923212,4.502505646304334
14,4,1.0,0.8392361368553646,0.0
14,4,0.75,0.8442359327390395,-0.499979588367494
14,4,0.5,0.8412156015821782,-0.19794647268136512
14,4,0.25,0.8279999956015911,1.123614125377348
14,4,0.0,0.8366279734884697,0.26081633668948445
14,5,1.0,0.8392361368553646,0.0
14,5,0.75,0.8351203037412781,0.41158331140864757
14,5,0.5,0.8330850122473994,0.6151124607965186
14,5,0.25,0.842798084161639,-0.356194730627446
14,5,0.0,0.8506257041929499,-1.1389567337585338
14,6,1.0,0.8392361368553646,0.0
14,6,0.75,0.8321719730490684,0.7064163806296153
14,6,0.5,0.833557946372265,0.5678190483099588
14,6,0.25,0.820694740576857,1.8541396278507594
14,6,0.0,0.8265571646037008,1.2678972251663811
14,7,1.0,0.8392361368553646,0.0
14,7,0.75,0.820298007636509,1.8938129218855626
14,7,0.5,0.803525873678741,3.5710263176623624
14,7,0.25,0.7913827831943665,4.785335366099808
14,7,0.0,0.7896767918992843,4.955934495608028
14,8,1.0,0.8392361368553646,0.0
14,8,0.75,0.8373614063501703,0.18747305051942664
14,8,0.5,0.8466217751115821,-0.7385638256217519
14,8,0.25,0.8397357751109009,-0.04996382555363388
14,8,0.0,0.8141758470991757,2.5060289756188903
15,0,1.0,0.922754534869833,0.0
15,0,0.75,0.9191268461872488,0.3627688682584229
15,0,0.5,0.9073603712251356,1.5394163644697478
15,0,0.25,0.8904516161741006,3.230291869573243
15,0,0.0,0.8734729664897376,4.928156838009546
15,1,1.0,0.922754534869833,0.0
15,1,0.75,0.9282678322773833,-0.5513297407550244
15,1,0.5,0.9353933109550336,-1.2638776085200587
15,1,0.25,0.9213872156121766,0.13673192576564297
15,1,0.0,0.8984759376315479,2.4278597238285182
15,2,1.0,0.922754534869833,0.0
15,2,0.75,0.9256094640665278,-0.2854929196694722
15,2,0.5,0.9123156515484914,1.0438883321341685
15,2,0.25,0.8944894968003287,2.826503806950431
15,2,0.0,0.8776308425042681,4.5123692365564905
15,3,1.0,0.922754534869833,0.0
15,3,0.75,0.9077897656286895,1.4964769241143538
15,3,0.5,0.8957032520406558,2.7051282829177237
15,3,0.25,0.8839797073388699,3.8774827530963174
15,3,0.0,0.8775100685975168,4.524446627231626
15,4,1.0,0.922754534869833,0.0
15,4,0.75,0.9171798176959511,0.5574717173881916
15,4,0.5,0.9185049821158233,0.42495527540097333
15,4,0.25,0.9043752620206733,1.8379272849159745
15,4,0.0,0.9174523281322902,0.5302206737542892
15,5,1.0,0.922754534869833,0.0
15,5,0.75,0.9182674280197142,0.44871068501188827
15,5,0.5,0.9234582718034621,-0.07037369336290178
15,5,0.25,0.9260375300122177,-0.3282995142384615
15,5,0.0,0.9320488758553275,-0.929434098549442
15,6,1.0,0.922754534869833,0.0
15,6,0.75,0.9197974637178035,0.2957071152029589
15,6,0.5,0.90787569416522,1.4878840704613094
15,6,0.25,0.9009548900954972,2.1799644774335825
15,6,0.0,0.8998194844969039,2.29350503729292
15,7,1.0,0.922754534869833,0.0
15,7,0.75,0.8867363387306529,3.6018196139180114
15,7,0.5,0.8746719054580896,4.8082629411743465
15,7,0.25,0.8631743926179617,5.958014225187136
15,7,0.0,0.8760943454950236,4.666018937480942
15,8,1.0,0.922754534869833,0.0
15,8,0.75,0.9147448039496081,0.8009730920224944
15,8,0.5,0.9185598891347351,0.41946457350979793
15,8,0.25,0.8938847511630696,2.8869783706763408
15,8,0.0,0.878170540208687,4.458399466114605
16,0,1.0,0.8597060272616315,0.0
16,0,0.75,0.8608038694111766,-0.1097842149545114
16,0,0.5,0.8434694177098405,1.623660955179096
16,0,0.25,0.8510956463779632,0.8610380883668278
16,0,0.0,0.8398544712715147,1.9851555990116787
16,1,1.0,0.8597060272616315,0.0
16,1,0.75,0.8666567412043371,-0.6950713942705633
16,1,0.5,0.8676221655425328,-0.7916138280901319
16,1,0.25,0.8785443649937039,-1.883833773207244
16,1,0.0,0.8740772724330963,-1.437124517146482
16,2,1.0,0.8597060272616315,0.0
16,2,0.75,0.8581972109171587,0.1508816344472752
16,2,0.5,0.8599657746576361,-0.025974739600465035
16,2,0.25,0.8561294520951448,0.3576575166486684
16,2,0.0,0.8555646820184997,0.4141345243131811
16,3,1.0,0.8597060272616315,0.0
16,3,0.75,0.8626227719887934,-0.29167447271619684
16,3,0.5,0.873260703128689,-1.3554675867057497
16,3,0.25,0.8692800302096784,-0.9574002948046889
16,3,0.0,0.87816196776844,-1.8455940506808544
16,4,1.0,0.8597060272616315,0.0
16,4,0.75,0.8442128296643425,1.5493197597288955
16,4,0.5,0.8395808016093753,2.0125225652256162
16,4,0.25,0.8407299555197574,1.89760717418741
16,4,0.0,0.8501113366946546,0.9594690566976927
16,5,1.0,0.8597060272616315,0.0
16,5,0.75,0.823931698601172,3.5774328660459487
16,5,0.5,0.8253533016497898,3.435272561184166
16,5,0.25,0.8329091634383996,2.6796863823231876
16,5,0.0,0.8226784599841676,3.7027567277463924
16,6,1.0,0.8597060272616315,0.0
16,6,0.75,0.8605773153887459,-0.08712881271144557
16,6,0.5,0.8666672515119831,-0.6961224250351616
16,6,0.25,0.8625465588734276,-0.2840531611796093
16,6,0.0,0.8629507435026911,-0.32447162410595976
16,7,1.0,0.8597060272616315,0.0
16,7,0.75,0.8591063021073165,0.05997251543149451
16,7,0.5,0.8405350036025805,1.917102365905099
16,7,0.25,0.8280757847560443,3.1630242505587214
16,7,0.0,0.8052468074126581,5.445921984897339
16,8,1.0,0.8597060272616315,0.0
16,8,0.75,0.8519539827462412,0.7752044515390244
16,8,0.5,0.8466948351448078,1.3011192116823667
16,8,0.25,0.8475562276370728,1.2149799624558644
16,8,0.0,0.8337161239066073,2.5989903355024158
17,0,1.0,0.8568545554994772,0.0
17,0,0.75,0.8607817554030768,-0.39271999035995764
17,0,0.5,0.8559143731782053,0.09401823212719096
17,0,0.25,0.8418792551486575,1.4975300350819731
17,0,0.0,0.835094045460594,2.176051003888324
17,1,1.0,0.8568545554994772,0.0
17,1,0.75,0.85332268953675,0.3531865962727254
17,1,0.5,0.8568152177376442,0.003933776183295823
17,1,0.25,0.8645592389716328,-0.7704683472155582
17,1,0.0,0.8672584237328698,-1.0403868233392566
17,2,1.0,0.8568545554994772,0.0
17,2,0.75,0.8597663248939877,-0.2911769394510544
17,2,0.5,0.8534403506110328,0.341420488844435
17,2,0.25,0.8522688814300209,0.45856740694563136
17,2,0.0,0.8560695627578542,0.07849927416230251
17,3,1.0,0.8568545554994772,0.0
17,3,0.75,0.8548554845919084,0.19990709075687896
17,3,0.5,0.8461527348033715,1.0701820696105702
17,3,0.25,0.8405819842190094,1.6272571280467774
17,3,0.0,0.8267622321382305,3.0092323361246676
17,4,1.0,0.8568545554994772,0.0
17,4,0.75,0.857890500812702,-0.10359453132248175
17,4,0.5,0.8515574445715575,0.5297110927919735
17,4,0.25,0.853357667298808,0.3496888200669179
17,4,0.0,0.8540364030981716,0.28181524013055625
17,5,1.0,0.8568545554994772,0.0
17,5,0.75,0.8450066864340788,1.1847869065398364
17,5,0.5,0.8392407938357426,1.7613761663734628
17,5,0.25,0.828970825891223,2.788372960825425
17,5,0.0,0.826713744406391,3.0140811093086195
17,6,1.0,0.8568545554994772,0.0
17,6,0.75,0.8538699260801224,0.2984629419354845
17,6,0.5,0.850787602075396,0.6066953424081145
17,6,0.25,0.8409929319705115,1.5861623528965696
17,6,0.0,0.851833223376583,0.502133212289424
17,7,1.0,0.8568545554994772,0.0
17,7,0.75,0.8623003425258691,-0.5445787026391868
17,7,0.5,0.8630855905069381,-0.6231035007460917
17,7,0.25,0.8545293409021688,0.23252145973083893
17,7,0.0,0.8383588099558476,1.849574554362965
17,8,1.0,0.8568545554994772,0.0
17,8,0.75,0.8534998440080608,0.3354711491416418
17,8,0.5,0.858020925001194,-0.11663695017167797
17,8,0.25,0.8437910423650348,1.3063513134442428
17,8,0.0,0.815285150895616,4.1569404603861155
18,0,1.0,0.9149652291188002,0.0
18,0,0.75,0.9093318157675052,0.5633413351294969
18,0,0.5,0.9174803586816127,-0.25151295628125236
18,0,0.25,0.909798620176259,0.5166608942541173
18,0,0.0,0.9055500473440413,0.9415181774758863
18,1,1.0,0.9149652291188002,0.0
18,1,0.75,0.9130266126111002,0.19386165076999973
18,1,0.5,0.9173651251479912,-0.23998960291909954
18,1,0.25,0.9170066321452676,-0.2041403026467381
18,1,0.0,0.9182820777223345,-0.3316848603534317
18,2,1.0,0.9149652291188002,0.0
18,2,0.75,0.904398493353054,1.0566735765746182
18,2,0.5,0.903370408601222,1.1594820517578208
18,2,0.25,0.9053097052746988,0.9655523844101399
18,2,0.0,0.8993467005686488,1.5618528550151334
18,3,1.0,0.9149652291188002,0.0
18,3,0.75,0.9066714212109502,0.8293807907849948
18,3,0.5,0.889394508745167,2.557072037363317
18,3,0.25,0.8669484350385305,4.8016794080269705
18,3,0.0,0.8241397003346103,9.082552878418992
18,4,1.0,0.9149652291188002,0.0
18,4,0.75,0.9120909098761992,0.28743192426009534
18,4,0.5,0.9168980260926685,-0.19327969738682782
18,4,0.25,0.9149798882781036,-0.0014659159303431757
18,4,0.0,0.9077430848782925,0.7222144240507711
18,5,1.0,0.9149652291188002,0.0
18,5,0.75,0.9090231212302342,0.5942107888565973
18,5,0.5,0.9070368681642704,0.7928360954529756
18,5,0.25,0.9066056249792307,0.8359604139569488
18,5,0.0,0.9066757710651088,0.8289458053691412
18,6,1.0,0.9149652291188002,0.0
18,6,0.75,0.9067458540592441,0.8219375059556056
18,6,0.5,0.9094165069896538,0.5548722129146366
18,6,0.25,0.9068829120250468,0.80823170937534
18,6,0.0,0.8915514372574469,2.3413791861353284
18,7,1.0,0.9149652291188002,0.0
18,7,0.75,0.8898050655064063,2.5160163612393927
18,7,0.5,0.8797797280064543,3.5185501112345863
18,7,0.25,0.8612427287115345,5.372250040726567
18,7,0.0,0.8615976520458177,5.336757707298245
18,8,1.0,0.9149652291188002,0.0
18,8,0.75,0.9167694564980138,-0.18042273792135965
18,8,0.5,0.9139348289715863,0.10304001472138946
18,8,0.25,0.9111335102817126,0.383171883708755
18,8,0.0,0.9033941141831678,1.1571114935632343
19,0,1.0,0.8678500697947005,0.0
19,0,0.75,0.862179306580586,0.5670763214114527
19,0,0.5,0.8601192752444304,0.7730794550270037
19,0,0.25,0.8596101369761966,0.8239932818503881
19,0,0.0,0.8599294829031173,0.7920586891583148
19,1,1.0,0.8678500697947005,0.0
19,1,0.75,0.8652133771126813,0.26366926820191594
19,1,0.5,0.8611299164313345,0.6720153363365955
19,1,0.25,0.852252139532556,1.559793026214451
19,1,0.0,0.8472989361197067,2.0551133674993727
19,2,1.0,0.8678500697947005,0.0
19,2,0.75,0.8737661404744715,-0.5916070679771068
19,2,0.5,0.8690196970570833,-0.11696272623827886
19,2,0.25,0.8653835047776294,0.24665650170710984
19,2,0.0,0.8610570556542549,0.679301414044553
19,3,1.0,0.8678500697947005,0.0
19,3,0.75,0.8571427601209813,1.0707309673719134
19,3,0.5,0.8537580461020877,1.4092023692612754
19,3,0.25,0.8222993528967613,4.555071689793921
19,3,0.0,0.8064564579855805,6.139361180911996
19,4,1.0,0.8678500697947005,0.0
19,4,0.75,0.8610993124970046,0.675075729769592
19,4,0.5,0.8587263548926513,0.9123714902049218
19,4,0.25,0.8460470211341208,2.1803048660579694
19,4,0.0,0.8606288769749728,0.7221192819727662
19,5,1.0,0.8678500697947005,0.0
19,5,0.75,0.8488103427406082,1.9039727054092292
19,5,0.5,0.8489224724275013,1.8927597367199178
19,5,0.25,0.8528090671856066,1.5041002609093912
19,5,0.0,0.8359826209123031,3.1867448882397342
19,6,1.0,0.8678500697947005,0.0
19,6,0.75,0.8721444816083337,-0.42944118136332143
19,6,0.5,0.8683175610196291,-0.04674912249286178
19,6,0.25,0.8725684616454329,-0.47183918507324174
19,6,0.0,0.8641930123825354,0.36570574121650434
19,7,1.0,0.8678500697947005,0.0
19,7,0.75,0.8593783571443914,0.8471712650309104
19,7,0.5,0.867478101419172,0.0371968375528442
19,7,0.25,0.8676661708670672,0.018389892763326365
19,7,0.0,0.8616969353454723,0.6153134449228159
19,8,1.0,0.8678500697947005,0.0
19,8,0.75,0.8598776794505513,0.7972390344149205
19,8,0.5,0.8525085515370316,1.534151825766883
19,8,0.25,0.8409958395337421,2.6854230260958345
19,8,0.0,0.8277551623861661,4.009490740853439
20,0,1.0,0.8178957455818809,0.0
20,0,0.75,0.8293778879601267,-1.148214237824574
20,0,0.5,0.8347315592903828,-1.6835813708501846
20,0,0.25,0.8291576630891125,-1.12619175072316
20,0,0.0,0.8170596406489745,0.0836104932906423
20,1,1.0,0.8178957455818809,0.0
20,1,0.75,0.8067118376713823,1.1183907910498614
20,1,0.5,0.8017477909837875,1.6147954598093484
20,1,0.25,0.7887154214376388,2.91803241442421
20,1,0.0,0.7794011581005257,3.849458748135526
20,2,1.0,0.8178957455818809,0.0
20,2,0.75,0.8164739134679517,0.14218321139292112
20,2,0.5,0.8058164184443165,1.2079327137564433
20,2,0.25,0.8071217540422748,1.077399153960612
20,2,0.0,0.7931567996567997,2.473894592508119
20,3,1.0,0.8178957455818809,0.0
20,3,0.75,0.8158562013770299,0.20395442048510848
20,3,0.5,0.8119485298183634,0.5947215763517533
20,3,0.25,0.8082056900139696,0.969005556791136
20,3,0.0,0.7990056223257183,1.8890123256162683
20,4,1.0,0.8178957455818809,0.0
20,4,0.75,0.8285134372544527,-1.061769167257176
20,4,0.5,0.8259015866209515,-0.8005841039070538
20,4,0.25,0.8196590986106405,-0.17633530287595178
20,4,0.0,0.822742525961422,-0.4846780379541116
20,5,1.0,0.8178957455818809,0.0
20,5,0.75,0.8173008713690373,0.05948742128436546
20,5,0.5,0.8308463015439422,-1.2950555962061294
20,5,0.25,0.8324473568262223,-1.4551611244341345
20,5,0.0,0.8297230437170882,-1.182729813520722
20,6,1.0,0.8178957455818809,0.0
20,6,0.75,0.8216435827894337,-0.37478372075527844
20,6,0.5,0.8216339120760079,-0.3738166494126949
20,6,0.25,0.8127452322707217,0.5150513311159233
20,6,0.0,0.8123202749325984,0.5575470649282543
20,7,1.0,0.8178957455818809,0.0
20,7,0.75,0.8064120314289744,1.14837141529065
20,7,0.5,0.809529927101597,0.8365818480283949
20,7,0.25,0.79757206076933,2.032368481255098
20,7,0.0,0.8258155849541027,-0.7919839372221738
20,8,1.0,0.8178957455818809,0.0
20,8,0.75,0.809151065511917,0.8744680069963984
20,8,0.5,0.81180092136903,0.6094824212850902
20,8,0.25,0.7998133320907954,1.8082413491085525
20,8,0.0,0.7392400654107685,7.865568017111246
21,0,1.0,0.856114077522905,0.0
21,0,0.75,0.8524165420147513,0.3697535508153771
21,0,0.5,0.8491938384858657,0.6920239037039311
21,0,0.25,0.8429651042396783,1.3148973283226728
21,0,0.0,0.8264192468115825,2.9694830711322506
21,1,1.0,0.856114077522905,0.0
21,1,0.75,0.8625072657429811,-0.6393188220076063
21,1,0.5,0.8670362697647586,-1.0922192241853534
21,1,0.25,0.8657968328905317,-0.9682755367626639
21,1,0.0,0.8565256983170998,-0.041162079419476694
21,2,1.0,0.856114077522905,0.0
21,2,0.75,0.8436656491077228,1.2448428415182233
21,2,0.5,0.8338687647155911,2.22453128073139
21,2,0.25,0.8377680775816316,1.8345999941273394
21,2,0.0,0.8384408501032312,1.767322741967381
21,3,1.0,0.856114077522905,0.0
21,3,0.75,0.8571882727134762,-0.107419519057117
21,3,0.5,0.8605108678280269,-0.4396790305121856
21,3,0.25,0.8599341944973798,-0.38201169744748187
21,3,0.0,0.8387719298245614,1.7342147698343635
21,4,1.0,0.856114077522905,0.0
21,4,0.75,0.8690117829223446,-1.2897705399439574
21,4,0.5,0.856347713305185,-0.023363578227997284
21,4,0.25,0.8466317803421696,0.9482297180735455
21,4,0.0,0.8377800037104941,1.8334073812410923
21,5,1.0,0.856114077522905,0.0
21,5,0.75,0.8752465538629389,-1.91324763400339
21,5,0.5,0.867285071572524,-1.1170994049618965
21,5,0.25,0.8621036169275451,-0.5989539404640087
21,5,0.0,0.8761000290668381,-1.9985951543933123
21,6,1.0,0.856114077522905,0.0
21,6,0.75,0.8609775124887749,-0.48634349658698284
21,6,0.5,0.868340733465345,-1.222665594243999
21,6,0.25,0.8766558688170875,-2.054179129418243
21,6,0.0,0.8818225624867831,-2.570848496387812
21,7,1.0,0.856114077522905,0.0
21,7,0.75,0.845546869899855,1.0567207623050079
21,7,0.5,0.835728670309845,2.0385407213060036
21,7,0.25,0.8400846845733909,1.602939294951411
21,7,0.0,0.8503694754320015,0.574460209090355
21,8,1.0,0.856114077522905,0.0
21,8,0.75,0.8516781573341567,0.4435920188748277
21,8,0.5,0.845952426656514,1.016165086639098
21,8,0.25,0.8365478265845614,1.9566250938343632
21,8,0.0,0.8331110552240436,2.300302229886142
22,0,1.0,0.8284393959611749,0.0
22,0,0.75,0.827972239817184,0.04671561439908434
22,0,0.5,0.8240910808865447,0.43483150746301824
22,0,0.25,0.832138288401342,-0.36988924401670786
22,0,0.0,0.8348472776851823,-0.6407881724007414
22,1,1.0,0.8284393959611749,0.0
22,1,0.75,0.8389110012928432,-1.0471605331668354
22,1,0.5,0.8562524784429644,-2.7813082481789486
22,1,0.25,0.8491357338559649,-2.0696337894789973
22,1,0.0,0.8395871725473945,-1.114777658621957
22,2,1.0,0.8284393959611749,0.0
22,2,0.75,0.8332567594432496,-0.48173634820747324
22,2,0.5,0.836180202456356,-0.7740806495181163
22,2,0.25,0.8368012044665281,-0.8361808505353174
22,2,0.0,0.8205904335176235,0.7848962443551377
22,3,1.0,0.8284393959611749,0.0
22,3,0.75,0.8063801186273883,2.205927733378654
22,3,0.5,0.7897726248294484,3.866677113172645
22,3,0.25,0.7911123710412822,3.7327024919892704
22,3,0.0,0.7959810489929504,3.245834696822447
22,4,1.0,0.8284393959611749,0.0
22,4,0.75,0.8208274672873834,0.7611928673791457
22,4,0.5,0.8167468894741622,1.16925064870127
22,4,0.25,0.7944187660199973,3.4020629941177605
22,4,0.0,0.8129356988359384,1.550369712523647
22,5,1.0,0.8284393959611749,0.0
22,5,0.75,0.8170141031513145,1.1425292809860377
22,5,0.5,0.8043642359148294,2.4075160046345467
22,5,0.25,0.8006344362258551,2.7804959735319823
22,5,0.0,0.7909616799947176,3.7477715966457326
22,6,1.0,0.8284393959611749,0.0
22,6,0.75,0.821118160431979,0.7321235529195835
22,6,0.5,0.807070769762513,2.1368626198661866
22,6,0.25,0.8056498866333377,2.2789509327837187
22,6,0.0,0.8098697884132399,1.8569607547935019
22,7,1.0,0.8284393959611749,0.0
22,7,0.75,0.8172143930732236,1.1225002887951252
22,7,0.5,0.8026895763756599,2.5749819585515032
22,7,0.25,0.7817499742758257,4.668942168534917
22,7,0.0,0.7707653102482785,5.767408571289634
22,8,1.0,0.8284393959611749,0.0
22,8,0.75,0.8186887419175991,0.9750654043575779
22,8,0.5,0.82159164035026,0.6847755610914885
22,8,0.25,0.8115595938009842,1.6879802160190693
22,8,0.0,0.7990917063040384,2.934768965713652
23,0,1.0,0.8203069790654596,0.0
23,0,0.75,0.8183167335281767,0.19902455372828864
23,0,0.5,0.8045020362313643,1.5804942834095281
23,0,0.25,0.7991495242547014,2.1157454810758147
23,0,0.0,0.7853514388497705,3.495554021568903
23,1,1.0,0.8203069790654596,0.0
23,1,0.75,0.8268935230435959,-0.6586543978136294
23,1,0.5,0.8409513218905325,-2.064434282507288
23,1,0.25,0.8351003360270868,-1.4793356961627202
23,1,0.0,0.8237436010690159,-0.3436622003556322
23,2,1.0,0.8203069790654596,0.0
23,2,0.75,0.8403308907101557,-2.002391164469608
23,2,0.5,0.8568105053037703,-3.650352623831077
23,2,0.25,0.8521330605793527,-3.18260815138931
23,2,0.0,0.845083740200819,-2.4776761135359426
23,3,1.0,0.8203069790654596,0.0
23,3,0.75,0.8261385621994175,-0.5831583133957929
23,3,0.5,0.825005813933331,-0.4698834867871371
23,3,0.25,0.8136122542848896,0.6694724780569983
23,3,0.0,0.8073689205601087,1.2938058505350902
23,4,1.0,0.8203069790654596,0.0
23,4,0.75,0.818805546827988,0.15014322374715672
23,4,0.5,0.8038885104852674,1.6418468580192136
23,4,0.25,0.7778036310683836,4.2503347997076
23,4,0.0,0.7677754766068159,5.253150245864369
23,5,1.0,0.8203069790654596,0.0
23,5,0.75,0.8163781628203115,0.392881624514807
23,5,0.5,0.814635667828264,0.5671311237195553
23,5,0.25,0.8093924244327366,1.091455463272295
23,5,0.0,0.8083151320838731,1.1991846981586507
23,6,1.0,0.8203069790654596,0.0
23,6,0.75,0.8223644991196841,-0.20575200542245486
23,6,0.5,0.811608746416892,0.8698232648567616
23,6,0.25,0.8158801043429166,0.4426874722542995
23,6,0.0,0.8101649110348365,1.014206803062312
23,7,1.0,0.8203069790654596,0.0
23,7,0.75,0.841515949231447,-2.120897016598744
23,7,0.5,0.8553455792625557,-3.503860019709615
23,7,0.25,0.8551243829211852,-3.4817403855725626
23,7,0.0,0.8502936546568132,-2.9986675591353595
23,8,1.0,0.8203069790654596,0.0
23,8,0.75,0.8230504996944032,-0.2743520628943674
23,8,0.5,0.8192867248675885,0.10202541978711066
23,8,0.25,0.8160287496075496,0.427822945791001
23,8,0.0,0.8000068300246764,2.0300149040783144
24,0,1.0,0.7471934627770609,0.0
24,0,0.75,0.7489774366539669,-0.17839738769059865
24,0,0.5,0.7381140475825243,0.9079415194536589
24,0,0.25,0.730683350695186,1.6510112081874917
24,0,0.0,0.7294270519882968,1.7766410788764064
24,1,1.0,0.7471934627770609,0.0
24,1,0.75,0.7640700531163988,-1.687659033933786
24,1,0.5,0.768572306709741,-2.137884393268008
24,1,0.25,0.7634650528329554,-1.6271590055894514
24,1,0.0,0.7547942782789457,-0.760081550188485
24,2,1.0,0.7471934627770609,0.0
24,2,0.75,0.7543921188578108,-0.7198656080749877
24,2,0.5,0.7455176232389586,0.16758395381022417
24,2,0.25,0.7518669130430772,-0.4673450266016288
24,2,0.0,0.7346666897023786,1.2526773074682307
24,3,1.0,0.7471934627770609,0.0
24,3,0.75,0.7669444157022163,-1.9750952925155385
24,3,0.5,0.7720176987776869,-2.4824236000626
24,3,0.25,0.7897726246740923,-4.257916189703137
24,3,0.0,0.7855581472110548,-3.836468443399388
24,4,1.0,0.7471934627770609,0.0
24,4,0.75,0.752973113216277,-0.5779650439216133
24,4,0.5,0.7250417703547637,2.21516924222972
24,4,0.25,0.7012897912796667,4.590367149739416
24,4,0.0,0.7001247972619475,4.706866551511335
24,5,1.0,0.7471934627770609,0.0
24,5,0.75,0.7212461311156857,2.5947331661375195
24,5,0.5,0.6670712961582288,8.012216661883208
24,5,0.25,0.6722130339098533,7.498042886720757
24,5,0.0,0.6797095427647737,6.74839200122872
24,6,1.0,0.7471934627770609,0.0
24,6,0.75,0.7431086700952947,0.4084792681766203
24,6,0.5,0.7332800233884842,1.3913439388576698
24,6,0.25,0.7383410861489318,0.8852376628129099
24,6,0.0,0.7260085355159352,2.118492726112564
24,7,1.0,0.7471934627770609,0.0
24,7,0.75,0.757669529488699,-1.0476066711638143
24,7,0.5,0.7522959038955697,-0.5102441118508771
24,7,0.25,0.7475664748601489,-0.037301208308804235
24,7,0.0,0.7209449553557569,2.6248507421304024
24,8,1.0,0.7471934627770609,0.0
24,8,0.75,0.7489774366539669,-0.17839738769059865
24,8,0.5,0.7430747056529265,0.41187571241343424
24,8,0.25,0.7432194766914075,0.3973986085653358
24,8,0.0,0.7268374426969081,2.0356020080152804
25,0,1.0,0.8608270766975388,0.0
25,0,0.75,0.8541759478116021,0.6651128885936664
25,0,0.5,0.8538416030085624,0.6985473688976396
25,0,0.25,0.8404419120711256,2.0385164626413155
25,0,0.0,0.8404359936793839,2.0391083018154843
25,1,1.0,0.8608270766975388,0.0
25,1,0.75,0.8583451122078947,0.24819644896441062
25,1,0.5,0.855635348225066,0.5191728472472734
25,1,0.25,0.850393497376865,1.0433579320673791
25,1,0.0,0.8390867415460473,2.174033515149143
25,2,1.0,0.8608270766975388,0.0
25,2,0.75,0.858662556393659,0.21645203038798133
25,2,0.5,0.8528515568473923,0.797551985014644
25,2,0.25,0.8514075221414671,0.9419554556071685
25,2,0.0,0.8534033230962779,0.7423753601260907
25,3,1.0,0.8608270766975388,0.0
25,3,0.75,0.861408065618592,-0.05809889210531827
25,3,0.5,0.8485611988404584,1.2265877857080332
25,3,0.25,0.8416791867291356,1.914788996840322
25,3,0.0,0.8255069705670846,3.532010613045422
25,4,1.0,0.8608270766975388,0.0
25,4,0.75,0.8496588151295981,1.1168261567940707
25,4,0.5,0.8361753832244433,2.465169347309548
25,4,0.25,0.8382539087599057,2.2573167937633087
25,4,0.0,0.8573465567141635,0.34805199833752853
25,5,1.0,0.8608270766975388,0.0
25,5,0.75,0.8494222016069615,1.1404875090577304
25,5,0.5,0.8386787000985796,2.2148376598959185
25,5,0.25,0.8473796307749396,1.3447445922599166
25,5,0.0,0.854774293180057,0.605278351748173
25,6,1.0,0.8608270766975388,0.0
25,6,0.75,0.8650640961452337,-0.4237019447694945
25,6,0.5,0.8768540235247902,-1.6026946827251476
25,6,0.25,0.8828003827054244,-2.1973306007885607
25,6,0.0,0.8905857022130493,-2.975862551551056
25,7,1.0,0.8608270766975388,0.0
25,7,0.75,0.8557703694104125,0.5056707287126261
25,7,0.5,0.8329844434092559,2.7842633288282848
25,7,0.25,0.8214701030583803,3.9356973639158466
25,7,0.0,0.8151947537257828,4.563232297175601
25,8,1.0,0.8608270766975388,0.0
25,8,0.75,0.8712237812287528,-1.0396704531213996
25,8,0.5,0.8718975169896787,-1.1070440292139883
25,8,0.25,0.8716305539623421,-1.0803477264803352
25,8,0.0,0.8660951732324547,-0.5268096534915889
26,0,1.0,0.7678764139830193,0.0
26,0,0.75,0.7813631859220388,-1.3486771939019482
26,0,0.5,0.7847914597365924,-1.6915045753573055
26,0,0.25,0.7793802223398418,-1.150380835682252
26,0,0.0,0.7691080728704952,-0.12316588874758949
26,1,1.0,0.7678764139830193,0.0
26,1,0.75,0.7803513630809584,-1.2474949097939114
26,1,0.5,0.7803247126233095,-1.2448298640290179
26,1,0.25,0.7807259577410766,-1.2849543758057247
26,1,0.0,0.7733980098975277,-0.5521595914508404
26,2,1.0,0.7678764139830193,0.0
26,2,0.75,0.7702992212944122,-0.24228073113928827
26,2,0.5,0.767711394324323,0.01650196586963082
26,2,0.25,0.7492899669756121,1.8586447007407192
26,2,0.0,0.7372285604346069,3.0647853548412374
26,3,1.0,0.7678764139830193,0.0
26,3,0.75,0.7650184886031604,0.2857925379858961
26,3,0.5,0.7643373825463871,0.3539031436632256
26,3,0.25,0.7573088974509793,1.0567516532040022
26,3,0.0,0.7563313477486776,1.1545066234341705
26,4,1.0,0.7678764139830193,0.0
26,4,0.75,0.763354485931495,0.4521928051524293
26,4,0.5,0.7610404689518285,0.6835945031190782
26,4,0.25,0.7592928702781396,0.8583543704879681
26,4,0.0,0.7622626432192751,0.5613770763744252
26,5,1.0,0.7678764139830193,0.0
26,5,0.75,0.7588621190612073,0.9014294921812049
26,5,0.5,0.7474889258464721,2.0387488136547227
26,5,0.25,0.7474115969206828,2.0464817062336493
26,5,0.0,0.7463944568169484,2.148195716607093
26,6,1.0,0.7678764139830193,0.0
26,6,0.75,0.7781527275403584,-1.0276313557339045
26,6,0.5,0.7898134869146717,-2.193707293165237
26,6,0.25,0.7762983618104776,-0.8421947827458309
26,6,0.0,0.7629057845082636,0.49706294747556834
26,7,1.0,0.7678764139830193,0.0
26,7,0.75,0.7811552618112542,-1.3278847828234852
26,7,0.5,0.7797115642522433,-1.1835150269223993
26,7,0.25,0.7711830295498481,-0.33066155668287633
26,7,0.0,0.7584163985725084,0.9460015410510891
26,8,1.0,0.7678764139830193,0.0
26,8,0.75,0.7657635802922758,0.2112833690743554
26,8,0.5,0.7559976790197082,1.1878734963311155
26,8,0.25,0.7467119241883393,2.1164489794679997
26,8,0.0,0.7400861403609614,2.779027362205788
27,0,1.0,0.8553116764566612,0.0
27,0,0.75,0.8778959474593313,-2.258427100267013
27,0,0.5,0.8867510471718585,-3.1439370715197312
27,0,0.25,0.893595759405213,-3.828408294855179
27,0,0.0,0.8893000757618456,-3.398839930518438
27,1,1.0,0.8553116764566612,0.0
27,1,0.75,0.856573437505816,-0.12617610491548747
27,1,0.5,0.8587928886294494,-0.3481212172788184
27,1,0.25,0.8701223126981867,-1.4810636241525565
27,1,0.0,0.8762047549200777,-2.089307846341648
27,2,1.0,0.8553116764566612,0.0
27,2,0.75,0.8584668983671212,-0.31552219104600265
27,2,0.5,0.8557999982822859,-0.0488321825624749
27,2,0.25,0.8451358033071539,1.0175873149507297
27,2,0.0,0.8260819653344034,2.9229711122257807
27,3,1.0,0.8553116764566612,0.0
27,3,0.75,0.8502745030050856,0.5037173451575616
27,3,0.5,0.8524083066346282,0.2903369822032986
27,3,0.25,0.8498906474836312,0.5421028973029984
27,3,0.0,0.8369775896462102,1.8334086810451011
27,4,1.0,0.8553116764566612,0.0
27,4,0.75,0.8457960779883105,0.9515598468350706
27,4,0.5,0.8285404359863764,2.6771240470284785
27,4,0.25,0.8208150640529258,3.449661240373536
27,4,0.0,0.8375856494666198,1.7726026990041333
27,5,1.0,0.8553116764566612,0.0
27,5,0.75,0.8184674072057718,3.684426925088935
27,5,0.5,0.8172856002981206,3.802607615854059
27,5,0.25,0.8258356805890378,2.9475995867623395
27,5,0.0,0.8491964788397773,0.6115197616883838
27,6,1.0,0.8553116764566612,0.0
27,6,0.75,0.864129656849149,-0.8817980392487823
27,6,0.5,0.8712214440740409,-1.5909767617379722
27,6,0.25,0.8715104300474025,-1.61987535907413
27,6,0.0,0.8694437782627581,-1.413210180609692
27,7,1.0,0.8553116764566612,0.0
27,7,0.75,0.8497075799091381,0.560409654752303
27,7,0.5,0.8509020414277098,0.44096350289514197
27,7,0.25,0.8577535989263656,-0.24419224697044273
27,7,0.0,0.8421444429051514,1.3167233551509727
27,8,1.0,0.8553116764566612,0.0
27,8,0.75,0.8611652759758831,-0.585359951922193
27,8,0.5,0.8653403395180839,-1.0028663061422693
27,8,0.25,0.8666696620253709,-1.1357985568709705
27,8,0.0,0.8689167455455141,-1.360506908885295
28,0,1.0,0.8426840793548686,0.0
28,0,0.75,0.8652506060542718,-2.256652669940329
28,0,0.5,0.872569838874398,-2.988575951952943
28,0,0.25,0.8646622543898366,-2.1978175034968017
28,0,0.0,0.8666477524322993,-2.3963673077430747
28,1,1.0,0.8426840793548686,0.0
28,1,0.75,0.8509311296992118,-0.8247050344343254
28,1,0.5,0.8575259787215872,-1.4841899366718647
28,1,0.25,0.8537673211041941,-1.1083241749325512
28,1,0.0,0.8568237519014282,-1.4139672546559678
28,2,1.0,0.8426840793548686,0.0
28,2,0.75,0.8414371526486386,0.1246926706229945
28,2,0.5,0.8410912246788113,0.1592854676057298
28,2,0.25,0.8441844652518355,-0.15003858969669936
28,2,0.0,0.8300683550822237,1.2615724272644901
28,3,1.0,0.8426840793548686,0.0
28,3,0.75,0.8518334074829872,-0.9149328128118639
28,3,0.5,0.8443023854755926,-0.16183061207240002
28,3,0.25,0.8259560267477624,1.6728052607106192
28,3,0.0,0.7837103854590068,5.897369389586171
28,4,1.0,0.8426840793548686,0.0
28,4,0.75,0.8275411080854629,1.514297126940567
28,4,0.5,0.8063889200958076,3.6295159259060905
28,4,0.25,0.803100882481083,3.958319687378553
28,4,0.0,0.8184880853354719,2.419599401939665
28,5,1.0,0.8426840793548686,0.0
28,5,0.75,0.7472406537088037,9.54434256460649
28,5,0.5,0.7079115212074423,13.477255814742628
28,5,0.25,0.697112727389723,14.557135196514558
28,5,0.0,0.7315401860487681,11.114389330610042
28,6,1.0,0.8426840793548686,0.0
28,6,0.75,0.8481135548531725,-0.5429475498303971
28,6,0.5,0.8418695553417775,0.08145240130910114
28,6,0.25,0.8344375528268195,0.8246526528049025
28,6,0.0,0.833594037592874,0.9090041761994572
28,7,1.0,0.8426840793548686,0.0
28,7,0.75,0.8535850258140755,-1.0900946459206917
28,7,0.5,0.847213257534895,-0.4529178180026405
28,7,0.25,0.8405293561081606,0.2154723246707957
28,7,0.0,0.832286527426856,1.0397551928012505
28,8,1.0,0.8426840793548686,0.0
28,8,0.75,0.8630830755088645,-2.0398996153995985
28,8,0.5,0.8696636726176921,-2.697959326282351
28,8,0.25,0.8621114557695281,-1.9427376414659525
28,8,0.0,0.8450912137847869,-0.2407134429918356
29,0,1.0,0.7289511453283908,0.0
29,0,0.75,0.7339000442595336,-0.4948898931142809
29,0,0.5,0.7347287981235536,-0.5777652795162846
29,0,0.25,0.727193401194851,0.17577441335397959
29,0,0.0,0.7158969702136405,1.3054175114750266
29,1,1.0,0.7289511453283908,0.0
29,1,0.75,0.7279183511349204,0.10327941934703544
29,1,0.5,0.7365348322085086,-0.758368688011779
29,1,0.25,0.7359847959680523,-0.7033650639661548
29,1,0.0,0.7279199893717758,0.10311559566149597
29,2,1.0,0.7289511453283908,0.0
29,2,0.75,0.7309168048093684,-0.19656594809775996
29,2,0.5,0.7332487606992499,-0.42976153708591536
29,2,0.25,0.7252484191659592,0.3702726162431613
29,2,0.0,0.7243765051035785,0.4574640224812243
29,3,1.0,0.7289511453283908,0.0
29,3,0.75,0.7333927420852613,-0.4441596756870503
29,3,0.5,0.735743707129569,-0.6792561801178265
29,3,0.25,0.7392975232036616,-1.0346377875270818
29,3,0.0,0.7483864693745441,-1.9435324046153335
29,4,1.0,0.7289511453283908,0.0
29,4,0.75,0.7078780542439224,2.107309108446842
29,4,0.5,0.6961944996228054,3.275664570558534
29,4,0.25,0.6824067084794437,4.654443684894705
29,4,0.0,0.67683439134514,5.211675398325077
29,5,1.0,0.7289511453283908,0.0
29,5,0.75,0.7161458779849398,1.2805267343451
29,5,0.5,0.7005403119564406,2.841083337195016
29,5,0.25,0.6990123957987389,2.993874952965192
29,5,0.0,0.69661563213626,3.2335513192130794
29,6,1.0,0.7289511453283908,0.0
29,6,0.75,0.7222181278675026,0.6733017460888169
29,6,0.5,0.7114766374262474,1.7474507902143332
29,6,0.25,0.7119407845542804,1.7010360774110334
29,6,0.0,0.7209592149405241,0.7991930387866719
29,7,1.0,0.7289511453283908,0.0
29,7,0.75,0.7233712943413593,0.5579850987031509
29,7,0.5,0.7187598094339832,1.0191335894407572
29,7,0.25,0.718739502297561,1.0211643030829776
29,7,0.0,0.7034675773125285,2.548356801586227
29,8,1.0,0.7289511453283908,0.0
29,8,0.75,0.7254882699723695,0.34628753560213
29,8,0.5,0.7256812767803182,0.3269868548072541
29,8,0.25,0.7056758205074144,2.3275324820976384
29,8,0.0,0.655607620772474,7.3343524555916755
30,0,1.0,0.8501702601690813,0.0
30,0,0.75,0.8458871328450934,0.4283127323987834
30,0,0.5,0.8468020332914273,0.33682268776539237
30,0,0.25,0.8443086761011264,0.5861584067954895
30,0,0.0,0.8498535078455292,0.031675232355210525
30,1,1.0,0.8501702601690813,0.0
30,1,0.75,0.8453127053618241,0.4857554807257136
30,1,0.5,0.8414852872161467,0.8684972952934578
30,1,0.25,0.8227198336929326,2.7450426476148704
30,1,0.0,0.8090349505398502,4.1135309629231065
30,2,1.0,0.8501702601690813,0.0
30,2,0.75,0.8543232008922065,-0.415294072312522
30,2,0.5,0.8528864006021749,-0.271614043309365
30,2,0.25,0.8587612347092681,-0.8590974540186869
30,2,0.0,0.8684689379312994,-1.8298677762218163
30,3,1.0,0.8501702601690813,0.0
30,3,0.75,0.8351652535368892,1.5005006632192064
30,3,0.5,0.8198451664065576,3.032509376252368
30,3,0.25,0.7973370915225101,5.283316864657117
30,3,0.0,0.7807200635892309,6.945019657985041
30,4,1.0,0.8501702601690813,0.0
30,4,0.75,0.8392591272631352,1.091113290594603
30,4,0.5,0.8278526365629816,2.231762360609968
30,4,0.25,0.823860953931725,2.630930623735628
30,4,0.0,0.8272699344121457,2.290032575693557
30,5,1.0,0.8501702601690813,0.0
30,5,0.75,0.8417063024237876,0.8463957745293627
30,5,0.5,0.8321059201962189,1.8064339972862387
30,5,0.25,0.8275954454564056,2.257481471267564
30,5,0.0,0.8422050627572346,0.7965197411846647
30,6,1.0,0.8501702601690813,0.0
30,6,0.75,0.8586207420168857,-0.8450481847804392
30,6,0.5,0.8629188213790502,-1.2748561209968923
30,6,0.25,0.8566880653953952,-0.6517805226313955
30,6,0.0,0.856937817735228,-0.6767557566146776
30,7,1.0,0.8501702601690813,0.0
30,7,0.75,0.849116748891726,0.10535112773553124
30,7,0.5,0.8249006422827891,2.5269617886292117
30,7,0.25,0.791497616972495,5.867264319658627
30,7,0.0,0.7944821990874622,5.568806108161906
30,8,1.0,0.8501702601690813,0.0
30,8,0.75,0.8584844683736848,-0.831420820460349
30,8,0.5,0.8486959082399519,0.14743519291293694
30,8,0.25,0.8559864402188717,-0.5816180049790454
30,8,0.0,0.8385107789869012,1.1659481182180076
31,0,1.0,0.8035858757424369,0.0
31,0,0.75,0.8048161360168795,-0.12302602744426183
31,0,0.5,0.7953058103322771,0.8280065410159798
31,0,0.25,0.7836282731194547,1.9957602622982185
31,0,0.0,0.7719025083529639,3.168336738947297
31,1,1.0,0.8035858757424369,0.0
31,1,0.75,0.7901869601406021,1.3398915601834815
31,1,0.5,0.7852044612611385,1.8381414481298375
31,1,0.25,0.7823068062136617,2.127906952877523
31,1,0.0,0.7855249311655774,1.8060944576859472
31,2,1.0,0.8035858757424369,0.0
31,2,0.75,0.7941301807203126,0.9455695022124289
31,2,0.5,0.7886290751650619,1.495680057737503
31,2,0.25,0.7861983305732981,1.7387545169138763
31,2,0.0,0.7820359265940853,2.154994914835162
31,3,1.0,0.8035858757424369,0.0
31,3,0.75,0.8151184821139221,-1.1532606371485232
31,3,0.5,0.804063894222961,-0.047801848052408946
31,3,0.25,0.7991320022324159,0.44538735100210225
31,3,0.0,0.7890556077958918,1.4530267946545106
31,4,1.0,0.8035858757424369,0.0
31,4,0.75,0.7994318430837117,0.41540326587251597
31,4,0.5,0.7875717155240184,1.6014160218418505
31,4,0.25,0.7720708898822536,3.151498586018331
31,4,0.0,0.78736908998621,1.621678575622687
31,5,1.0,0.8035858757424369,0.0
31,5,0.75,0.7976450782333135,0.5940797509123352
31,5,0.5,0.7991867439333037,0.43991318091332055
31,5,0.25,0.7950729689507989,0.8512906791637964
31,5,0.0,0.7788821964299139,2.470367931252304
31,6,1.0,0.8035858757424369,0.0
31,6,0.75,0.811516679907051,-0.7930804164614114
31,6,0.5,0.8094327109781171,-0.5846835235680192
31,6,0.25,0.8178990413505175,-1.4313165608080602
31,6,0.0,0.8082182853538358,-0.463240961139888
31,7,1.0,0.8035858757424369,0.0
31,7,0.75,0.7929728287201504,1.0613047022286493
31,7,0.5,0.7878068473154538,1.5779028426983088
31,7,0.25,0.779601038282375,2.398483746006186
31,7,0.0,0.7653547044021054,3.8231171340331493
31,8,1.0,0.8035858757424369,0.0
31,8,0.75,0.7996799295044377,0.3905946237999225
31,8,0.5,0.7817827613759566,2.1803114366480303
31,8,0.25,0.7730937660087853,3.0492109733651573
31,8,0.0,0.7605406287418418,4.304524700059509
32,0,1.0,0.8201534656751143,0.0
32,0,0.75,0.8283992808903107,-0.8245815215196406
32,0,0.5,0.8283659502130313,-0.8212484537917009
32,0,0.25,0.8164650694464578,0.36883962286564653
32,0,0.0,0.804200411859377,1.5953053815737306
32,1,1.0,0.8201534656751143,0.0
32,1,0.75,0.828164757073697,-0.8011291398582698
32,1,0.5,0.8231169808469785,-0.2963515171864217
32,1,0.25,0.8145642531818651,0.5589212493249174
32,1,0.0,0.8029749983221536,1.7178467352960691
32,2,1.0,0.8201534656751143,0.0
32,2,0.75,0.8108779252513509,0.9275540423763329
32,2,0.5,0.8137735311074831,0.6379934567631196
32,2,0.25,0.8092098640079912,1.0943601667123048
32,2,0.0,0.804006182436763,1.614728323835124
32,3,1.0,0.8201534656751143,0.0
32,3,0.75,0.8138573328768348,0.6296132798279452
32,3,0.5,0.824093464593239,-0.39399989181246875
32,3,0.25,0.8178359006086205,0.23175650664937208
32,3,0.0,0.8115257138847496,0.8627751790364679
32,4,1.0,0.8201534656751143,0.0
32,4,0.75,0.803171678598301,1.6981787076813304
32,4,0.5,0.8034262261953882,1.6727239479726097
32,4,0.25,0.8058558441970691,1.4297621478045142
32,4,0.0,0.8112687885220411,0.8884677153073173
32,5,1.0,0.8201534656751143,0.0
32,5,0.75,0.8184897349262761,0.1663730748838188
32,5,0.5,0.7921886786707737,2.7964787004340574
32,5,0.25,0.8230865188715081,-0.2933053196393809
32,5,0.0,0.8226821548165245,-0.2528689141410245
32,6,1.0,0.8201534656751143,0.0
32,6,0.75,0.8204112006573885,-0.025773498227421587
32,6,0.5,0.8246092471945274,-0.4455781519413171
32,6,0.25,0.8243331678271546,-0.4179702152040332
32,6,0.0,0.8197358909588428,0.04175747162714627
32,7,1.0,0.8201534656751143,0.0
32,7,0.75,0.8142173824826424,0.5936083192471853
32,7,0.5,0.8017907151800983,1.8362750495016011
32,7,0.25,0.7928266064271119,2.7326859248002378
32,7,0.0,0.7689308846410965,5.122258103401778
32,8,1.0,0.8201534656751143,0.0
32,8,0.75,0.8356562113860201,-1.5502745710905819
32,8,0.5,0.8388037076210971,-1.865024194598286
32,8,0.25,0.8473241336085036,-2.717066793338929
32,8,0.0,0.8454063666196926,-2.5252900944578327
33,0,1.0,0.8809237175717893,0.0
33,0,0.75,0.8810310882022306,-0.01073706304413058
33,0,0.5,0.8806859393710569,0.02377782007324525
33,0,0.25,0.8722948717599865,0.8628845811802788
33,0,0.0,0.8421861175890236,3.8737599982765714
33,1,1.0,0.8809237175717893,0.0
33,1,0.75,0.8805341993149474,0.03895182568419697
33,1,0.5,0.8723050714011789,0.8618646170610478
33,1,0.25,0.8688303844666094,1.2093333105179904
33,1,0.0,0.8733296540694444,0.7594063502344928
33,2,1.0,0.8809237175717893,0.0
33,2,0.75,0.8757056925604061,0.5218025011383243
33,2,0.5,0.8700986721734699,1.082504539831941
33,2,0.25,0.8715201933616255,0.9403524210163883
33,2,0.0,0.8585055295111281,2.2418188060661204
33,3,1.0,0.8809237175717893,0.0
33,3,0.75,0.8749386476094551,0.5985069962334277
33,3,0.5,0.8688980673461917,1.202565022559765
33,3,0.25,0.8640286480161288,1.6895069555660558
33,3,0.0,0.8582541992936157,2.266951827817365
33,4,1.0,0.8809237175717893,0.0
33,4,0.75,0.8834773024990998,-0.2553584927310504
33,4,0.5,0.8847062727220267,-0.3782555150237399
33,4,0.25,0.8746628759814817,0.6260841590307598
33,4,0.0,0.888767675469358,-0.7843957897568643
33,5,1.0,0.8809237175717893,0.0
33,5,0.75,0.8707949035574396,1.012881401434973
33,5,0.5,0.8701634901181811,1.0760227453608273
33,5,0.25,0.8661793974734804,1.474432009830895
33,5,0.0,0.8654714184618648,1.5452299109924517
33,6,1.0,0.8809237175717893,0.0
33,6,0.75,0.874961234229866,0.5962483341923286
33,6,0.5,0.8658661249143196,1.5057592657469754
33,6,0.25,0.8497551428466736,3.1168574725115694
33,6,0.0,0.8439253839086495,3.699833366313987
33,7,1.0,0.8809237175717893,0.0
33,7,0.75,0.8748579063732517,0.6065811198537663
33,7,0.5,0.8703845914296904,1.0539126142098953
33,7,0.25,0.8605837801489975,2.033993742279183
33,7,0.0,0.8315266461448825,4.939707142690686
33,8,1.0,0.8809237175717893,0.0
33,8,0.75,0.8755419744941797,0.5381743077609635
33,8,0.5,0.8727940503031788,0.812966726861053
33,8,0.25,0.8707823644466393,1.0141353125150077
33,8,0.0,0.8682740461957822,1.2649671376007143
34,0,1.0,0.8836056993201686,0.0
34,0,0.75,0.8867942176789656,-0.31885183587969657
34,0,0.5,0.8974174693037277,-1.3811769983559041
34,0,0.25,0.8906005244194072,-0.6994825099238544
34,0,0.0,0.8862992047305863,-0.2693505410417685
34,1,1.0,0.8836056993201686,0.0
34,1,0.75,0.8813009767842632,0.23047225359054124
34,1,0.5,0.8821966377603253,0.14090615598433276
34,1,0.25,0.8818138789672562,0.17918203529124765
34,1,0.0,0.8845730533962106,-0.09673540760419819
34,2,1.0,0.8836056993201686,0.0
34,2,0.75,0.8850229912054279,-0.14172918852592975
34,2,0.5,0.8881203007518796,-0.4514601431711007
34,2,0.25,0.8887265298076228,-0.5120830487454153
34,2,0.0,0.8842349253835609,-0.06292260633922186
34,3,1.0,0.8836056993201686,0.0
34,3,0.75,0.8808547810330175,0.27509182871511273
34,3,0.5,0.8724229272367912,1.118277208337748
34,3,0.25,0.850294533864342,3.3311165455826686
34,3,0.0,0.8384011214036367,4.5204577916531985
34,4,1.0,0.8836056993201686,0.0
34,4,0.75,0.8887198930450166,-0.5114193724848004
34,4,0.5,0.8929117374533759,-0.9306038133207295
34,4,0.25,0.88308628746867,0.0519411851498619
34,4,0.0,0.8756125789614811,0.7993120358687489
34,5,1.0,0.8836056993201686,0.0
34,5,0.75,0.8811529049071956,0.24527944129730805
34,5,0.5,0.8829579653133884,0.06477340067801984
34,5,0.25,0.8817686299098304,0.18370694103382323
34,5,0.0,0.8701860833570431,1.3419615963125575
34,6,1.0,0.8836056993201686,0.0
34,6,0.75,0.8845522188433044,-0.0946519523135736
34,6,0.5,0.8704684330855523,1.3137266234616307
34,6,0.25,0.8761301528709783,0.7475546449190351
34,6,0.0,0.8859887775993748,-0.2383078279206141
34,7,1.0,0.8836056993201686,0.0
34,7,0.75,0.8747103075982806,0.8895391721888024
34,7,0.5,0.8773478311750638,0.6257868145104872
34,7,0.25,0.884377293016999,-0.07715936968303305
34,7,0.0,0.8719580342870782,1.1647665033090449
34,8,1.0,0.8836056993201686,0.0
34,8,0.75,0.8773634837562949,0.6242215563873721
34,8,0.5,0.8773634837562949,0.6242215563873721
34,8,0.25,0.8773624102899069,0.6243289030261723
34,8,0.0,0.874732753820969,0.8872945499199592
35,0,1.0,0.7107202506735217,0.0
35,0,0.75,0.7080080641369543,0.27121865365674624
35,0,0.5,0.7054935985063714,0.5226652167150347
35,0,0.25,0.6957874861234323,1.4932764550089406
35,0,0.0,0.6919788209261893,1.8741429747332394
35,1,1.0,0.7107202506735217,0.0
35,1,0.75,0.7098131358362507,0.0907114837271017
35,1,0.5,0.706002909366171,0.47173413073506865
35,1,0.25,0.6987694001572989,1.19508505162228
35,1,0.0,0.6959127806257288,1.4807470047792926
35,2,1.0,0.7107202506735217,0.0
35,2,0.75,0.7085166688988422,0.22035817746794972
35,2,0.5,0.7108957558801201,-0.017550520659836977
35,2,0.25,0.7103926166426167,0.03276340309050774
35,2,0.0,0.7008053139852839,0.9914936688237841
35,3,1.0,0.7107202506735217,0.0
35,3,0.75,0.7099203248971999,0.07999257763218193
35,3,0.5,0.7158834980533094,-0.5163247379787683
35,3,0.25,0.7012378670048374,0.9482383668684369
35,3,0.0,0.6994843003310143,1.1235950342507461
35,4,1.0,0.7107202506735217,0.0
35,4,0.75,0.714300783172131,-0.35805324986092346
35,4,0.5,0.7125428210064697,-0.18225703329479703
35,4,0.25,0.715303906538718,-0.4583655865196268
35,4,0.0,0.7081906341426323,0.2529616530889456
35,5,1.0,0.7107202506735217,0.0
35,5,0.75,0.7068204365346611,0.38998141388606467
35,5,0.5,0.7031397696598098,0.7580481013711893
35,5,0.25,0.7014091189300633,0.9311131743458434
35,5,0.0,0.6999098696156192,1.0810381057902552
35,6,1.0,0.7107202506735217,0.0
35,6,0.75,0.7136468787888592,-0.2926628115337504
35,6,0.5,0.7157660423656593,-0.5045791692137591
35,6,0.25,0.7130422407017385,-0.23219900282167583
35,6,0.0,0.7144781052228746,-0.3757854549352846
35,7,1.0,0.7107202506735217,0.0
35,7,0.75,0.7103247682696705,0.03954824038512328
35,7,0.5,0.709204558883696,0.15156917898256905
35,7,0.25,0.7018200594149961,0.8900191258525592
35,7,0.0,0.6989489398036058,1.1771310869915896
35,8,1.0,0.7107202506735217,0.0
35,8,0.75,0.7002950314573652,1.0425219216156578
35,8,0.5,0.6965137801143952,1.4206470559126494
35,8,0.25,0.6972998931341801,1.3420357539341676
35,8,0.0,0.697401966420121,1.3318284253400758
36,0,1.0,0.7458005100862244,0.0
36,0,0.75,0.7334760955397148,1.2324414546509566
36,0,0.5,0.7366387721688026,0.9161737917421808
36,0,0.25,0.7506410495991096,-0.48405395128852113
36,0,0.0,0.7499860535009572,-0.4185543414732762
36,1,1.0,0.7458005100862244,0.0
36,1,0.75,0.7473413225405257,-0.15408124543012658
36,1,0.5,0.7370834500099277,0.871706007629669
36,1,0.25,0.7245733773784264,2.122713270779797
36,1,0.0,0.7051664672041584,4.063404288206596
36,2,1.0,0.7458005100862244,0.0
36,2,0.75,0.7233433572079815,2.2457152878242903
36,2,0.5,0.7083875494260948,3.7412960660129557
36,2,0.25,0.6987693468650412,4.703116322118317
36,2,0.0,0.6770241847919207,6.877632529430366
36,3,1.0,0.7458005100862244,0.0
36,3,0.75,0.7250481371188523,2.075237296737209
36,3,0.5,0.722775126964513,2.302538312171143
36,3,0.25,0.7105870643530408,3.5213445733183635
36,3,0.0,0.6886512448091201,5.714926527710428
36,4,1.0,0.7458005100862244,0.0
36,4,0.75,0.7285597801860502,1.7240729900174223
36,4,0.5,0.7114629089730439,3.4337601113180516
36,4,0.25,0.7268934531450577,1.8907056941166678
36,4,0.0,0.7209982533335165,2.4802256752707863
36,5,1.0,0.7458005100862244,0.0
36,5,0.75,0.7594819242194122,-1.3681414133187797
36,5,0.5,0.7672647477309664,-2.1464237644742035
36,5,0.25,0.761829342448525,-1.6028832362300571
36,5,0.0,0.7784086563797938,-3.260814629356945
36,6,1.0,0.7458005100862244,0.0
36,6,0.75,0.7421359826933621,0.3664527392862271
36,6,0.5,0.7333489665087606,1.2451543577463808
36,6,0.25,0.7286378752150855,1.7162634871138893
36,6,0.0,0.7328220724807806,1.2978437605443816
36,7,1.0,0.7458005100862244,0.0
36,7,0.75,0.746231108772804,-0.04305986865795752
36,7,0.5,0.7322545095992111,1.3546000487013266
36,7,0.25,0.7118233897746487,3.3977120311575737
36,7,0.0,0.7001745399037219,4.562597018250248
36,8,1.0,0.7458005100862244,0.0
36,8,0.75,0.7227752477188343,2.302526236739011
36,8,0.5,0.7063911297113792,3.9409380374845204
36,8,0.25,0.6833482872595957,6.245222282662866
36,8,0.0,0.6685390745213778,7.726143556484654
37,0,1.0,0.8347626329440438,0.0
37,0,0.75,0.837678144990544,-0.29155120465002016
37,0,0.5,0.8436914360213027,-0.8928803077258851
37,0,0.25,0.829456261292632,0.5306371651411901
37,0,0.0,0.8170444946987113,1.7718138245332526
37,1,1.0,0.8347626329440438,0.0
37,1,0.75,0.8268728190141978,0.7889813929846001
37,1,0.5,0.817020327657755,1.774230528628884
37,1,0.25,0.8081479956862979,2.6614637257745932
37,1,0.0,0.8114387155878093,2.3323917356234514
37,2,1.0,0.8347626329440438,0.0
37,2,0.75,0.8320998541877669,0.2662778756276962
37,2,0.5,0.821274848779312,1.3487784164731842
37,2,0.25,0.8153318047316533,1.9430828212390505
37,2,0.0,0.7892750328885296,4.548760005551422
37,3,1.0,0.8347626329440438,0.0
37,3,0.75,0.8366038614322368,-0.1841228488192903
37,3,0.5,0.8356926924459598,-0.09300595019159363
37,3,0.25,0.8186616624017953,1.6100970542248572
37,3,0.0,0.80989520628777,2.486742665627384
37,4,1.0,0.8347626329440438,0.0
37,4,0.75,0.8268021906032277,0.7960442340816165
37,4,0.5,0.8096817254589521,2.508090748509173
37,4,0.25,0.8202126414601505,1.4549991483893354
37,4,0.0,0.8106664299913121,2.409620295273174
37,5,1.0,0.8347626329440438,0.0
37,5,0.75,0.8302949013716758,0.44677315723680167
37,5,0.5,0.8481890534337322,-1.342642048968834
37,5,0.25,0.8454145247808582,-1.0651891836814364
37,5,0.0,0.8481898948281792,-1.3427261884135344
37,6,1.0,0.8347626329440438,0.0
37,6,0.75,0.8255355733947827,0.9227059549261174
37,6,0.5,0.824001191003142,1.0761441940901895
37,6,0.25,0.8191356436446513,1.5626989299392546
37,6,0.0,0.8191506615450277,1.5611971399016156
37,7,1.0,0.8347626329440438,0.0
37,7,0.75,0.827192019847683,0.7570613096360868
37,7,0.5,0.7988390148413458,3.5923618102698063
37,7,0.25,0.7860467186768527,4.871591426719113
37,7,0.0,0.7686205103350403,6.614212260900354
37,8,1.0,0.8347626329440438,0.0
37,8,0.75,0.8376989301842596,-0.2936297240215713
37,8,0.5,0.8203050937887082,1.4457539155335652
37,8,0.25,0.810513373485034,2.4249259459009798
37,8,0.0,0.8018575804583108,3.2905052485733055
38,0,1.0,0.7990260748461835,0.0
38,0,0.75,0.7932565852739948,0.5769489572188702
38,0,0.5,0.7480032203256765,5.102285452050703
38,0,0.25,0.7442437640534526,5.478231079273089
38,0,0.0,0.7361475729851576,6.287850186102584
38,1,1.0,0.7990260748461835,0.0
38,1,0.75,0.8095649821926352,-1.0538907346451687
38,1,0.5,0.805904991080721,-0.6878916234537513
38,1,0.25,0.7926543224017844,0.6371752444399137
38,1,0.0,0.7857530819525023,1.3272992893681224
38,2,1.0,0.7990260748461835,0.0
38,2,0.75,0.8087638423988556,-0.9737767552672083
38,2,0.5,0.8191441681419798,-2.011809329579628
38,2,0.25,0.8148170576434565,-1.5790982797272979
38,2,0.0,0.7981922881792751,0.08337866669083649
38,3,1.0,0.7990260748461835,0.0
38,3,0.75,0.8183534825694985,-1.9327407723314982
38,3,0.5,0.8247361029112428,-2.5710028065059287
38,3,0.25,0.8220136444674488,-2.298756962126536
38,3,0.0,0.8067622854574922,-0.7736210611308691
38,4,1.0,0.7990260748461835,0.0
38,4,0.75,0.7946194670280036,0.44066078181799195
38,4,0.5,0.794671449561132,0.4354625285051483
38,4,0.25,0.7894750125464782,0.955106229970526
38,4,0.0,0.7841737377746539,1.4852337071529553
38,5,1.0,0.7990260748461835,0.0
38,5,0.75,0.7988824627921454,0.01436120540381225
38,5,0.5,0.7836583335607328,1.536774128545071
38,5,0.25,0.7764459292265946,2.2580145619588876
38,5,0.0,0.7805536815079148,1.8472393338268667
38,6,1.0,0.7990260748461835,0.0
38,6,0.75,0.8022694712387828,-0.3243396392599296
38,6,0.5,0.7850915890565147,1.3934485789668827
38,6,0.25,0.7771208574363097,2.1905217409873834
38,6,0.0,0.7621716997093194,3.685437513686407
38,7,1.0,0.7990260748461835,0.0
38,7,0.75,0.8051054026414408,-0.6079327795257328
38,7,0.5,0.792673104047189,0.635297079899444
38,7,0.25,0.7666266381501092,3.2399436696074257
38,7,0.0,0.7471253987409424,5.190067610524107
38,8,1.0,0.7990260748461835,0.0
38,8,0.75,0.8055250745365828,-0.6498999690399354
38,8,0.5,0.8057630115556023,-0.6736936709418773
38,8,0.25,0.8004738917710221,-0.14478169248386408
38,8,0.0,0.7967217813856594,0.2304293460524076
39,0,1.0,0.7925861974954352,0.0
39,0,0.75,0.7889476587985691,0.3638538696866145
39,0,0.5,0.7790435093972572,1.3542688098178046
39,0,0.25,0.7763655063562991,1.6220691139136156
39,0,0.0,0.7635141794580369,2.907201803739834
39,1,1.0,0.7925861974954352,0.0
39,1,0.75,0.7897267550227646,0.285944247267067
39,1,0.5,0.7823314972637081,1.0254700231727143
39,1,0.25,0.7805030980957853,1.208309939964991
39,1,0.0,0.7774876364415892,1.5098561053845994
39,2,1.0,0.7925861974954352,0.0
39,2,0.75,0.8064136570801267,-1.3827459584691448
39,2,0.5,0.8069006759620562,-1.4314478466620928
39,2,0.25,0.7988120053343253,-0.6225807838890041
39,2,0.0,0.7933997707231524,-0.08135732277171348
39,3,1.0,0.7925861974954352,0.0
39,3,0.75,0.7768049745297247,1.5781222965710495
39,3,0.5,0.7476420319484183,4.494416554701697
39,3,0.25,0.7291200132489557,6.346618424647954
39,3,0.0,0.6984613915496268,9.412480594580842
39,4,1.0,0.7925861974954352,0.0
39,4,0.75,0.7803330607898428,1.2253136705592471
39,4,0.5,0.76623802199795,2.634817549748525
39,4,0.25,0.7539121309782836,3.867406651715166
39,4,0.0,0.7468058051154254,4.578039238000986
39,5,1.0,0.7925861974954352,0.0
39,5,0.75,0.7960380223043009,-0.34518248088656334
39,5,0.5,0.8089779712836627,-1.6391773788227426
39,5,0.25,0.8096890469057043,-1.7102849410269072
39,5,0.0,0.7936440042954127,-0.10578067999774676
39,6,1.0,0.7925861974954352,0.0
39,6,0.75,0.7940816527287107,-0.14954552332754334
39,6,0.5,0.7828588745248073,0.972732297062795
39,6,0.25,0.7787996554554025,1.3786542040032712
39,6,0.0,0.7844158395381498,0.817035795728549
39,7,1.0,0.7925861974954352,0.0
39,7,0.75,0.7887558947254992,0.38303027699360115
39,7,0.5,0.7967988250123796,-0.42126275169444005
39,7,0.25,0.7943854904452448,-0.17992929498095167
39,7,0.0,0.7907377856889853,0.1848411806449901
39,8,1.0,0.7925861974954352,0.0
39,8,0.75,0.7990213936907025,-0.6435196195267223
39,8,0.5,0.8123921160700176,-1.980591857458236
39,8,0.25,0.812563760728535,-1.9977563233099738
39,8,0.0,0.8082092800702847,-1.5623082574849456
40,0,1.0,0.8155439626421862,0.0
40,0,0.75,0.8276281918147306,-1.208422917254437
40,0,0.5,0.8157294318584641,-0.018546921627793367
40,0,0.25,0.8162061388287983,-0.0662176186612129
40,0,0.0,0.8050422578823702,1.0501704759816044
40,1,1.0,0.8155439626421862,0.0
40,1,0.75,0.8259352686701792,-1.0391306027992986
40,1,0.5,0.8033623120071991,1.2181650634987107
40,1,0.25,0.7948193921723996,2.0724570469786596
40,1,0.0,0.8067601986426226,0.8783763999563599
40,2,1.0,0.8155439626421862,0.0
40,2,0.75,0.8345625983873293,-1.9018635745143064
40,2,0.5,0.8440208149283491,-2.8476852286162924
40,2,0.25,0.843495356674508,-2.795139403232183
40,2,0.0,0.8584897133135733,-4.294575067138706
40,3,1.0,0.8155439626421862,0.0
40,3,0.75,0.8145155576186481,0.10284050235380704
40,3,0.5,0.8248310923747495,-0.9287129732563293
40,3,0.25,0.8435283085205549,-2.7984345878368733
40,3,0.0,0.816160293034356,-0.06163303921697949
40,4,1.0,0.8155439626421862,0.0
40,4,0.75,0.8107209224235674,0.48230402186187904
40,4,0.5,0.8146322474553405,0.09117151868457407
40,4,0.25,0.8092050798217728,0.6338882820413394
40,4,0.0,0.8304708584126642,-1.492689577047801
40,5,1.0,0.8155439626421862,0.0
40,5,0.75,0.8314891462582932,-1.5945183616106973
40,5,0.5,0.8286878728667832,-1.3143910224597044
40,5,0.25,0.8312198371336518,-1.567587449146557
40,5,0.0,0.8202865107242987,-0.47425480821124966
40,6,1.0,0.8155439626421862,0.0
40,6,0.75,0.8278969416816988,-1.2352979039512602
40,6,0.5,0.8270584975147309,-1.1514534872544724
40,6,0.25,0.8188775110979195,-0.3333548455733304
40,6,0.0,0.8132076007848047,0.23363618573815081
40,7,1.0,0.8155439626421862,0.0
40,7,0.75,0.8099661451068675,0.5577817535318719
40,7,0.5,0.8039121229537767,1.1631839688409529
40,7,0.25,0.7935432690853219,2.2000693556864293
40,7,0.0,0.789932488801945,2.5611473840241206
40,8,1.0,0.8155439626421862,0.0
40,8,0.75,0.82599475837796,-1.0450795735773788
40,8,0.5,0.8164158068869444,-0.08718442447581687
40,8,0.25,0.809585942994387,0.5958019647799184
40,8,0.0,0.7828189206203857,3.272504202180049
