subject,block,block_width,feature_channel,gate_mean,gate_sd
1,0,32,0,0.5458301305770874,0.09509866684675217
1,0,32,1,0.45915937423706055,0.0850873589515686
1,0,32,2,0.40362420678138733,0.08567273616790771
1,0,32,3,0.36978796124458313,0.09015996009111404
1,0,32,4,0.5162389874458313,0.05005880445241928
1,0,32,5,0.4604995548725128,0.09193006902933121
1,0,32,6,0.5630994439125061,0.058891382068395615
1,0,32,7,0.3928862512111664,0.08058450371026993
1,0,32,8,0.4850577116012573,0.05512708052992821
1,0,32,9,0.46315932273864746,0.10750160366296768
1,0,32,10,0.5406939387321472,0.09255538880825043
1,0,32,11,0.42815497517585754,0.03834153339266777
1,0,32,12,0.4975478947162628,0.038721147924661636
1,0,32,13,0.32508623600006104,0.05021219700574875
1,0,32,14,0.48089462518692017,0.09202542155981064
1,0,32,15,0.4691201150417328,0.052193533629179
1,0,32,16,0.4276255667209625,0.04907481372356415
1,0,32,17,0.48949575424194336,0.09287197887897491
1,0,32,18,0.5085884928703308,0.08840296417474747
1,0,32,19,0.423552542924881,0.050138089805841446
1,0,32,20,0.44219493865966797,0.06008397415280342
1,0,32,21,0.4774201214313507,0.09357369691133499
1,0,32,22,0.47777268290519714,0.05971146374940872
1,0,32,23,0.3826046288013458,0.06187496334314346
1,0,32,24,0.6260398030281067,0.025526132434606552
1,0,32,25,0.38026919960975647,0.0637664720416069
1,0,32,26,0.5665357708930969,0.0612323060631752
1,0,32,27,0.4874211847782135,0.019180867820978165
1,0,32,28,0.4161057770252228,0.02178981713950634
1,0,32,29,0.3892832398414612,0.08360131829977036
1,0,32,30,0.5512019395828247,0.05015113204717636
1,0,32,31,0.5015300512313843,0.07117608934640884
1,1,32,0,0.5682204365730286,0.03868081420660019
1,1,32,1,0.4789471924304962,0.0382748581469059
1,1,32,2,0.6229884624481201,0.04622448980808258
1,1,32,3,0.4390213191509247,0.04597311094403267
1,1,32,4,0.5128908753395081,0.0518081933259964
1,1,32,5,0.5409397482872009,0.027386320754885674
1,1,32,6,0.52420973777771,0.0361175499856472
1,1,32,7,0.5820948481559753,0.01975962147116661
1,1,32,8,0.4369758367538452,0.043789077550172806
1,1,32,9,0.5241415500640869,0.051337648183107376
1,1,32,10,0.5150162577629089,0.0630175769329071
1,1,32,11,0.3993111848831177,0.03400074318051338
1,1,32,12,0.35932958126068115,0.0386868491768837
1,1,32,13,0.5515140891075134,0.048524606972932816
1,1,32,14,0.41755393147468567,0.049613162875175476
1,1,32,15,0.60211181640625,0.0331127792596817
1,1,32,16,0.4418041408061981,0.035765115171670914
1,1,32,17,0.5676343441009521,0.04542137682437897
1,1,32,18,0.40972900390625,0.031021427363157272
1,1,32,19,0.35685330629348755,0.04401089996099472
1,1,32,20,0.6166979670524597,0.03464668244123459
1,1,32,21,0.6177586913108826,0.020565999671816826
1,1,32,22,0.40984493494033813,0.045800454914569855
1,1,32,23,0.5546332001686096,0.04924438148736954
1,1,32,24,0.5010592937469482,0.044772665947675705
1,1,32,25,0.5000275373458862,0.05522776022553444
1,1,32,26,0.6065869331359863,0.058809056878089905
1,1,32,27,0.5281462669372559,0.051548250019550323
1,1,32,28,0.38312816619873047,0.06087041646242142
1,1,32,29,0.5037049055099487,0.055606815963983536
1,1,32,30,0.6102413535118103,0.028595570474863052
1,1,32,31,0.5742608904838562,0.03757870942354202
1,2,64,0,0.5325796604156494,0.04642486199736595
1,2,64,1,0.4660986363887787,0.04105532169342041
1,2,64,2,0.5290587544441223,0.03744970262050629
1,2,64,3,0.43435704708099365,0.05987910181283951
1,2,64,4,0.46672388911247253,0.04537190869450569
1,2,64,5,0.4720059037208557,0.03502967581152916
1,2,64,6,0.3582387864589691,0.05149850621819496
1,2,64,7,0.4896863102912903,0.038117654621601105
1,2,64,8,0.5544071197509766,0.05264513939619064
1,2,64,9,0.5126523971557617,0.056303173303604126
1,2,64,10,0.5251356363296509,0.052622515708208084
1,2,64,11,0.5302008390426636,0.05946933105587959
1,2,64,12,0.5150109529495239,0.030704930424690247
1,2,64,13,0.4765133261680603,0.04867618903517723
1,2,64,14,0.5084397792816162,0.01356838084757328
1,2,64,15,0.4856155216693878,0.043559104204177856
1,2,64,16,0.5539353489875793,0.033705443143844604
1,2,64,17,0.5264203548431396,0.029171574860811234
1,2,64,18,0.4275692403316498,0.02305733412504196
1,2,64,19,0.4208633601665497,0.04671890288591385
1,2,64,20,0.4767228662967682,0.08677360415458679
1,2,64,21,0.42376142740249634,0.03910252824425697
1,2,64,22,0.5088184475898743,0.03793537989258766
1,2,64,23,0.43880346417427063,0.048090241849422455
1,2,64,24,0.4578059911727905,0.08256182074546814
1,2,64,25,0.4633500576019287,0.0702706128358841
1,2,64,26,0.5182154774665833,0.05813790485262871
1,2,64,27,0.38905462622642517,0.022493770346045494
1,2,64,28,0.5581682920455933,0.05340046063065529
1,2,64,29,0.4369190037250519,0.07015732675790787
1,2,64,30,0.4636894762516022,0.06136823818087578
1,2,64,31,0.555972695350647,0.05405417084693909
1,2,64,32,0.534298837184906,0.026252388954162598
1,2,64,33,0.5685091614723206,0.033076249063014984
1,2,64,34,0.5776112675666809,0.090194933116436
1,2,64,35,0.4161927103996277,0.04417918622493744
1,2,64,36,0.5660057663917542,0.04374677687883377
1,2,64,37,0.5547508001327515,0.035511694848537445
1,2,64,38,0.44722214341163635,0.0460125207901001
1,2,64,39,0.5752695202827454,0.030684692785143852
1,2,64,40,0.5102781653404236,0.03342054784297943
1,2,64,41,0.4750809073448181,0.04883233830332756
1,2,64,42,0.6194238066673279,0.05551760643720627
1,2,64,43,0.4062296450138092,0.035388581454753876
1,2,64,44,0.5018896460533142,0.031934794038534164
1,2,64,45,0.6002491116523743,0.041583869606256485
1,2,64,46,0.5250051021575928,0.015966316685080528
1,2,64,47,0.5001369118690491,0.07028050720691681
1,2,64,48,0.5748882293701172,0.06915496289730072
1,2,64,49,0.46974822878837585,0.025052813813090324
1,2,64,50,0.46814805269241333,0.047909874469041824
1,2,64,51,0.4472585618495941,0.04156506434082985
1,2,64,52,0.454670786857605,0.02195926569402218
1,2,64,53,0.5706683397293091,0.039051808416843414
1,2,64,54,0.5690029263496399,0.03098088875412941
1,2,64,55,0.4633190333843231,0.03435329720377922
1,2,64,56,0.4482431709766388,0.04193796589970589
1,2,64,57,0.3464961051940918,0.058798898011446
1,2,64,58,0.48288875818252563,0.03080892749130726
1,2,64,59,0.5379485487937927,0.05730019509792328
1,2,64,60,0.5449227094650269,0.04650161787867546
1,2,64,61,0.4597558081150055,0.042678434401750565
1,2,64,62,0.5210692286491394,0.055277206003665924
1,2,64,63,0.5456885695457458,0.056461554020643234
1,3,64,0,0.5652632117271423,0.03872496262192726
1,3,64,1,0.5958321690559387,0.10651574283838272
1,3,64,2,0.6068689823150635,0.047567058354616165
1,3,64,3,0.56134432554245,0.046136703342199326
1,3,64,4,0.498154878616333,0.060472048819065094
1,3,64,5,0.4662076234817505,0.05184841528534889
1,3,64,6,0.5953492522239685,0.04269956052303314
1,3,64,7,0.560269832611084,0.06727448850870132
1,3,64,8,0.4444936513900757,0.051807742565870285
1,3,64,9,0.6371663212776184,0.08163487166166306
1,3,64,10,0.5038243532180786,0.10493868589401245
1,3,64,11,0.518560528755188,0.049031052738428116
1,3,64,12,0.41925662755966187,0.06722152978181839
1,3,64,13,0.6326975226402283,0.07190285623073578
1,3,64,14,0.5349296927452087,0.053891297429800034
1,3,64,15,0.5022307634353638,0.09444712102413177
1,3,64,16,0.46477997303009033,0.030995778739452362
1,3,64,17,0.5712627172470093,0.08683358877897263
1,3,64,18,0.6142873764038086,0.058558739721775055
1,3,64,19,0.4696187376976013,0.0462149903178215
1,3,64,20,0.5436438918113708,0.042422376573085785
1,3,64,21,0.5175318121910095,0.08889304101467133
1,3,64,22,0.5040439367294312,0.031711041927337646
1,3,64,23,0.47946104407310486,0.04753827303647995
1,3,64,24,0.6046383380889893,0.06603659689426422
1,3,64,25,0.47492486238479614,0.07508683949708939
1,3,64,26,0.42050233483314514,0.0830312967300415
1,3,64,27,0.6026039719581604,0.0482635460793972
1,3,64,28,0.5369073152542114,0.07760757207870483
1,3,64,29,0.5121049284934998,0.06865399330854416
1,3,64,30,0.45899152755737305,0.06659839302301407
1,3,64,31,0.5588523149490356,0.09253690391778946
1,3,64,32,0.5687148571014404,0.07750139385461807
1,3,64,33,0.5496005415916443,0.0659518763422966
1,3,64,34,0.4786504805088043,0.03513086214661598
1,3,64,35,0.554070234298706,0.03557214513421059
1,3,64,36,0.4988710582256317,0.06002092733979225
1,3,64,37,0.5209017992019653,0.06329169869422913
1,3,64,38,0.39893949031829834,0.07406499236822128
1,3,64,39,0.542938768863678,0.04177211970090866
1,3,64,40,0.4919455647468567,0.05706849694252014
1,3,64,41,0.4139900505542755,0.038500603288412094
1,3,64,42,0.5267689824104309,0.03786487877368927
1,3,64,43,0.522060751914978,0.11004046350717545
1,3,64,44,0.44369038939476013,0.08686066418886185
1,3,64,45,0.474090039730072,0.03662704676389694
1,3,64,46,0.4903651475906372,0.08666694164276123
1,3,64,47,0.49105551838874817,0.07382655143737793
1,3,64,48,0.535554826259613,0.03289191797375679
1,3,64,49,0.4730708599090576,0.05187244713306427
1,3,64,50,0.5484325289726257,0.06872835755348206
1,3,64,51,0.4796588718891144,0.0780300721526146
1,3,64,52,0.4046642482280731,0.041715189814567566
1,3,64,53,0.44965502619743347,0.06881698220968246
1,3,64,54,0.39515167474746704,0.035014741122722626
1,3,64,55,0.5345082879066467,0.06139615923166275
1,3,64,56,0.43774595856666565,0.09523307532072067
1,3,64,57,0.5160449147224426,0.07931775599718094
1,3,64,58,0.5022943615913391,0.10054360330104828
1,3,64,59,0.32831403613090515,0.07297006249427795
1,3,64,60,0.531499445438385,0.06529618054628372
1,3,64,61,0.4707086980342865,0.06736452132463455
1,3,64,62,0.3881970942020416,0.0709986537694931
1,3,64,63,0.4023122489452362,0.02679482102394104
1,4,128,0,0.417970210313797,0.10576740652322769
1,4,128,1,0.3667389452457428,0.1808127909898758
1,4,128,2,0.6661499738693237,0.17481647431850433
1,4,128,3,0.5344499945640564,0.050604186952114105
1,4,128,4,0.5904480218887329,0.14473427832126617
1,4,128,5,0.42960938811302185,0.07267891615629196
1,4,128,6,0.5371718406677246,0.06429573893547058
1,4,128,7,0.6609489321708679,0.1435985416173935
1,4,128,8,0.4691108465194702,0.0590529628098011
1,4,128,9,0.5306578874588013,0.12307023257017136
1,4,128,10,0.5337225198745728,0.0521189346909523
1,4,128,11,0.6965989470481873,0.10966059565544128
1,4,128,12,0.5406283736228943,0.057839736342430115
1,4,128,13,0.6430860161781311,0.08371079713106155
1,4,128,14,0.49117472767829895,0.14552751183509827
1,4,128,15,0.5396420359611511,0.05273820459842682
1,4,128,16,0.3872067630290985,0.0817510336637497
1,4,128,17,0.631000816822052,0.1438985913991928
1,4,128,18,0.5868186354637146,0.1186818853020668
1,4,128,19,0.34902799129486084,0.10689104348421097
1,4,128,20,0.523030161857605,0.03036668710410595
1,4,128,21,0.2661600112915039,0.1641910821199417
1,4,128,22,0.5171500444412231,0.03527168929576874
1,4,128,23,0.5266641974449158,0.03414081409573555
1,4,128,24,0.5376811623573303,0.062330856919288635
1,4,128,25,0.5458121299743652,0.08844994008541107
1,4,128,26,0.6712853312492371,0.09050822257995605
1,4,128,27,0.48382967710494995,0.04368026182055473
1,4,128,28,0.6116632223129272,0.12176036834716797
1,4,128,29,0.5935142636299133,0.13364702463150024
1,4,128,30,0.44146865606307983,0.07774379104375839
1,4,128,31,0.6118391156196594,0.09539315104484558
1,4,128,32,0.44068488478660583,0.1125522255897522
1,4,128,33,0.48964330554008484,0.05622487887740135
1,4,128,34,0.6653520464897156,0.15457186102867126
1,4,128,35,0.5368787050247192,0.12479246407747269
1,4,128,36,0.5572540163993835,0.05014583840966225
1,4,128,37,0.41787099838256836,0.059968020766973495
1,4,128,38,0.5342109203338623,0.06880269944667816
1,4,128,39,0.44499003887176514,0.06767503172159195
1,4,128,40,0.6205440163612366,0.10027806460857391
1,4,128,41,0.587838888168335,0.05196329578757286
1,4,128,42,0.540246307849884,0.044009286910295486
1,4,128,43,0.4919070899486542,0.10169157385826111
1,4,128,44,0.5736289024353027,0.06430530548095703
1,4,128,45,0.48345643281936646,0.10016539692878723
1,4,128,46,0.5672099590301514,0.07599156349897385
1,4,128,47,0.6428510546684265,0.1209699958562851
1,4,128,48,0.6346216201782227,0.1536848545074463
1,4,128,49,0.6060962677001953,0.07519959658384323
1,4,128,50,0.55484938621521,0.04004079848527908
1,4,128,51,0.5711475610733032,0.0850924476981163
1,4,128,52,0.32910460233688354,0.10408341884613037
1,4,128,53,0.5810880064964294,0.12576769292354584
1,4,128,54,0.34032756090164185,0.08153318613767624
1,4,128,55,0.5362767577171326,0.04639345034956932
1,4,128,56,0.46946385502815247,0.06343559920787811
1,4,128,57,0.6421207785606384,0.14857612550258636
1,4,128,58,0.470450222492218,0.0634726956486702
1,4,128,59,0.3233511447906494,0.14012452960014343
1,4,128,60,0.6143796443939209,0.12936019897460938
1,4,128,61,0.4024912118911743,0.0973694771528244
1,4,128,62,0.6823536157608032,0.13836757838726044
1,4,128,63,0.6435655951499939,0.09999708086252213
1,4,128,64,0.6687307357788086,0.12509681284427643
1,4,128,65,0.6291984915733337,0.07536376267671585
1,4,128,66,0.42973199486732483,0.0745539590716362
1,4,128,67,0.6295880079269409,0.12675227224826813
1,4,128,68,0.5507729649543762,0.11914090812206268
1,4,128,69,0.5207237601280212,0.061339881271123886
1,4,128,70,0.6550685167312622,0.09840457141399384
1,4,128,71,0.4662763178348541,0.0753072127699852
1,4,128,72,0.5262014269828796,0.09003756940364838
1,4,128,73,0.5149105191230774,0.041316065937280655
1,4,128,74,0.5239841341972351,0.075943723320961
1,4,128,75,0.6173060536384583,0.10863552242517471
1,4,128,76,0.5409635305404663,0.08766137063503265
1,4,128,77,0.4175848364830017,0.1280623972415924
1,4,128,78,0.49094295501708984,0.08155743777751923
1,4,128,79,0.6120343804359436,0.11311604827642441
1,4,128,80,0.6048548817634583,0.059485506266355515
1,4,128,81,0.5749834775924683,0.08524005115032196
1,4,128,82,0.5677860379219055,0.1071534976363182
1,4,128,83,0.639703631401062,0.13488651812076569
1,4,128,84,0.5951973795890808,0.04205993562936783
1,4,128,85,0.7097698450088501,0.18691766262054443
1,4,128,86,0.67935711145401,0.1793118268251419
1,4,128,87,0.4553947150707245,0.04701361805200577
1,4,128,88,0.6840531826019287,0.1287951022386551
1,4,128,89,0.424520343542099,0.15021926164627075
1,4,128,90,0.43605709075927734,0.0635441392660141
1,4,128,91,0.3780471086502075,0.1417955905199051
1,4,128,92,0.4210749566555023,0.06878091394901276
1,4,128,93,0.5883345007896423,0.07908794283866882
1,4,128,94,0.4964766800403595,0.10144299268722534
1,4,128,95,0.5071062445640564,0.030131611973047256
1,4,128,96,0.5564306974411011,0.13073982298374176
1,4,128,97,0.5260207056999207,0.08540856838226318
1,4,128,98,0.6183517575263977,0.13781899213790894
1,4,128,99,0.6245914101600647,0.15767967700958252
1,4,128,100,0.48757651448249817,0.11779092252254486
1,4,128,101,0.347522109746933,0.13147474825382233
1,4,128,102,0.5581786036491394,0.075310118496418
1,4,128,103,0.5789442658424377,0.062037352472543716
1,4,128,104,0.3814065158367157,0.12130048871040344
1,4,128,105,0.6610934138298035,0.11499597132205963
1,4,128,106,0.5390456318855286,0.07013686001300812
1,4,128,107,0.6445333957672119,0.13775420188903809
1,4,128,108,0.6494907736778259,0.0703270211815834
1,4,128,109,0.7293103337287903,0.1645697057247162
1,4,128,110,0.4007958471775055,0.04390166699886322
1,4,128,111,0.3910123407840729,0.1221417561173439
1,4,128,112,0.738240659236908,0.1334521472454071
1,4,128,113,0.36293551325798035,0.07339609414339066
1,4,128,114,0.6126274466514587,0.1630629450082779
1,4,128,115,0.454854816198349,0.11067954450845718
1,4,128,116,0.3918728530406952,0.09339480847120285
1,4,128,117,0.3875735104084015,0.05168265104293823
1,4,128,118,0.5369023084640503,0.09333604574203491
1,4,128,119,0.5867637395858765,0.0793459415435791
1,4,128,120,0.38674288988113403,0.11542615294456482
1,4,128,121,0.6605290770530701,0.15942326188087463
1,4,128,122,0.5982795357704163,0.0784851461648941
1,4,128,123,0.5002802610397339,0.04135812446475029
1,4,128,124,0.44526171684265137,0.054011669009923935
1,4,128,125,0.4114883244037628,0.06133344769477844
1,4,128,126,0.4304095208644867,0.06703111529350281
1,4,128,127,0.6828436851501465,0.11397701501846313
1,5,128,0,0.6345686912536621,0.15692880749702454
1,5,128,1,0.45037469267845154,0.10851914435625076
1,5,128,2,0.5129918456077576,0.1211790144443512
1,5,128,3,0.4908047318458557,0.014558803290128708
1,5,128,4,0.30171144008636475,0.05592047795653343
1,5,128,5,0.5503808856010437,0.04436285421252251
1,5,128,6,0.64069002866745,0.1702982485294342
1,5,128,7,0.5997283458709717,0.14141570031642914
1,5,128,8,0.45732858777046204,0.06746262311935425
1,5,128,9,0.5140184164047241,0.12100601196289062
1,5,128,10,0.48030081391334534,0.036125943064689636
1,5,128,11,0.47422268986701965,0.08768769353628159
1,5,128,12,0.41908586025238037,0.0393972285091877
1,5,128,13,0.6044676303863525,0.07986356317996979
1,5,128,14,0.5304367542266846,0.13238580524921417
1,5,128,15,0.5584951639175415,0.08974964916706085
1,5,128,16,0.518097996711731,0.04795323684811592
1,5,128,17,0.48297253251075745,0.05300014838576317
1,5,128,18,0.5488624572753906,0.06607992202043533
1,5,128,19,0.35275644063949585,0.03884453698992729
1,5,128,20,0.4265105426311493,0.10133378952741623
1,5,128,21,0.351412832736969,0.06241386756300926
1,5,128,22,0.4775100350379944,0.15194499492645264
1,5,128,23,0.39086848497390747,0.10633841902017593
1,5,128,24,0.5443158149719238,0.03737765923142433
1,5,128,25,0.42296868562698364,0.10916530340909958
1,5,128,26,0.49046844244003296,0.0829339474439621
1,5,128,27,0.5692077875137329,0.05240592360496521
1,5,128,28,0.43057623505592346,0.039709579199552536
1,5,128,29,0.49049174785614014,0.11717499047517776
1,5,128,30,0.4790700376033783,0.055720504373311996
1,5,128,31,0.586571455001831,0.09017548710107803
1,5,128,32,0.6553120613098145,0.1369394063949585
1,5,128,33,0.6310763955116272,0.14604990184307098
1,5,128,34,0.558725893497467,0.07219002395868301
1,5,128,35,0.5858667492866516,0.12522977590560913
1,5,128,36,0.527732789516449,0.05930480360984802
1,5,128,37,0.5727354884147644,0.04099348559975624
1,5,128,38,0.46612584590911865,0.07319188863039017
1,5,128,39,0.37140214443206787,0.15036042034626007
1,5,128,40,0.6009162068367004,0.102420873939991
1,5,128,41,0.4977237284183502,0.044461823999881744
1,5,128,42,0.6041106581687927,0.06757797300815582
1,5,128,43,0.523410975933075,0.04474276304244995
1,5,128,44,0.390156626701355,0.0607820600271225
1,5,128,45,0.5910924673080444,0.0540209636092186
1,5,128,46,0.4989527463912964,0.05930306762456894
1,5,128,47,0.6195167303085327,0.06434209644794464
1,5,128,48,0.575463593006134,0.09450964629650116
1,5,128,49,0.4240611791610718,0.06766415387392044
1,5,128,50,0.5231116414070129,0.19656431674957275
1,5,128,51,0.6407651901245117,0.07379335165023804
1,5,128,52,0.5769451856613159,0.04091522470116615
1,5,128,53,0.41413313150405884,0.05906303599476814
1,5,128,54,0.6354045867919922,0.05372051149606705
1,5,128,55,0.4902902841567993,0.11036662757396698
1,5,128,56,0.4336183965206146,0.043910373002290726
1,5,128,57,0.6189072132110596,0.15714624524116516
1,5,128,58,0.415385365486145,0.061261169612407684
1,5,128,59,0.5850238800048828,0.04555505886673927
1,5,128,60,0.7191047072410583,0.11703508347272873
1,5,128,61,0.39455872774124146,0.03186225891113281
1,5,128,62,0.5909138321876526,0.09186249226331711
1,5,128,63,0.6395338773727417,0.1665411740541458
1,5,128,64,0.5181180238723755,0.07584772258996964
1,5,128,65,0.5442092418670654,0.024851318448781967
1,5,128,66,0.4216330349445343,0.13222266733646393
1,5,128,67,0.6024784445762634,0.14362508058547974
1,5,128,68,0.4025513529777527,0.11215606331825256
1,5,128,69,0.5633507966995239,0.1508825719356537
1,5,128,70,0.5576286911964417,0.12612786889076233
1,5,128,71,0.4379981458187103,0.023401448503136635
1,5,128,72,0.5404053330421448,0.07412005215883255
1,5,128,73,0.44138771295547485,0.06997568160295486
1,5,128,74,0.6039618849754333,0.058924250304698944
1,5,128,75,0.4296325743198395,0.05379617214202881
1,5,128,76,0.4603542983531952,0.10359781980514526
1,5,128,77,0.4566993713378906,0.0976741760969162
1,5,128,78,0.5398280024528503,0.04821598157286644
1,5,128,79,0.486089825630188,0.06320267170667648
1,5,128,80,0.44571158289909363,0.03275641053915024
1,5,128,81,0.548979640007019,0.07272610813379288
1,5,128,82,0.6279868483543396,0.0900966003537178
1,5,128,83,0.4633941948413849,0.020897477865219116
1,5,128,84,0.40423429012298584,0.024538027122616768
1,5,128,85,0.6302443742752075,0.08640286326408386
1,5,128,86,0.45351681113243103,0.03857520967721939
1,5,128,87,0.4002339541912079,0.10961569100618362
1,5,128,88,0.383122056722641,0.04954113811254501
1,5,128,89,0.3797403872013092,0.06754886358976364
1,5,128,90,0.45550599694252014,0.060916174203157425
1,5,128,91,0.5243405103683472,0.054584816098213196
1,5,128,92,0.6511082053184509,0.15843814611434937
1,5,128,93,0.5563431978225708,0.051285408437252045
1,5,128,94,0.5241039395332336,0.033493753522634506
1,5,128,95,0.38865306973457336,0.11583252251148224
1,5,128,96,0.5910269618034363,0.06608834862709045
1,5,128,97,0.5575660467147827,0.08375217765569687
1,5,128,98,0.5311512351036072,0.08853329718112946
1,5,128,99,0.6005333065986633,0.10724359005689621
1,5,128,100,0.5656722187995911,0.047669608145952225
1,5,128,101,0.5114122033119202,0.03140474483370781
1,5,128,102,0.3625849485397339,0.07205622643232346
1,5,128,103,0.37405529618263245,0.06750772893428802
1,5,128,104,0.7242661714553833,0.09837329387664795
1,5,128,105,0.5628775954246521,0.10728394240140915
1,5,128,106,0.4277247190475464,0.09972593933343887
1,5,128,107,0.5878387093544006,0.05827954411506653
1,5,128,108,0.4271514117717743,0.1353318691253662
1,5,128,109,0.5441486835479736,0.12917356193065643
1,5,128,110,0.369336873292923,0.05915622040629387
1,5,128,111,0.4130406081676483,0.03356003016233444
1,5,128,112,0.41558918356895447,0.10379216820001602
1,5,128,113,0.44884976744651794,0.03603881597518921
1,5,128,114,0.4849928319454193,0.07327774167060852
1,5,128,115,0.4683416485786438,0.07488993555307388
1,5,128,116,0.33266663551330566,0.04106242582201958
1,5,128,117,0.4451996386051178,0.11033683270215988
1,5,128,118,0.5769497752189636,0.15347988903522491
1,5,128,119,0.38753795623779297,0.022551467642188072
1,5,128,120,0.6214446425437927,0.07795625180006027
1,5,128,121,0.4543282687664032,0.05588175728917122
1,5,128,122,0.40974873304367065,0.07202685624361038
1,5,128,123,0.48074886202812195,0.0582147017121315
1,5,128,124,0.6242525577545166,0.1278950721025467
1,5,128,125,0.600242555141449,0.05135611072182655
1,5,128,126,0.5107685327529907,0.06915687769651413
1,5,128,127,0.7005677223205566,0.095787912607193
