subject,channel,f1_full,f1_occluded,drop_pp
1,0,0.6344136374270734,0.6128849942964294,2.1528643130643954
1,1,0.6344136374270734,0.6333575890283742,0.10560483986991054
1,2,0.6344136374270734,0.6404379464565755,-0.6024309029502128
1,3,0.6344136374270734,0.6061364038100001,2.827723361707324
1,4,0.6344136374270734,0.6840495391025918,-4.963590167551846
1,5,0.6344136374270734,0.6001078467739909,3.430579065308248
1,6,0.6344136374270734,0.7096657623569167,-7.525212492984334
1,7,0.6344136374270734,0.616523589740722,1.7890047686351385
1,8,0.6344136374270734,0.6428403839863632,-0.8426746559289877
2,0,0.8963449165792148,0.9091970968665748,-1.2852180287360015
2,1,0.8963449165792148,0.8793369672740816,1.7007949305133163
2,2,0.8963449165792148,0.8705068309416135,2.583808563760126
2,3,0.8963449165792148,0.8997670393098642,-0.3422122730649457
2,4,0.8963449165792148,0.9036020571615454,-0.7257140582330623
2,5,0.8963449165792148,0.8970876543283753,-0.07427377491605602
2,6,0.8963449165792148,0.8766308140764297,1.9714102502785047
2,7,0.8963449165792148,0.8613293023944446,3.501561418477017
2,8,0.8963449165792148,0.8842337726371485,1.211114394206625
3,0,0.9195909006256165,0.920235970882764,-0.06450702571474398
3,1,0.9195909006256165,0.9012957071902016,1.829519343541497
3,2,0.9195909006256165,0.9144439525061793,0.5146948119437278
3,3,0.9195909006256165,0.8536923879133386,6.589851271227798
3,4,0.9195909006256165,0.9149151252104272,0.4675775415189376
3,5,0.9195909006256165,0.9252279062153895,-0.5637005589772981
3,6,0.9195909006256165,0.9205948912712705,-0.10039906456539294
3,7,0.9195909006256165,0.898056759009334,2.153414161628253
3,8,0.9195909006256165,0.9130243109207683,0.6566589704848247
4,0,0.8989428544429962,0.9123544776734319,-1.3411623230435765
4,1,0.8989428544429962,0.8711041929843927,2.7838661458603475
4,2,0.8989428544429962,0.8721653961342508,2.677745830874534
4,3,0.8989428544429962,0.8605566460056575,3.8386208437338643
4,4,0.8989428544429962,0.8804909350216992,1.845191942129698
4,5,0.8989428544429962,0.8686758008897313,3.0267053553264867
4,6,0.8989428544429962,0.9111512316651229,-1.2208377222126754
4,7,0.8989428544429962,0.9170060750972131,-1.806322065421695
4,8,0.8989428544429962,0.9099914412246909,-1.1048586781694736
5,0,0.6469232481037075,0.6280304299672264,1.8892818136481138
5,1,0.6469232481037075,0.6693233995000046,-2.240015139629714
5,2,0.6469232481037075,0.68014428100635,-3.3221032902642555
5,3,0.6469232481037075,0.6865575781748271,-3.9634330071119606
5,4,0.6469232481037075,0.6218092105827111,2.511403752099639
5,5,0.6469232481037075,0.6278247607732784,1.909848733042907
5,6,0.6469232481037075,0.6481636514099346,-0.12404033062271003
5,7,0.6469232481037075,0.6453902489749155,0.1532999128792012
5,8,0.6469232481037075,0.6266818473600737,2.0241400743633786
6,0,0.8123459340810002,0.7681243418390014,4.422159224199884
6,1,0.8123459340810002,0.7813308606298235,3.101507345117671
6,2,0.8123459340810002,0.8127635765718191,-0.04176424908188814
6,3,0.8123459340810002,0.8466278953701027,-3.4281961289102547
6,4,0.8123459340810002,0.7981421779375586,1.4203756143441604
6,5,0.8123459340810002,0.8121757705790011,0.01701635019990544
6,6,0.8123459340810002,0.8069809710235509,0.5364963057449268
6,7,0.8123459340810002,0.7559241934553094,5.642174062569083
6,8,0.8123459340810002,0.7443979267541874,6.794800732681283
7,0,0.747192587231988,0.7873451472504025,-4.01525600184145
7,1,0.747192587231988,0.6989581928227011,4.82343944092869
7,2,0.747192587231988,0.7806644408463531,-3.347185361436511
7,3,0.747192587231988,0.8116083243301152,-6.441573709812721
7,4,0.747192587231988,0.7857565539623881,-3.856396673040008
7,5,0.747192587231988,0.8103428776805552,-6.315029044856724
7,6,0.747192587231988,0.7854800729588995,-3.828748572691154
7,7,0.747192587231988,0.7681349741756558,-2.094238694366779
7,8,0.747192587231988,0.7734532038621901,-2.626061663020207
8,0,0.8435477413635285,0.8430419861869256,0.05057551766028956
8,1,0.8435477413635285,0.8247222160687652,1.8825525294763334
8,2,0.8435477413635285,0.855206015826622,-1.1658274463093532
8,3,0.8435477413635285,0.827560554099255,1.5987187264273506
8,4,0.8435477413635285,0.8196565705488843,2.3891170814644203
8,5,0.8435477413635285,0.8091613057192704,3.438643564425814
8,6,0.8435477413635285,0.8559256610640592,-1.2377919700530704
8,7,0.8435477413635285,0.811204644756839,3.2343096606689548
8,8,0.8435477413635285,0.817638747320496,2.5908994043032485
9,0,0.8140296636221622,0.7950206817327512,1.9008981889411025
9,1,0.8140296636221622,0.791718129061237,2.2311534560925272
9,2,0.8140296636221622,0.8219355112523994,-0.7905847630237162
9,3,0.8140296636221622,0.8104169178348046,0.36127457873575963
9,4,0.8140296636221622,0.8138046505775313,0.022501304463096172
9,5,0.8140296636221622,0.8183202503442684,-0.4290586722106138
9,6,0.8140296636221622,0.7995856866863844,1.4443976935777814
9,7,0.8140296636221622,0.786414452353537,2.7615211268625206
9,8,0.8140296636221622,0.8131179009940788,0.09117626280834568
10,0,0.7585195722689537,0.7456639928698752,1.2855579399078554
10,1,0.7585195722689537,0.7357154364205195,2.2804135848434215
10,2,0.7585195722689537,0.7428076353446962,1.5711936924257541
10,3,0.7585195722689537,0.721147477812357,3.7372094456596727
10,4,0.7585195722689537,0.7379119253856539,2.0607646883299857
10,5,0.7585195722689537,0.7385227107089598,1.9996861559993917
10,6,0.7585195722689537,0.750783375799852,0.773619646910173
10,7,0.7585195722689537,0.7504203345898202,0.8099237679133564
10,8,0.7585195722689537,0.7800597639240667,-2.1540191655113006
11,0,0.9212578442229604,0.9222918376277386,-0.10339934047781663
11,1,0.9212578442229604,0.8989042045250527,2.2353639697907712
11,2,0.9212578442229604,0.9004106383355195,2.0847205887440934
11,3,0.9212578442229604,0.8642526324911235,5.7005211731836924
11,4,0.9212578442229604,0.9008791145092775,2.037872971368293
11,5,0.9212578442229604,0.9205665184153787,0.06913258075816886
11,6,0.9212578442229604,0.9377745826710226,-1.651673844806223
11,7,0.9212578442229604,0.9366635702905397,-1.5405726067579284
11,8,0.9212578442229604,0.9175192689096587,0.3738575313301684
12,0,0.9082672978027115,0.9012745580814885,0.6992739721223051
12,1,0.9082672978027115,0.8669725611503821,4.129473665232942
12,2,0.9082672978027115,0.8780317364252818,3.0235561377429776
12,3,0.9082672978027115,0.8537604777801922,5.450682002251939
12,4,0.9082672978027115,0.8823247246599919,2.594257314271964
12,5,0.9082672978027115,0.8854192426728132,2.2848055129898293
12,6,0.9082672978027115,0.9131510155267691,-0.48837177240576013
12,7,0.9082672978027115,0.8996221434041352,0.8645154398576382
12,8,0.9082672978027115,0.8846147269176529,2.3652570885058677
13,0,0.9265727771817444,0.9243786068610003,0.21941703207440932
13,1,0.9265727771817444,0.9050457817912092,2.1526995390535153
13,2,0.9265727771817444,0.9000918301896643,2.6480946992080034
13,3,0.9265727771817444,0.9056624093187576,2.0910367862986723
13,4,0.9265727771817444,0.9201059144180457,0.6466862763698678
13,5,0.9265727771817444,0.8979433158940305,2.862946128771382
13,6,0.9265727771817444,0.9241391928485634,0.24335843331809714
13,7,0.9265727771817444,0.9380210203186504,-1.1448243136906067
13,8,0.9265727771817444,0.918097852597264,0.8474924584480403
14,0,0.8260210967442924,0.8092591770248798,1.6761919719412544
14,1,0.8260210967442924,0.8034653798499198,2.2555716894372524
14,2,0.8260210967442924,0.847766603947544,-2.1745507203251635
14,3,0.8260210967442924,0.7390357870613711,8.698530968292129
14,4,0.8260210967442924,0.8319030742482152,-0.5881977503922831
14,5,0.8260210967442924,0.84441912059579,-1.8398023851497691
14,6,0.8260210967442924,0.8144487304683261,1.157236627596625
14,7,0.8260210967442924,0.7754421430033643,5.057895374092802
14,8,0.8260210967442924,0.7881776886647497,3.7843408079542673
15,0,0.9223048455516056,0.8887226941272303,3.3582151424375373
15,1,0.9223048455516056,0.8924570778519604,2.9847767699645256
15,2,0.9223048455516056,0.8711044876437894,5.1200357907816185
15,3,0.9223048455516056,0.8765807724746919,4.572407307691373
15,4,0.9223048455516056,0.9102262583858839,1.2078587165721744
15,5,0.9223048455516056,0.9059648420207306,1.6340003530875058
15,6,0.9223048455516056,0.9106781619327458,1.1626683618859879
15,7,0.9223048455516056,0.8784418022031345,4.386304334847113
15,8,0.9223048455516056,0.9354954909555797,-1.3190645403974077
16,0,0.8486924309962598,0.8561144494867059,-0.7422018490446103
16,1,0.8486924309962598,0.8516030849277813,-0.29106539315214564
16,2,0.8486924309962598,0.8441520562082615,0.45403747879982914
16,3,0.8486924309962598,0.8357361848567879,1.2956246139471883
16,4,0.8486924309962598,0.8440757025180039,0.46167284782558937
16,5,0.8486924309962598,0.8512922397223668,-0.2599808726106989
16,6,0.8486924309962598,0.8617404042098482,-1.3047973213588415
16,7,0.8486924309962598,0.8195405551759076,2.915187582035217
16,8,0.8486924309962598,0.8416988067993578,0.6993624196901971
17,0,0.845272046170371,0.8503908340140796,-0.5118787843708561
17,1,0.845272046170371,0.8660754511704559,-2.080340500008493
17,2,0.845272046170371,0.8442600182755453,0.10120278948256844
17,3,0.845272046170371,0.8453406438267768,-0.006859765640576665
17,4,0.845272046170371,0.8319698319740466,1.330221419632438
17,5,0.845272046170371,0.8270334709710803,1.823857519929073
17,6,0.845272046170371,0.8498513401752337,-0.45792940048626773
17,7,0.845272046170371,0.8420083796010807,0.32636665692903355
17,8,0.845272046170371,0.8258780642869481,1.9393981883422895
18,0,0.9086719410857341,0.8814811358258524,2.719080525988171
18,1,0.9086719410857341,0.8893934677954164,1.9278473290317732
18,2,0.9086719410857341,0.8857081780192199,2.2963763066514264
18,3,0.9086719410857341,0.8063116827171106,10.23602583686235
18,4,0.9086719410857341,0.8767946988222671,3.1877242263467
18,5,0.9086719410857341,0.8977484843880967,1.092345669763739
18,6,0.9086719410857341,0.8994144339811518,0.9257507104582285
18,7,0.9086719410857341,0.8640501332717121,4.462180781402203
18,8,0.9086719410857341,0.8519097185153554,5.676222257037877
19,0,0.853416740690089,0.8156117149555747,3.7805025734514275
19,1,0.853416740690089,0.8362565202217268,1.7160220468362186
19,2,0.853416740690089,0.8439930389285373,0.9423701761551717
19,3,0.853416740690089,0.8038593490525667,4.955739163752226
19,4,0.853416740690089,0.819438850536993,3.3977890153096046
19,5,0.853416740690089,0.8291971697671585,2.421957092293048
19,6,0.853416740690089,0.8450406530296369,0.8376087660452058
19,7,0.853416740690089,0.8134092661960297,4.000747449405928
19,8,0.853416740690089,0.8246179074385976,2.879883325149135
20,0,0.8308979467887281,0.8017136188871123,2.9184327901615736
20,1,0.8308979467887281,0.7923169633311087,3.85809834576194
20,2,0.8308979467887281,0.8220010512646376,0.8896895524090453
20,3,0.8308979467887281,0.8440675853628138,-1.3169638574085707
20,4,0.8308979467887281,0.8127694703999113,1.812847638881676
20,5,0.8308979467887281,0.8165331788145963,1.4364767974131776
20,6,0.8308979467887281,0.816776995494037,1.4120951294691042
20,7,0.8308979467887281,0.8274826861885561,0.3415260600171943
20,8,0.8308979467887281,0.7686369655564261,6.226098123230194
21,0,0.8514755023503511,0.8117134085787173,3.9762093771633755
21,1,0.8514755023503511,0.8689915892559065,-1.7516086905555395
21,2,0.8514755023503511,0.8634663422982851,-1.199083994793404
21,3,0.8514755023503511,0.820931486651209,3.0544015699142113
21,4,0.8514755023503511,0.8353546562143088,1.6120846136042255
21,5,0.8514755023503511,0.8654582776488381,-1.3982775298487016
21,6,0.8514755023503511,0.8688693771770659,-1.739387482671484
21,7,0.8514755023503511,0.8574717853003445,-0.5996282949993437
21,8,0.8514755023503511,0.8119925612369726,3.9482941113378467
22,0,0.799467711500986,0.800136873890849,-0.06691623898630317
22,1,0.799467711500986,0.8356909532211669,-3.6223241720180988
22,2,0.799467711500986,0.7746505093080436,2.4817202192942367
22,3,0.799467711500986,0.7618145500647732,3.765316143621278
22,4,0.799467711500986,0.7803710171934797,1.9096694307506268
22,5,0.799467711500986,0.8027151519245044,-0.3247440423518433
22,6,0.799467711500986,0.7872363614497678,1.2231350051218115
22,7,0.799467711500986,0.7665078195063542,3.2959891994631785
22,8,0.799467711500986,0.7662189954589983,3.3248716041987647
23,0,0.8305895486599821,0.7889981521752794,4.159139648470278
23,1,0.8305895486599821,0.8241843799017237,0.6405168758258473
23,2,0.8305895486599821,0.826718058665705,0.3871489994277111
23,3,0.8305895486599821,0.801821431816827,2.8768116843155167
23,4,0.8305895486599821,0.8223632499275337,0.82262987324484
23,5,0.8305895486599821,0.8243506120434565,0.6238936616525637
23,6,0.8305895486599821,0.8060611454060352,2.4528403253946895
23,7,0.8305895486599821,0.8274679268258274,0.3121621834154764
23,8,0.8305895486599821,0.8000200633315679,3.056948532841419
24,0,0.7723141011580149,0.7807478979763222,-0.8433796818307249
24,1,0.7723141011580149,0.7791756289792144,-0.6861527821199531
24,2,0.7723141011580149,0.7496735582509542,2.2640542907060746
24,3,0.7723141011580149,0.7850282069523512,-1.2714105794336295
24,4,0.7723141011580149,0.7408983561164251,3.1415745041589838
24,5,0.7723141011580149,0.7524864964679779,1.982760469003697
24,6,0.7723141011580149,0.7651526918099295,0.7161409348085401
24,7,0.7723141011580149,0.722051965671324,5.026213548669089
24,8,0.7723141011580149,0.7562054320888052,1.6108669069209713
25,0,0.8677964741096373,0.8863004295008986,-1.8503955391261262
25,1,0.8677964741096373,0.9018423558010149,-3.4045881691377566
25,2,0.8677964741096373,0.8632535383213991,0.4542935788238278
25,3,0.8677964741096373,0.8454856340476878,2.23108400619495
25,4,0.8677964741096373,0.869393218752926,-0.1596744643288628
25,5,0.8677964741096373,0.8783826898652124,-1.0586215755575057
25,6,0.8677964741096373,0.8637867795903397,0.40096945192976685
25,7,0.8677964741096373,0.8202863396047375,4.751013450489983
25,8,0.8677964741096373,0.8657518553900871,0.20446187195501953
26,0,0.7938431724286708,0.7748085943688494,1.9034578059821339
26,1,0.7938431724286708,0.798345836268683,-0.45026638400123
26,2,0.7938431724286708,0.7446314139682503,4.921175846042047
26,3,0.7938431724286708,0.7656711422119721,2.8172030216698674
26,4,0.7938431724286708,0.7794545935619988,1.4388578866671997
26,5,0.7938431724286708,0.7609708764680603,3.2872295960610476
26,6,0.7938431724286708,0.7827527735189768,1.1090398909693988
26,7,0.7938431724286708,0.7573566534439236,3.6486518984747196
26,8,0.7938431724286708,0.7726948699682308,2.114830246043997
27,0,0.8801330206201379,0.8783297281297239,0.1803292490413999
27,1,0.8801330206201379,0.8686911195336163,1.1441901086521544
27,2,0.8801330206201379,0.8352051721593575,4.492784846078035
27,3,0.8801330206201379,0.8644425189754965,1.5690501644641364
27,4,0.8801330206201379,0.872499441728247,0.7633578891890869
27,5,0.8801330206201379,0.8828551353894897,-0.2722114769351802
27,6,0.8801330206201379,0.9060993860022608,-2.5966365382122936
27,7,0.8801330206201379,0.8542403767671377,2.5892643853000163
27,8,0.8801330206201379,0.8988201255939825,-1.8687104973844626
28,0,0.7979405416012558,0.8049531306206226,-0.7012589019366744
28,1,0.7979405416012558,0.8191943948562722,-2.1253853255016386
28,2,0.7979405416012558,0.7804544061680292,1.7486135433226635
28,3,0.7979405416012558,0.8016729323522747,-0.37323907510188326
28,4,0.7979405416012558,0.8201778729804553,-2.2237331379199476
28,5,0.7979405416012558,0.7091460097423068,8.879453185894903
28,6,0.7979405416012558,0.794647741158027,0.32928004432287716
28,7,0.7979405416012558,0.8250742945456211,-2.7133752944365264
28,8,0.7979405416012558,0.7780054582402602,1.9935083360995587
29,0,0.8627887874145772,0.8487036140575765,1.4085173357000658
29,1,0.8627887874145772,0.8733804974117477,-1.0591709997170518
29,2,0.8627887874145772,0.8438015999976307,1.8987187416946494
29,3,0.8627887874145772,0.8295335399116164,3.3255247502960827
29,4,0.8627887874145772,0.8195302413484306,4.325854606614666
29,5,0.8627887874145772,0.8474217837761255,1.536700363845167
29,6,0.8627887874145772,0.884138984947457,-2.135019753287981
29,7,0.8627887874145772,0.841840678725893,2.094810868868424
29,8,0.8627887874145772,0.8549675387438285,0.7821248670748737
30,0,0.8435156098894869,0.8614831857999946,-1.7967575910507683
30,1,0.8435156098894869,0.8066403310942103,3.6875278795276634
30,2,0.8435156098894869,0.8657259643641098,-2.221035447462283
30,3,0.8435156098894869,0.8289718014960029,1.4543808393484015
30,4,0.8435156098894869,0.8256940193496605,1.782159053982646
30,5,0.8435156098894869,0.8297482661716507,1.3767343717836278
30,6,0.8435156098894869,0.8443064251739982,-0.07908152845113037
30,7,0.8435156098894869,0.7640791174000129,7.943649248947404
30,8,0.8435156098894869,0.8314033760478479,1.2112233841639064
31,0,0.7981329988602697,0.7653267301122948,3.2806268747974876
31,1,0.7981329988602697,0.8093374096342127,-1.1204410773943074
31,2,0.7981329988602697,0.7978188848328129,0.031411402745673556
31,3,0.7981329988602697,0.8025014084374057,-0.4368409577136023
31,4,0.7981329988602697,0.7932234437230795,0.4909555137190158
31,5,0.7981329988602697,0.7877308188214308,1.040218003883886
31,6,0.7981329988602697,0.7846270204682818,1.350597839198786
31,7,0.7981329988602697,0.768134803771855,2.9998195088414725
31,8,0.7981329988602697,0.736460144793478,6.167285406679168
32,0,0.8692618024464318,0.8235050205175921,4.57567819288397
32,1,0.8692618024464318,0.8447914630172695,2.4470339429162324
32,2,0.8692618024464318,0.8383070581985592,3.095474424787259
32,3,0.8692618024464318,0.8197617986166961,4.950000382973574
32,4,0.8692618024464318,0.8535220773606756,1.5739725085756162
32,5,0.8692618024464318,0.8417836121268034,2.7478190319628393
32,6,0.8692618024464318,0.8516981353235547,1.7563667122877158
32,7,0.8692618024464318,0.8129200977499584,5.634170469647337
32,8,0.8692618024464318,0.8477589040378566,2.150289840857522
33,0,0.9175890366403363,0.8821859694297594,3.5403067210576955
33,1,0.9175890366403363,0.9103997077937492,0.7189328846587073
33,2,0.9175890366403363,0.8661722726818795,5.141676395845685
33,3,0.9175890366403363,0.900625180519773,1.696385612056328
33,4,0.9175890366403363,0.9204524666411593,-0.28634300008230085
33,5,0.9175890366403363,0.90718478727148,1.040424936885631
33,6,0.9175890366403363,0.8881966474861895,2.939238915414677
33,7,0.9175890366403363,0.8932659624452891,2.43230741950472
33,8,0.9175890366403363,0.8929283514633648,2.466068517697151
34,0,0.8847873499311432,0.8597319940802127,2.505535585093044
34,1,0.8847873499311432,0.8732919869461484,1.1495362984994761
34,2,0.8847873499311432,0.8885159728562546,-0.37286229251114467
34,3,0.8847873499311432,0.8504606530692385,3.4326696861904704
34,4,0.8847873499311432,0.8810356442089463,0.3751705722196852
34,5,0.8847873499311432,0.869171638968816,1.5615710962327167
34,6,0.8847873499311432,0.8591795511636888,2.5607798767454337
34,7,0.8847873499311432,0.8463062160021414,3.8481133929001765
34,8,0.8847873499311432,0.8352226081974518,4.956474173369141
35,0,0.7368496769932061,0.6844056617112368,5.24440152819693
35,1,0.7368496769932061,0.7119894842648335,2.4860192728372588
35,2,0.7368496769932061,0.7238125189575219,1.3037158035684282
35,3,0.7368496769932061,0.7307465899263212,0.6103087066884894
35,4,0.7368496769932061,0.7625627107903055,-2.5713033797099327
35,5,0.7368496769932061,0.7052188180457838,3.1630858947422347
35,6,0.7368496769932061,0.7359937952965101,0.0855881696696037
35,7,0.7368496769932061,0.74258828428253,-0.5738607289323849
35,8,0.7368496769932061,0.7210053763848339,1.5844300608372275
36,0,0.7885098767637067,0.7685201481591964,1.9989728604510204
36,1,0.7885098767637067,0.7375649078731423,5.094496889056432
36,2,0.7885098767637067,0.7255058701587718,6.300400660493488
36,3,0.7885098767637067,0.7486143017210025,3.9895575042704134
36,4,0.7885098767637067,0.7772666921145719,1.1243184649134763
36,5,0.7885098767637067,0.8201923490538753,-3.168247229016863
36,6,0.7885098767637067,0.7619150912369667,2.6594785526739995
36,7,0.7885098767637067,0.7041790808788169,8.43307958848898
36,8,0.7885098767637067,0.7411983916705904,4.731148509311622
37,0,0.8847220797406816,0.8770222499740872,0.7699829766594446
37,1,0.8847220797406816,0.8755298930550187,0.9192186685662906
37,2,0.8847220797406816,0.8578876410130996,2.6834438727582066
37,3,0.8847220797406816,0.874239580714065,1.0482499026616576
37,4,0.8847220797406816,0.862464949741029,2.225712999965257
37,5,0.8847220797406816,0.8687332522642705,1.5988827476411172
37,6,0.8847220797406816,0.8685300791589736,1.6192000581708
37,7,0.8847220797406816,0.8214901791423966,6.323190059828498
37,8,0.8847220797406816,0.888395121268578,-0.3673041527896381
38,0,0.8814347837367044,0.8300624218813598,5.137236185534455
38,1,0.8814347837367044,0.8504783302779946,3.0956453458709787
38,2,0.8814347837367044,0.8511683386404454,3.0266445096258976
38,3,0.8814347837367044,0.868483496137415,1.2951287599289318
38,4,0.8814347837367044,0.8587559446228801,2.267883911382429
38,5,0.8814347837367044,0.8626303273353124,1.8804456401391945
38,6,0.8814347837367044,0.8560789105324897,2.535587320421462
38,7,0.8814347837367044,0.8438396187185937,3.7595165018110666
38,8,0.8814347837367044,0.8787361432785915,0.26986404581128554
39,0,0.8438447285468816,0.835042952760932,0.880177578594965
39,1,0.8438447285468816,0.8401873829728558,0.3657345574025861
39,2,0.8438447285468816,0.8456211073421824,-0.17763787953007926
39,3,0.8438447285468816,0.8158908032316503,2.795392531523133
39,4,0.8438447285468816,0.8066883443723761,3.715638417450551
39,5,0.8438447285468816,0.8564532618540887,-1.2608533307207015
39,6,0.8438447285468816,0.8612633253957056,-1.7418596848823964
39,7,0.8438447285468816,0.8315706857956762,1.2274042751205472
39,8,0.8438447285468816,0.8698449326104405,-2.600020406355885
40,0,0.8343415718595791,0.7954574951953022,3.8884076664276956
40,1,0.8343415718595791,0.8351341497353538,-0.07925778757746915
40,2,0.8343415718595791,0.8711820676003557,-3.6840495740776524
40,3,0.8343415718595791,0.8578508663060342,-2.350929444645511
40,4,0.8343415718595791,0.8263395392903352,0.8002032569243922
40,5,0.8343415718595791,0.8364053257406765,-0.20637538810973632
40,6,0.8343415718595791,0.8577859385159895,-2.3444366656410365
40,7,0.8343415718595791,0.7846352419934244,4.970632986615476
40,8,0.8343415718595791,0.8272542239531087,0.7087347906470476
