epoch,train_ce,train_coral,val_loss,best,subject,coral_lambda
1,0.9262229996569017,0.0002003296253593255,0.6340445999398966,1,1,30.0
2,0.8122604959151324,0.00014747876240803366,0.520268270678456,1,1,30.0
3,0.7742362632470973,0.00012679978124865824,0.5834606326230433,0,1,30.0
4,0.7406155579230365,0.00011772471069193938,0.5946338174261746,0,1,30.0
5,0.7167258900754592,0.0001064998859553324,0.5025941182193736,1,1,30.0
6,0.6959752629784977,0.00010387935031116392,0.5501553410704652,0,1,30.0
7,0.6743397502338185,9.842806004384971e-05,0.4876008471387372,1,1,30.0
8,0.6520970190272611,9.044991632382495e-05,0.4718612932986286,1,1,30.0
9,0.6444467123816995,9.197709861088216e-05,0.42149989816987155,1,1,30.0
10,0.6273166116546182,7.709677708643378e-05,0.509253489194513,0,1,30.0
11,0.6196813593892491,8.43817406669533e-05,0.4561586117423924,0,1,30.0
12,0.6010413906153511,8.365947578568012e-05,0.40625390086819985,1,1,30.0
13,0.5910572893479291,8.245969031978508e-05,0.48555484121316717,0,1,30.0
14,0.577032946839052,8.095221076955033e-05,0.4286643643906839,0,1,30.0
15,0.5654261294533225,7.49979203700444e-05,0.418296578135091,0,1,30.0
16,0.5505308940130121,7.172617881545139e-05,0.4363729803367386,0,1,30.0
17,0.541049746204825,6.89323857145877e-05,0.4045348356033925,1,1,30.0
18,0.5275970189010396,7.192989895188743e-05,0.4060945922610925,0,1,30.0
19,0.5145841048044317,7.23426613737555e-05,0.42968722595423925,0,1,30.0
20,0.4974022917887744,6.807159755707663e-05,0.36965403765162613,1,1,30.0
21,0.4879827138255624,7.012322855777765e-05,0.4111596015517936,0,1,30.0
22,0.4743701117880204,6.862310940906515e-05,0.3684354309212212,1,1,30.0
23,0.47960381017011755,6.349776779054938e-05,0.37435773542033357,0,1,30.0
24,0.46356621279436,6.184511268442935e-05,0.39664500723703694,0,1,30.0
25,0.44949242612894846,6.155192031121045e-05,0.34668002041074086,1,1,30.0
26,0.4379390390480266,6.418824538259822e-05,0.35352645843697184,0,1,30.0
27,0.42903356201508464,6.245324505417718e-05,0.3641858637148,0,1,30.0
28,0.4266900360584259,6.139242224676041e-05,0.38129997691052897,0,1,30.0
29,0.4149693622308619,6.263974667971899e-05,0.3239797996636384,1,1,30.0
30,0.4145200178903692,6.0941224578795405e-05,0.36205300864413953,0,1,30.0
31,0.40959548985256866,6.026876435498707e-05,0.3398351020872161,0,1,30.0
32,0.3922729155596565,5.92458490299417e-05,0.3567600123268372,0,1,30.0
33,0.38593433569459357,6.0275464762954096e-05,0.33235129858863144,0,1,30.0
34,0.3892237270579619,6.299804577686111e-05,0.3239484555410624,1,1,30.0
35,0.37812788363765265,6.115742674891782e-05,0.3352881191373488,0,1,30.0
36,0.38136147418442895,6.492788559305208e-05,0.3454602862464605,0,1,30.0
37,0.376825612783432,6.333207283579909e-05,0.3494780835962345,0,1,30.0
38,0.3790802927578197,5.6882320196189755e-05,0.3326693266599353,0,1,30.0
39,0.3729453004458371,6.042495040353114e-05,0.3286495692604207,0,1,30.0
40,0.3721200957017786,6.202684406376005e-05,0.3339506409284124,0,1,30.0
1,0.918148977616254,0.00019330801861703066,0.5748738318788453,1,2,30.0
2,0.820967552241157,0.00014384163060800775,0.5389928590533952,1,2,30.0
3,0.7743632337626289,0.0001249955883181161,0.5694389896308653,0,2,30.0
4,0.7483751998228185,0.00012263620155863463,0.5348802225635192,1,2,30.0
5,0.7293342569295098,0.00011052443621926667,0.46420266442658437,1,2,30.0
6,0.7051910849178539,9.774120219791417e-05,0.5157204368531735,0,2,30.0
7,0.6849117650705225,9.548717198948212e-05,0.47847304536455215,0,2,30.0
8,0.6646378643372479,9.231787745888783e-05,0.44171777607367513,1,2,30.0
9,0.6535079892943887,9.365128425997682e-05,0.46484163047087773,0,2,30.0
10,0.6417080121881822,9.529588556581396e-05,0.4522126252539256,0,2,30.0
11,0.6261325064827414,8.806390713503147e-05,0.454717597322113,0,2,30.0
12,0.6132087118485394,8.38036135332111e-05,0.437238447368145,1,2,30.0
13,0.6144770496031817,8.374707715976162e-05,0.43585130363706587,1,2,30.0
14,0.5780943120227141,7.63471662888632e-05,0.3967251308752192,1,2,30.0
15,0.5732286102631513,7.487943508107598e-05,0.3895840245761486,1,2,30.0
16,0.5492846611668082,7.25046669043984e-05,0.37724211542605285,1,2,30.0
17,0.5432032585144043,7.39895878616474e-05,0.3823044562031391,0,2,30.0
18,0.5360222528962528,7.270144440767848e-05,0.40212305852117425,0,2,30.0
19,0.5238912578891305,6.919902983046247e-05,0.39325521964304405,0,2,30.0
20,0.5080010294914246,7.14613934071488e-05,0.3703002973678137,1,2,30.0
21,0.49452707592178796,7.142227661782218e-05,0.4028998202174696,0,2,30.0
22,0.4840894236284144,7.062247977420852e-05,0.35661052219973755,1,2,30.0
23,0.4838813799269059,6.793607120498029e-05,0.34449828363407997,1,2,30.0
24,0.46441479535663827,6.767150839818093e-05,0.3262378433168918,1,2,30.0
25,0.46380199825062474,6.234805730534444e-05,0.3541717739610431,0,2,30.0
26,0.45779658135245827,6.459946714184137e-05,0.3444672489744161,0,2,30.0
27,0.4497871868750628,6.395205821129767e-05,0.3373510802979968,0,2,30.0
28,0.43800643472110523,6.721608391243909e-05,0.33796478694328175,0,2,30.0
29,0.4301824278691236,6.972063052029733e-05,0.31939304225674736,1,2,30.0
30,0.42307483343517077,6.448649561635273e-05,0.31438336709843523,1,2,30.0
31,0.41917764404240776,6.730621924575912e-05,0.31301552725655174,1,2,30.0
32,0.4001770829453188,7.015861231005093e-05,0.30638031971760726,1,2,30.0
33,0.4070021643358118,7.029340421842575e-05,0.31741045353360936,0,2,30.0
34,0.4000904325176688,6.618502743281972e-05,0.304861668787037,1,2,30.0
35,0.38930482934502997,6.973372536081383e-05,0.3114350229481711,0,2,30.0
36,0.3904097648227916,7.359537035774659e-05,0.3078320232975488,0,2,30.0
37,0.3874232463976916,6.794968764605823e-05,0.31200459456830326,0,2,30.0
38,0.38120805042631484,6.973844052374582e-05,0.3053372263046871,0,2,30.0
39,0.3866198778152466,6.785836902803139e-05,0.3050970813980429,0,2,30.0
40,0.38960045383257025,6.718819610849844e-05,0.30628135523609445,0,2,30.0
1,0.9277324130137762,0.00025384578302258714,0.5869522459897876,1,3,30.0
2,0.8099504255113148,0.0001685685772480654,0.6707372942283992,0,3,30.0
3,0.7705873286440259,0.0001411303456691149,0.5550306558837598,1,3,30.0
4,0.7425718272016162,0.00013028826253416593,0.5491291433858506,1,3,30.0
5,0.7265100656520753,0.00010870827888235605,0.557133967244385,0,3,30.0
6,0.7041311136313847,0.00010273363598874614,0.5328522737879995,1,3,30.0
7,0.6843021703617913,9.934858930396981e-05,0.5037607601625007,1,3,30.0
8,0.6631040566024327,9.995725009676313e-05,0.4806699033037242,1,3,30.0
9,0.6466976035208929,9.75425181033123e-05,0.4440833225717709,1,3,30.0
10,0.6292034057634217,9.136009629444397e-05,0.501798360111158,0,3,30.0
11,0.6168294548988342,9.184821443514444e-05,0.4808318625960574,0,3,30.0
12,0.603456736320541,8.071860836588756e-05,0.5202255148444171,0,3,30.0
13,0.5910279640839213,7.511206777486396e-05,0.4579305306205585,0,3,30.0
14,0.5643041109045347,8.483287911076332e-05,0.43804645708343326,1,3,30.0
15,0.553499430063225,8.154310485440961e-05,0.4160134656174414,1,3,30.0
16,0.5411115771248227,7.542047682190536e-05,0.397085025270799,1,3,30.0
17,0.5265538064496857,7.187146751502518e-05,0.4281566054171821,0,3,30.0
18,0.5174127504939124,6.919956818559772e-05,0.4227491196169949,0,3,30.0
19,0.5004676168873197,7.101006199913431e-05,0.42592890846363535,0,3,30.0
20,0.4862374021183877,6.621616990915278e-05,0.41224805369244555,0,3,30.0
21,0.48018153437546324,7.258230635627461e-05,0.3959603922393384,1,3,30.0
22,0.46952734639247257,6.73588058253656e-05,0.3714813489256175,1,3,30.0
23,0.46882093023686183,6.495965512190846e-05,0.3872115004982724,0,3,30.0
24,0.45651186789785114,6.512255112327347e-05,0.3741892586289865,0,3,30.0
25,0.44677905135211493,6.67082523640212e-05,0.3868095233093515,0,3,30.0
26,0.4437638315416518,6.282209211522491e-05,0.3676244256480428,1,3,30.0
27,0.42267700958819615,6.179094067365873e-05,0.34974280483342085,1,3,30.0
28,0.4209131669430506,6.347411904460474e-05,0.36683176527887384,0,3,30.0
29,0.4106520286628178,6.361710122638171e-05,0.3738866586413159,0,3,30.0
30,0.4081547260284424,6.281383801771361e-05,0.37085391133166457,0,3,30.0
31,0.3997557450618063,6.419246242980339e-05,0.35175335306534944,0,3,30.0
32,0.3949271603709176,5.996161291391001e-05,0.34192430566592735,1,3,30.0
33,0.39044341586885,5.8954614316809016e-05,0.3688949069092166,0,3,30.0
34,0.3786495565658524,5.799475638923468e-05,0.35199772340110713,0,3,30.0
35,0.3873113603109405,6.484430663736671e-05,0.3535359738214247,0,3,30.0
36,0.37574555121717,6.0990570091234986e-05,0.3595399907142753,0,3,30.0
37,0.38135126339537756,5.876282505466536e-05,0.3531164126265312,0,3,30.0
38,0.37686701615651447,6.0048224310906206e-05,0.3431143040982212,0,3,30.0
39,0.3767179933687051,6.353959530055622e-05,0.3515547775839342,0,3,30.0
1,0.940211247696596,0.00016420519883360933,0.573545425178991,1,4,30.0
2,0.8275694314171286,0.0001152624937650912,0.5503762511059852,1,4,30.0
3,0.7897375590660993,0.00010176312832353526,0.5360623886063111,1,4,30.0
4,0.7651038338156307,9.470362458480796e-05,0.5177653418246643,1,4,30.0
5,0.7379157473059261,9.884539138190175e-05,0.5564315453218516,0,4,30.0
6,0.7194721544490141,9.49263440869639e-05,0.470371703907247,1,4,30.0
7,0.6984542636310354,8.83029167786898e-05,0.477648750949536,0,4,30.0
8,0.6940747843069188,8.761958687340238e-05,0.4612265422682934,1,4,30.0
9,0.6620777038966909,8.640129509491517e-05,0.4142286262447175,1,4,30.0
10,0.6473824073286617,7.866804820985314e-05,0.4238629873153865,0,4,30.0
11,0.6403914921423968,7.442779811647009e-05,0.42119870933522296,0,4,30.0
12,0.6236938925350414,6.858748015742201e-05,0.42061690419857756,0,4,30.0
13,0.6083868861198425,6.562426980749211e-05,0.4235742707010154,0,4,30.0
14,0.5950226208742927,6.37450727962834e-05,0.38515718921254843,1,4,30.0
15,0.5655885152957019,6.404344946050139e-05,0.3833853226118004,1,4,30.0
16,0.5549544285325443,6.371714531697388e-05,0.3888576331132685,0,4,30.0
17,0.5514611493138706,6.391338461338926e-05,0.3550405663807064,1,4,30.0
18,0.5396307016120238,6.168213050627588e-05,0.3900235799233337,0,4,30.0
19,0.5244180339224198,5.578160673715448e-05,0.34782930125137823,1,4,30.0
20,0.5163619486724629,6.0871562549008936e-05,0.3673706678970907,0,4,30.0
21,0.5008737409816069,5.8021095387897836e-05,0.3497119051346303,0,4,30.0
22,0.4961783132132362,5.9972881461041705e-05,0.3262524828080854,1,4,30.0
23,0.48603043521151823,5.728030536214218e-05,0.34788287825168956,0,4,30.0
24,0.47357941199751463,6.177422730936943e-05,0.32168416438155434,1,4,30.0
25,0.4611853823942297,6.207084272104753e-05,0.3212527597819181,1,4,30.0
26,0.44764517615823185,6.167066488106845e-05,0.3058357844153572,1,4,30.0
27,0.4511262946269091,6.280644490342478e-05,0.32499149456339504,0,4,30.0
28,0.43707672077066756,5.49309142276316e-05,0.3174746195424576,0,4,30.0
29,0.4415278641616597,6.161433856879526e-05,0.3179419558789641,0,4,30.0
30,0.42943371709655315,5.9375870050109154e-05,0.30585140430610697,0,4,30.0
31,0.4196225106716156,5.781769162721877e-05,0.3050241323430647,1,4,30.0
32,0.41055355317452374,5.8470103591817485e-05,0.3091651974416478,0,4,30.0
33,0.40979051484781154,5.7636946097345034e-05,0.30558112866139453,0,4,30.0
34,0.4043349718346315,5.762774496414589e-05,0.30567799513055227,0,4,30.0
35,0.39801090429810915,5.724652570172432e-05,0.30903401300954386,0,4,30.0
36,0.40498691341456244,6.0703642863218725e-05,0.306154369589571,0,4,30.0
37,0.39045705637511086,6.122336040682379e-05,0.3118474997116096,0,4,30.0
38,0.3853379330214332,5.7440665927167764e-05,0.3005455531363148,1,4,30.0
39,0.3942656166413251,6.040356242652599e-05,0.30264486330071555,0,4,30.0
40,0.3999620300882003,6.003440546063597e-05,0.3048020248490906,0,4,30.0
1,0.9186621455585255,0.00022725861653110342,0.49133202038503143,1,5,30.0
2,0.8175170393551097,0.00013178952384110103,0.4747400844551327,1,5,30.0
3,0.7831944430575651,0.0001234062805237687,0.41554991692491267,1,5,30.0
4,0.7388106254970326,0.00011143784363144625,0.4038613008992408,1,5,30.0
5,0.7234687468584846,9.974618592155714e-05,0.3866853038615125,1,5,30.0
6,0.6881829303853652,0.00010772326221580015,0.40227704703621175,0,5,30.0
7,0.6810837759691126,9.331112198517931e-05,0.39002866145526693,0,5,30.0
8,0.651958612133475,9.168149973608225e-05,0.44124866483853603,0,5,30.0
9,0.6406305320122663,8.643672404372517e-05,0.41236243718974525,0,5,30.0
10,0.6239877010093016,8.553809594184927e-05,0.39280434002582615,0,5,30.0
11,0.6074959383291356,8.338201745680314e-05,0.36293607233150516,1,5,30.0
12,0.5982417387120864,7.485969318248167e-05,0.36218253885529983,1,5,30.0
13,0.5779815982369816,7.285824437584618e-05,0.3724820825712666,0,5,30.0
14,0.5698165578000686,7.42140673323507e-05,0.34534162049627004,1,5,30.0
15,0.5526280382100274,7.047320990857449e-05,0.35429254278447286,0,5,30.0
16,0.5436827645582312,7.014236693708774e-05,0.3294876314668541,1,5,30.0
17,0.5359659345710979,7.252522769062233e-05,0.3085735713312546,1,5,30.0
18,0.5221541934153613,7.271049501415452e-05,0.3347868140094713,0,5,30.0
19,0.5093688060255611,6.86009283098803e-05,0.3020541355138283,1,5,30.0
20,0.49731686115264895,6.856648765011307e-05,0.3116572191141592,0,5,30.0
21,0.4749917822725633,6.740845162900823e-05,0.3270294799436358,0,5,30.0
22,0.4749754193951102,7.053234431248925e-05,0.2990249393581722,1,5,30.0
23,0.4670067650430343,6.7623147419106e-05,0.2955406231490705,1,5,30.0
24,0.44798311030163485,6.502945196938098e-05,0.28637975137019706,1,5,30.0
25,0.44760934535194846,6.245732078883414e-05,0.28994038957705826,0,5,30.0
26,0.430746828808504,7.145364472628845e-05,0.2871135041537638,0,5,30.0
27,0.42606554171618294,6.1254455067683e-05,0.29156389406304767,0,5,30.0
28,0.41937838862924015,6.007650748977218e-05,0.28321613190940625,1,5,30.0
29,0.40978007001035355,6.762129851267673e-05,0.29607723478328957,0,5,30.0
30,0.40616483688354493,6.874279291985338e-05,0.2908760801284323,0,5,30.0
31,0.39198870728997626,6.637233318007715e-05,0.3027833076602233,0,5,30.0
32,0.3964894585749682,6.632925095105106e-05,0.2917357138464993,0,5,30.0
33,0.3883546636385076,6.562892308198463e-05,0.27898443385274274,1,5,30.0
34,0.3812624124919667,6.991103950627695e-05,0.29076014738335487,0,5,30.0
35,0.38336107520496143,6.84014473175493e-05,0.288701693276585,0,5,30.0
36,0.3776518032831304,6.561169340035549e-05,0.28434116112569924,0,5,30.0
37,0.3757593622978996,6.308167559087879e-05,0.28292074986191035,0,5,30.0
38,0.3720471448758069,6.580707550336443e-05,0.2773742519614592,1,5,30.0
39,0.3686559112632976,6.663727874504676e-05,0.27980373408606507,0,5,30.0
40,0.3685537108603646,6.526368220768157e-05,0.2767977276447546,1,5,30.0
1,0.910600212358293,0.00020009727744590712,0.7230740354180539,1,6,30.0
2,0.8075172376065027,0.00014469053591407524,0.6635972252131497,1,6,30.0
3,0.7642511952491033,0.00013117365328764121,0.6634622098991065,1,6,30.0
4,0.7459311024064109,0.00010940629441133101,0.606380148403766,1,6,30.0
5,0.7149394289368675,9.308140869550352e-05,0.6589362907540957,0,6,30.0
6,0.6916792924915042,0.00010351963564538718,0.5806276775245554,1,6,30.0
7,0.6768107208467665,8.520720179408922e-05,0.5886939671067618,0,6,30.0
8,0.6626092663833073,8.662345646284631e-05,0.5345449698233194,1,6,30.0
9,0.6480117968860126,7.951373737298473e-05,0.5253275050912184,1,6,30.0
10,0.6326584060277257,8.307130376903973e-05,0.5119708096097801,1,6,30.0
11,0.6090940634409586,8.287384731548151e-05,0.48702895619445474,1,6,30.0
12,0.6027062191140085,7.236093582226506e-05,0.5342248803076803,0,6,30.0
13,0.5897898794639678,7.193205246516126e-05,0.4966507506586998,0,6,30.0
14,0.5763727153340975,6.99481494545277e-05,0.5087544946533397,0,6,30.0
15,0.5557274225921858,6.807140267656429e-05,0.48839455716313745,0,6,30.0
16,0.5494201999335062,7.043787540862381e-05,0.4681861047829789,1,6,30.0
17,0.5447105509894234,6.581247764968014e-05,0.4318390056884037,1,6,30.0
18,0.5196518887366567,6.494325338107523e-05,0.4120389799079661,1,6,30.0
19,0.505654473389898,6.433440120461109e-05,0.41291678807185883,0,6,30.0
20,0.5069807838825953,6.00500094757687e-05,0.43344199169330005,0,6,30.0
21,0.49849657111224677,5.880858844604864e-05,0.4081113363357178,1,6,30.0
22,0.4742095981325422,6.140232043045606e-05,0.40555312097946045,1,6,30.0
23,0.4738694578409195,6.257946820585944e-05,0.39787873979296984,1,6,30.0
24,0.46552728045554387,5.904729494518722e-05,0.3761223492716729,1,6,30.0
25,0.4589957445859909,5.8795095745673666e-05,0.39585354155741675,0,6,30.0
26,0.45806041537296205,5.738241257599189e-05,0.3943071159444043,0,6,30.0
27,0.43765125955854145,6.110524074236829e-05,0.39621309889105943,0,6,30.0
28,0.4289116600439662,6.087036390887252e-05,0.3841707161912577,0,6,30.0
29,0.4213842334491866,5.55606668837884e-05,0.3855285015281325,0,6,30.0
30,0.4153266502987771,5.946828618367103e-05,0.37445739266906836,1,6,30.0
31,0.4188140222714061,5.646862267721666e-05,0.37846706945529923,0,6,30.0
32,0.4058714888635136,6.119302729313772e-05,0.38641459802349487,0,6,30.0
33,0.3976482113911992,5.53034815744641e-05,0.38235175831921175,0,6,30.0
34,0.4000448306046781,6.022631125580076e-05,0.3757916735505625,0,6,30.0
35,0.38586722917499994,6.02137427319706e-05,0.3668761957167141,1,6,30.0
36,0.39438580508743015,6.0757264041707716e-05,0.36819165497346384,0,6,30.0
37,0.3888928450289227,6.0214672538720715e-05,0.3661108833676158,1,6,30.0
38,0.38391934157837004,5.983415645633137e-05,0.36197215044117836,1,6,30.0
39,0.3911238674606596,5.8019680398588424e-05,0.3634348962376089,0,6,30.0
40,0.3877049989643551,5.743912628358452e-05,0.3625485947187205,0,6,30.0
1,0.9249861197812217,0.00022723271121365195,0.5260893265586424,1,7,30.0
2,0.829556309751102,0.00014554132611097192,0.4841033426117763,1,7,30.0
3,0.7672878134818304,0.00013438635557707,0.4812066783707272,1,7,30.0
4,0.7400228076037907,0.00012246116438334518,0.5351741940944226,0,7,30.0
5,0.7217177904787517,0.00010733539714974107,0.4470588938369379,1,7,30.0
6,0.690122786731947,0.00010363984776111985,0.42288328769656264,1,7,30.0
7,0.6668566777592614,0.00011980896929994092,0.45698737548616286,0,7,30.0
8,0.6360853853679839,0.0001003851725077506,0.4077553954071287,1,7,30.0
9,0.623287555362497,9.721761090899928e-05,0.43342830631055834,0,7,30.0
10,0.6022840319644838,9.461135492269282e-05,0.40678601679674,1,7,30.0
11,0.5872234950462977,8.684612887355754e-05,0.40705771174275446,0,7,30.0
12,0.5798434231962476,8.535672146709181e-05,0.3835121117855398,1,7,30.0
13,0.5558287497787249,8.280238706079434e-05,0.37598217865673533,1,7,30.0
14,0.5503367451684815,7.625647023295252e-05,0.38756772473772144,0,7,30.0
15,0.5390018398563067,7.321058945394942e-05,0.35548169446821104,1,7,30.0
16,0.5257027184679395,7.79433525860354e-05,0.3954126129611045,0,7,30.0
17,0.5202909906705221,7.133673759762176e-05,0.41267599517794923,0,7,30.0
18,0.5064799530165536,7.532069321314339e-05,0.3719774326384871,0,7,30.0
19,0.4987125180306889,7.172035730902626e-05,0.36972121773134753,0,7,30.0
20,0.4700635089760735,7.241566345328465e-05,0.3622090457058864,0,7,30.0
21,0.4750524429338319,7.333662307203104e-05,0.3373744482321939,1,7,30.0
22,0.46453067624852773,6.820626627554052e-05,0.3350923694241167,1,7,30.0
23,0.45840791648342494,6.800198311144154e-05,0.3478477324517268,0,7,30.0
24,0.4489685474407105,6.966844141840869e-05,0.3499579446933866,0,7,30.0
25,0.4416211857682183,6.309738516089662e-05,0.33083968374607053,1,7,30.0
26,0.43169296390953515,6.331603994372667e-05,0.3487847489604936,0,7,30.0
27,0.41948040078083676,7.221368650789373e-05,0.3219592180016344,1,7,30.0
28,0.4190749103824298,6.0443845541158225e-05,0.3151652211452547,1,7,30.0
29,0.40823127045517876,7.1742476956431e-05,0.32786215579785777,0,7,30.0
30,0.407323647467863,6.878832131665799e-05,0.3164608604773328,0,7,30.0
31,0.3872756596122469,6.489604358995123e-05,0.3468052718027992,0,7,30.0
32,0.39083492897805716,6.758070568529157e-05,0.3248793174496938,0,7,30.0
33,0.38240410742305575,6.533338672029676e-05,0.30803486573560307,1,7,30.0
34,0.37868006633860724,6.669649207781601e-05,0.3253422107741956,0,7,30.0
35,0.3704668613416808,6.540996478828934e-05,0.31994913966084365,0,7,30.0
36,0.3694672105567796,7.26892136905614e-05,0.3142676453245998,0,7,30.0
37,0.37725907812515896,6.689656614374447e-05,0.3150971408087201,0,7,30.0
38,0.36723500720801805,6.281212535257163e-05,0.3159536174796312,0,7,30.0
39,0.3634351804142907,6.570545450640133e-05,0.31531089061587736,0,7,30.0
40,0.3693969558392252,6.497588994880927e-05,0.31239393125617954,0,7,30.0
1,0.9289421737194061,0.00022777045142859044,0.5331655687529591,1,8,30.0
2,0.8146697985274451,0.0001466989987897077,0.5834108816366024,0,8,30.0
3,0.7911501640365237,0.00012230456052618268,0.5154786154075905,1,8,30.0
4,0.7497017426150185,0.00011683049281903853,0.5547537498692615,0,8,30.0
5,0.7289179726725533,0.00010210137883231731,0.5081291849966403,1,8,30.0
6,0.7004119611921764,0.00010045799566190301,0.5080165183215852,1,8,30.0
7,0.6858906894922256,9.598456268750375e-05,0.5218235354477864,0,8,30.0
8,0.6575404235294887,9.214433300387879e-05,0.4985214991058097,1,8,30.0
9,0.643728433620362,8.760198687966858e-05,0.5356362554167751,0,8,30.0
10,0.6283796628316244,8.76230322839027e-05,0.49542925441734925,1,8,30.0
11,0.6178080567291805,8.520559852816707e-05,0.4775646490886001,1,8,30.0
12,0.6014291353168941,8.030464461972726e-05,0.44917337848660727,1,8,30.0
13,0.5763186113465399,8.104737571557052e-05,0.46922338191076673,0,8,30.0
14,0.5758241950756028,7.56578442849873e-05,0.41191769691302677,1,8,30.0
15,0.5537400462088131,8.19965624551904e-05,0.42066867246247425,0,8,30.0
16,0.5341717160883404,7.715540816986634e-05,0.45930375220344277,0,8,30.0
17,0.5201399904631433,8.160662387776288e-05,0.416844114073944,0,8,30.0
18,0.5085103348607108,7.649630502523255e-05,0.371446813117971,1,8,30.0
19,0.4988061707644236,7.286761103300488e-05,0.3850595448714489,0,8,30.0
20,0.48920389229343053,7.109325949949423e-05,0.40086751975692236,0,8,30.0
21,0.4814020331416811,6.713091391117944e-05,0.37927170116224407,0,8,30.0
22,0.46786557102487203,6.777846911496627e-05,0.37562007287911653,0,8,30.0
23,0.4552017187788373,6.678809547468388e-05,0.38450487967357677,0,8,30.0
24,0.4484883032384373,6.797211456917769e-05,0.37978184855023905,0,8,30.0
25,0.44404022360131856,7.181225191743579e-05,0.4135767507091773,0,8,30.0
1,0.9333040338186991,0.0002660828901016863,0.5301926155997698,1,9,30.0
2,0.8084311421428408,0.00015914752795998495,0.5109263029898039,1,9,30.0
3,0.7717325417768388,0.00014131793336890128,0.4951034668986363,1,9,30.0
4,0.7379441985062191,0.00013600030788871837,0.4872976769793054,1,9,30.0
5,0.715282658735911,0.00012802798690764966,0.4580851418942044,1,9,30.0
6,0.6870016200201852,0.00011107323310473778,0.44711795310052066,1,9,30.0
7,0.662197062656993,0.00011127939597783898,0.4302093254460588,1,9,30.0
8,0.6489690371922084,0.00010873291064074562,0.44006672872532054,0,9,30.0
9,0.6286741495132446,0.00010046083501774341,0.41683037306343007,1,9,30.0
10,0.6233925443320047,9.289659235600127e-05,0.399805235321339,1,9,30.0
11,0.6069095617248899,9.108496314660269e-05,0.42330652022849524,0,9,30.0
12,0.5865959024855069,8.439063713878914e-05,0.37688860696820103,1,9,30.0
13,0.5687638620535532,8.767083701448948e-05,0.4333354532461552,0,9,30.0
14,0.5606924416053862,8.428088118047785e-05,0.3757298440328807,1,9,30.0
15,0.5539759213016147,7.87585347660795e-05,0.37343743224213916,1,9,30.0
16,0.5258663108661061,7.103423108457632e-05,0.3861396637071904,0,9,30.0
17,0.5276616577591214,6.967062247332208e-05,0.3779956856519829,0,9,30.0
18,0.5159138292074203,7.364778723837974e-05,0.37890169782564503,0,9,30.0
19,0.4996061165417944,7.151506222379837e-05,0.34341185360169924,1,9,30.0
20,0.48391483582201456,6.914198946192518e-05,0.3918681777710688,0,9,30.0
21,0.47994318178721834,6.778702546788346e-05,0.3541947068884833,0,9,30.0
22,0.4699133648758843,6.224822729044328e-05,0.35675453766904974,0,9,30.0
23,0.46052644543704535,6.1145307751888e-05,0.33923496418151183,1,9,30.0
24,0.4424418026492709,6.692261944235291e-05,0.36400578007935774,0,9,30.0
25,0.4388256044614883,6.70165805093434e-05,0.3573467756378436,0,9,30.0
26,0.43317266021456036,6.502828251714596e-05,0.38408466223567644,0,9,30.0
27,0.41843741954792113,6.507898654360491e-05,0.3220722739691948,1,9,30.0
28,0.413471900281452,6.119992858224404e-05,0.38299224586477415,0,9,30.0
29,0.40933842460314435,6.444239122737643e-05,0.3487350594106348,0,9,30.0
30,0.3986221126147679,6.900593130662205e-05,0.35729363804376857,0,9,30.0
31,0.39176305418922786,6.514304199559515e-05,0.3449624794066349,0,9,30.0
32,0.38945565017915906,6.571526115467783e-05,0.35867474717931674,0,9,30.0
33,0.38207465942416874,6.349561906626193e-05,0.33298644938616145,0,9,30.0
34,0.3691794689567316,6.598050203181282e-05,0.3396548956434275,0,9,30.0
1,0.9011769638342015,0.0002483925485969795,0.642236588633244,1,10,30.0
2,0.8037221887532402,0.00017244770099162398,0.6391769108178488,1,10,30.0
3,0.758571079899283,0.00014918170242762084,0.6305554884041977,1,10,30.0
4,0.7367806406582103,0.0001357271327459089,0.6946939836840662,0,10,30.0
5,0.7175222137395073,0.00011385296255706207,0.6073665022398829,1,10,30.0
6,0.7008557186407202,0.00010402069344897481,0.5755847172171006,1,10,30.0
7,0.6748532077845405,0.00010212033829542206,0.5750716587313792,1,10,30.0
8,0.6664625953225528,9.430935747599613e-05,0.5589721172600571,1,10,30.0
9,0.6461492314058191,0.00010047522964134045,0.5597264107477475,0,10,30.0
10,0.6287653887973113,9.34991029841031e-05,0.5792127692493381,0,10,30.0
11,0.6164856633719276,8.45502527012928e-05,0.5342227999433976,1,10,30.0
12,0.6006522406550014,8.909260808757287e-05,0.5725478268116374,0,10,30.0
13,0.5846974604270038,7.79485196878394e-05,0.5812763895857314,0,10,30.0
14,0.5765153758666095,8.450600794543895e-05,0.5530354370831421,0,10,30.0
15,0.561119239470538,7.660292621414341e-05,0.5242411225710798,1,10,30.0
16,0.5505151643472559,7.582600643646027e-05,0.5233169757929559,1,10,30.0
17,0.5381659875897801,7.72079276965301e-05,0.5460771545560981,0,10,30.0
18,0.5167483417426839,7.486785950330907e-05,0.5157761567248981,1,10,30.0
19,0.5142514663584092,6.93725049666896e-05,0.5146925189400032,1,10,30.0
20,0.5051386559710783,7.130462357000557e-05,0.48286803051690214,1,10,30.0
21,0.5035317336811739,6.94358573288328e-05,0.4958972342757904,0,10,30.0
22,0.48320428939426646,6.643767457503333e-05,0.5329760965613172,0,10,30.0
23,0.4717677751008202,6.785061324241243e-05,0.4862396257694264,0,10,30.0
24,0.4704875616466298,6.743775015553076e-05,0.4618984346938139,1,10,30.0
25,0.45508734548793117,6.314855820485665e-05,0.5247826029631395,0,10,30.0
26,0.44277377444155075,6.383277770296177e-05,0.4837143559430905,0,10,30.0
27,0.4411350081948673,6.995645415051566e-05,0.4617451033469195,1,10,30.0
28,0.4275935071356156,6.799645805799895e-05,0.4904224006155961,0,10,30.0
29,0.4284867949345533,6.44619801759665e-05,0.5170691621696861,0,10,30.0
30,0.41072921858114353,6.300671773394296e-05,0.49137397939745836,0,10,30.0
31,0.4056927302304436,6.56071980997427e-05,0.5025317279277443,0,10,30.0
32,0.40483348509844613,6.551530087188653e-05,0.5031535885748676,0,10,30.0
33,0.4023771825958701,6.791383874609464e-05,0.46414631080994423,0,10,30.0
34,0.39335613145547754,6.537893311949173e-05,0.4823238791057987,0,10,30.0
1,0.8967961259635098,0.00022841025456289636,0.663641280109122,1,11,30.0
2,0.808772907917758,0.00014919614100601547,0.5691681739422491,1,11,30.0
3,0.7734716031924788,0.00012436639328195477,0.5724741213683797,0,11,30.0
4,0.753640574863158,0.00010622568607873127,0.5519182498162388,1,11,30.0
5,0.7204532292952021,0.00010730206657128117,0.5054182641106745,1,11,30.0
6,0.7074476904179676,0.00010029799913277805,0.5715253251416924,0,11,30.0
7,0.6778972328427326,9.569737501652821e-05,0.52515386209497,0,11,30.0
8,0.6630999948604998,8.975295490214983e-05,0.540188553046399,0,11,30.0
9,0.6318108457398702,8.666329375111936e-05,0.526517753295487,0,11,30.0
10,0.6225408926067582,8.300002126082082e-05,0.5409552518933337,0,11,30.0
11,0.6059195165892681,7.738517603454045e-05,0.5084844008363167,0,11,30.0
12,0.5798984101737839,8.15080416634965e-05,0.47445494486135054,1,11,30.0
13,0.5744373410581106,8.201511331843717e-05,0.5009169809040616,0,11,30.0
14,0.5625609543668219,7.638182095357172e-05,0.4455833237654309,1,11,30.0
15,0.5490845542356192,7.35402947655705e-05,0.5183366186139795,0,11,30.0
16,0.5238641913396767,7.194619727845539e-05,0.49049928171425217,0,11,30.0
17,0.5155949887022915,7.404938300037813e-05,0.48745395440348677,0,11,30.0
18,0.511434032974473,7.494457146006984e-05,0.46034593511429533,0,11,30.0
19,0.4902181316571063,7.441017113300601e-05,0.4558307479028678,0,11,30.0
20,0.4798168030129858,7.111191108236538e-05,0.4348571985250018,1,11,30.0
21,0.48787030505846785,6.84287606637521e-05,0.41705408030764185,1,11,30.0
22,0.4617743923003415,6.671264523595392e-05,0.41050035860191775,1,11,30.0
23,0.46362346590283404,6.405119838526876e-05,0.4277551085716109,0,11,30.0
24,0.449102497962584,7.044699046366669e-05,0.40655097684444347,1,11,30.0
25,0.4435358571718974,6.912306208143863e-05,0.4075470495372529,0,11,30.0
26,0.4280899095248027,6.409403852240396e-05,0.3950328502707771,1,11,30.0
27,0.4280659355312945,6.708662950115402e-05,0.4182006492961523,0,11,30.0
28,0.4094344312886158,7.125409723242677e-05,0.4161084823217544,0,11,30.0
29,0.4117336187017969,6.404145767509724e-05,0.43807459641316754,0,11,30.0
30,0.41417667556958027,6.518766671630936e-05,0.4354625531172712,0,11,30.0
31,0.3967298631926617,6.428926307231143e-05,0.4240208737626087,0,11,30.0
32,0.39100946970732814,6.852177050103524e-05,0.4150592321607344,0,11,30.0
33,0.38109438641961796,6.958388503225723e-05,0.4141877455001651,0,11,30.0
1,0.9289389141770297,0.00020571616965584283,0.5906643969517165,1,12,30.0
2,0.8202812955823056,0.00014588835797757236,0.6398145549426465,0,12,30.0
3,0.7835456742796787,0.00011464557492006354,0.5613190559434161,1,12,30.0
4,0.7624098173407621,0.00010883615661526186,0.557952636082748,1,12,30.0
5,0.7396328837372536,0.00010341839799028009,0.5658135995137389,0,12,30.0
6,0.7187970883624498,9.431002535017986e-05,0.5422160784983977,1,12,30.0
7,0.693160281624905,9.563270451021814e-05,0.4973643929558953,1,12,30.0
8,0.6671814911587294,0.00010267792957926948,0.5207833767988715,0,12,30.0
9,0.6490576648434927,0.00010479318878551143,0.48071188792635616,1,12,30.0
10,0.6382234775742819,9.8049772891817e-05,0.4349543220551465,1,12,30.0
11,0.6215276929528214,8.920188059185653e-05,0.4707925144003862,0,12,30.0
12,0.6198134214379066,7.801883209119064e-05,0.4665724010984059,0,12,30.0
13,0.5918712328339732,8.223779966714955e-05,0.4994077358513972,0,12,30.0
14,0.5805582819983016,7.842157385819646e-05,0.43890279793933185,0,12,30.0
15,0.5628998948391094,7.765455763525774e-05,0.46389746564915846,0,12,30.0
16,0.5554872803216757,7.353161607508895e-05,0.4256503345011482,1,12,30.0
17,0.5388796239398247,7.595947009090302e-05,0.3972794728973817,1,12,30.0
18,0.5318013284095499,7.059066584313472e-05,0.4037513011756385,0,12,30.0
19,0.5262738684582156,7.550720079581329e-05,0.4173891091926687,0,12,30.0
20,0.5075259763141011,6.810590410929952e-05,0.3963166742381263,1,12,30.0
21,0.4999032426019048,6.249947812669466e-05,0.40467459113925464,0,12,30.0
22,0.4927453183850577,6.468614449045691e-05,0.38923571882779734,1,12,30.0
23,0.48057224861411163,6.430394099625964e-05,0.3775916057577215,1,12,30.0
24,0.47486818495184874,6.705341640850366e-05,0.3711910377499928,1,12,30.0
25,0.46048389687094576,6.630620026594125e-05,0.3574322818951987,1,12,30.0
26,0.45256910906281583,5.6771465393086504e-05,0.37376046852981865,0,12,30.0
27,0.4320401362208433,6.136134208307255e-05,0.3290485574934701,1,12,30.0
28,0.4336902367514233,6.358543929351536e-05,0.34045947984871355,0,12,30.0
29,0.43750260042589767,6.745378244844223e-05,0.379561520972245,0,12,30.0
30,0.4187517942384232,5.83517697990363e-05,0.35479557111781285,0,12,30.0
31,0.4179462045431137,6.416272278096754e-05,0.36328252881679113,0,12,30.0
32,0.4073543888191844,5.959160934739779e-05,0.34511242396287545,0,12,30.0
33,0.3990890747585962,6.451759928008975e-05,0.3418768224755123,0,12,30.0
34,0.3918297483130943,6.145787369331269e-05,0.3559442468114863,0,12,30.0
1,0.9392857253551483,0.0002201624908290493,0.6357465450763702,1,13,30.0
2,0.8200266148362841,0.00015544108091922854,0.6326539397239686,1,13,30.0
3,0.7710903343700227,0.0001249261884887736,0.6189962689876556,1,13,30.0
4,0.7511127860773177,0.00010578617457213113,0.5423552105426789,1,13,30.0
5,0.7226373233965465,0.00010753317400528994,0.5037327177524566,1,13,30.0
6,0.7141312098219281,8.66173997045345e-05,0.45978156608343124,1,13,30.0
7,0.6795971500022071,8.524818288909349e-05,0.4394038931727409,1,13,30.0
8,0.6738243897755941,8.668367224475202e-05,0.43729588770866396,1,13,30.0
9,0.6537125713768459,9.150557681485745e-05,0.44518753719329834,0,13,30.0
10,0.6341578492096492,8.349991007673365e-05,0.42426052677631376,1,13,30.0
11,0.6186298135490644,7.129717444816681e-05,0.4415687218308449,0,13,30.0
12,0.6124373564407939,7.692712149167034e-05,0.4237528591752052,1,13,30.0
13,0.5883527564860526,7.02030399787916e-05,0.3841523095369339,1,13,30.0
14,0.5840329659127054,7.299422945617975e-05,0.3717334944009781,1,13,30.0
15,0.5733073854020664,6.648601239638603e-05,0.3733612084984779,0,13,30.0
16,0.556376440894036,6.87424636842999e-05,0.3696609430909157,1,13,30.0
17,0.547736922899882,6.908072862729786e-05,0.3565758132338524,1,13,30.0
18,0.5503440623482069,6.23910531257501e-05,0.3439691183269024,1,13,30.0
19,0.5251120172795796,6.10075206904661e-05,0.3524607337117195,0,13,30.0
20,0.5167757801356769,5.909010945158245e-05,0.3426010425388813,1,13,30.0
21,0.5074615613335655,6.46718146873311e-05,0.3617811678349972,0,13,30.0
22,0.4937416283147676,6.707483035348733e-05,0.3396584105789661,1,13,30.0
23,0.4981442324462391,6.0023268599165714e-05,0.35049170327186585,0,13,30.0
24,0.4774719022569202,6.02230625840353e-05,0.31162055596709254,1,13,30.0
25,0.4658857342742738,6.096863026392557e-05,0.32939429776370527,0,13,30.0
26,0.45888922540914445,6.266445628474078e-05,0.337555848300457,0,13,30.0
27,0.4497629925608635,6.0236572218335436e-05,0.31917214561253787,0,13,30.0
28,0.442652437658537,6.51400383676879e-05,0.32497340900450944,0,13,30.0
29,0.42747779190540314,5.694017432861507e-05,0.3263191967755556,0,13,30.0
30,0.4313709906169346,6.321731269140618e-05,0.32068780981004236,0,13,30.0
31,0.43391123449518565,6.55500064004584e-05,0.32854174920916557,0,13,30.0
1,0.9195436526493854,0.0002167835606876424,0.6089331063962536,1,14,30.0
2,0.8027217639497963,0.00014427703341009118,0.5165002451168385,1,14,30.0
3,0.7589846274938928,0.00012729799617586815,0.5006019678146972,1,14,30.0
4,0.7324695637427181,0.0001129468180872472,0.5088558392148875,0,14,30.0
5,0.718576362334102,0.00010345932772118004,0.42912002281075057,1,14,30.0
6,0.6929160406790584,9.867238850895237e-05,0.47258513688147646,0,14,30.0
7,0.6792525390544569,9.299678176063595e-05,0.4292038016785044,0,14,30.0
8,0.6589963242232081,8.564504219888125e-05,0.41556221834695545,1,14,30.0
9,0.6423199295279491,9.091504038969358e-05,0.3830461549992372,1,14,30.0
10,0.6404983588011868,8.442809542112266e-05,0.37840740327908867,1,14,30.0
11,0.6115132423050432,7.489618493934129e-05,0.3962391699579629,0,14,30.0
12,0.6096653406878552,7.561353886996519e-05,0.35390986372469935,1,14,30.0
13,0.5897658499608557,7.194212887854124e-05,0.35964517577099153,0,14,30.0
14,0.568461858723537,7.484821060599468e-05,0.3302799361781352,1,14,30.0
15,0.5604437575282821,7.277476132836148e-05,0.36275330917257637,0,14,30.0
16,0.5419119424130543,7.151672752477308e-05,0.34251925196116734,0,14,30.0
17,0.5316118120429028,6.983761700376565e-05,0.3264824263607395,1,14,30.0
18,0.5194010752511312,6.887975125363187e-05,0.3382210549637243,0,14,30.0
19,0.5120704946029617,6.72282436119213e-05,0.3200974273468355,1,14,30.0
20,0.49174212547669927,6.87330377923538e-05,0.33384394534724826,0,14,30.0
21,0.4919998100005,6.545962158664893e-05,0.3356337931792556,0,14,30.0
22,0.4803678766790643,6.808404398188612e-05,0.3045847445719189,1,14,30.0
23,0.4801416278603565,6.29630471465419e-05,0.2942718847634945,1,14,30.0
24,0.46640883547713957,5.7985478283133335e-05,0.29571542533283884,0,14,30.0
25,0.44514371831733063,6.322315886177695e-05,0.3016937605791673,0,14,30.0
26,0.4499998713832304,6.497579626563701e-05,0.3180894466473701,0,14,30.0
27,0.43688104382480486,6.479797782257188e-05,0.29045820829226154,1,14,30.0
28,0.4238322072000389,6.25251793598543e-05,0.2912118455838246,0,14,30.0
29,0.41768548754324397,6.617213718078369e-05,0.30278514287429115,0,14,30.0
30,0.4171246613364622,6.362772660669366e-05,0.3056579462614638,0,14,30.0
31,0.4223506989249264,6.41701085715981e-05,0.3066626003649756,0,14,30.0
32,0.4075921583606536,6.101664454824886e-05,0.2956803330585966,0,14,30.0
33,0.40197232509233866,5.9061891824309994e-05,0.2963957847663466,0,14,30.0
34,0.39515972640140945,6.110335119276908e-05,0.2874613277455594,1,14,30.0
35,0.39121001132999556,6.246633974257407e-05,0.28802024889413114,0,14,30.0
36,0.3989257126687521,6.097776678366957e-05,0.2914926859854614,0,14,30.0
37,0.38243574478540077,6.333008072449803e-05,0.2901874299033237,0,14,30.0
38,0.38482928922377435,6.137339605848833e-05,0.2917854325626067,0,14,30.0
39,0.3802606517291931,5.950401766795149e-05,0.2934439954072295,0,14,30.0
40,0.3831050905836634,6.313708564196433e-05,0.2947107827258467,0,14,30.0
1,0.9039406904152462,0.0002383697988296349,0.8113218163803305,1,15,30.0
2,0.8043634721211025,0.00015345867467701844,0.6915059543273728,1,15,30.0
3,0.7656980284622737,0.0001095381899826212,0.607712944043575,1,15,30.0
4,0.7427221714031129,0.00010095406807002811,0.6563604389408499,0,15,30.0
5,0.7254404780410585,9.031147796382097e-05,0.6037217360311644,1,15,30.0
6,0.697933764684768,9.133140511472621e-05,0.5806422729524221,1,15,30.0
7,0.6757072848933083,7.798376888482987e-05,0.5155724329934697,1,15,30.0
8,0.6568844552550998,8.503327236602283e-05,0.5681870379512003,0,15,30.0
9,0.6456750418458667,7.401021459719188e-05,0.546364089577761,0,15,30.0
10,0.6186913571187428,7.27999809203625e-05,0.5060628461517437,1,15,30.0
11,0.6164226507147154,7.44844055805602e-05,0.5231957501962409,0,15,30.0
12,0.5948155572017034,7.071096782359139e-05,0.5104633072058665,0,15,30.0
13,0.5819320639684087,8.061370716036653e-05,0.5042551613471787,1,15,30.0
14,0.5792439374185744,7.00527466289627e-05,0.4898628599641419,1,15,30.0
15,0.545282552994433,6.887506640937535e-05,0.49138048685901226,0,15,30.0
16,0.5469576166499228,6.721697878847841e-05,0.5025422325976293,0,15,30.0
17,0.5341873005742118,6.643861745812631e-05,0.4981260236188226,0,15,30.0
18,0.5233190453478268,6.812096455091488e-05,0.4589470965276524,1,15,30.0
19,0.5131832347029731,6.803980522818165e-05,0.42236153852916725,1,15,30.0
20,0.4889549712340037,7.041504128816693e-05,0.4580477733529689,0,15,30.0
21,0.49410597873585566,6.266214270345656e-05,0.45475207712508436,0,15,30.0
22,0.48609009101277306,6.685742287767685e-05,0.4559474755042803,0,15,30.0
23,0.4678176935939562,6.653848071263859e-05,0.4530851116793627,0,15,30.0
24,0.46246414276815595,6.600398574803312e-05,0.42566305370339963,0,15,30.0
25,0.4540520576494081,6.242063067301864e-05,0.4385853050537622,0,15,30.0
26,0.44257335932481856,6.76091255324233e-05,0.4402077254086676,0,15,30.0
1,0.9134738536442027,0.00018990585488020716,0.890567740057684,1,16,30.0
2,0.8120498909669764,0.00013408693741760492,0.8505464121541146,1,16,30.0
3,0.7768998363438775,0.00011286409811445457,0.8194266636153948,1,16,30.0
4,0.7431881112210891,0.00011039728911675732,0.6399732966711567,1,16,30.0
5,0.7151370427187751,0.00010819722524234642,0.6581344885431277,0,16,30.0
6,0.7075149192529566,9.22889873275862e-05,0.624726925369534,1,16,30.0
7,0.6835742473602295,0.00010029158708194326,0.6610184244795716,0,16,30.0
8,0.6668545877232271,9.230439489543e-05,0.5758856434984065,1,16,30.0
9,0.647487448944765,8.859884906354744e-05,0.5862952176552669,0,16,30.0
10,0.6322829264051774,7.967398791258936e-05,0.63638262346292,0,16,30.0
11,0.6122842634425444,8.26102938684498e-05,0.6172605961751026,0,16,30.0
12,0.5940691555247587,7.672922040322138e-05,0.5115976564570344,1,16,30.0
13,0.5821981156573576,7.248109999208656e-05,0.5433778375577015,0,16,30.0
14,0.5659460008144379,7.492603955838336e-05,0.5854300459225973,0,16,30.0
15,0.5532859430593603,8.330399449572295e-05,0.48689547029270486,1,16,30.0
16,0.5411457696381737,6.790718385566245e-05,0.5096835881914555,0,16,30.0
17,0.5276267044684466,6.609634669182603e-05,0.5330097319404031,0,16,30.0
18,0.5211014702039607,6.828946994466926e-05,0.6213132850430321,0,16,30.0
19,0.5023980954114129,7.036522198605406e-05,0.4727810182768828,1,16,30.0
20,0.4993569728206186,6.411864532685071e-05,0.47484465591973307,0,16,30.0
21,0.4924532883307513,6.823046988917186e-05,0.4768861083594604,0,16,30.0
22,0.4756239722756779,6.588184546939481e-05,0.5434924062903014,0,16,30.0
23,0.47640735086272745,6.546329776242868e-05,0.47770414888985346,0,16,30.0
24,0.45532878216575173,6.49476852713098e-05,0.4049642268734373,1,16,30.0
25,0.45199081091319815,6.697763753489947e-05,0.48029119310991525,0,16,30.0
26,0.4337112710756414,6.136023435186979e-05,0.4322950388848655,0,16,30.0
27,0.43267494264770956,6.466600701541586e-05,0.4850071895464211,0,16,30.0
28,0.43300849023987265,6.737261201659053e-05,0.46541255674544413,0,16,30.0
29,0.4142997482243706,6.367088790284469e-05,0.44909416518773243,0,16,30.0
30,0.4176877126974218,6.509712693514302e-05,0.43976439064222284,0,16,30.0
31,0.40627628915450154,6.630541444310974e-05,0.46014356834620174,0,16,30.0
1,0.9182331648217626,0.0002723841267674376,0.731157857544781,1,17,30.0
2,0.808031454143754,0.00014937092142995918,0.7653392173410714,0,17,30.0
3,0.762793533055179,0.0001361530504879508,0.7220852012499349,1,17,30.0
4,0.731897751250899,0.00013223948040963095,0.7140237935313405,1,17,30.0
5,0.7090631105813635,0.0001221720585269932,0.650899124994022,1,17,30.0
6,0.6824493731360838,0.0001084217836316647,0.6734157793632466,0,17,30.0
7,0.6763437857110817,9.882945741115822e-05,0.6308324740162877,1,17,30.0
8,0.648241550089365,9.667925642353079e-05,0.6178196569754717,1,17,30.0
9,0.6245291376688394,8.815263677809208e-05,0.5934562665491844,1,17,30.0
10,0.6199219356100243,8.745117415253252e-05,0.5256010000127755,1,17,30.0
11,0.5949904857629753,8.5598649290539e-05,0.5752486316984913,0,17,30.0
12,0.586972225861377,8.450875971157732e-05,0.5515939643539166,0,17,30.0
13,0.5614867483276919,8.206364329825772e-05,0.49446591442426974,1,17,30.0
14,0.552694619420063,8.222403323680376e-05,0.5309657098262494,0,17,30.0
15,0.5293717258665935,7.5798284638314e-05,0.5163844929106073,0,17,30.0
16,0.5156243870775383,8.041386689614863e-05,0.5238372632436011,0,17,30.0
17,0.5129457040723547,7.528291799721353e-05,0.4525066548073827,1,17,30.0
18,0.48214431484061554,7.492002009986395e-05,0.5197909319797225,0,17,30.0
19,0.48169064737228023,7.096001328213185e-05,0.46521577324018387,0,17,30.0
20,0.46667970627187244,6.536905309613177e-05,0.45725606475655717,0,17,30.0
21,0.47140283182442905,7.370874181905964e-05,0.503144737385222,0,17,30.0
22,0.4475562974631068,7.421010723849479e-05,0.4818923388067698,0,17,30.0
23,0.443110841943557,7.371188590937036e-05,0.49791991789319934,0,17,30.0
24,0.4406023276857583,6.549522451283578e-05,0.4796556054198269,0,17,30.0
1,0.9351892810921336,0.00022550938660441356,0.5913860856203985,1,18,30.0
2,0.8259233215520548,0.00013859227125744098,0.6231986377297378,0,18,30.0
3,0.7776704978111179,0.00011611608449108412,0.5543554461156278,1,18,30.0
4,0.7474064473495927,0.00011016832193194586,0.5080280302244758,1,18,30.0
5,0.728046968925831,9.155708531304912e-05,0.4743457371312884,1,18,30.0
6,0.7014633292375609,9.572056144459693e-05,0.4589860601353338,1,18,30.0
7,0.6864282273968985,8.973801494332377e-05,0.5088309263909393,0,18,30.0
8,0.6790651089923326,8.514791434843277e-05,0.41576447038346076,1,18,30.0
9,0.6544806673083194,8.205242353819072e-05,0.45578795729613886,0,18,30.0
10,0.6456743042136348,8.183721742128445e-05,0.44104373980970946,0,18,30.0
11,0.634609230382498,7.8534446169384e-05,0.39127570612187706,1,18,30.0
12,0.6119118048701175,7.925348764665825e-05,0.4051576165420937,0,18,30.0
13,0.6025061333595321,7.068818491080852e-05,0.3714586650153657,1,18,30.0
14,0.5909509845944338,7.50210394556255e-05,0.3569138146541382,1,18,30.0
15,0.5729297146547673,7.170360858740317e-05,0.40851160722278285,0,18,30.0
16,0.5584510124700014,7.189183008111201e-05,0.3643697067432458,0,18,30.0
17,0.5459811150334603,6.814013304815596e-05,0.38058730281750475,0,18,30.0
18,0.5258122069198031,6.864475611553982e-05,0.39959409809009927,0,18,30.0
19,0.5343137865149697,6.780118852729238e-05,0.31632065203473764,1,18,30.0
20,0.5135573581900708,6.535993545481307e-05,0.3224482639490959,0,18,30.0
21,0.5075377790733825,6.341025348161184e-05,0.30661131415938375,1,18,30.0
22,0.5013749128164247,6.273557140280731e-05,0.315046176036427,0,18,30.0
23,0.49074739945489304,6.606161362067851e-05,0.29266915422686546,1,18,30.0
24,0.4652650980062263,6.190145291458426e-05,0.2824505601799813,1,18,30.0
25,0.4617381456286408,6.269630360949059e-05,0.3534848574415341,0,18,30.0
26,0.46038738967374315,6.359371548379111e-05,0.3149486121565232,0,18,30.0
27,0.4484380854423656,6.294080243563702e-05,0.32437294371842995,0,18,30.0
28,0.4397737817015759,6.078362449168412e-05,0.3033701274196592,0,18,30.0
29,0.42887080582075343,6.339054363157037e-05,0.289023624858692,0,18,30.0
30,0.4327444877735404,6.739997259628157e-05,0.2855370599535993,0,18,30.0
31,0.4212586020314416,6.40497999610975e-05,0.2880664958416817,0,18,30.0
1,0.9158204197883606,0.00026416738260845056,0.5772128168860154,1,19,30.0
2,0.8058936709449405,0.00015282397223581072,0.5433323282436134,1,19,30.0
3,0.77578095524084,0.00013228868192527443,0.5318626205114374,1,19,30.0
4,0.7437391941036496,0.00011224780532107356,0.482229788342484,1,19,30.0
5,0.7315828360262371,0.00010154293197826649,0.49718444692299113,0,19,30.0
6,0.7002913029420943,9.899003751862827e-05,0.49723778403344887,0,19,30.0
7,0.678729351077761,9.848426786144653e-05,0.47304520586263366,1,19,30.0
8,0.6630037391469592,9.315170687581745e-05,0.47456701787353867,0,19,30.0
9,0.6618739366531372,8.972913028195589e-05,0.45541870750278635,1,19,30.0
10,0.6340654605910891,9.404064725718595e-05,0.4305826021998867,1,19,30.0
11,0.620013215357349,9.114013266211951e-05,0.46431596810801606,0,19,30.0
12,0.6003643036598251,8.782421220876997e-05,0.4204128433041555,1,19,30.0
13,0.5824929702849615,8.515985285027585e-05,0.44653653219287914,0,19,30.0
14,0.570381390551726,7.567869029333538e-05,0.4485644315943158,0,19,30.0
15,0.561602250805923,7.246356679908266e-05,0.4274208078624846,0,19,30.0
16,0.5565956919675782,7.398367389604183e-05,0.4394620473868919,0,19,30.0
17,0.5322274838884672,6.652368262751094e-05,0.4145572593689128,1,19,30.0
18,0.5229914777335667,7.293401432391311e-05,0.4082958705526384,1,19,30.0
19,0.5141802880735624,7.048657629465673e-05,0.4655354263160246,0,19,30.0
20,0.4978283991416295,7.187308840782083e-05,0.39749787900538014,1,19,30.0
21,0.501386304696401,6.933095006561849e-05,0.36390287775188723,1,19,30.0
22,0.46654908962192987,6.963814835866547e-05,0.39087571847871544,0,19,30.0
23,0.4666780393038477,7.410799723099142e-05,0.4066474187426622,0,19,30.0
24,0.4547384438060579,7.223274743799786e-05,0.3800797255476654,0,19,30.0
25,0.4418934672361329,7.151813757185923e-05,0.38205857912977004,0,19,30.0
26,0.4396403080650738,6.949873260877904e-05,0.3691865706800473,0,19,30.0
27,0.42548955054510207,7.211314438055048e-05,0.362941028905143,1,19,30.0
28,0.42452666802065714,6.494718516998026e-05,0.3716668158923508,0,19,30.0
29,0.4102716680083956,6.564373602270193e-05,0.3731145216513058,0,19,30.0
30,0.4087508079551515,6.483649589686788e-05,0.3859654185413083,0,19,30.0
31,0.3990737966128758,7.162164205337398e-05,0.3618356613548674,1,19,30.0
32,0.3969880534069879,6.900055610631604e-05,0.375721753184386,0,19,30.0
33,0.3970611090106623,7.104737085769774e-05,0.3657571616218191,0,19,30.0
34,0.3806260739053999,6.941840906836747e-05,0.36124365640428474,1,19,30.0
35,0.3862412618029685,6.857641940206079e-05,0.36480197299233347,0,19,30.0
36,0.37814500750530333,6.51841376003133e-05,0.36075429724991087,1,19,30.0
37,0.3821083584002086,6.617650671528064e-05,0.3594655333859744,1,19,30.0
38,0.3764058589225724,6.807334869206118e-05,0.358001820857038,1,19,30.0
39,0.3799851710597674,6.574405406787438e-05,0.36609365427198926,0,19,30.0
40,0.36948946295749574,6.713070970796426e-05,0.3599908196960292,0,19,30.0
1,0.9250392111993971,0.0002761424084816272,0.5583305106062851,1,20,30.0
2,0.8207277946528935,0.00015512374444543164,0.5639948732178834,0,20,30.0
3,0.7895373077619643,0.0001366563826325416,0.5603219154657632,0,20,30.0
4,0.7557476006803059,0.00012455374114021348,0.5138649858867891,1,20,30.0
5,0.7285777323302769,0.00011521543845966724,0.5977661978522071,0,20,30.0
6,0.7093538776749656,9.954709743656817e-05,0.4772354428198653,1,20,30.0
7,0.6827993094921112,0.00010290551662841434,0.45796759830070277,1,20,30.0
8,0.6722011289426258,9.379159759451536e-05,0.45586659037324123,1,20,30.0
9,0.649966747987838,9.012805271811972e-05,0.42623137264573346,1,20,30.0
10,0.6385581528856641,8.642222573620355e-05,0.4206839799907737,1,20,30.0
11,0.6152523567988759,8.168784093175505e-05,0.3987607480750747,1,20,30.0
12,0.609805204683826,7.629292737138236e-05,0.4168411261195382,0,20,30.0
13,0.5784115326546487,8.078833720251819e-05,0.40014954052485574,0,20,30.0
14,0.5834516141386259,7.782907561618014e-05,0.401613054880442,0,20,30.0
15,0.5648143759795597,7.274075990911417e-05,0.390205015957013,1,20,30.0
16,0.5348550184142022,6.987887973948437e-05,0.3429984374139935,1,20,30.0
17,0.5295249266283852,7.069928545076567e-05,0.37583895635260245,0,20,30.0
18,0.5111332223528907,7.374235026093499e-05,0.3781066518138692,0,20,30.0
19,0.5121751055121422,7.394591700306461e-05,0.3720553596957765,0,20,30.0
20,0.4981003463977859,7.489616850112466e-05,0.37655666765643414,0,20,30.0
21,0.5001255433474269,6.592854589100517e-05,0.33700466412548774,1,20,30.0
22,0.47793097971450715,6.201747549182204e-05,0.3338341007344933,1,20,30.0
23,0.4787338078022003,6.879274657140264e-05,0.32535519409074803,1,20,30.0
24,0.4592585393360683,6.671423887469463e-05,0.3364620348753,0,20,30.0
25,0.4562867258985837,6.804381111925024e-05,0.32417572861609134,1,20,30.0
26,0.44578383756535395,6.87999964135261e-05,0.31594635336397864,1,20,30.0
27,0.43747494440703166,6.573633440677353e-05,0.3322142505080046,0,20,30.0
28,0.43539333308026906,6.882584620186771e-05,0.31106061457487094,1,20,30.0
29,0.4236667879990169,6.41182557609725e-05,0.30527183916112055,1,20,30.0
30,0.4260104734982763,6.043540772571716e-05,0.3143234889691676,0,20,30.0
31,0.4099875255709603,6.621372730954871e-05,0.31840917265663843,0,20,30.0
32,0.39955187447014306,6.89576497842652e-05,0.3144950031599189,0,20,30.0
33,0.3925045757066636,6.838598671622873e-05,0.31607449227716145,0,20,30.0
34,0.39250647702387403,6.914598413589244e-05,0.3133911814846978,0,20,30.0
35,0.385256837166491,6.722338444628153e-05,0.30425929948812414,1,20,30.0
36,0.37990825445879073,6.632837409727342e-05,0.3186753023434087,0,20,30.0
37,0.39215325883456637,6.50873596983036e-05,0.3098317203585746,0,20,30.0
38,0.3805589094048455,6.339321918771712e-05,0.3112690125761283,0,20,30.0
39,0.38769758208876565,6.351810116895995e-05,0.31120284769736695,0,20,30.0
40,0.3902214045325915,6.461107005591094e-05,0.3107614464757294,0,20,30.0
1,0.9127054846002942,0.00024063441058041506,0.5756956884829846,1,21,30.0
2,0.8088543585368565,0.00015898740544105836,0.6134715895729757,0,21,30.0
3,0.7619226305257707,0.00012156868372888614,0.5583556833042721,1,21,30.0
4,0.7309393804697764,0.00011519936353059685,0.5566688510388437,1,21,30.0
5,0.7090479731559753,0.00010902649531393156,0.5555423798160304,1,21,30.0
6,0.6761685858170191,0.00010915725774144189,0.50030176674303,1,21,30.0
7,0.6574950920683997,0.00010346785949791193,0.475651773246956,1,21,30.0
8,0.6351048690932137,9.69322965309922e-05,0.49607760970275744,0,21,30.0
9,0.6184176802635193,9.33966803131625e-05,0.43416494906080866,1,21,30.0
10,0.5990137940361386,9.495834153009734e-05,0.4462830669661887,0,21,30.0
11,0.5913595741703397,9.177628379845937e-05,0.41141937660603856,1,21,30.0
12,0.5779762076480048,8.472492962547611e-05,0.4490564611706206,0,21,30.0
13,0.5611076475608916,8.032282979305212e-05,0.4705466389589954,0,21,30.0
14,0.5421986874370348,8.820120447559194e-05,0.396691304029856,1,21,30.0
15,0.523134551587559,7.626784333427037e-05,0.4585919396973373,0,21,30.0
16,0.5213900435538519,7.550920110502158e-05,0.42603909394145745,0,21,30.0
17,0.5038182611266772,7.833529568978563e-05,0.38206000046128263,1,21,30.0
18,0.49638644818748745,6.99338087586165e-05,0.4236190862437613,0,21,30.0
19,0.48781958257868174,6.779796655921797e-05,0.45505670268737775,0,21,30.0
20,0.48063893687157405,6.744514186201351e-05,0.40906539828958904,0,21,30.0
21,0.4708937175926708,6.823076988179569e-05,0.36157059687124793,1,21,30.0
22,0.4531176576302165,7.440783645593218e-05,0.38721501743129416,0,21,30.0
23,0.4542697671623457,6.738576229552218e-05,0.4060036177143899,0,21,30.0
24,0.4366307705640793,6.712567474529525e-05,0.3516544351913907,1,21,30.0
25,0.42677169541517895,7.02011859521874e-05,0.35377600028769324,0,21,30.0
26,0.41897444285097574,6.857816537203256e-05,0.36015805551570595,0,21,30.0
27,0.4128456630167507,6.969707023277547e-05,0.345115191384228,1,21,30.0
28,0.4144487909617878,7.196140549716628e-05,0.36103514771993916,0,21,30.0
29,0.4029206175889288,6.88742391156709e-05,0.37386377951341926,0,21,30.0
30,0.4021103690777506,7.029636210409946e-05,0.34435639827929315,1,21,30.0
31,0.38363783132462276,7.071769990337391e-05,0.364162397105132,0,21,30.0
32,0.3870809880040941,7.038861821499831e-05,0.34883138644840733,0,21,30.0
33,0.37751596687095507,6.851108047980925e-05,0.3519105327953574,0,21,30.0
34,0.3656226240453266,6.801652874682553e-05,0.3502206508991223,0,21,30.0
35,0.371508213026183,6.860865540234262e-05,0.3533905827010357,0,21,30.0
36,0.3660052088754518,6.398756254167806e-05,0.34719585618685994,0,21,30.0
37,0.36458301526449977,7.068374924572362e-05,0.35015612559488085,0,21,30.0
1,0.9019121896652949,0.00024401652695988084,0.6833230480014049,1,22,30.0
2,0.7971729245923814,0.00013836562036539406,0.6243995830570299,1,22,30.0
3,0.749855780175754,0.0001287163396184388,0.622362884756216,1,22,30.0
4,0.7221293264911288,0.00011190433352090796,0.6398705161992729,0,22,30.0
5,0.6966570324840999,0.00010308046191875335,0.6045632333446717,1,22,30.0
6,0.6818323610793977,0.0001034735958542331,0.6535694575954958,0,22,30.0
7,0.6633191676366896,0.00010450332493270426,0.6027383627350797,1,22,30.0
8,0.6393422236045202,0.00010269598074262918,0.6413840907251405,0,22,30.0
9,0.6210419702387991,9.316648239681464e-05,0.5882127685741204,1,22,30.0
10,0.6094636576516288,9.585667240095237e-05,0.580543607250144,1,22,30.0
11,0.5970081754383587,8.845109771625306e-05,0.575261437582793,1,22,30.0
12,0.5862809323838779,8.031339361228415e-05,0.5727549816789009,1,22,30.0
13,0.56476319758665,8.012851698627596e-05,0.5484071732033045,1,22,30.0
14,0.5369096352230935,7.882928228008539e-05,0.5665462709958521,0,22,30.0
15,0.5283488514167922,8.160192122713419e-05,0.5115781287113013,1,22,30.0
16,0.5235280731604213,6.995861964415304e-05,0.5215291549168412,0,22,30.0
17,0.5107259707791465,7.181973666904793e-05,0.49799037505776533,1,22,30.0
18,0.4941910384666352,7.302636822714703e-05,0.5493723398241329,0,22,30.0
19,0.4824204200080463,7.314689056719155e-05,0.48232968080159966,1,22,30.0
20,0.4709549067275865,7.020926928124114e-05,0.5238626948461782,0,22,30.0
21,0.4626567931402297,7.108958566061032e-05,0.5097098966986037,0,22,30.0
22,0.46290638262317296,6.932537867431252e-05,0.48832348265334696,0,22,30.0
23,0.4488638075334685,6.921241380214702e-05,0.4669173248030591,1,22,30.0
24,0.4419496130375635,6.413701058114558e-05,0.49038985227042636,0,22,30.0
25,0.42359942020404906,6.451236619059706e-05,0.47294094776986745,0,22,30.0
26,0.4299174373348554,6.578345264209755e-05,0.49468134645355827,0,22,30.0
27,0.42427031163658413,6.667478148648072e-05,0.44374946492973755,1,22,30.0
28,0.40962508356287364,6.232422943174329e-05,0.4601375146113701,0,22,30.0
29,0.40142182473625454,6.053595253823525e-05,0.48427704660937226,0,22,30.0
30,0.39539712099801927,6.47412293151969e-05,0.45172724865950625,0,22,30.0
31,0.38807221821376253,6.152097722363015e-05,0.4695931012548996,0,22,30.0
32,0.38596762007191066,6.186715152233817e-05,0.4517615765183756,0,22,30.0
33,0.37253234890245257,6.177257594009418e-05,0.4685664828190431,0,22,30.0
34,0.37874517199539004,6.229073893510282e-05,0.45406495646055134,0,22,30.0
1,0.9308282857717469,0.00020560945775414016,0.5536187155978621,1,23,30.0
2,0.8258340441903402,0.00014781191372136628,0.5228491379055927,1,23,30.0
3,0.7703751956307611,0.00013315693112692613,0.488186517254305,1,23,30.0
4,0.7402913944665775,0.00011956003042943721,0.48158510432880297,1,23,30.0
5,0.7208131080450013,0.00010663490773071698,0.5322651215543588,0,23,30.0
6,0.700741650753243,9.612031837689777e-05,0.4818388103925384,0,23,30.0
7,0.6846010234466818,8.900707807908982e-05,0.43977883908412646,1,23,30.0
8,0.6504039230734803,9.092275159187117e-05,0.46186363867062424,0,23,30.0
9,0.6501516595829365,8.11324075478952e-05,0.43888460594158124,1,23,30.0
10,0.6338480350583099,8.21904328023625e-05,0.43824040225268557,1,23,30.0
11,0.6077127383891926,8.853678234519848e-05,0.4489064188334808,0,23,30.0
12,0.6008826140747514,8.143668877215364e-05,0.43722862863702244,1,23,30.0
13,0.5792393119529237,7.631161882505525e-05,0.44994910103441194,0,23,30.0
14,0.5689350813627243,7.40720973036057e-05,0.39059249098541304,1,23,30.0
15,0.5613135418226552,7.410241088892204e-05,0.4080085699667166,0,23,30.0
16,0.5356335137472596,6.893982479300047e-05,0.41534331725819307,0,23,30.0
17,0.5347066188967505,6.49229471512859e-05,0.3882957927102054,1,23,30.0
18,0.5170192739298177,6.939892913113338e-05,0.3689450683864925,1,23,30.0
19,0.5044007796880811,6.407537677110075e-05,0.3847827325156603,0,23,30.0
20,0.5040141905463019,6.329502557914672e-05,0.37666866135623317,0,23,30.0
21,0.4896410488805106,6.721199996570439e-05,0.3643685364567082,1,23,30.0
22,0.481426392530286,6.324057840386156e-05,0.34493731104723313,1,23,30.0
23,0.467693013853805,6.427692367355502e-05,0.3639103336666338,0,23,30.0
24,0.4674996314353721,6.020989433657865e-05,0.3503027013946189,0,23,30.0
25,0.4526087263988894,5.646396756103143e-05,0.3232264906942289,1,23,30.0
26,0.44697649984858756,6.30488914815265e-05,0.35782246636602877,0,23,30.0
27,0.43971727337948113,6.141557419458728e-05,0.3407621088884066,0,23,30.0
28,0.43800821900367737,5.790463369204338e-05,0.3490390324040898,0,23,30.0
29,0.42628948944945666,6.33682600807312e-05,0.3270624399214638,0,23,30.0
30,0.4154324521159017,5.952134698989455e-05,0.33059305697574315,0,23,30.0
31,0.41067554957644886,5.867310874448375e-05,0.3557395785226387,0,23,30.0
32,0.4054123111242472,5.947469029241231e-05,0.32613521332194223,0,23,30.0
1,0.9117736184880847,0.0002178608250514593,0.7036780676076769,1,24,30.0
2,0.8083757715565818,0.00013426851234856128,0.7466365931789402,0,24,30.0
3,0.7650212141729537,0.00012168051822906516,0.6873204220946019,1,24,30.0
4,0.7461577774513335,0.00010994988107475885,0.6673248504035869,1,24,30.0
5,0.7231680651505789,9.783470193811116e-05,0.656281964242579,1,24,30.0
6,0.714084077449072,0.00010089824467112998,0.6027138234994672,1,24,30.0
7,0.693839139172009,9.450847483094549e-05,0.5994062300183272,1,24,30.0
8,0.6755178443023137,8.955416420316656e-05,0.6007714412865127,0,24,30.0
9,0.650130549357051,9.173162509666457e-05,0.5751887774962162,1,24,30.0
10,0.6362146955160868,9.474651752887959e-05,0.5205880147273,1,24,30.0
11,0.6160767163549151,9.30018554104858e-05,0.5890233769432193,0,24,30.0
12,0.5963751386318888,8.805528020838254e-05,0.5232162968168858,0,24,30.0
13,0.5879016951436088,8.448609588369782e-05,0.520032576583175,1,24,30.0
14,0.5831251250846046,8.179833228149662e-05,0.47166013022364395,1,24,30.0
15,0.5527968016408739,8.482208968849765e-05,0.4575658806633611,1,24,30.0
16,0.5485767289286568,7.949167718920979e-05,0.49488215771341615,0,24,30.0
17,0.5377293594536328,7.495602213090197e-05,0.5342466548718663,0,24,30.0
18,0.5236748194410688,8.081913321283147e-05,0.48603933073791417,0,24,30.0
19,0.5050748536984125,7.40442217734415e-05,0.45760325407269997,0,24,30.0
20,0.49188770069962456,7.343774086621124e-05,0.4536820970596331,1,24,30.0
21,0.48344158310265767,7.325986327833518e-05,0.46485102470768125,0,24,30.0
22,0.4703867981831233,7.138739233812972e-05,0.44943745407136343,1,24,30.0
23,0.46720354649282636,6.671404367980791e-05,0.4663421853864,0,24,30.0
24,0.4571153674097288,6.304898687674376e-05,0.43008775493273366,1,24,30.0
25,0.45920385739633013,6.528271331349278e-05,0.43343010932388093,0,24,30.0
26,0.4427608134491103,6.506908002414829e-05,0.4367001734462827,0,24,30.0
27,0.42416565120220184,6.665534302945681e-05,0.45199147556052516,0,24,30.0
28,0.4253643165741648,7.200266160604467e-05,0.4443578888258712,0,24,30.0
29,0.41954582645779565,6.361717368279296e-05,0.4259343392966006,1,24,30.0
30,0.412987755168052,6.69193691681444e-05,0.41894886710564133,1,24,30.0
31,0.4056985413744336,6.461635842112758e-05,0.4395448975868312,0,24,30.0
32,0.4092002830335072,6.2786577992873e-05,0.4274245956196235,0,24,30.0
33,0.3992276730991545,6.204168320913422e-05,0.4490718361940461,0,24,30.0
34,0.38728082747686476,5.9920360572938256e-05,0.4188311939025939,1,24,30.0
35,0.38643772687230793,6.085669493976249e-05,0.41899764727846334,0,24,30.0
36,0.37870167195796967,5.9265270855186305e-05,0.4219120279527627,0,24,30.0
37,0.3791539314247313,6.0586003114405597e-05,0.4203147100443058,0,24,30.0
38,0.3744436527291934,6.089039128537046e-05,0.4189845598660983,0,24,30.0
39,0.37329781765029546,6.250161697521217e-05,0.41494667959901005,1,24,30.0
40,0.38118331205277217,6.204665615292643e-05,0.4253424497600268,0,24,30.0
1,0.9153841329472405,0.0001991286389100077,0.5596219019390928,1,25,30.0
2,0.813275911978313,0.00014894225785697234,0.5992561530479243,0,25,30.0
3,0.7669280221064886,0.0001284264454582063,0.534878269287662,1,25,30.0
4,0.7401496015843891,0.00011952117178485164,0.5200663493042981,1,25,30.0
5,0.7154635148388999,0.00011639262967426995,0.4971398648691609,1,25,30.0
6,0.6878252589986438,0.00010951327861957474,0.48821992077068305,1,25,30.0
7,0.6714378460532143,9.596430434266083e-05,0.4639283773494918,1,25,30.0
8,0.6600555057326952,9.956963402232976e-05,0.4608464697656977,1,25,30.0
9,0.6388608096610933,9.17749736929961e-05,0.43523162975907326,1,25,30.0
10,0.6117017545870372,9.771543071630211e-05,0.43828490392962693,0,25,30.0
11,0.5965183998147646,8.257769448911339e-05,0.4163882995110522,1,25,30.0
12,0.5870209857821465,8.574445075196091e-05,0.42510692250935483,0,25,30.0
13,0.564275650041444,8.18004336906597e-05,0.46578337632914185,0,25,30.0
14,0.5557828786827269,7.90123834425079e-05,0.402838824942738,1,25,30.0
15,0.5365831071422213,8.38783373962672e-05,0.3885286702124226,1,25,30.0
16,0.5313972678212893,7.584677327291242e-05,0.3901887508540206,0,25,30.0
17,0.5043637568042392,7.564431944913286e-05,0.41603555810268616,0,25,30.0
18,0.4964107306940215,7.851573623373129e-05,0.3889534730694708,0,25,30.0
19,0.4938684911245391,7.533690058196607e-05,0.37178438550172377,1,25,30.0
20,0.4867469051054546,7.014388756942935e-05,0.38941793373487965,0,25,30.0
21,0.4725783903683935,6.930472508905776e-05,0.35594629792222976,1,25,30.0
22,0.46407612696999595,7.081446056829355e-05,0.35372778630892276,1,25,30.0
23,0.4609736232530503,6.431755740604352e-05,0.3443404399064675,1,25,30.0
24,0.44047449138902484,6.636463469822913e-05,0.34455024300731524,0,25,30.0
25,0.4377038822997184,6.462649257411526e-05,0.35880863426114534,0,25,30.0
26,0.4227793514728546,6.953908164827485e-05,0.35080031273508033,0,25,30.0
27,0.425210341101601,6.695660032987472e-05,0.35850714923349214,0,25,30.0
28,0.41334548592567444,6.301254866446557e-05,0.34666602810567443,0,25,30.0
29,0.4013917591600191,6.567322145114996e-05,0.34759356342893194,0,25,30.0
30,0.40609089143219446,6.498543336333352e-05,0.3480565470514043,0,25,30.0
1,0.9250283787647883,0.00022042842413481724,0.5657767866540515,1,26,30.0
2,0.8226515232097535,0.0001311960120022247,0.5474539126277803,1,26,30.0
3,0.7729720409427371,0.00011490697319719143,0.4968857512128891,1,26,30.0
4,0.7440638137715203,0.00010353605076878531,0.5195182227346161,0,26,30.0
5,0.7310501478967213,0.00010365184031494816,0.49773239729952024,0,26,30.0
6,0.7012435467470259,9.931492894836646e-05,0.42207422428296965,1,26,30.0
7,0.6785288602113724,0.00010163918271982333,0.4285163784004379,0,26,30.0
8,0.659226988752683,9.358935854141324e-05,0.4292390315316551,0,26,30.0
9,0.6569624720584779,8.269179311138855e-05,0.4110348167042266,1,26,30.0
10,0.6239356054436593,7.9839426689432e-05,0.40565253407510976,1,26,30.0
11,0.6113287710717746,8.381206368669934e-05,0.4149617033670958,0,26,30.0
12,0.5937383618383181,7.97545668493036e-05,0.38772629557610544,1,26,30.0
13,0.5626821507300649,8.506522464726696e-05,0.39793469806638426,0,26,30.0
14,0.5600537781914076,7.662305723074713e-05,0.3798925372155376,1,26,30.0
15,0.5499356619658924,7.897526843624378e-05,0.3678056986509021,1,26,30.0
16,0.5348001005394118,7.224279601186503e-05,0.377313894610213,0,26,30.0
17,0.5319748737272763,6.876352597914992e-05,0.3779254958992102,0,26,30.0
18,0.502830966242722,6.724464531414145e-05,0.36881501883673073,0,26,30.0
19,0.489006360017118,6.832380525641686e-05,0.372293054828186,0,26,30.0
20,0.47906725853681564,6.810448294778499e-05,0.3811270251001552,0,26,30.0
21,0.4812714432676633,6.955237438974326e-05,0.37648349280813487,0,26,30.0
22,0.4647488551480429,6.615413795294618e-05,0.3908463138224275,0,26,30.0
1,0.9224757821786971,0.00020491599995390666,0.6020177377139025,1,27,30.0
2,0.8151643716153645,0.00014557745227994885,0.6266779239602417,0,27,30.0
3,0.7713544148774374,0.00013091779163958215,0.6542130568732134,0,27,30.0
4,0.7300628913300378,0.00013138320822950585,0.5930137418300999,1,27,30.0
5,0.7130777204320544,0.00011260901322072771,0.5921653719083501,1,27,30.0
6,0.6928239024820781,0.00010395135433056913,0.6154652318732459,0,27,30.0
7,0.6550946618829455,9.869283578501338e-05,0.5709523533278631,1,27,30.0
8,0.6327727855671019,0.00010387200884343613,0.5210993499890996,1,27,30.0
9,0.626499361935116,9.501443842704507e-05,0.5117190154457865,1,27,30.0
10,0.604808706612814,9.278216549275731e-05,0.4990455339915357,1,27,30.0
11,0.592120715550014,7.839292686098598e-05,0.5444593371649985,0,27,30.0
12,0.5877683059800238,7.684353923174232e-05,0.47270590446979893,1,27,30.0
13,0.5640936273904074,7.668525402204112e-05,0.49371388596803073,0,27,30.0
14,0.5417472439862433,8.214744446463773e-05,0.42152408570775135,1,27,30.0
15,0.5378577609856924,7.209268321838906e-05,0.44334467545694667,0,27,30.0
16,0.5199199325981594,7.39456347132329e-05,0.4355626516496604,0,27,30.0
17,0.5141274329452288,6.701255361327813e-05,0.44142282015157613,0,27,30.0
18,0.49963798232021783,6.57394976293463e-05,0.44458644586777396,0,27,30.0
19,0.48746440488667714,6.815724866880503e-05,0.43338100063173396,0,27,30.0
20,0.4851387022506623,6.890899432965809e-05,0.4350460955669523,0,27,30.0
21,0.47097270829336985,6.484012170576967e-05,0.45448029584247573,0,27,30.0
1,0.9275180612291608,0.0002206551254771295,0.5111890508654596,1,28,30.0
2,0.8200282816376004,0.0001312986709568317,0.5042619900735225,1,28,30.0
3,0.7902726502645583,0.00011204234488104703,0.4933749199454879,1,28,30.0
4,0.7541338638180778,0.00010229967293049586,0.48752711885686284,1,28,30.0
5,0.7251857306276049,0.0001157014500807106,0.4753315410815717,1,28,30.0
6,0.7153738403604144,0.00010557522039432245,0.44465626990312457,1,28,30.0
7,0.6817432265906107,9.457520649275033e-05,0.4827494979212243,0,28,30.0
8,0.6701707272302537,0.00010377856086138526,0.43452318455379224,1,28,30.0
9,0.6453267073347455,8.694397629802726e-05,0.4606050324596819,0,28,30.0
10,0.6225770832527251,8.908551219411449e-05,0.4168827646098817,1,28,30.0
11,0.6164177212686766,8.347889758754588e-05,0.3884429393238167,1,28,30.0
12,0.5819680204703694,7.595994243491164e-05,0.3908834577938881,0,28,30.0
13,0.5820335178148179,7.810080690736261e-05,0.3856616908067987,1,28,30.0
14,0.5636972664367585,6.881564288397342e-05,0.3750922768800505,1,28,30.0
15,0.5473402124785242,6.653904243389011e-05,0.37470254125921026,1,28,30.0
16,0.5356928376214845,5.928647156646808e-05,0.37676332251133043,0,28,30.0
17,0.5178004237157958,6.27266393469957e-05,0.34815407971663376,1,28,30.0
18,0.5151539320747057,6.224944536370458e-05,0.3378023702589219,1,28,30.0
19,0.502669618952842,6.067861345183614e-05,0.3620363798531075,0,28,30.0
20,0.4950660527462051,6.783624645495798e-05,0.3651585013844161,0,28,30.0
21,0.4898447972678003,6.225388109929295e-05,0.37303653697233946,0,28,30.0
22,0.47864889956655954,6.0984863033635995e-05,0.34098797975161527,0,28,30.0
23,0.4703139989149003,5.5856207143820246e-05,0.3611640462866752,0,28,30.0
24,0.45802850950331914,5.9800130873641355e-05,0.3383511118590832,0,28,30.0
25,0.4514829445452917,6.060360889629616e-05,0.3378244276022961,0,28,30.0
1,0.9294810692469279,0.00026154623351647474,0.6213016941798684,1,29,30.0
2,0.8135215242703756,0.0001601376108218184,0.5997232593423603,1,29,30.0
3,0.7798948749190285,0.00014009265742927148,0.5812207662584237,1,29,30.0
4,0.7513032789741244,0.00011014160758176807,0.5017575974329578,1,29,30.0
5,0.7354332818871453,0.00010960858578203312,0.5325352395255032,0,29,30.0
6,0.7107320754300981,0.00010207882851751666,0.48763956738621533,1,29,30.0
7,0.6754111477306911,0.00010134432990785822,0.4524650838503801,1,29,30.0
8,0.6649577922764278,9.767762774226001e-05,0.4587673005377419,0,29,30.0
9,0.6483166707413537,9.20883967410191e-05,0.42576509070580293,1,29,30.0
10,0.6303990646487191,9.634640662711935e-05,0.45786841353138186,0,29,30.0
11,0.6102857110755784,8.550530427393304e-05,0.4012310922299069,1,29,30.0
12,0.6089204152425131,8.563165552221195e-05,0.41451401209463495,0,29,30.0
13,0.582515527449903,8.088730863251147e-05,0.3994633572573527,1,29,30.0
14,0.583046042848201,7.946039871361184e-05,0.44149130970469475,0,29,30.0
15,0.5531924615303675,7.672942865610821e-05,0.3889124585837509,1,29,30.0
16,0.5549416907486462,7.303721369161005e-05,0.4129818416576459,0,29,30.0
17,0.5413669078123002,6.79437950263188e-05,0.3882019404350639,1,29,30.0
18,0.5217867827131635,7.07624451370932e-05,0.4274653983376633,0,29,30.0
19,0.5141533708998135,6.717108542597132e-05,0.39363217591320027,0,29,30.0
20,0.5077715498350915,6.828401044566861e-05,0.3678405665263419,1,29,30.0
21,0.4895026055829866,6.635328827542253e-05,0.3877868465523793,0,29,30.0
22,0.47663294665870215,7.038466135002506e-05,0.4004987781718948,0,29,30.0
23,0.46819870989947093,6.51706057050476e-05,0.36066991648514657,1,29,30.0
24,0.4644978323153087,7.326253615333588e-05,0.3964219073288545,0,29,30.0
25,0.4542721559604009,6.955026081067488e-05,0.35364785510807234,1,29,30.0
26,0.44027422297568547,6.88468817748972e-05,0.3532592884142785,1,29,30.0
27,0.4223650104942776,6.603977484094987e-05,0.34805373706517306,1,29,30.0
28,0.4306115994141215,6.779516436273254e-05,0.3464685938160646,1,29,30.0
29,0.4216937745610873,6.501319941370249e-05,0.37310931153576293,0,29,30.0
30,0.40671919463645845,6.678467893618203e-05,0.330331767306383,1,29,30.0
31,0.40376227916706176,6.832914827793415e-05,0.3549284028286799,0,29,30.0
32,0.4028796727458636,6.649149794871587e-05,0.3343984099310897,0,29,30.0
33,0.3949815673487527,6.622718406322834e-05,0.3501919514607341,0,29,30.0
34,0.3876946054044224,6.564455517426333e-05,0.34774743472932235,0,29,30.0
35,0.3861859584493296,6.843232832969599e-05,0.34182655168146586,0,29,30.0
36,0.38512947339387166,7.006488314280952e-05,0.3416106316416613,0,29,30.0
37,0.3793477403620879,6.50668399820071e-05,0.3469316337937561,0,29,30.0
1,0.913369766403647,0.0002625521851073512,0.6924708237288649,1,30,30.0
2,0.7940356373786926,0.00017732724193004234,0.7176872888896818,0,30,30.0
3,0.7500269405982074,0.00014491772847524022,0.7266702400850599,0,30,30.0
4,0.7245538164587582,0.00013856487759553334,0.670529521779423,1,30,30.0
5,0.6965441395254696,0.00012220558410798034,0.6959627908776834,0,30,30.0
6,0.6744968028629528,0.00011384144711294485,0.6772693328006448,0,30,30.0
7,0.6460910523639006,0.00011642759902101449,0.6085463175509724,1,30,30.0
8,0.6293547251645256,9.727915992912398e-05,0.6545846994222351,0,30,30.0
9,0.6206509548075059,9.891561494441703e-05,0.5894792376428623,1,30,30.0
10,0.6042102817226859,9.601974700618644e-05,0.5935668779731375,0,30,30.0
11,0.5817815117976245,9.35649302418289e-05,0.5533520092437596,1,30,30.0
12,0.5608882283463198,8.838220965117216e-05,0.5273487173881618,1,30,30.0
13,0.5530107151059543,7.831716309952111e-05,0.5431236027075119,0,30,30.0
14,0.5351398313746732,7.894193335874555e-05,0.5678340156971876,0,30,30.0
15,0.5133538779090433,7.991442663992262e-05,0.542636253420445,0,30,30.0
16,0.5052033319192775,7.47791635684039e-05,0.5310822620178418,0,30,30.0
17,0.48853756680208094,7.752810201696669e-05,0.5221624672868914,1,30,30.0
18,0.47619399778983174,7.362368346280966e-05,0.4897562886201828,1,30,30.0
19,0.46635907152119804,7.235822837067056e-05,0.5005290869455258,0,30,30.0
20,0.4494174245525809,6.972392802708782e-05,0.49401605659390374,0,30,30.0
21,0.44428510315277997,7.137104416067493e-05,0.4752102190478059,1,30,30.0
22,0.43046802843318266,6.905501461861765e-05,0.4744621213792508,1,30,30.0
23,0.4283850589219262,7.251905258539516e-05,0.511119945773328,0,30,30.0
24,0.41739079776932214,7.050105944953805e-05,0.5373642296473063,0,30,30.0
25,0.41652625904363744,6.502959419295247e-05,0.5352007995277179,0,30,30.0
26,0.40076809069689584,6.735094374401823e-05,0.5136755246177859,0,30,30.0
27,0.40011283299502204,6.820866495699567e-05,0.5072942062152098,0,30,30.0
28,0.3932245457873625,6.553378925138317e-05,0.48751214447221536,0,30,30.0
29,0.3777374404318192,6.408976979026406e-05,0.4860120582826829,0,30,30.0
1,0.924590795881608,0.00020380545645500258,0.6348790615278527,1,31,30.0
2,0.8107199430465698,0.00013919742777943612,0.587960099950083,1,31,30.0
3,0.7716090658131768,0.00011824708353207611,0.533567380836016,1,31,30.0
4,0.7464851610800799,0.00011875669802333611,0.5201841638961309,1,31,30.0
5,0.714098931761349,0.0001031893388083999,0.5012444185761252,1,31,30.0
6,0.699476140386918,0.0001053757022258223,0.5208561440481727,0,31,30.0
7,0.6759558474316316,9.673543155419311e-05,0.49845480135143283,1,31,30.0
8,0.6586186535218183,8.868222404784961e-05,0.4723963543743891,1,31,30.0
9,0.6534334063529968,8.608872770256473e-05,0.4938821445093962,0,31,30.0
10,0.6273932996918173,8.666149682111984e-05,0.4697723432539972,1,31,30.0
11,0.6248284637928009,8.598204157726072e-05,0.4429400051082079,1,31,30.0
12,0.5999662402798148,7.707791831789484e-05,0.4225013330023251,1,31,30.0
13,0.5960056781768799,7.26794007812928e-05,0.42822956218101543,0,31,30.0
14,0.5750505310647628,6.869244213756995e-05,0.4037684952169945,1,31,30.0
15,0.5661339034052456,6.619624546146951e-05,0.4058762057665072,0,31,30.0
16,0.5586266398429871,6.65904649769586e-05,0.3830463388156443,1,31,30.0
17,0.5331393743262571,7.237096793045673e-05,0.3434616361051032,1,31,30.0
18,0.5196592628955841,6.605455237149727e-05,0.37113995634037894,0,31,30.0
19,0.5221245867364547,6.840017710654886e-05,0.32639371322453004,1,31,30.0
20,0.4956746592241175,6.414428605828161e-05,0.33797947724767236,0,31,30.0
21,0.4962379813194275,7.111214012291064e-05,0.3450003038269813,0,31,30.0
22,0.49181462491259853,6.346271714873557e-05,0.35640139522551006,0,31,30.0
23,0.47721763463581307,6.817747408229693e-05,0.35113150486709727,0,31,30.0
24,0.4561868446714738,6.847432878738105e-05,0.3261329037752296,1,31,30.0
25,0.4537417033139397,6.253409532398698e-05,0.33006480752648126,0,31,30.0
26,0.4399780206820544,6.402890948640347e-05,0.3336203672018574,0,31,30.0
27,0.446961876224069,6.637643797576482e-05,0.30029252130055717,1,31,30.0
28,0.4319870741928325,6.720924862105782e-05,0.31119450320507963,0,31,30.0
29,0.43165192218387827,5.698592486784465e-05,0.3151417116494888,0,31,30.0
30,0.4227836812243742,6.479664602118325e-05,0.33516356077799314,0,31,30.0
31,0.4092452915275798,5.856644381899113e-05,0.3208335234570885,0,31,30.0
32,0.41284680576885446,6.188482216470327e-05,0.31780808586375187,0,31,30.0
33,0.39809991927707894,6.343136774376035e-05,0.32313861731759785,0,31,30.0
34,0.39705619461396163,6.393888817161924e-05,0.30516205017357956,0,31,30.0
1,0.9189115899154939,0.00021916258949029023,0.5701949808530771,1,32,30.0
2,0.8155971061752503,0.000172513230028422,0.49894667784033336,1,32,30.0
3,0.76248693681625,0.00015586098085903753,0.5623823181573029,0,32,30.0
4,0.7449672875634159,0.00014213345442051404,0.5115731528624963,0,32,30.0
5,0.7033818737570062,0.00013165418852852792,0.4929476381904832,1,32,30.0
6,0.6947540001696851,0.00012281233096265244,0.48211841102678893,1,32,30.0
7,0.6624247266585568,0.00010434414062148286,0.44526305082913026,1,32,30.0
8,0.6402528142354574,0.00010964545330659666,0.4353966091433142,1,32,30.0
9,0.6258567277207432,0.0001045836340260821,0.4390339571045108,0,32,30.0
10,0.6053563869861235,0.00010742400977998995,0.46455775851566,0,32,30.0
11,0.5810324093663549,9.812639153272149e-05,0.4175789305004526,1,32,30.0
12,0.5753781985805695,9.404520451754657e-05,0.4269216961076117,0,32,30.0
13,0.5614908445312317,8.858409843474896e-05,0.4268122679798918,0,32,30.0
14,0.5353406937007444,8.400681204020877e-05,0.4187999518069899,0,32,30.0
15,0.530837965298848,8.395483948049102e-05,0.436920465468115,0,32,30.0
16,0.513399138867137,8.957840248743207e-05,0.45337941259824993,0,32,30.0
17,0.49957259519990665,8.212529270627806e-05,0.43170523272025957,0,32,30.0
18,0.48471964195550205,7.444956351817776e-05,0.4360720218218516,0,32,30.0
1,0.9056598345438639,0.00024244129625523264,0.7756390064851046,1,33,30.0
2,0.8101285994052887,0.00016701000259629274,0.6935768334420498,1,33,30.0
3,0.7658519106251853,0.00014279825284445127,0.6550717761111798,1,33,30.0
4,0.7425157051710856,0.00011936425350237793,0.578509581143098,1,33,30.0
5,0.7044430829229809,0.00012067460396619503,0.6132901566348027,0,33,30.0
6,0.6917626382339568,0.0001004980016053499,0.5985811179308876,0,33,30.0
7,0.6632580806811651,0.00010448383264225587,0.6352084749541471,0,33,30.0
8,0.6436724712451299,9.51705135213117e-05,0.557554864228557,1,33,30.0
9,0.6305613837071827,9.358260437390224e-05,0.5352532440658058,1,33,30.0
10,0.6173285075596401,9.404239539262129e-05,0.48954116966248507,1,33,30.0
11,0.5969255435324851,7.938912473210145e-05,0.4687542064981676,1,33,30.0
12,0.5839010289027577,7.966858750781587e-05,0.4919163083892363,0,33,30.0
13,0.5774212064487594,8.137674125291163e-05,0.4734896297200592,0,33,30.0
14,0.5555514249773252,7.523688033134455e-05,0.48355635032409644,0,33,30.0
15,0.5442434453538486,7.46039608029172e-05,0.46371205901880336,1,33,30.0
16,0.5278935400503022,7.798805403408118e-05,0.44995842329192864,1,33,30.0
17,0.5277090189712388,6.851229166689639e-05,0.4251059595251925,1,33,30.0
18,0.517662604295072,6.895586405638217e-05,0.4962698668130381,0,33,30.0
19,0.4974984076051485,7.075571998679411e-05,0.4299126954116307,0,33,30.0
20,0.478123097547463,6.880131548400858e-05,0.43193001058040614,0,33,30.0
21,0.4745164219112623,6.566466890944866e-05,0.3917157956573343,1,33,30.0
22,0.464239154897985,6.395338299452782e-05,0.4165717234236371,0,33,30.0
23,0.46028078347444534,6.368422310472288e-05,0.3980658383229287,0,33,30.0
24,0.4380715127502169,6.622457407328988e-05,0.4078109197794517,0,33,30.0
25,0.4367865937806311,6.3630809953403e-05,0.43363320863783256,0,33,30.0
26,0.42746160747039885,6.510206072735378e-05,0.3899192006440415,1,33,30.0
27,0.4235254263594037,6.92502168194984e-05,0.38711771689746144,1,33,30.0
28,0.40216133495171863,6.758274035486725e-05,0.4135736059966948,0,33,30.0
29,0.39981375350838616,6.307339173785987e-05,0.3933064321339827,0,33,30.0
30,0.40184932610108737,6.202788933608514e-05,0.37951537680594805,1,33,30.0
31,0.38931859532992047,6.435539641339953e-05,0.4170970204174,0,33,30.0
32,0.38090793717475163,6.33403201174501e-05,0.3782845647339349,1,33,30.0
33,0.38671667590027764,5.916241761518731e-05,0.39137251488077324,0,33,30.0
34,0.3747000616221201,6.628951346751169e-05,0.38214312953466567,0,33,30.0
35,0.3663706765288398,6.609122530270335e-05,0.3788281831183808,0,33,30.0
36,0.3676816595806962,6.206572011467957e-05,0.3792281207340794,0,33,30.0
37,0.36823512329941704,6.314555565993596e-05,0.36903037822182844,1,33,30.0
38,0.3584740243497349,6.362010154112969e-05,0.3744993050233837,0,33,30.0
39,0.36281570490627063,5.709152360179273e-05,0.37154018576690995,0,33,30.0
40,0.3620868790007773,6.44092082265637e-05,0.37177340305180445,0,33,30.0
1,0.9240422121116093,0.00021839858536189976,0.7912594064792854,1,34,30.0
2,0.8224811149494988,0.00015362266363115937,0.5945968331949718,1,34,30.0
3,0.7828069215729123,0.00012716552044453455,0.5494677434355225,1,34,30.0
4,0.7518801249208904,0.00011643823329775062,0.5848365271360003,0,34,30.0
5,0.7324968356461752,0.00010259105987469888,0.46750183148085195,1,34,30.0
6,0.7146418683585667,9.627447235245546e-05,0.5284936838764168,0,34,30.0
7,0.6917956776562191,9.975750977208095e-05,0.4721467693452153,0,34,30.0
8,0.6752267174777531,9.318170603884417e-05,0.48833777373848186,0,34,30.0
9,0.6594245270604179,8.7888375457537e-05,0.46007132121561556,1,34,30.0
10,0.6425106262876874,8.540730829866203e-05,0.4445587376189162,1,34,30.0
11,0.6277423731627918,8.328888482841042e-05,0.4003765166506361,1,34,30.0
12,0.6149509840068363,8.535779631659222e-05,0.3877045006639927,1,34,30.0
13,0.5959743995751653,8.213594732556626e-05,0.3688056117523896,1,34,30.0
14,0.5758390306007295,7.575774504532871e-05,0.40523434091034644,0,34,30.0
15,0.5626217949958074,7.484876139295964e-05,0.3444685975963525,1,34,30.0
16,0.5476329323081743,7.657996091092216e-05,0.34279956413938295,1,34,30.0
17,0.5399641369779905,7.904727482084473e-05,0.33114475108150404,1,34,30.0
18,0.5334162722740855,6.610630836283755e-05,0.3459498956726534,0,34,30.0
19,0.5235921815037727,6.851205147367658e-05,0.34504710904064423,0,34,30.0
20,0.5094327057401339,6.910017002935222e-05,0.34126150791955623,0,34,30.0
21,0.5068453965442521,6.697871785512515e-05,0.3093339355989021,1,34,30.0
22,0.49689069390296936,6.354902203990302e-05,0.3090201845131705,1,34,30.0
23,0.48669823152678354,6.408228091459023e-05,0.28894040359222456,1,34,30.0
24,0.4784469391618456,6.456777958062178e-05,0.2993799608554709,0,34,30.0
25,0.4563406872607413,6.418404059548353e-05,0.2943922166259235,0,34,30.0
26,0.45291999230782193,6.864896992434903e-05,0.3043220322816309,0,34,30.0
27,0.44110841516937527,6.400105944305237e-05,0.310016255858596,0,34,30.0
28,0.43523727392866496,6.560057820371141e-05,0.2950246294378417,0,34,30.0
29,0.4278247104514213,6.743032134268323e-05,0.30956610082762714,0,34,30.0
30,0.42199933777252835,6.43050868910948e-05,0.29284115224697216,0,34,30.0
1,0.8987058535927818,0.0002519245408620918,0.7155632198103203,1,35,30.0
2,0.8070119023323059,0.00016914790804938612,0.7497496749928667,0,35,30.0
3,0.7594132849148342,0.00013850679473155955,0.7541225614133945,0,35,30.0
4,0.7199280701932453,0.00013902350465719966,0.7212024539216491,0,35,30.0
5,0.6859127346958432,0.00012518487009011942,0.6575859859585762,1,35,30.0
6,0.6684536458480925,0.00011923442408650382,0.620633981629344,1,35,30.0
7,0.6407671620448431,0.00011905308946595705,0.6219030648839375,0,35,30.0
8,0.6186773461245355,9.700319324543844e-05,0.5994144744616895,1,35,30.0
9,0.5977629047064554,9.684291338392843e-05,0.5857554860259137,1,35,30.0
10,0.5849239641711825,9.316726746397936e-05,0.5761605737007354,1,35,30.0
11,0.5657274570493471,8.552612953714007e-05,0.5633112890876768,1,35,30.0
12,0.5478907905164219,8.710735420165639e-05,0.5658655318870278,0,35,30.0
13,0.5408514067530632,8.046641704866142e-05,0.5455015556625098,1,35,30.0
14,0.532462922944909,7.29677117089436e-05,0.49452368554097315,1,35,30.0
15,0.5042831308784939,7.794895732548044e-05,0.4954126977076954,0,35,30.0
16,0.4966881449023883,7.116495674251513e-05,0.5045137206662046,0,35,30.0
17,0.5000343138263339,7.225890039124005e-05,0.5094635271397997,0,35,30.0
18,0.47601864735285443,7.682179403629908e-05,0.5087778215134932,0,35,30.0
19,0.46287008303971516,7.572140787358097e-05,0.48129471680842156,1,35,30.0
20,0.4569102717297418,7.227086206555777e-05,0.46148506847541193,1,35,30.0
21,0.45046321728399824,6.99497372590399e-05,0.4954231309873814,0,35,30.0
22,0.44092019008738653,7.350463853245379e-05,0.48306430460623473,0,35,30.0
23,0.43999530658835456,6.556246439902766e-05,0.43683178201009915,1,35,30.0
24,0.42448780756621135,6.549497252957995e-05,0.486529131527713,0,35,30.0
25,0.41563821016323,6.430283983285161e-05,0.45958553700253735,0,35,30.0
26,0.4077551971588816,6.298734238693473e-05,0.4292102251971556,1,35,30.0
27,0.4027451298066548,6.883913864017121e-05,0.440521583053445,0,35,30.0
28,0.3957834094762802,6.582342177266365e-05,0.4308165759386972,0,35,30.0
29,0.3931549634961855,6.210668033461497e-05,0.4509139067439501,0,35,30.0
30,0.3848357264484678,6.606545503018424e-05,0.4493486858550305,0,35,30.0
31,0.3818362710021791,6.607741683442978e-05,0.44609101061239714,0,35,30.0
32,0.3728046905071962,6.330105645160767e-05,0.4252456800842827,1,35,30.0
33,0.3679065395678793,6.76300002548184e-05,0.42958883291556815,0,35,30.0
34,0.36063275450751897,6.289983321039472e-05,0.4454874167688314,0,35,30.0
35,0.3560807355457828,6.518396258754711e-05,0.4307146534046605,0,35,30.0
36,0.36050342200767427,6.610824601964504e-05,0.4454015486234845,0,35,30.0
37,0.3595955559895152,6.617625179690852e-05,0.44413609132324616,0,35,30.0
38,0.34651526382991243,6.573427266890317e-05,0.4351251105785616,0,35,30.0
39,0.3450435831078461,6.838993045849271e-05,0.44171638291113635,0,35,30.0
1,0.9250453142558828,0.0002344370194751879,0.6725616378535292,1,36,30.0
2,0.8275112755158368,0.0001522554801126449,0.6617417788676747,1,36,30.0
3,0.7820008214782266,0.00013800730589804623,0.5869821431524218,1,36,30.0
4,0.76463543807759,0.00012599093396976755,0.5989336229858725,0,36,30.0
5,0.7376757698900559,0.00010324404733289745,0.5567121961126009,1,36,30.0
6,0.7086866420858047,0.0001107767470410395,0.5315299968517343,1,36,30.0
7,0.6860253733747146,0.00010753246931605699,0.5663343104694601,0,36,30.0
8,0.6778495444970972,9.953443145872477e-05,0.5318725751319402,0,36,30.0
9,0.6545094728469849,9.519596115911982e-05,0.47109180953877305,1,36,30.0
10,0.6449489838936749,9.013376595034702e-05,0.5126364017365815,0,36,30.0
11,0.6220623773687026,9.261018182287979e-05,0.4684956619766528,1,36,30.0
12,0.6139358043670654,8.71242982290877e-05,0.5019876789533114,0,36,30.0
13,0.6064880199292126,8.514230584670954e-05,0.43779608716756657,1,36,30.0
14,0.5745810915442074,7.882233673145118e-05,0.4032388734442198,1,36,30.0
15,0.5778918360962587,7.598798620165326e-05,0.4349112066732721,0,36,30.0
16,0.5500750513637767,7.01085470021045e-05,0.4867855241633818,0,36,30.0
17,0.5483472599702723,7.238288299584597e-05,0.45087757391417366,0,36,30.0
18,0.5321172258433173,6.757193644743357e-05,0.4245226637693572,0,36,30.0
19,0.5157534925376668,7.255675017778926e-05,0.42327340962445004,0,36,30.0
20,0.5049381645286785,6.208139619796866e-05,0.43035610641968314,0,36,30.0
21,0.4971860927693984,7.395417543354115e-05,0.42734543238019324,0,36,30.0
1,0.9234157821711372,0.00022672078998499167,0.6908479668468023,1,37,30.0
2,0.8277227072154775,0.0001657540738746962,0.6975938391403697,0,37,30.0
3,0.7882184996324427,0.00014450545632451608,0.6873125646489252,1,37,30.0
4,0.7589445506825166,0.0001332849694710389,0.5271888497340104,1,37,30.0
5,0.7404005955247318,0.00011178731112843654,0.5498380885523613,0,37,30.0
6,0.7222756666295669,0.00011065006290343316,0.5741987653222138,0,37,30.0
7,0.6925230033257428,9.443108561647344e-05,0.526936990751637,1,37,30.0
8,0.667227139192469,9.844133965088985e-05,0.4866609802088659,1,37,30.0
9,0.6611218732946059,9.60043166688753e-05,0.4682178319204993,1,37,30.0
10,0.6308412923532374,0.00010328713392749812,0.46436216836107963,1,37,30.0
11,0.6216761813444249,9.114244047155165e-05,0.3958825532572855,1,37,30.0
12,0.6094429222976461,8.375042859423796e-05,0.4476839552910085,0,37,30.0
13,0.5844682914369247,8.743203853715814e-05,0.44502437820721263,0,37,30.0
14,0.5825351083979887,8.051249002592693e-05,0.4475671309759536,0,37,30.0
15,0.5589444405892317,8.091939440312083e-05,0.4455794724123696,0,37,30.0
16,0.5526334208600662,7.463685277103008e-05,0.3845864582312928,1,37,30.0
17,0.5399041442310109,7.850002173868501e-05,0.3755425178701439,1,37,30.0
18,0.5302418680752025,7.709569985950914e-05,0.4022323677023415,0,37,30.0
19,0.5175876806764041,7.638006560120951e-05,0.40959751817329815,0,37,30.0
20,0.5155589811942156,7.365578806938549e-05,0.40216096283107966,0,37,30.0
21,0.49851535944377673,7.403742527137237e-05,0.38096613051007977,0,37,30.0
22,0.4857208385187037,7.038726402884897e-05,0.39233572307097336,0,37,30.0
23,0.47551333483527686,6.714989610961364e-05,0.3873893994137354,0,37,30.0
24,0.47429000069113336,6.621545685715426e-05,0.3617382449043373,1,37,30.0
25,0.4658011471523958,6.536633223089772e-05,0.3480553512039373,1,37,30.0
26,0.4548535943031311,6.770816488663994e-05,0.3343992924465121,1,37,30.0
27,0.4429910077768214,6.806564180057167e-05,0.34666751128719986,0,37,30.0
28,0.43010671419255875,6.564548431710778e-05,0.33239926125199554,1,37,30.0
29,0.41993971256648793,6.647371046710759e-05,0.3418041926417174,0,37,30.0
30,0.42101537164519814,6.83388784476419e-05,0.3204675004544753,1,37,30.0
31,0.4068967496647554,6.981344991158146e-05,0.3404002780131115,0,37,30.0
32,0.40462471947950474,6.85849746600177e-05,0.32033983392895554,1,37,30.0
33,0.4006759401629953,6.771801028448595e-05,0.3138684238491911,1,37,30.0
34,0.40172435255611644,6.977277726571843e-05,0.31338150897671113,1,37,30.0
35,0.39998826068990373,6.917952448609011e-05,0.3183999660770425,0,37,30.0
36,0.3942594279261196,6.989624217727824e-05,0.30266309693409754,1,37,30.0
37,0.39676889286321754,6.57767775170642e-05,0.30450513966205434,0,37,30.0
38,0.3855612400700064,6.989383683129049e-05,0.30934045067150817,0,37,30.0
39,0.39138411353616154,6.318531843991128e-05,0.3073484138695701,0,37,30.0
40,0.3827575020930346,6.50204080824658e-05,0.3047782255131809,0,37,30.0
1,0.9101864468483698,0.000270367776205863,0.642475472663533,1,38,30.0
2,0.8027354336920238,0.00016070684553900114,0.7350739122692364,0,38,30.0
3,0.7761235889934358,0.00013740706769264457,0.6907726346569902,0,38,30.0
4,0.7464362915073123,0.00013348823536251162,0.650103715053394,0,38,30.0
5,0.7227849477813357,0.000124836570085747,0.5855574505694465,1,38,30.0
6,0.7071324792646226,0.00013090965252818672,0.73665295311319,0,38,30.0
7,0.6886990503186271,0.00012087769339684331,0.5591366575686818,1,38,30.0
8,0.6746801223073687,0.00010641876819829035,0.6601768316576156,0,38,30.0
9,0.6565340423867816,9.590573582889712e-05,0.6257338814691694,0,38,30.0
10,0.6367935165762901,0.00010439779149843768,0.5607414881064604,0,38,30.0
11,0.63711007861864,9.492953597059351e-05,0.6997731626457624,0,38,30.0
12,0.6164988669611159,8.535107809577658e-05,0.5863746108836241,0,38,30.0
13,0.596950073327337,8.76859914916124e-05,0.4746099764035252,1,38,30.0
14,0.5860810418214116,9.136051422891407e-05,0.5562978055004839,0,38,30.0
15,0.5744180154232752,8.467830832073342e-05,0.5383559533718841,0,38,30.0
16,0.5584763923571223,8.062581513340341e-05,0.579375606661478,0,38,30.0
17,0.534953151785192,8.509880912502663e-05,0.5239871011749794,0,38,30.0
18,0.5348183409798712,7.563832631214089e-05,0.4402816263046652,1,38,30.0
19,0.5053114965558052,6.960549290808904e-05,0.5224086736759279,0,38,30.0
20,0.49109854229858946,7.278231476534746e-05,0.5298799673857132,0,38,30.0
21,0.495748547571046,7.239824398788013e-05,0.5336485645503593,0,38,30.0
22,0.4708197276507105,6.877418378453946e-05,0.5359175740257609,0,38,30.0
23,0.47004191612913493,6.516169958645368e-05,0.5237430606927445,0,38,30.0
24,0.45285595527717043,6.799036461979129e-05,0.5115927019869154,0,38,30.0
25,0.45644425849119824,7.213721116949316e-05,0.5459828508151657,0,38,30.0
1,0.9328037710750804,0.0002774447309681872,0.678153008909779,1,39,30.0
2,0.8353767759659712,0.0001948335237958578,0.6837122644286178,0,39,30.0
3,0.7782093630117528,0.00016457670738900026,0.552566735753718,1,39,30.0
4,0.7578790699734407,0.00012307940376237692,0.579556713595082,0,39,30.0
5,0.7307147264480591,0.00012488002257134,0.5850542083584027,0,39,30.0
6,0.7157510490978465,0.00010571181294782197,0.5509530662238329,1,39,30.0
7,0.686388599171358,0.00010637073402690209,0.5675016853542691,0,39,30.0
8,0.6648179425912745,0.00011137508734143065,0.5363986220022205,1,39,30.0
9,0.6554474052260904,0.0001030869573536192,0.5039344224145771,1,39,30.0
10,0.6356426722863141,0.00010210391611668884,0.5026996932289912,1,39,30.0
11,0.6126684553482953,0.00010666788105428328,0.5045051039619879,0,39,30.0
12,0.6004841043668635,9.237241662477198e-05,0.45224803329509355,1,39,30.0
13,0.5868193885859321,9.052888781297952e-05,0.4538523493250232,0,39,30.0
14,0.5717294040848228,8.899649088989998e-05,0.4616048525620954,0,39,30.0
15,0.5585447044933544,8.138645515667603e-05,0.46503260668703833,0,39,30.0
16,0.5455465621807996,8.540815778199912e-05,0.44610307747071126,1,39,30.0
17,0.5313431592548594,8.54291012407938e-05,0.4703474679047016,0,39,30.0
18,0.5208358880351571,7.765892180888092e-05,0.46864536472539703,0,39,30.0
19,0.5098642980351168,8.13134414356147e-05,0.4024555688615806,1,39,30.0
20,0.4934713430264417,7.873459976775955e-05,0.4334015931382187,0,39,30.0
21,0.4856742571381962,8.026229475303005e-05,0.40669685643064607,0,39,30.0
22,0.4758991174838122,7.27514220189358e-05,0.3809147677740999,1,39,30.0
23,0.4742075972697314,6.60533744153594e-05,0.37937073384922837,1,39,30.0
24,0.4575728128938114,7.348742797416087e-05,0.4056851723666552,0,39,30.0
25,0.4576944200431599,7.159101116806543e-05,0.3965675513939614,0,39,30.0
26,0.4348113270366893,7.402660908958163e-05,0.37684402890501434,1,39,30.0
27,0.43781389278524063,7.389228994725272e-05,0.4117553397162015,0,39,30.0
28,0.4254526485415066,7.77685761824935e-05,0.3970024950467613,0,39,30.0
29,0.41708693609518166,6.705712931922309e-05,0.4143881680023763,0,39,30.0
30,0.414148531591191,6.780288604204542e-05,0.3739595070921661,1,39,30.0
31,0.40088836883797363,7.458886915735682e-05,0.3548555679897253,1,39,30.0
32,0.39824525117874143,7.313529328230823e-05,0.36650423675512894,0,39,30.0
33,0.3912743501803454,7.020575443782624e-05,0.3909924077346483,0,39,30.0
34,0.3832382289802327,6.62313867103555e-05,0.3611045297081717,0,39,30.0
35,0.3869323569185594,6.8747150062871e-05,0.3725322971484317,0,39,30.0
36,0.3814441929845249,7.473389649770552e-05,0.3728831890302029,0,39,30.0
37,0.37929463772212757,7.593547844033524e-05,0.386412424804273,0,39,30.0
38,0.38131750050713037,7.117658225230544e-05,0.3804424745098582,0,39,30.0
1,0.9242649163518634,0.00028458006584384875,0.6964651168957857,1,40,30.0
2,0.8136348930143175,0.00019347702722630596,0.6568244309268264,1,40,30.0
3,0.7594610112054008,0.0001529239121044243,0.680819705348653,0,40,30.0
4,0.7309187459094184,0.00013372457267126135,0.6653248496184131,0,40,30.0
5,0.7099264178957257,0.00010686870319616337,0.6300586451256119,1,40,30.0
6,0.6952708320958274,0.00010977090590001483,0.6118505415051367,1,40,30.0
7,0.6749428652581715,0.00010157742330886235,0.6453414870730789,0,40,30.0
8,0.6471836063123885,0.00010414314393918695,0.6300668236091805,0,40,30.0
9,0.6383201259942282,9.432192395511915e-05,0.5671969789449064,1,40,30.0
10,0.6195362728266489,9.537024492428394e-05,0.622564661754737,0,40,30.0
11,0.605438174591178,9.58646647805359e-05,0.5918023143304442,0,40,30.0
12,0.5967632471805527,8.560558697873992e-05,0.5252368771286261,1,40,30.0
13,0.5810305955154556,8.65007398585606e-05,0.5860509403646785,0,40,30.0
14,0.5698951851753962,8.299538608081916e-05,0.5904919237010217,0,40,30.0
15,0.5633461390222821,8.217554932343774e-05,0.5302607194382593,0,40,30.0
16,0.536751597055367,7.559232025890932e-05,0.5948244350505244,0,40,30.0
17,0.5327393568697429,7.557782845694982e-05,0.5493459622271987,0,40,30.0
18,0.5199977631370226,7.948632243087992e-05,0.573700060370123,0,40,30.0
19,0.5067581105090323,7.773880562516362e-05,0.5550434533921355,0,40,30.0
