subject,block,block_width,feature_channel,gate_mean,gate_sd
1,0,32,0,0.5479549765586853,0.09942706674337387
1,0,32,1,0.4558992385864258,0.08905182033777237
1,0,32,2,0.4004143178462982,0.08599972724914551
1,0,32,3,0.36608439683914185,0.09427488595247269
1,0,32,4,0.514339029788971,0.049143921583890915
1,0,32,5,0.4555637538433075,0.09559803456068039
1,0,32,6,0.5608496069908142,0.061733320355415344
1,0,32,7,0.3905145227909088,0.08402874320745468
1,0,32,8,0.48347243666648865,0.05560377985239029
1,0,32,9,0.45970794558525085,0.11100595444440842
1,0,32,10,0.5421984791755676,0.09396108239889145
1,0,32,11,0.4280643165111542,0.03890437260270119
1,0,32,12,0.4997894763946533,0.03798675909638405
1,0,32,13,0.3220031261444092,0.05178380757570267
1,0,32,14,0.48369061946868896,0.09306947141885757
1,0,32,15,0.4693343937397003,0.05059448257088661
1,0,32,16,0.42660221457481384,0.051019709557294846
1,0,32,17,0.485878050327301,0.09623907506465912
1,0,32,18,0.5125189423561096,0.09204933047294617
1,0,32,19,0.42446956038475037,0.05134311690926552
1,0,32,20,0.4421473741531372,0.06024061515927315
1,0,32,21,0.47549399733543396,0.09516007453203201
1,0,32,22,0.47520536184310913,0.06104298308491707
1,0,32,23,0.38152819871902466,0.06385720521211624
1,0,32,24,0.6275107860565186,0.02592790126800537
1,0,32,25,0.37756431102752686,0.06638962775468826
1,0,32,26,0.5668824315071106,0.062029797583818436
1,0,32,27,0.4873811900615692,0.02010236121714115
1,0,32,28,0.41457900404930115,0.02273593656718731
1,0,32,29,0.39024487137794495,0.0844072699546814
1,0,32,30,0.5513315796852112,0.050174638628959656
1,0,32,31,0.5030451416969299,0.0725318118929863
1,1,32,0,0.5691540241241455,0.03851849213242531
1,1,32,1,0.4800463616847992,0.03868170455098152
1,1,32,2,0.6200412511825562,0.04696333408355713
1,1,32,3,0.4396092891693115,0.04682963341474533
1,1,32,4,0.516625165939331,0.050315652042627335
1,1,32,5,0.5391680002212524,0.027670996263623238
1,1,32,6,0.5269803404808044,0.03651529178023338
1,1,32,7,0.5830801725387573,0.019681669771671295
1,1,32,8,0.4359839856624603,0.04715432971715927
1,1,32,9,0.523497462272644,0.05380728095769882
1,1,32,10,0.51288241147995,0.06263989955186844
1,1,32,11,0.401764452457428,0.03484301269054413
1,1,32,12,0.3587298095226288,0.03955324366688728
1,1,32,13,0.553867518901825,0.05399152263998985
1,1,32,14,0.41412538290023804,0.05015922337770462
1,1,32,15,0.6030071973800659,0.03335273265838623
1,1,32,16,0.44118183851242065,0.037388354539871216
1,1,32,17,0.569743275642395,0.04965122789144516
1,1,32,18,0.412311315536499,0.03138613700866699
1,1,32,19,0.35489916801452637,0.045119352638721466
1,1,32,20,0.6159636378288269,0.03447965532541275
1,1,32,21,0.6199567914009094,0.021602727472782135
1,1,32,22,0.4080784022808075,0.04517393931746483
1,1,32,23,0.5531221628189087,0.04922575131058693
1,1,32,24,0.5012083053588867,0.04495086520910263
1,1,32,25,0.5002857446670532,0.05556223914027214
1,1,32,26,0.6042729020118713,0.05530865117907524
1,1,32,27,0.5237361788749695,0.05438675358891487
1,1,32,28,0.3850012421607971,0.062340717762708664
1,1,32,29,0.5022094249725342,0.061595235019922256
1,1,32,30,0.6110503077507019,0.029638051986694336
1,1,32,31,0.5760065317153931,0.03777288645505905
1,2,64,0,0.5304681062698364,0.048220667988061905
1,2,64,1,0.464365690946579,0.04158356040716171
1,2,64,2,0.5298448204994202,0.038060225546360016
1,2,64,3,0.433407187461853,0.06443016976118088
1,2,64,4,0.46601349115371704,0.04692292585968971
1,2,64,5,0.47169533371925354,0.0367262028157711
1,2,64,6,0.357631117105484,0.05518689379096031
1,2,64,7,0.4886654317378998,0.040314026176929474
1,2,64,8,0.5550833344459534,0.05230575427412987
1,2,64,9,0.5116888284683228,0.05975290760397911
1,2,64,10,0.5268481373786926,0.05813175067305565
1,2,64,11,0.5338324308395386,0.06296620517969131
1,2,64,12,0.514468252658844,0.03122819773852825
1,2,64,13,0.472898930311203,0.05224129185080528
1,2,64,14,0.5082175731658936,0.0140523137524724
1,2,64,15,0.4830133020877838,0.04574621468782425
1,2,64,16,0.5555314421653748,0.034628741443157196
1,2,64,17,0.5259113907814026,0.02864481508731842
1,2,64,18,0.42686837911605835,0.023039933294057846
1,2,64,19,0.41906023025512695,0.046551939100027084
1,2,64,20,0.47414630651474,0.09086788445711136
1,2,64,21,0.4229012727737427,0.042465388774871826
1,2,64,22,0.5070257782936096,0.03808486834168434
1,2,64,23,0.4398622512817383,0.05078604817390442
1,2,64,24,0.45446422696113586,0.08785220235586166
1,2,64,25,0.4646254777908325,0.0724409893155098
1,2,64,26,0.5150855779647827,0.0630614310503006
1,2,64,27,0.3862471878528595,0.025342533364892006
1,2,64,28,0.5599324703216553,0.054787345230579376
1,2,64,29,0.4341113865375519,0.0743865966796875
1,2,64,30,0.46384701132774353,0.0641317144036293
1,2,64,31,0.5572454929351807,0.05671155825257301
1,2,64,32,0.5356251001358032,0.029427437111735344
1,2,64,33,0.5671085715293884,0.03748176991939545
1,2,64,34,0.5824081897735596,0.09506095945835114
1,2,64,35,0.4169892370700836,0.0476515106856823
1,2,64,36,0.5702379941940308,0.04662412777543068
1,2,64,37,0.5512056946754456,0.03935934603214264
1,2,64,38,0.44741290807724,0.04707522690296173
1,2,64,39,0.5748489499092102,0.031339384615421295
1,2,64,40,0.5111513137817383,0.03505579009652138
1,2,64,41,0.4718351364135742,0.04914003238081932
1,2,64,42,0.6193878650665283,0.06059444695711136
1,2,64,43,0.40748313069343567,0.037392374128103256
1,2,64,44,0.5022727847099304,0.033200424164533615
1,2,64,45,0.5992209911346436,0.041312187910079956
1,2,64,46,0.5277045369148254,0.018006224185228348
1,2,64,47,0.5037952661514282,0.07732534408569336
1,2,64,48,0.5770775675773621,0.07338661700487137
1,2,64,49,0.4665462374687195,0.02353866770863533
1,2,64,50,0.4661094844341278,0.047262270003557205
1,2,64,51,0.44771984219551086,0.04477570950984955
1,2,64,52,0.4546583890914917,0.023379916325211525
1,2,64,53,0.5714142322540283,0.042148541659116745
1,2,64,54,0.5683061480522156,0.033009424805641174
1,2,64,55,0.46252110600471497,0.03612341731786728
1,2,64,56,0.44962918758392334,0.04437820613384247
1,2,64,57,0.3434922397136688,0.06199253723025322
1,2,64,58,0.4843868017196655,0.032703131437301636
1,2,64,59,0.5367619395256042,0.056517601013183594
1,2,64,60,0.5461751222610474,0.048118360340595245
1,2,64,61,0.45989924669265747,0.04240991175174713
1,2,64,62,0.5173566937446594,0.06159936264157295
1,2,64,63,0.547801673412323,0.06035354360938072
1,3,64,0,0.5661059021949768,0.036659885197877884
1,3,64,1,0.6008156538009644,0.10243556648492813
1,3,64,2,0.6018483638763428,0.04843385890126228
1,3,64,3,0.558610737323761,0.04423372447490692
1,3,64,4,0.49399277567863464,0.05787678062915802
1,3,64,5,0.469033420085907,0.05109036713838577
1,3,64,6,0.5950125455856323,0.03914940357208252
1,3,64,7,0.5529373288154602,0.07190131396055222
1,3,64,8,0.44724398851394653,0.050604283809661865
1,3,64,9,0.6413905024528503,0.07748517394065857
1,3,64,10,0.508492112159729,0.09956718981266022
1,3,64,11,0.5221718549728394,0.047856640070676804
1,3,64,12,0.4167802929878235,0.07381176203489304
1,3,64,13,0.6320356130599976,0.06885311007499695
1,3,64,14,0.5382021069526672,0.0541619136929512
1,3,64,15,0.5077441930770874,0.0926867425441742
1,3,64,16,0.46508896350860596,0.030441777780652046
1,3,64,17,0.5695575475692749,0.08242746442556381
1,3,64,18,0.6164484620094299,0.05511493980884552
1,3,64,19,0.4718802273273468,0.043829094618558884
1,3,64,20,0.540328860282898,0.04105415195226669
1,3,64,21,0.5098970532417297,0.09125180542469025
1,3,64,22,0.5042437314987183,0.02768542617559433
1,3,64,23,0.4773702919483185,0.04434202238917351
1,3,64,24,0.6069762110710144,0.06708503514528275
1,3,64,25,0.4685157239437103,0.07786882668733597
1,3,64,26,0.42195066809654236,0.07785873115062714
1,3,64,27,0.5999993085861206,0.04837145656347275
1,3,64,28,0.5441237092018127,0.07433035969734192
1,3,64,29,0.5083410143852234,0.0666719526052475
1,3,64,30,0.462274432182312,0.06456856429576874
1,3,64,31,0.565109133720398,0.09185206145048141
1,3,64,32,0.5698511004447937,0.07358535379171371
1,3,64,33,0.5478830337524414,0.062142036855220795
1,3,64,34,0.4824278950691223,0.03510604798793793
1,3,64,35,0.5586128830909729,0.030798092484474182
1,3,64,36,0.49404898285865784,0.06150303781032562
1,3,64,37,0.5225496888160706,0.059751883149147034
1,3,64,38,0.396040678024292,0.06970061361789703
1,3,64,39,0.5443130135536194,0.03806939348578453
1,3,64,40,0.4950384497642517,0.059471454471349716
1,3,64,41,0.4156407117843628,0.035494547337293625
1,3,64,42,0.528242290019989,0.03724386915564537
1,3,64,43,0.5273083448410034,0.10765426605939865
1,3,64,44,0.44897425174713135,0.08562508970499039
1,3,64,45,0.47329774498939514,0.03246675059199333
1,3,64,46,0.494433730840683,0.08930619060993195
1,3,64,47,0.4840591549873352,0.07188586890697479
1,3,64,48,0.5357361435890198,0.0332779586315155
1,3,64,49,0.470145046710968,0.0508798286318779
1,3,64,50,0.5432752370834351,0.06795841455459595
1,3,64,51,0.4797104001045227,0.07216885685920715
1,3,64,52,0.40361398458480835,0.037591587752103806
1,3,64,53,0.45470160245895386,0.07168730348348618
1,3,64,54,0.39288002252578735,0.04417390003800392
1,3,64,55,0.5350596308708191,0.0574210062623024
1,3,64,56,0.4461902678012848,0.10063666105270386
1,3,64,57,0.5171437859535217,0.07470550388097763
1,3,64,58,0.4973614811897278,0.09384100884199142
1,3,64,59,0.32789531350135803,0.0692020133137703
1,3,64,60,0.5320681929588318,0.06912477314472198
1,3,64,61,0.4703352451324463,0.05972198396921158
1,3,64,62,0.3828524053096771,0.06889259070158005
1,3,64,63,0.4026910662651062,0.025612687692046165
1,4,128,0,0.4066758453845978,0.11140173673629761
1,4,128,1,0.3609556257724762,0.17656458914279938
1,4,128,2,0.6746059060096741,0.18542754650115967
1,4,128,3,0.5365807414054871,0.05490787327289581
1,4,128,4,0.5962392687797546,0.13712085783481598
1,4,128,5,0.43074876070022583,0.07464631646871567
1,4,128,6,0.5408391952514648,0.06496965140104294
1,4,128,7,0.6677872538566589,0.1357240527868271
1,4,128,8,0.4672788381576538,0.06896691024303436
1,4,128,9,0.5382117033004761,0.12659767270088196
1,4,128,10,0.5417361259460449,0.055980928242206573
1,4,128,11,0.7019840478897095,0.11889004707336426
1,4,128,12,0.5340842604637146,0.058103494346141815
1,4,128,13,0.6439492106437683,0.09135699272155762
1,4,128,14,0.49635106325149536,0.14581480622291565
1,4,128,15,0.5407757759094238,0.04751356691122055
1,4,128,16,0.3904983699321747,0.08695700019598007
1,4,128,17,0.636002779006958,0.14656072854995728
1,4,128,18,0.5960395336151123,0.11974862217903137
1,4,128,19,0.3451170027256012,0.11515611410140991
1,4,128,20,0.5170812010765076,0.029726633802056313
1,4,128,21,0.25849106907844543,0.1633468121290207
1,4,128,22,0.5177435278892517,0.035586997866630554
1,4,128,23,0.5280256867408752,0.03532274439930916
1,4,128,24,0.5358722805976868,0.06005377322435379
1,4,128,25,0.553480327129364,0.08176331967115402
1,4,128,26,0.6729503870010376,0.08625568449497223
1,4,128,27,0.4832656979560852,0.046528346836566925
1,4,128,28,0.6161779165267944,0.11648856103420258
1,4,128,29,0.6013511419296265,0.13419319689273834
1,4,128,30,0.43946218490600586,0.07895958423614502
1,4,128,31,0.6060131788253784,0.08943856507539749
1,4,128,32,0.43469229340553284,0.11833678185939789
1,4,128,33,0.479597270488739,0.058876339346170425
1,4,128,34,0.6663860082626343,0.15464875102043152
1,4,128,35,0.5502548217773438,0.13539843261241913
1,4,128,36,0.5634363293647766,0.05205145478248596
1,4,128,37,0.4166931211948395,0.05556424707174301
1,4,128,38,0.5405822992324829,0.07276631146669388
1,4,128,39,0.44098034501075745,0.0666293352842331
1,4,128,40,0.6217362880706787,0.10178632289171219
1,4,128,41,0.581193208694458,0.03803304582834244
1,4,128,42,0.5434736609458923,0.049274034798145294
1,4,128,43,0.4912264943122864,0.10916220396757126
1,4,128,44,0.576569676399231,0.06756354868412018
1,4,128,45,0.470589280128479,0.11403527855873108
1,4,128,46,0.5654274821281433,0.07387949526309967
1,4,128,47,0.6481444239616394,0.12706519663333893
1,4,128,48,0.6355452537536621,0.15756165981292725
1,4,128,49,0.6154748201370239,0.08264005184173584
1,4,128,50,0.5420668125152588,0.04677940905094147
1,4,128,51,0.5767344832420349,0.08245110511779785
1,4,128,52,0.33152371644973755,0.09755092114210129
1,4,128,53,0.5881926417350769,0.12699618935585022
1,4,128,54,0.334125280380249,0.07852287590503693
1,4,128,55,0.5304455757141113,0.04308454319834709
1,4,128,56,0.45885270833969116,0.06417301297187805
1,4,128,57,0.6503414511680603,0.15749281644821167
1,4,128,58,0.4635365307331085,0.0740964338183403
1,4,128,59,0.31406742334365845,0.1431005597114563
1,4,128,60,0.6140769124031067,0.13410192728042603
1,4,128,61,0.40599048137664795,0.0949820876121521
1,4,128,62,0.6870543360710144,0.15273651480674744
1,4,128,63,0.6445946097373962,0.1017422005534172
1,4,128,64,0.6738513112068176,0.13346542418003082
1,4,128,65,0.6304675340652466,0.07328548282384872
1,4,128,66,0.42686542868614197,0.07542453706264496
1,4,128,67,0.6323714256286621,0.12509983777999878
1,4,128,68,0.5519893765449524,0.12550945580005646
1,4,128,69,0.5190736651420593,0.05799766257405281
1,4,128,70,0.6569399833679199,0.09921732544898987
1,4,128,71,0.4675154983997345,0.07510019838809967
1,4,128,72,0.5208543539047241,0.07942516356706619
1,4,128,73,0.516814649105072,0.04960203915834427
1,4,128,74,0.5192602872848511,0.08073800057172775
1,4,128,75,0.6275448799133301,0.11813177913427353
1,4,128,76,0.5412197113037109,0.07894889265298843
1,4,128,77,0.4071621596813202,0.1215682253241539
1,4,128,78,0.4934304356575012,0.07692670077085495
1,4,128,79,0.6160330772399902,0.12214720249176025
1,4,128,80,0.6038659811019897,0.061283353716135025
1,4,128,81,0.5771265625953674,0.07825113832950592
1,4,128,82,0.5695211887359619,0.10426676273345947
1,4,128,83,0.641371488571167,0.13133180141448975
1,4,128,84,0.5965633392333984,0.041689202189445496
1,4,128,85,0.7188531160354614,0.183363139629364
1,4,128,86,0.6853851079940796,0.18104864656925201
1,4,128,87,0.45681992173194885,0.050997305661439896
1,4,128,88,0.689957857131958,0.1298348307609558
1,4,128,89,0.42207300662994385,0.16044704616069794
1,4,128,90,0.44195106625556946,0.06148605793714523
1,4,128,91,0.36731597781181335,0.14120760560035706
1,4,128,92,0.42131683230400085,0.0709027424454689
1,4,128,93,0.586963415145874,0.07227437198162079
1,4,128,94,0.49306583404541016,0.10630693286657333
1,4,128,95,0.5035415887832642,0.03668218478560448
1,4,128,96,0.5611557960510254,0.14763009548187256
1,4,128,97,0.5320854783058167,0.08843087404966354
1,4,128,98,0.6270681023597717,0.13069793581962585
1,4,128,99,0.6320528984069824,0.16437838971614838
1,4,128,100,0.49256661534309387,0.1166599914431572
1,4,128,101,0.3386993408203125,0.13703575730323792
1,4,128,102,0.563373327255249,0.06894457340240479
1,4,128,103,0.5851877927780151,0.07425791770219803
1,4,128,104,0.37812039256095886,0.12461373955011368
1,4,128,105,0.6704009771347046,0.11258560419082642
1,4,128,106,0.5361317992210388,0.07131650298833847
1,4,128,107,0.65199875831604,0.14992675185203552
1,4,128,108,0.6454904079437256,0.07296640425920486
1,4,128,109,0.7339221835136414,0.17019735276699066
1,4,128,110,0.39251509308815,0.04118045046925545
1,4,128,111,0.38415369391441345,0.11903421580791473
1,4,128,112,0.7401312589645386,0.13084445893764496
1,4,128,113,0.36558178067207336,0.07182228565216064
1,4,128,114,0.6263901591300964,0.1714802235364914
1,4,128,115,0.4440537691116333,0.12043900042772293
1,4,128,116,0.3912869691848755,0.08820609003305435
1,4,128,117,0.3857247233390808,0.05014205724000931
1,4,128,118,0.5375028252601624,0.09342513233423233
1,4,128,119,0.5908226370811462,0.0946420207619667
1,4,128,120,0.384701132774353,0.11027920991182327
1,4,128,121,0.6653684973716736,0.15747958421707153
1,4,128,122,0.6032904386520386,0.0770954042673111
1,4,128,123,0.5024548768997192,0.031182801350951195
1,4,128,124,0.4464675188064575,0.05217454209923744
1,4,128,125,0.40494251251220703,0.06374289840459824
1,4,128,126,0.4256516993045807,0.061845649033784866
1,4,128,127,0.6824842095375061,0.10365939885377884
1,5,128,0,0.6378938555717468,0.1602194458246231
1,5,128,1,0.45739322900772095,0.10497071593999863
1,5,128,2,0.5117330551147461,0.1212988868355751
1,5,128,3,0.49253490567207336,0.01187712699174881
1,5,128,4,0.302882581949234,0.058596473187208176
1,5,128,5,0.5484155416488647,0.05011617764830589
1,5,128,6,0.6457639932632446,0.17282944917678833
1,5,128,7,0.5976098775863647,0.13972051441669464
1,5,128,8,0.4500623941421509,0.07348696887493134
1,5,128,9,0.509853720664978,0.11278516054153442
1,5,128,10,0.4788751006126404,0.03991084173321724
1,5,128,11,0.47563689947128296,0.08461105078458786
1,5,128,12,0.42218318581581116,0.03749018535017967
1,5,128,13,0.6102229356765747,0.0730988159775734
1,5,128,14,0.54095458984375,0.1328573375940323
1,5,128,15,0.5626877546310425,0.09083878248929977
1,5,128,16,0.5203074812889099,0.04930773004889488
1,5,128,17,0.4884340167045593,0.055167440325021744
1,5,128,18,0.548669159412384,0.0677868202328682
1,5,128,19,0.3550969362258911,0.03917829692363739
1,5,128,20,0.4287106692790985,0.09788806736469269
1,5,128,21,0.35192790627479553,0.05404173210263252
1,5,128,22,0.4787764847278595,0.14139726758003235
1,5,128,23,0.39254140853881836,0.10595151036977768
1,5,128,24,0.541896402835846,0.03866858035326004
1,5,128,25,0.4264751076698303,0.10147161036729813
1,5,128,26,0.49065807461738586,0.0843718945980072
1,5,128,27,0.5700652599334717,0.055065516382455826
1,5,128,28,0.4274739623069763,0.04129292070865631
1,5,128,29,0.4919873774051666,0.12213248759508133
1,5,128,30,0.4794018864631653,0.05265557020902634
1,5,128,31,0.589912474155426,0.09467486292123795
1,5,128,32,0.6604071259498596,0.13008685410022736
1,5,128,33,0.6335399150848389,0.13989706337451935
1,5,128,34,0.5630888342857361,0.0749194398522377
1,5,128,35,0.5913801193237305,0.12140481173992157
1,5,128,36,0.528221070766449,0.04845983907580376
1,5,128,37,0.5668948888778687,0.03791806474328041
1,5,128,38,0.4665983021259308,0.07267705351114273
1,5,128,39,0.3676200211048126,0.14469654858112335
1,5,128,40,0.6020136475563049,0.10176876187324524
1,5,128,41,0.49774351716041565,0.045888274908065796
1,5,128,42,0.6033351421356201,0.07245190441608429
1,5,128,43,0.5169261693954468,0.043759509921073914
1,5,128,44,0.395067036151886,0.057429805397987366
1,5,128,45,0.5844432711601257,0.05675109103322029
1,5,128,46,0.49628764390945435,0.04927515238523483
1,5,128,47,0.62120521068573,0.06709405779838562
1,5,128,48,0.5715548992156982,0.09377703815698624
1,5,128,49,0.4239766299724579,0.06744357943534851
1,5,128,50,0.5307438373565674,0.19672872126102448
1,5,128,51,0.6416378021240234,0.0815669372677803
1,5,128,52,0.58049476146698,0.03181370347738266
1,5,128,53,0.4198072850704193,0.060403790324926376
1,5,128,54,0.6321823596954346,0.0527610182762146
1,5,128,55,0.48140645027160645,0.12267046421766281
1,5,128,56,0.42897865176200867,0.04155632480978966
1,5,128,57,0.6260091066360474,0.15108931064605713
1,5,128,58,0.4176757037639618,0.06225648522377014
1,5,128,59,0.5832679867744446,0.042147424072027206
1,5,128,60,0.7208368182182312,0.11909312754869461
1,5,128,61,0.3914856016635895,0.030490580946207047
1,5,128,62,0.5942545533180237,0.09394388645887375
1,5,128,63,0.646378219127655,0.16415636241436005
1,5,128,64,0.5163494944572449,0.07032400369644165
1,5,128,65,0.5409250855445862,0.02852695994079113
1,5,128,66,0.41708308458328247,0.13383139669895172
1,5,128,67,0.6066389083862305,0.14188385009765625
1,5,128,68,0.4085543751716614,0.10695896297693253
1,5,128,69,0.569629430770874,0.15446092188358307
1,5,128,70,0.5550229549407959,0.13151122629642487
1,5,128,71,0.437990665435791,0.025133980438113213
1,5,128,72,0.5406033992767334,0.07388440519571304
1,5,128,73,0.44498586654663086,0.06289026141166687
1,5,128,74,0.6000747680664062,0.0610787533223629
1,5,128,75,0.4333083927631378,0.04475543275475502
1,5,128,76,0.45914947986602783,0.09521453082561493
1,5,128,77,0.4618956744670868,0.09511381387710571
1,5,128,78,0.5348108410835266,0.048549067229032516
1,5,128,79,0.48360463976860046,0.06253568828105927
1,5,128,80,0.44126537442207336,0.03692850470542908
1,5,128,81,0.5509212613105774,0.07690590620040894
1,5,128,82,0.6326902508735657,0.08658193051815033
1,5,128,83,0.46305161714553833,0.02315242774784565
1,5,128,84,0.4109576642513275,0.02749120257794857
1,5,128,85,0.6344590187072754,0.08732027560472488
1,5,128,86,0.45187342166900635,0.038843318819999695
1,5,128,87,0.3980010151863098,0.11705973744392395
1,5,128,88,0.3841114938259125,0.053100768476724625
1,5,128,89,0.38215115666389465,0.06910216808319092
1,5,128,90,0.45713871717453003,0.06101526319980621
1,5,128,91,0.5308547616004944,0.0518445186316967
1,5,128,92,0.6494116187095642,0.15702824294567108
1,5,128,93,0.5541859865188599,0.051288340240716934
1,5,128,94,0.5297339558601379,0.028605157509446144
1,5,128,95,0.3858732283115387,0.11991491168737411
1,5,128,96,0.5862146615982056,0.0697798877954483
1,5,128,97,0.559053361415863,0.08315255492925644
1,5,128,98,0.5301181674003601,0.08115577697753906
1,5,128,99,0.6041229963302612,0.10244699567556381
1,5,128,100,0.5593715906143188,0.052598025649785995
1,5,128,101,0.5162167549133301,0.03410793095827103
1,5,128,102,0.36801770329475403,0.07440012693405151
1,5,128,103,0.3782455623149872,0.06442506611347198
1,5,128,104,0.7228603363037109,0.09985645860433578
1,5,128,105,0.5635297298431396,0.10426321625709534
1,5,128,106,0.42448437213897705,0.10059703141450882
1,5,128,107,0.5873196721076965,0.05845735967159271
1,5,128,108,0.4251212179660797,0.13970254361629486
1,5,128,109,0.5388224124908447,0.12793821096420288
1,5,128,110,0.36928287148475647,0.06269606947898865
1,5,128,111,0.41121771931648254,0.03246675804257393
1,5,128,112,0.4161025881767273,0.10135848075151443
1,5,128,113,0.45178258419036865,0.03837435320019722
1,5,128,114,0.4877711236476898,0.06838175654411316
1,5,128,115,0.47288551926612854,0.0707593709230423
1,5,128,116,0.33099719882011414,0.04301111772656441
1,5,128,117,0.45032021403312683,0.10932014137506485
1,5,128,118,0.575715959072113,0.15147307515144348
1,5,128,119,0.39001888036727905,0.019822612404823303
1,5,128,120,0.6166331768035889,0.07833230495452881
1,5,128,121,0.4531814455986023,0.05929766222834587
1,5,128,122,0.40765172243118286,0.07678601890802383
1,5,128,123,0.48143404722213745,0.05795438215136528
1,5,128,124,0.6269553303718567,0.13076114654541016
1,5,128,125,0.5980200171470642,0.05213963985443115
1,5,128,126,0.5076337456703186,0.0714656189084053
1,5,128,127,0.6951075196266174,0.0999935045838356
2,0,32,0,0.5667825937271118,0.10437926650047302
2,0,32,1,0.5982086658477783,0.07409339398145676
2,0,32,2,0.6082289218902588,0.039535243064165115
2,0,32,3,0.5017498731613159,0.03719992935657501
2,0,32,4,0.5444915890693665,0.03493791073560715
2,0,32,5,0.4970555305480957,0.05244104191660881
2,0,32,6,0.5431613326072693,0.05607348307967186
2,0,32,7,0.4489273428916931,0.0362858772277832
2,0,32,8,0.5056561231613159,0.03436864912509918
2,0,32,9,0.5127389430999756,0.047603022307157516
2,0,32,10,0.5063320398330688,0.06830436736345291
2,0,32,11,0.5798577666282654,0.05516466870903969
2,0,32,12,0.5653186440467834,0.01646878384053707
2,0,32,13,0.35275495052337646,0.0344807431101799
2,0,32,14,0.6214232444763184,0.0656922310590744
2,0,32,15,0.5781313180923462,0.09676365554332733
2,0,32,16,0.5608262419700623,0.02384502813220024
2,0,32,17,0.5814613699913025,0.05001916363835335
2,0,32,18,0.3019278645515442,0.03694900497794151
2,0,32,19,0.44515466690063477,0.0409325510263443
2,0,32,20,0.48582783341407776,0.06376364827156067
2,0,32,21,0.4602131247520447,0.016825895756483078
2,0,32,22,0.6035595536231995,0.042721521109342575
2,0,32,23,0.5874776840209961,0.06887843459844589
2,0,32,24,0.5955607891082764,0.04676857218146324
2,0,32,25,0.3531777560710907,0.05367428809404373
2,0,32,26,0.39991870522499084,0.05698876827955246
2,0,32,27,0.37423157691955566,0.03403553366661072
2,0,32,28,0.5447460412979126,0.060612380504608154
2,0,32,29,0.5073589086532593,0.09506041556596756
2,0,32,30,0.5007375478744507,0.07066134363412857
2,0,32,31,0.5579992532730103,0.055637046694755554
2,1,32,0,0.5584709644317627,0.10943443328142166
2,1,32,1,0.45429322123527527,0.06426839530467987
2,1,32,2,0.5301643013954163,0.06558816879987717
2,1,32,3,0.48562341928482056,0.10177275538444519
2,1,32,4,0.2700217366218567,0.0920548290014267
2,1,32,5,0.320550799369812,0.098688505589962
2,1,32,6,0.4183979630470276,0.14398707449436188
2,1,32,7,0.5072482228279114,0.12429185956716537
2,1,32,8,0.48651519417762756,0.12366946041584015
2,1,32,9,0.41742435097694397,0.09506905823945999
2,1,32,10,0.47778376936912537,0.13309817016124725
2,1,32,11,0.5462247729301453,0.10147703438997269
2,1,32,12,0.48988470435142517,0.11588199436664581
2,1,32,13,0.6502662301063538,0.058091841638088226
2,1,32,14,0.5475919246673584,0.0932406634092331
2,1,32,15,0.3166145980358124,0.0792112946510315
2,1,32,16,0.5538614988327026,0.08083271980285645
2,1,32,17,0.5467486381530762,0.11491099745035172
2,1,32,18,0.5841887593269348,0.04175292328000069
2,1,32,19,0.5099514722824097,0.15011374652385712
2,1,32,20,0.565041720867157,0.0607595220208168
2,1,32,21,0.48595643043518066,0.1145739033818245
2,1,32,22,0.642044723033905,0.09176203608512878
2,1,32,23,0.5358454585075378,0.061057332903146744
2,1,32,24,0.6342310309410095,0.0753566175699234
2,1,32,25,0.5826054811477661,0.08688506484031677
2,1,32,26,0.5442966818809509,0.0802418664097786
2,1,32,27,0.4762532711029053,0.12977489829063416
2,1,32,28,0.5642306208610535,0.061502061784267426
2,1,32,29,0.38007473945617676,0.1114477813243866
2,1,32,30,0.5024887919425964,0.15884844958782196
2,1,32,31,0.4243188500404358,0.10415255278348923
2,2,64,0,0.4714301824569702,0.09659779816865921
2,2,64,1,0.4772455096244812,0.16580429673194885
2,2,64,2,0.6518499255180359,0.07144489139318466
2,2,64,3,0.3740677237510681,0.12458200752735138
2,2,64,4,0.4698871672153473,0.07422083616256714
2,2,64,5,0.4165143072605133,0.13313893973827362
2,2,64,6,0.4840452969074249,0.08292963355779648
2,2,64,7,0.6354223489761353,0.09937676787376404
2,2,64,8,0.5961199998855591,0.10461023449897766
2,2,64,9,0.5436724424362183,0.1315973699092865
2,2,64,10,0.5856679677963257,0.17761921882629395
2,2,64,11,0.5042656064033508,0.1473890095949173
2,2,64,12,0.6080111861228943,0.04153461754322052
2,2,64,13,0.3857710063457489,0.11442115902900696
2,2,64,14,0.2850179672241211,0.12097098678350449
2,2,64,15,0.42686522006988525,0.15437251329421997
2,2,64,16,0.5715796947479248,0.17255869507789612
2,2,64,17,0.5487818717956543,0.09552218019962311
2,2,64,18,0.5700016617774963,0.14943423867225647
2,2,64,19,0.6345953941345215,0.1073010042309761
2,2,64,20,0.5473966002464294,0.1220371201634407
2,2,64,21,0.47474396228790283,0.07115558534860611
2,2,64,22,0.4113452434539795,0.1520901322364807
2,2,64,23,0.40766194462776184,0.17615999281406403
2,2,64,24,0.4817810654640198,0.07128946483135223
2,2,64,25,0.4375718832015991,0.08925167471170425
2,2,64,26,0.47543519735336304,0.12111951410770416
2,2,64,27,0.6164101362228394,0.17839905619621277
2,2,64,28,0.5789129734039307,0.14825886487960815
2,2,64,29,0.4518704116344452,0.15575125813484192
2,2,64,30,0.5573514103889465,0.11438485234975815
2,2,64,31,0.5923165678977966,0.06465765833854675
2,2,64,32,0.5454833507537842,0.08664949238300323
2,2,64,33,0.4724671542644501,0.08132239431142807
2,2,64,34,0.41252315044403076,0.11660925298929214
2,2,64,35,0.46678587794303894,0.09948504716157913
2,2,64,36,0.5761921405792236,0.10030105710029602
2,2,64,37,0.4048944413661957,0.14730685949325562
2,2,64,38,0.4078925549983978,0.14088310301303864
2,2,64,39,0.4085639417171478,0.14339803159236908
2,2,64,40,0.5317686200141907,0.12844808399677277
2,2,64,41,0.510025143623352,0.14784333109855652
2,2,64,42,0.4993966817855835,0.08005113154649734
2,2,64,43,0.6446446776390076,0.0976656824350357
2,2,64,44,0.5778087973594666,0.12720449268817902
2,2,64,45,0.5096652507781982,0.13659079372882843
2,2,64,46,0.5339174270629883,0.2335120588541031
2,2,64,47,0.4681381285190582,0.17285795509815216
2,2,64,48,0.5596081018447876,0.07818479090929031
2,2,64,49,0.49393996596336365,0.1648142784833908
2,2,64,50,0.46293413639068604,0.12406642735004425
2,2,64,51,0.5876366496086121,0.07174386829137802
2,2,64,52,0.4034538269042969,0.15152192115783691
2,2,64,53,0.590014636516571,0.14455881714820862
2,2,64,54,0.5471025109291077,0.06752001494169235
2,2,64,55,0.5463773608207703,0.0592675656080246
2,2,64,56,0.3390122056007385,0.0568106435239315
2,2,64,57,0.5914764404296875,0.19631168246269226
2,2,64,58,0.5112505555152893,0.16208824515342712
2,2,64,59,0.6338945031166077,0.17260704934597015
2,2,64,60,0.4646582305431366,0.14845938980579376
2,2,64,61,0.4951339662075043,0.13339251279830933
2,2,64,62,0.5812790989875793,0.12650929391384125
2,2,64,63,0.5057489275932312,0.16486436128616333
2,3,64,0,0.5056648254394531,0.08858650177717209
2,3,64,1,0.5595901608467102,0.08540065586566925
2,3,64,2,0.6052481532096863,0.05850609019398689
2,3,64,3,0.5925657749176025,0.0455746166408062
2,3,64,4,0.4580976366996765,0.08255837857723236
2,3,64,5,0.5741972923278809,0.10496648401021957
2,3,64,6,0.6159394979476929,0.11057063192129135
2,3,64,7,0.44465208053588867,0.043561141937971115
2,3,64,8,0.4881421625614166,0.08660218119621277
2,3,64,9,0.4071042835712433,0.11445462703704834
2,3,64,10,0.43562087416648865,0.084043949842453
2,3,64,11,0.3667902946472168,0.09277552366256714
2,3,64,12,0.4651467502117157,0.14595596492290497
2,3,64,13,0.3912719190120697,0.09832324087619781
2,3,64,14,0.46519601345062256,0.11115394532680511
2,3,64,15,0.4765240550041199,0.17856861650943756
2,3,64,16,0.48072633147239685,0.15924084186553955
2,3,64,17,0.3801942467689514,0.07985512167215347
2,3,64,18,0.5366157293319702,0.028183044865727425
2,3,64,19,0.4133126139640808,0.12881501019001007
2,3,64,20,0.44326943159103394,0.12161819636821747
2,3,64,21,0.45897218585014343,0.06142986938357353
2,3,64,22,0.46075958013534546,0.05693895369768143
2,3,64,23,0.41312074661254883,0.092623271048069
2,3,64,24,0.437862753868103,0.08084619790315628
2,3,64,25,0.5544053912162781,0.14149032533168793
2,3,64,26,0.5092465877532959,0.13171517848968506
2,3,64,27,0.45823583006858826,0.10358985513448715
2,3,64,28,0.5090187788009644,0.0654614269733429
2,3,64,29,0.3844912052154541,0.10478005558252335
2,3,64,30,0.4839709997177124,0.18883445858955383
2,3,64,31,0.576675534248352,0.07014276832342148
2,3,64,32,0.51560378074646,0.08078016340732574
2,3,64,33,0.493419885635376,0.18235962092876434
2,3,64,34,0.5877099633216858,0.1180504858493805
2,3,64,35,0.49172404408454895,0.13745664060115814
2,3,64,36,0.46599283814430237,0.05996456742286682
2,3,64,37,0.47658106684684753,0.12709176540374756
2,3,64,38,0.48697879910469055,0.07692351937294006
2,3,64,39,0.5625779032707214,0.07818768918514252
2,3,64,40,0.5101255178451538,0.12435629218816757
2,3,64,41,0.4680272936820984,0.12205007672309875
2,3,64,42,0.49154970049858093,0.10078214108943939
2,3,64,43,0.4118729829788208,0.08783357590436935
2,3,64,44,0.46563026309013367,0.13574200868606567
2,3,64,45,0.42839962244033813,0.12535543739795685
2,3,64,46,0.4001135230064392,0.11898104846477509
2,3,64,47,0.6109599471092224,0.1179167851805687
2,3,64,48,0.5170804858207703,0.2068219631910324
2,3,64,49,0.596032977104187,0.13161075115203857
2,3,64,50,0.6009719371795654,0.10678350925445557
2,3,64,51,0.3805367946624756,0.06178967282176018
2,3,64,52,0.4768527150154114,0.1877104640007019
2,3,64,53,0.46144044399261475,0.15194569528102875
2,3,64,54,0.4774968922138214,0.15547148883342743
2,3,64,55,0.4867599308490753,0.14880713820457458
2,3,64,56,0.4938501715660095,0.06636567413806915
2,3,64,57,0.4411558508872986,0.075582355260849
2,3,64,58,0.5972836017608643,0.11918192356824875
2,3,64,59,0.5694342255592346,0.1271670162677765
2,3,64,60,0.476531982421875,0.06038122996687889
2,3,64,61,0.5190421938896179,0.08126215636730194
2,3,64,62,0.6026111841201782,0.102141372859478
2,3,64,63,0.5940263867378235,0.12003031373023987
2,4,128,0,0.5900517702102661,0.11813859641551971
2,4,128,1,0.6560856103897095,0.31310656666755676
2,4,128,2,0.7378976941108704,0.17388883233070374
2,4,128,3,0.5843769311904907,0.35130298137664795
2,4,128,4,0.2778131663799286,0.0886613205075264
2,4,128,5,0.4528334438800812,0.3138306438922882
2,4,128,6,0.7316699028015137,0.20918463170528412
2,4,128,7,0.47068604826927185,0.32922592759132385
2,4,128,8,0.47126340866088867,0.2496218979358673
2,4,128,9,0.6886299848556519,0.28460022807121277
2,4,128,10,0.38709011673927307,0.17655254900455475
2,4,128,11,0.6461145281791687,0.06266380846500397
2,4,128,12,0.5850716233253479,0.1172855868935585
2,4,128,13,0.5914261937141418,0.3708394169807434
2,4,128,14,0.6499370336532593,0.08883068710565567
2,4,128,15,0.6466007828712463,0.313879132270813
2,4,128,16,0.7350070476531982,0.21514292061328888
2,4,128,17,0.5919503569602966,0.07189980894327164
2,4,128,18,0.3336596190929413,0.18218551576137543
2,4,128,19,0.2478466033935547,0.22339652478694916
2,4,128,20,0.6231042146682739,0.24466003477573395
2,4,128,21,0.5102248787879944,0.07335928082466125
2,4,128,22,0.650047242641449,0.29487138986587524
2,4,128,23,0.6212916970252991,0.06352031975984573
2,4,128,24,0.8153150081634521,0.09162048995494843
2,4,128,25,0.6683219075202942,0.32375240325927734
2,4,128,26,0.7250078320503235,0.11971446126699448
2,4,128,27,0.45877477526664734,0.2824675440788269
2,4,128,28,0.6809689402580261,0.10607051849365234
2,4,128,29,0.6043731570243835,0.246680349111557
2,4,128,30,0.7027919292449951,0.11759722977876663
2,4,128,31,0.7025765180587769,0.2848255932331085
2,4,128,32,0.6208913326263428,0.18180455267429352
2,4,128,33,0.6690744757652283,0.2021685540676117
2,4,128,34,0.7690147757530212,0.09498870372772217
2,4,128,35,0.29916974902153015,0.16700805723667145
2,4,128,36,0.48168089985847473,0.07222238183021545
2,4,128,37,0.7442445158958435,0.19706685841083527
2,4,128,38,0.5014013051986694,0.22845253348350525
2,4,128,39,0.6207959651947021,0.27636492252349854
2,4,128,40,0.46575653553009033,0.04304172471165657
2,4,128,41,0.6966310739517212,0.0732121393084526
2,4,128,42,0.5684871077537537,0.12792612612247467
2,4,128,43,0.28608089685440063,0.201308935880661
2,4,128,44,0.6544809341430664,0.20785534381866455
2,4,128,45,0.6903807520866394,0.1804574877023697
2,4,128,46,0.8237930536270142,0.09562387317419052
2,4,128,47,0.7816070318222046,0.13746605813503265
2,4,128,48,0.6140068769454956,0.05182955041527748
2,4,128,49,0.8065008521080017,0.09535802155733109
2,4,128,50,0.6335234045982361,0.26930931210517883
2,4,128,51,0.4404241740703583,0.2949972450733185
2,4,128,52,0.47593456506729126,0.13665951788425446
2,4,128,53,0.3943510055541992,0.08213308453559875
2,4,128,54,0.6783685088157654,0.2868923544883728
2,4,128,55,0.662570595741272,0.34015750885009766
2,4,128,56,0.4448516070842743,0.23155152797698975
2,4,128,57,0.27096059918403625,0.19647809863090515
2,4,128,58,0.7982598543167114,0.13484011590480804
2,4,128,59,0.6761729717254639,0.07935231178998947
2,4,128,60,0.646195113658905,0.06461813300848007
2,4,128,61,0.6530092358589172,0.20239675045013428
2,4,128,62,0.6233626008033752,0.08145122230052948
2,4,128,63,0.46100687980651855,0.2749248743057251
2,4,128,64,0.7355260252952576,0.22090543806552887
2,4,128,65,0.7259849309921265,0.19391967356204987
2,4,128,66,0.422366738319397,0.34419840574264526
2,4,128,67,0.7669780254364014,0.20157812535762787
2,4,128,68,0.4779834747314453,0.26846474409103394
2,4,128,69,0.655046820640564,0.312895268201828
2,4,128,70,0.5836772918701172,0.17359191179275513
2,4,128,71,0.3076399266719818,0.2403014451265335
2,4,128,72,0.35522040724754333,0.21199938654899597
2,4,128,73,0.3052772283554077,0.2290421426296234
2,4,128,74,0.5166426301002502,0.1412276029586792
2,4,128,75,0.2750513255596161,0.18522793054580688
2,4,128,76,0.2905397415161133,0.18808983266353607
2,4,128,77,0.7222208380699158,0.2648290693759918
2,4,128,78,0.7661006450653076,0.1531493365764618
2,4,128,79,0.7391787171363831,0.21306458115577698
2,4,128,80,0.5559545755386353,0.1528850942850113
2,4,128,81,0.6861776113510132,0.10794752836227417
2,4,128,82,0.30645015835762024,0.19588883221149445
2,4,128,83,0.6347410082817078,0.06943701207637787
2,4,128,84,0.3963127136230469,0.38705137372016907
2,4,128,85,0.5692161321640015,0.06634902954101562
2,4,128,86,0.46754056215286255,0.20227119326591492
2,4,128,87,0.5937159657478333,0.16253061592578888
2,4,128,88,0.6454183459281921,0.3401254415512085
2,4,128,89,0.5897505879402161,0.17288239300251007
2,4,128,90,0.7855040431022644,0.1040896400809288
2,4,128,91,0.29663076996803284,0.15306276082992554
2,4,128,92,0.3514794707298279,0.21387727558612823
2,4,128,93,0.3925025761127472,0.24396905303001404
2,4,128,94,0.5202444791793823,0.2756725549697876
2,4,128,95,0.7342621684074402,0.13995076715946198
2,4,128,96,0.44180670380592346,0.12032946199178696
2,4,128,97,0.7820885181427002,0.0895802229642868
2,4,128,98,0.6799662113189697,0.1638995110988617
2,4,128,99,0.592065691947937,0.1340562105178833
2,4,128,100,0.7356821298599243,0.12119881808757782
2,4,128,101,0.3234489858150482,0.2747337222099304
2,4,128,102,0.5872692465782166,0.294466495513916
2,4,128,103,0.4158477485179901,0.2886812090873718
2,4,128,104,0.4863608181476593,0.05727454274892807
2,4,128,105,0.499876469373703,0.08828523755073547
2,4,128,106,0.40830540657043457,0.33933013677597046
2,4,128,107,0.6231055855751038,0.34488987922668457
2,4,128,108,0.7036404609680176,0.09517058730125427
2,4,128,109,0.4635058641433716,0.08464322984218597
2,4,128,110,0.5863271355628967,0.18392495810985565
2,4,128,111,0.2581016719341278,0.1673286408185959
2,4,128,112,0.7930535078048706,0.09075654298067093
2,4,128,113,0.3730204403400421,0.08335807174444199
2,4,128,114,0.5651951432228088,0.12325206398963928
2,4,128,115,0.5505377054214478,0.26189950108528137
2,4,128,116,0.4192824959754944,0.1284908503293991
2,4,128,117,0.6935523748397827,0.2602306306362152
2,4,128,118,0.7555575966835022,0.08922162652015686
2,4,128,119,0.5439482927322388,0.2537282705307007
2,4,128,120,0.3854386508464813,0.18303869664669037
2,4,128,121,0.48230424523353577,0.1001061275601387
2,4,128,122,0.6616324782371521,0.3071095645427704
2,4,128,123,0.23272322118282318,0.12658922374248505
2,4,128,124,0.45752769708633423,0.2921912670135498
2,4,128,125,0.3678460717201233,0.17246443033218384
2,4,128,126,0.523701548576355,0.1829097867012024
2,4,128,127,0.6176329255104065,0.1592312753200531
2,5,128,0,0.5079246163368225,0.1670605093240738
2,5,128,1,0.8739649057388306,0.12509077787399292
2,5,128,2,0.7435979247093201,0.06788484752178192
2,5,128,3,0.7220870852470398,0.11526317894458771
2,5,128,4,0.49448129534721375,0.07298588752746582
2,5,128,5,0.49290332198143005,0.10370777547359467
2,5,128,6,0.7123427391052246,0.19097532331943512
2,5,128,7,0.8155872225761414,0.10348884761333466
2,5,128,8,0.3416607677936554,0.18974468111991882
2,5,128,9,0.8137786984443665,0.0849912092089653
2,5,128,10,0.6774227023124695,0.10224197804927826
2,5,128,11,0.3858940601348877,0.2485399693250656
2,5,128,12,0.3509431779384613,0.19127453863620758
2,5,128,13,0.5184988975524902,0.2320336252450943
2,5,128,14,0.7493214011192322,0.16098284721374512
2,5,128,15,0.7013216614723206,0.07834655791521072
2,5,128,16,0.7445034384727478,0.20569640398025513
2,5,128,17,0.611667811870575,0.09512122720479965
2,5,128,18,0.8512552380561829,0.11509601771831512
2,5,128,19,0.7029053568840027,0.19447578489780426
2,5,128,20,0.6704936623573303,0.08492950350046158
2,5,128,21,0.27269691228866577,0.16317404806613922
2,5,128,22,0.666060209274292,0.15789556503295898
2,5,128,23,0.6572908163070679,0.07249704003334045
2,5,128,24,0.835231363773346,0.11685807257890701
2,5,128,25,0.8519286513328552,0.12090540677309036
2,5,128,26,0.7176647186279297,0.21906055510044098
2,5,128,27,0.7476935982704163,0.0807761698961258
2,5,128,28,0.8155575394630432,0.1399661898612976
2,5,128,29,0.775826632976532,0.1745883673429489
2,5,128,30,0.7530653476715088,0.1478501558303833
2,5,128,31,0.8490684032440186,0.16035738587379456
2,5,128,32,0.8277644515037537,0.09206881374120712
2,5,128,33,0.6652878522872925,0.09630623459815979
2,5,128,34,0.7941982746124268,0.16566094756126404
2,5,128,35,0.6123520731925964,0.08774217218160629
2,5,128,36,0.8110437393188477,0.18309804797172546
2,5,128,37,0.8159645795822144,0.16609303653240204
2,5,128,38,0.8144069910049438,0.1091575026512146
2,5,128,39,0.789473831653595,0.10328193008899689
2,5,128,40,0.46440720558166504,0.14310860633850098
2,5,128,41,0.8665154576301575,0.13120858371257782
2,5,128,42,0.46082404255867004,0.09656067937612534
2,5,128,43,0.47871074080467224,0.038774315267801285
2,5,128,44,0.8238754272460938,0.15837492048740387
2,5,128,45,0.5478342771530151,0.08184869587421417
2,5,128,46,0.8101575374603271,0.14493030309677124
2,5,128,47,0.7957732081413269,0.13479900360107422
2,5,128,48,0.8683566451072693,0.11832698434591293
2,5,128,49,0.7426948547363281,0.0983612909913063
2,5,128,50,0.7379978895187378,0.16643717885017395
2,5,128,51,0.6732564568519592,0.19531069695949554
2,5,128,52,0.7516226768493652,0.10725131630897522
2,5,128,53,0.4777219593524933,0.1826106756925583
2,5,128,54,0.8085018992424011,0.0936371237039566
2,5,128,55,0.7848506569862366,0.18768171966075897
2,5,128,56,0.8803691267967224,0.07131651043891907
2,5,128,57,0.853249192237854,0.11359716206789017
2,5,128,58,0.7487164735794067,0.24470137059688568
2,5,128,59,0.7094753384590149,0.1517811119556427
2,5,128,60,0.5334116220474243,0.07087796926498413
2,5,128,61,0.8084011077880859,0.07394344359636307
2,5,128,62,0.41985321044921875,0.09068397432565689
2,5,128,63,0.30878302454948425,0.0970633253455162
2,5,128,64,0.8234635591506958,0.14690497517585754
2,5,128,65,0.8007631897926331,0.08776368200778961
2,5,128,66,0.8024870753288269,0.16283243894577026
2,5,128,67,0.7979967594146729,0.22272557020187378
2,5,128,68,0.8055120706558228,0.15855839848518372
2,5,128,69,0.847960889339447,0.13429249823093414
2,5,128,70,0.5951735377311707,0.06961111724376678
2,5,128,71,0.6871062517166138,0.054392848163843155
2,5,128,72,0.7538610100746155,0.15052929520606995
2,5,128,73,0.5441427230834961,0.08245915919542313
2,5,128,74,0.8802416920661926,0.11647740751504898
2,5,128,75,0.25330066680908203,0.19876514375209808
2,5,128,76,0.43492820858955383,0.21081212162971497
2,5,128,77,0.7935430407524109,0.08400747179985046
2,5,128,78,0.8361689448356628,0.08401244133710861
2,5,128,79,0.8260958790779114,0.14483636617660522
2,5,128,80,0.32664597034454346,0.09018406271934509
2,5,128,81,0.4735211133956909,0.17323115468025208
2,5,128,82,0.3654104769229889,0.254658043384552
2,5,128,83,0.8336820602416992,0.1231023520231247
2,5,128,84,0.8261683583259583,0.1459718495607376
2,5,128,85,0.40913859009742737,0.10296367853879929
2,5,128,86,0.6976290941238403,0.059746451675891876
2,5,128,87,0.6186809539794922,0.10013481974601746
2,5,128,88,0.45844370126724243,0.17582452297210693
2,5,128,89,0.8524982333183289,0.10160243511199951
2,5,128,90,0.6873914003372192,0.16449078917503357
2,5,128,91,0.47807425260543823,0.12293092906475067
2,5,128,92,0.79300457239151,0.20666328072547913
2,5,128,93,0.374767541885376,0.1202419176697731
2,5,128,94,0.5374147891998291,0.15219490230083466
2,5,128,95,0.7705066800117493,0.19790758192539215
2,5,128,96,0.802544116973877,0.11494799703359604
2,5,128,97,0.8356804847717285,0.10528534650802612
2,5,128,98,0.7704743146896362,0.21380671858787537
2,5,128,99,0.43029388785362244,0.20838825404644012
2,5,128,100,0.7853499054908752,0.12863454222679138
2,5,128,101,0.7817200422286987,0.19128203392028809
2,5,128,102,0.7904293537139893,0.16045856475830078
2,5,128,103,0.4003433287143707,0.10638365149497986
2,5,128,104,0.7410468459129333,0.24291415512561798
2,5,128,105,0.5757657289505005,0.14212267100811005
2,5,128,106,0.6442016959190369,0.08930196613073349
2,5,128,107,0.735565185546875,0.14973460137844086
2,5,128,108,0.7964743971824646,0.0936349406838417
2,5,128,109,0.6438782811164856,0.0989464670419693
2,5,128,110,0.5390434265136719,0.16116635501384735
2,5,128,111,0.5395563244819641,0.12769800424575806
2,5,128,112,0.7437111735343933,0.07444325089454651
2,5,128,113,0.43734246492385864,0.19831010699272156
2,5,128,114,0.7733317613601685,0.20664049685001373
2,5,128,115,0.8764328956604004,0.10253068059682846
2,5,128,116,0.7498748302459717,0.15623104572296143
2,5,128,117,0.7951464056968689,0.15910246968269348
2,5,128,118,0.8243012428283691,0.13048475980758667
2,5,128,119,0.8991982936859131,0.0868329107761383
2,5,128,120,0.7671931982040405,0.09234384447336197
2,5,128,121,0.7248975038528442,0.0954095795750618
2,5,128,122,0.7893407940864563,0.1968756467103958
2,5,128,123,0.7654573321342468,0.17896603047847748
2,5,128,124,0.7659946084022522,0.09254784882068634
2,5,128,125,0.6646310687065125,0.0691332295536995
2,5,128,126,0.4445594847202301,0.14994873106479645
2,5,128,127,0.5583515167236328,0.20567387342453003
3,0,32,0,0.45501086115837097,0.09215663373470306
3,0,32,1,0.3827807605266571,0.08739659935235977
3,0,32,2,0.5347243547439575,0.07670634984970093
3,0,32,3,0.59809410572052,0.10536176711320877
3,0,32,4,0.45057693123817444,0.08565997332334518
3,0,32,5,0.4362965226173401,0.0771724209189415
3,0,32,6,0.5983409285545349,0.06329048424959183
3,0,32,7,0.5359908938407898,0.041259244084358215
3,0,32,8,0.4882075786590576,0.07690215855836868
3,0,32,9,0.5203040242195129,0.074374258518219
3,0,32,10,0.6575783491134644,0.039482273161411285
3,0,32,11,0.458998441696167,0.07029275596141815
3,0,32,12,0.43673551082611084,0.07090971618890762
3,0,32,13,0.5291731953620911,0.07587859034538269
3,0,32,14,0.4539625346660614,0.08992966264486313
3,0,32,15,0.4753410816192627,0.0637034922838211
3,0,32,16,0.4309583902359009,0.11241741478443146
3,0,32,17,0.550955593585968,0.03601066768169403
3,0,32,18,0.6164336800575256,0.03204016014933586
3,0,32,19,0.57485032081604,0.05845414847135544
3,0,32,20,0.5751985907554626,0.017334168776869774
3,0,32,21,0.44253915548324585,0.07125900685787201
3,0,32,22,0.38575008511543274,0.08852589875459671
3,0,32,23,0.39294198155403137,0.03918371722102165
3,0,32,24,0.3276222050189972,0.06023167818784714
3,0,32,25,0.3736988306045532,0.06086810678243637
3,0,32,26,0.35117027163505554,0.06455564498901367
3,0,32,27,0.43079498410224915,0.07535608857870102
3,0,32,28,0.4796474575996399,0.05288681387901306
3,0,32,29,0.445563942193985,0.05157993733882904
3,0,32,30,0.5712454319000244,0.05917607992887497
3,0,32,31,0.5067058801651001,0.056379545480012894
3,1,32,0,0.6098631024360657,0.051230538636446
3,1,32,1,0.47523051500320435,0.12127657234668732
3,1,32,2,0.5669021606445312,0.09543062746524811
3,1,32,3,0.4242715537548065,0.03824412822723389
3,1,32,4,0.5151417851448059,0.14677946269512177
3,1,32,5,0.5328527688980103,0.13324257731437683
3,1,32,6,0.4024653434753418,0.08454131335020065
3,1,32,7,0.37275928258895874,0.1078358143568039
3,1,32,8,0.3652147948741913,0.05640830844640732
3,1,32,9,0.5646536350250244,0.1282360851764679
3,1,32,10,0.6153336763381958,0.052937183529138565
3,1,32,11,0.6021715998649597,0.10943929851055145
3,1,32,12,0.5488741397857666,0.07271018624305725
3,1,32,13,0.5449827909469604,0.12874028086662292
3,1,32,14,0.5056982636451721,0.06770626455545425
3,1,32,15,0.5392580628395081,0.12302196025848389
3,1,32,16,0.5244153141975403,0.10773061215877533
3,1,32,17,0.3920048475265503,0.10208624601364136
3,1,32,18,0.6254111528396606,0.09572529047727585
3,1,32,19,0.441090852022171,0.07436130940914154
3,1,32,20,0.4903310239315033,0.10373393446207047
3,1,32,21,0.5580066442489624,0.09563327580690384
3,1,32,22,0.3509567081928253,0.08515918254852295
3,1,32,23,0.5562753677368164,0.15405486524105072
3,1,32,24,0.5056600570678711,0.12086595594882965
3,1,32,25,0.6273921132087708,0.10164554417133331
3,1,32,26,0.4798559248447418,0.0677529126405716
3,1,32,27,0.5912557244300842,0.030909577384591103
3,1,32,28,0.5910415649414062,0.10410462319850922
3,1,32,29,0.5578209757804871,0.06780460476875305
3,1,32,30,0.6049501299858093,0.03690054640173912
3,1,32,31,0.5538635849952698,0.06621737033128738
3,2,64,0,0.44120484590530396,0.04801773652434349
3,2,64,1,0.5558383464813232,0.16871117055416107
3,2,64,2,0.5331369042396545,0.17105916142463684
3,2,64,3,0.4980964660644531,0.06612274050712585
3,2,64,4,0.5483936071395874,0.15071792900562286
3,2,64,5,0.5323753952980042,0.11686474829912186
3,2,64,6,0.5400547385215759,0.11617740243673325
3,2,64,7,0.60978764295578,0.04494104161858559
3,2,64,8,0.5671842694282532,0.2021830528974533
3,2,64,9,0.45985135436058044,0.15671710669994354
3,2,64,10,0.3927062749862671,0.13499818742275238
3,2,64,11,0.5408048033714294,0.2356196641921997
3,2,64,12,0.4570045471191406,0.16609716415405273
3,2,64,13,0.5316838622093201,0.19931502640247345
3,2,64,14,0.3933868110179901,0.19876810908317566
3,2,64,15,0.6762276887893677,0.07665279507637024
3,2,64,16,0.4590628147125244,0.21741165220737457
3,2,64,17,0.3942676782608032,0.15399792790412903
3,2,64,18,0.4214755594730377,0.19112996757030487
3,2,64,19,0.5248835682868958,0.15136176347732544
3,2,64,20,0.4333557188510895,0.1917153000831604
3,2,64,21,0.5189618468284607,0.11382095515727997
3,2,64,22,0.5145731568336487,0.21247020363807678
3,2,64,23,0.5056564807891846,0.1745748370885849
3,2,64,24,0.48674941062927246,0.1670147329568863
3,2,64,25,0.34221571683883667,0.08774776756763458
3,2,64,26,0.36577484011650085,0.14549507200717926
3,2,64,27,0.4740370810031891,0.2535921037197113
3,2,64,28,0.4790513813495636,0.18302494287490845
3,2,64,29,0.4749077260494232,0.17883343994617462
3,2,64,30,0.41536945104599,0.21661093831062317
3,2,64,31,0.5272080898284912,0.16787825524806976
3,2,64,32,0.5533287525177002,0.17175309360027313
3,2,64,33,0.4941090941429138,0.1292898803949356
3,2,64,34,0.32356271147727966,0.11997710168361664
3,2,64,35,0.5088491439819336,0.06620265543460846
3,2,64,36,0.6075931787490845,0.1105552539229393
3,2,64,37,0.42270487546920776,0.18160472810268402
3,2,64,38,0.4643900990486145,0.16012054681777954
3,2,64,39,0.4659804105758667,0.14404188096523285
3,2,64,40,0.6498675346374512,0.0827367976307869
3,2,64,41,0.6349102854728699,0.15054653584957123
3,2,64,42,0.5752550959587097,0.16275478899478912
3,2,64,43,0.4283772110939026,0.08001083880662918
3,2,64,44,0.5323380827903748,0.16525302827358246
3,2,64,45,0.5875476598739624,0.24569033086299896
3,2,64,46,0.6441441774368286,0.19775746762752533
3,2,64,47,0.4240393042564392,0.1143498346209526
3,2,64,48,0.43298688530921936,0.23859122395515442
3,2,64,49,0.3449895977973938,0.07077381759881973
3,2,64,50,0.4164179563522339,0.16775213181972504
3,2,64,51,0.4919355511665344,0.12195778638124466
3,2,64,52,0.633113443851471,0.12048516422510147
3,2,64,53,0.5052255988121033,0.16209769248962402
3,2,64,54,0.5237358212471008,0.1752462089061737
3,2,64,55,0.5980347394943237,0.23396039009094238
3,2,64,56,0.4189451336860657,0.21863488852977753
3,2,64,57,0.479172021150589,0.08257587254047394
3,2,64,58,0.45279958844184875,0.08805623650550842
3,2,64,59,0.6063732504844666,0.08779258280992508
3,2,64,60,0.7538445591926575,0.07455292344093323
3,2,64,61,0.48584771156311035,0.19054020941257477
3,2,64,62,0.3815755248069763,0.08837498724460602
3,2,64,63,0.6362526416778564,0.08338741213083267
3,3,64,0,0.41790053248405457,0.061050526797771454
3,3,64,1,0.4641488790512085,0.03238455578684807
3,3,64,2,0.3469572961330414,0.10445962101221085
3,3,64,3,0.5401957631111145,0.07430361956357956
3,3,64,4,0.43109768629074097,0.015243973582983017
3,3,64,5,0.39103201031684875,0.06405526399612427
3,3,64,6,0.44420596957206726,0.14559240639209747
3,3,64,7,0.3871265649795532,0.12278787791728973
3,3,64,8,0.442732572555542,0.05122603848576546
3,3,64,9,0.4923868775367737,0.04428419843316078
3,3,64,10,0.554160475730896,0.1007218137383461
3,3,64,11,0.39277705550193787,0.1578489989042282
3,3,64,12,0.5578609108924866,0.16519151628017426
3,3,64,13,0.5291163921356201,0.08484688401222229
3,3,64,14,0.43344050645828247,0.10092955827713013
3,3,64,15,0.5184169411659241,0.09729446470737457
3,3,64,16,0.4293213486671448,0.13044533133506775
3,3,64,17,0.4186389446258545,0.14406122267246246
3,3,64,18,0.43484845757484436,0.04506097733974457
3,3,64,19,0.5545874238014221,0.05893087759613991
3,3,64,20,0.44832098484039307,0.1528369039297104
3,3,64,21,0.6282443404197693,0.11618976294994354
3,3,64,22,0.5426400899887085,0.09194828569889069
3,3,64,23,0.5273173451423645,0.09783606976270676
3,3,64,24,0.4906332492828369,0.10962631553411484
3,3,64,25,0.45973625779151917,0.12617450952529907
3,3,64,26,0.4949096143245697,0.11067783832550049
3,3,64,27,0.43390920758247375,0.05033649131655693
3,3,64,28,0.5438877940177917,0.05876817926764488
3,3,64,29,0.45685964822769165,0.12926267087459564
3,3,64,30,0.49331191182136536,0.1431686282157898
3,3,64,31,0.49232709407806396,0.10009915381669998
3,3,64,32,0.5573630332946777,0.10172494500875473
3,3,64,33,0.49685782194137573,0.07924655824899673
3,3,64,34,0.5751267075538635,0.16519422829151154
3,3,64,35,0.5769915580749512,0.13608510792255402
3,3,64,36,0.6463911533355713,0.11384866386651993
3,3,64,37,0.5355272889137268,0.10436436533927917
3,3,64,38,0.41592007875442505,0.06079821288585663
3,3,64,39,0.3932509422302246,0.1394118219614029
3,3,64,40,0.5076428651809692,0.12663353979587555
3,3,64,41,0.5168760418891907,0.11959686875343323
3,3,64,42,0.5507957339286804,0.12272574007511139
3,3,64,43,0.5492863655090332,0.08187469840049744
3,3,64,44,0.5319800972938538,0.06309047341346741
3,3,64,45,0.5197796821594238,0.06590168178081512
3,3,64,46,0.5610558390617371,0.0863548144698143
3,3,64,47,0.533210277557373,0.02232576720416546
3,3,64,48,0.4624001979827881,0.12487858533859253
3,3,64,49,0.5823127627372742,0.03952578082680702
3,3,64,50,0.5535244941711426,0.09049510955810547
3,3,64,51,0.5169000625610352,0.062477026134729385
3,3,64,52,0.4944736957550049,0.11911867558956146
3,3,64,53,0.46094560623168945,0.09613564610481262
3,3,64,54,0.41892656683921814,0.12880662083625793
3,3,64,55,0.4468327760696411,0.10713612288236618
3,3,64,56,0.40371790528297424,0.12025877833366394
3,3,64,57,0.4477901756763458,0.07899060845375061
3,3,64,58,0.5222605466842651,0.07576032727956772
3,3,64,59,0.5220426321029663,0.06651132553815842
3,3,64,60,0.45390036702156067,0.035768792033195496
3,3,64,61,0.4794227182865143,0.13010582327842712
3,3,64,62,0.4210653305053711,0.15162529051303864
3,3,64,63,0.43417295813560486,0.05800231918692589
3,4,128,0,0.633984386920929,0.12243733555078506
3,4,128,1,0.5188668966293335,0.153696671128273
3,4,128,2,0.7602433562278748,0.14741556346416473
3,4,128,3,0.6531938314437866,0.11697755753993988
3,4,128,4,0.32098814845085144,0.15220732986927032
3,4,128,5,0.7391940951347351,0.16823165118694305
3,4,128,6,0.6957415342330933,0.21215832233428955
3,4,128,7,0.21175384521484375,0.0955127626657486
3,4,128,8,0.40755581855773926,0.18519149720668793
3,4,128,9,0.6142820715904236,0.20597009360790253
3,4,128,10,0.5747831463813782,0.05217728391289711
3,4,128,11,0.4474930167198181,0.11101749539375305
3,4,128,12,0.6590717434883118,0.08835684508085251
3,4,128,13,0.5346443057060242,0.034486204385757446
3,4,128,14,0.408883273601532,0.07735605537891388
3,4,128,15,0.7618761658668518,0.12944500148296356
3,4,128,16,0.7562723159790039,0.13483455777168274
3,4,128,17,0.44868746399879456,0.22466211020946503
3,4,128,18,0.7914116978645325,0.09465431421995163
3,4,128,19,0.3074076771736145,0.1948467344045639
3,4,128,20,0.7151543498039246,0.21521884202957153
3,4,128,21,0.48927241563796997,0.08111333847045898
3,4,128,22,0.6920212507247925,0.2555416524410248
3,4,128,23,0.6111770272254944,0.2596328556537628
3,4,128,24,0.5553379654884338,0.04960368946194649
3,4,128,25,0.4820081293582916,0.07310140877962112
3,4,128,26,0.7655351161956787,0.17236167192459106
3,4,128,27,0.5525236129760742,0.08926491439342499
3,4,128,28,0.7347999811172485,0.2106509953737259
3,4,128,29,0.5688155293464661,0.022868553176522255
3,4,128,30,0.39569249749183655,0.17293788492679596
3,4,128,31,0.6674647927284241,0.09361838549375534
3,4,128,32,0.54179847240448,0.06727238744497299
3,4,128,33,0.26451319456100464,0.15195634961128235
3,4,128,34,0.6295111775398254,0.12166772782802582
3,4,128,35,0.25252243876457214,0.14127489924430847
3,4,128,36,0.5683432817459106,0.1447145938873291
3,4,128,37,0.6983227729797363,0.19615910947322845
3,4,128,38,0.34589606523513794,0.16353435814380646
3,4,128,39,0.4544227123260498,0.18408340215682983
3,4,128,40,0.70561683177948,0.18170024454593658
3,4,128,41,0.515266478061676,0.11059479415416718
3,4,128,42,0.5974594950675964,0.22191844880580902
3,4,128,43,0.7177174091339111,0.25457313656806946
3,4,128,44,0.7215614914894104,0.1381441205739975
3,4,128,45,0.47369375824928284,0.060639653354883194
3,4,128,46,0.3531826138496399,0.21857790648937225
3,4,128,47,0.2957494556903839,0.2730233371257782
3,4,128,48,0.6329808831214905,0.16838385164737701
3,4,128,49,0.4548536241054535,0.11668431758880615
3,4,128,50,0.5432909727096558,0.07794629037380219
3,4,128,51,0.4845300614833832,0.15043966472148895
3,4,128,52,0.7159459590911865,0.1297590583562851
3,4,128,53,0.6697826385498047,0.056727826595306396
3,4,128,54,0.6878126263618469,0.15079225599765778
3,4,128,55,0.288769006729126,0.1384202390909195
3,4,128,56,0.6200688481330872,0.14132827520370483
3,4,128,57,0.8624589443206787,0.08183283358812332
3,4,128,58,0.4227037727832794,0.1377691626548767
3,4,128,59,0.5197294354438782,0.0770878866314888
3,4,128,60,0.7872339487075806,0.17194092273712158
3,4,128,61,0.7281671762466431,0.17154888808727264
3,4,128,62,0.717574417591095,0.1167052760720253
3,4,128,63,0.5290514230728149,0.05333523079752922
3,4,128,64,0.39256811141967773,0.06467508524656296
3,4,128,65,0.5811309218406677,0.17917126417160034
3,4,128,66,0.346832275390625,0.15335801243782043
3,4,128,67,0.27452147006988525,0.1993136703968048
3,4,128,68,0.7381739020347595,0.2668096721172333
3,4,128,69,0.26122424006462097,0.1474509835243225
3,4,128,70,0.44707122445106506,0.07992907613515854
3,4,128,71,0.8057218790054321,0.17862462997436523
3,4,128,72,0.5168503522872925,0.06019125133752823
3,4,128,73,0.7038617134094238,0.302804172039032
3,4,128,74,0.6277633309364319,0.07422526925802231
3,4,128,75,0.3805709779262543,0.19040043652057648
3,4,128,76,0.2967470586299896,0.22363829612731934
3,4,128,77,0.6203183531761169,0.30337974429130554
3,4,128,78,0.7156882286071777,0.11563359946012497
3,4,128,79,0.3408554792404175,0.1848965883255005
3,4,128,80,0.7293214201927185,0.19492506980895996
3,4,128,81,0.5833262205123901,0.21960048377513885
3,4,128,82,0.5938246846199036,0.16408640146255493
3,4,128,83,0.6287093758583069,0.2673718333244324
3,4,128,84,0.6013914942741394,0.08222227543592453
3,4,128,85,0.6222569942474365,0.10425803065299988
3,4,128,86,0.3480945825576782,0.09462477266788483
3,4,128,87,0.5784026384353638,0.14885883033275604
3,4,128,88,0.5151781439781189,0.11379799246788025
3,4,128,89,0.34441500902175903,0.13474707305431366
3,4,128,90,0.7218203544616699,0.21669386327266693
3,4,128,91,0.5796256065368652,0.1331646889448166
3,4,128,92,0.5249408483505249,0.05078592151403427
3,4,128,93,0.568064272403717,0.150692418217659
3,4,128,94,0.5068800449371338,0.08862725645303726
3,4,128,95,0.726628303527832,0.1929740309715271
3,4,128,96,0.7324451804161072,0.1422618180513382
3,4,128,97,0.754952609539032,0.20059585571289062
3,4,128,98,0.5977010726928711,0.09107254445552826
3,4,128,99,0.5279363393783569,0.11833670735359192
3,4,128,100,0.7179258465766907,0.07482896000146866
3,4,128,101,0.7132322788238525,0.15403781831264496
3,4,128,102,0.7199000120162964,0.1466636210680008
3,4,128,103,0.6869457364082336,0.29477012157440186
3,4,128,104,0.6638781428337097,0.13007709383964539
3,4,128,105,0.4792220890522003,0.12894295156002045
3,4,128,106,0.4084279537200928,0.06514982134103775
3,4,128,107,0.4707462787628174,0.06092313677072525
3,4,128,108,0.5144519209861755,0.053647253662347794
3,4,128,109,0.7915869355201721,0.14706732332706451
3,4,128,110,0.7328693866729736,0.12712237238883972
3,4,128,111,0.6068111062049866,0.1989748775959015
3,4,128,112,0.7798298001289368,0.19014263153076172
3,4,128,113,0.36949944496154785,0.06420674175024033
3,4,128,114,0.7630019187927246,0.19124510884284973
3,4,128,115,0.6473625898361206,0.2777848541736603
3,4,128,116,0.8041359186172485,0.17653396725654602
3,4,128,117,0.6463634967803955,0.27585503458976746
3,4,128,118,0.7477917671203613,0.12848085165023804
3,4,128,119,0.6882486343383789,0.08976611495018005
3,4,128,120,0.5204596519470215,0.1048528403043747
3,4,128,121,0.33531883358955383,0.08976274728775024
3,4,128,122,0.33653995394706726,0.10607795417308807
3,4,128,123,0.7651205062866211,0.20049652457237244
3,4,128,124,0.2771584391593933,0.20432528853416443
3,4,128,125,0.4344854950904846,0.08827352523803711
3,4,128,126,0.35584142804145813,0.13688234984874725
3,4,128,127,0.58769291639328,0.11452748626470566
3,5,128,0,0.42182615399360657,0.030991943553090096
3,5,128,1,0.5616331100463867,0.03657586872577667
3,5,128,2,0.5511788725852966,0.10572408139705658
3,5,128,3,0.36231204867362976,0.12323790788650513
3,5,128,4,0.5818976759910583,0.08196234703063965
3,5,128,5,0.518144428730011,0.1192006841301918
3,5,128,6,0.3472660779953003,0.11993246525526047
3,5,128,7,0.5063595175743103,0.03896040469408035
3,5,128,8,0.39621537923812866,0.09259400516748428
3,5,128,9,0.6172915697097778,0.027959933504462242
3,5,128,10,0.7616729140281677,0.10333080589771271
3,5,128,11,0.6712470650672913,0.05603862926363945
3,5,128,12,0.7473100423812866,0.18007518351078033
3,5,128,13,0.6716457605361938,0.15729069709777832
3,5,128,14,0.1977226287126541,0.0743422880768776
3,5,128,15,0.7158711552619934,0.2563227117061615
3,5,128,16,0.661888837814331,0.24738167226314545
3,5,128,17,0.7315060496330261,0.07643420994281769
3,5,128,18,0.7663226127624512,0.1262553334236145
3,5,128,19,0.459439218044281,0.07299180328845978
3,5,128,20,0.7915925979614258,0.10380055010318756
3,5,128,21,0.48327919840812683,0.12403307855129242
3,5,128,22,0.4494920074939728,0.1357564926147461
3,5,128,23,0.4611513316631317,0.050097666680812836
3,5,128,24,0.5890922546386719,0.09101542085409164
3,5,128,25,0.4908592104911804,0.061005670577287674
3,5,128,26,0.7051355838775635,0.19824431836605072
3,5,128,27,0.5860787034034729,0.2567580044269562
3,5,128,28,0.7874233722686768,0.07420811802148819
3,5,128,29,0.6432098746299744,0.09596025943756104
3,5,128,30,0.5757943391799927,0.12966099381446838
3,5,128,31,0.5321954488754272,0.18487942218780518
3,5,128,32,0.4714345335960388,0.08497930318117142
3,5,128,33,0.4982644021511078,0.05863271653652191
3,5,128,34,0.5368322730064392,0.14608561992645264
3,5,128,35,0.3371638357639313,0.26011231541633606
3,5,128,36,0.6341536641120911,0.24053679406642914
3,5,128,37,0.6723364591598511,0.24550187587738037
3,5,128,38,0.6537356376647949,0.12359878420829773
3,5,128,39,0.48697224259376526,0.05030874162912369
3,5,128,40,0.5600250959396362,0.2562811076641083
3,5,128,41,0.7092145681381226,0.18697266280651093
3,5,128,42,0.8027581572532654,0.09942541271448135
3,5,128,43,0.7428252100944519,0.230841264128685
3,5,128,44,0.6898142695426941,0.061750613152980804
3,5,128,45,0.4817415475845337,0.051477156579494476
3,5,128,46,0.7429042458534241,0.13201870024204254
3,5,128,47,0.48483824729919434,0.03975386172533035
3,5,128,48,0.5798745155334473,0.029448237270116806
3,5,128,49,0.4282393157482147,0.0444677509367466
3,5,128,50,0.5678883790969849,0.24876290559768677
3,5,128,51,0.6775978803634644,0.10893357545137405
3,5,128,52,0.6776914000511169,0.2049393206834793
3,5,128,53,0.385961651802063,0.13127334415912628
3,5,128,54,0.6839045286178589,0.19412747025489807
3,5,128,55,0.357953816652298,0.22060471773147583
3,5,128,56,0.3293364644050598,0.12197503447532654
3,5,128,57,0.7665645480155945,0.08003100752830505
3,5,128,58,0.6273781657218933,0.1110120341181755
3,5,128,59,0.668956995010376,0.15153710544109344
3,5,128,60,0.7354704737663269,0.0770445391535759
3,5,128,61,0.7609351277351379,0.12814804911613464
3,5,128,62,0.7489157319068909,0.12415632605552673
3,5,128,63,0.7454833984375,0.07554150372743607
3,5,128,64,0.39905309677124023,0.17025475203990936
3,5,128,65,0.735082745552063,0.20086804032325745
3,5,128,66,0.7444043159484863,0.06699984520673752
3,5,128,67,0.40378478169441223,0.2837795317173004
3,5,128,68,0.6515651345252991,0.2706897258758545
3,5,128,69,0.4528389871120453,0.027454156428575516
3,5,128,70,0.7564400434494019,0.11043495684862137
3,5,128,71,0.7816432118415833,0.0904465988278389
3,5,128,72,0.36016687750816345,0.19631674885749817
3,5,128,73,0.6938155889511108,0.2465076744556427
3,5,128,74,0.5067877769470215,0.0267178937792778
3,5,128,75,0.6608788967132568,0.2373495250940323
3,5,128,76,0.3780505359172821,0.1632775217294693
3,5,128,77,0.6935353875160217,0.1320241391658783
3,5,128,78,0.5517959594726562,0.28610026836395264
3,5,128,79,0.317303329706192,0.10300429165363312
3,5,128,80,0.8000237345695496,0.09731824696063995
3,5,128,81,0.38971543312072754,0.22395026683807373
3,5,128,82,0.58580482006073,0.06410062313079834
3,5,128,83,0.687552273273468,0.1025673970580101
3,5,128,84,0.4464434087276459,0.13353140652179718
3,5,128,85,0.7514872550964355,0.1501554250717163
3,5,128,86,0.671669065952301,0.0891232118010521
3,5,128,87,0.6254428625106812,0.10436654090881348
3,5,128,88,0.4723198413848877,0.08230326324701309
3,5,128,89,0.4893275797367096,0.07107161730527878
3,5,128,90,0.6679415106773376,0.13760386407375336
3,5,128,91,0.732451856136322,0.09438621252775192
3,5,128,92,0.6294698715209961,0.256373792886734
3,5,128,93,0.8157627582550049,0.10253438353538513
3,5,128,94,0.6464393734931946,0.2513573467731476
3,5,128,95,0.6992821097373962,0.09008529782295227
3,5,128,96,0.5259377360343933,0.10350241512060165
3,5,128,97,0.541680097579956,0.06423458456993103
3,5,128,98,0.6476814150810242,0.15601332485675812
3,5,128,99,0.5985703468322754,0.1102268248796463
3,5,128,100,0.6409528255462646,0.0697203204035759
3,5,128,101,0.5516966581344604,0.04865255951881409
3,5,128,102,0.8084293007850647,0.09571970254182816
3,5,128,103,0.6254299283027649,0.14336712658405304
3,5,128,104,0.7381070852279663,0.15366747975349426
3,5,128,105,0.6216210722923279,0.28533753752708435
3,5,128,106,0.5785613059997559,0.16348454356193542
3,5,128,107,0.7443065047264099,0.19068869948387146
3,5,128,108,0.6561282873153687,0.15255363285541534
3,5,128,109,0.7563345432281494,0.1626424342393875
3,5,128,110,0.5150930285453796,0.12516990303993225
3,5,128,111,0.4344754219055176,0.06062062829732895
3,5,128,112,0.7956342697143555,0.10052435845136642
3,5,128,113,0.5957185626029968,0.03704705461859703
3,5,128,114,0.7505388855934143,0.14557833969593048
3,5,128,115,0.6192946434020996,0.06416158378124237
3,5,128,116,0.44080647826194763,0.0961885079741478
3,5,128,117,0.6134019494056702,0.20752361416816711
3,5,128,118,0.7269884347915649,0.14790762960910797
3,5,128,119,0.6556854844093323,0.18317881226539612
3,5,128,120,0.7086039781570435,0.0423455685377121
3,5,128,121,0.36003994941711426,0.22060111165046692
3,5,128,122,0.6891739964485168,0.10838572680950165
3,5,128,123,0.4305410385131836,0.19075708091259003
3,5,128,124,0.468961626291275,0.18019838631153107
3,5,128,125,0.470322847366333,0.18342384696006775
3,5,128,126,0.7284120321273804,0.0696185827255249
3,5,128,127,0.3222673833370209,0.23262952268123627
4,0,32,0,0.4686940014362335,0.051121048629283905
4,0,32,1,0.5816078186035156,0.039795998483896255
4,0,32,2,0.5006652474403381,0.07599638402462006
4,0,32,3,0.5653391480445862,0.05924035236239433
4,0,32,4,0.4152786433696747,0.10508249700069427
4,0,32,5,0.5603822469711304,0.06513089686632156
4,0,32,6,0.6189337968826294,0.03687750920653343
4,0,32,7,0.525076687335968,0.062247734516859055
4,0,32,8,0.5279842019081116,0.035934366285800934
4,0,32,9,0.5974172949790955,0.06197570264339447
4,0,32,10,0.4424191117286682,0.03425706923007965
4,0,32,11,0.3456321358680725,0.037938546389341354
4,0,32,12,0.5212504267692566,0.06722963601350784
4,0,32,13,0.3849242031574249,0.05139611288905144
4,0,32,14,0.44020649790763855,0.10427016764879227
4,0,32,15,0.4024544656276703,0.0531482957303524
4,0,32,16,0.32025134563446045,0.0641166940331459
4,0,32,17,0.4473968744277954,0.09160264581441879
4,0,32,18,0.5285398364067078,0.038930218666791916
4,0,32,19,0.42615970969200134,0.036836422979831696
4,0,32,20,0.43028584122657776,0.0374123677611351
4,0,32,21,0.387744665145874,0.08026467263698578
4,0,32,22,0.5492260456085205,0.05361097306013107
4,0,32,23,0.4104171097278595,0.046197034418582916
4,0,32,24,0.6163350343704224,0.0780564546585083
4,0,32,25,0.3847386837005615,0.038080353289842606
4,0,32,26,0.4204915463924408,0.08786755800247192
4,0,32,27,0.5297502875328064,0.062184013426303864
4,0,32,28,0.6139144897460938,0.07668955624103546
4,0,32,29,0.6003320813179016,0.02937910333275795
4,0,32,30,0.5100219249725342,0.030055919662117958
4,0,32,31,0.511070191860199,0.07559473067522049
4,1,32,0,0.5053324699401855,0.013165509328246117
4,1,32,1,0.5339220762252808,0.05007031559944153
4,1,32,2,0.5673685073852539,0.060092728585004807
4,1,32,3,0.5115495324134827,0.05707705765962601
4,1,32,4,0.5244390964508057,0.0143381766974926
4,1,32,5,0.5434682369232178,0.025620490312576294
4,1,32,6,0.3819628953933716,0.03571516275405884
4,1,32,7,0.5569025874137878,0.05513092875480652
4,1,32,8,0.44028982520103455,0.024571627378463745
4,1,32,9,0.5221993327140808,0.021686065942049026
4,1,32,10,0.49225425720214844,0.06476923823356628
4,1,32,11,0.40838465094566345,0.04793559014797211
4,1,32,12,0.39288219809532166,0.03483923152089119
4,1,32,13,0.5366306304931641,0.04769178107380867
4,1,32,14,0.5953143239021301,0.0390302874147892
4,1,32,15,0.3962172865867615,0.00514966668561101
4,1,32,16,0.4166511595249176,0.05726959928870201
4,1,32,17,0.4841572642326355,0.06452011317014694
4,1,32,18,0.37257716059684753,0.04590696841478348
4,1,32,19,0.35909757018089294,0.03623129799962044
4,1,32,20,0.5054102540016174,0.036915648728609085
4,1,32,21,0.5767270922660828,0.044781189411878586
4,1,32,22,0.5874209403991699,0.029292918741703033
4,1,32,23,0.6280670762062073,0.05081121250987053
4,1,32,24,0.5125762820243835,0.03309161588549614
4,1,32,25,0.49801942706108093,0.04310523718595505
4,1,32,26,0.5595631003379822,0.012821475975215435
4,1,32,27,0.45778167247772217,0.045766208320856094
4,1,32,28,0.4359577000141144,0.04044237360358238
4,1,32,29,0.44082239270210266,0.05463565140962601
4,1,32,30,0.6037628650665283,0.046069324016571045
4,1,32,31,0.5207661986351013,0.03547103330492973
4,2,64,0,0.4432376027107239,0.05321843549609184
4,2,64,1,0.5353357195854187,0.08041892200708389
4,2,64,2,0.41508564352989197,0.08219148218631744
4,2,64,3,0.568891704082489,0.11847730726003647
4,2,64,4,0.4850107729434967,0.0784696638584137
4,2,64,5,0.6454068422317505,0.12022165954113007
4,2,64,6,0.4639073610305786,0.08525585383176804
4,2,64,7,0.4210340082645416,0.08202231675386429
4,2,64,8,0.5362167954444885,0.09081315994262695
4,2,64,9,0.4489663541316986,0.06940466910600662
4,2,64,10,0.556898832321167,0.044205255806446075
4,2,64,11,0.567029595375061,0.09813252836465836
4,2,64,12,0.5644412636756897,0.1286851167678833
4,2,64,13,0.6225093603134155,0.07748586684465408
4,2,64,14,0.5466240048408508,0.05895346775650978
4,2,64,15,0.5800383687019348,0.09215818345546722
4,2,64,16,0.5340818166732788,0.11811526864767075
4,2,64,17,0.5424767136573792,0.05605417862534523
4,2,64,18,0.5371803045272827,0.15359269082546234
4,2,64,19,0.5660867094993591,0.07766186445951462
4,2,64,20,0.5563309192657471,0.03031422756612301
4,2,64,21,0.6242949962615967,0.08047041296958923
4,2,64,22,0.5035926699638367,0.13891494274139404
4,2,64,23,0.43938297033309937,0.10870309174060822
4,2,64,24,0.5767577290534973,0.09942784905433655
4,2,64,25,0.5860228538513184,0.048256438225507736
4,2,64,26,0.4317663609981537,0.10884208232164383
4,2,64,27,0.4961605966091156,0.09896030277013779
4,2,64,28,0.5259913802146912,0.0689694806933403
4,2,64,29,0.37691253423690796,0.04374087601900101
4,2,64,30,0.6043687462806702,0.09778371453285217
4,2,64,31,0.39968934655189514,0.04980280622839928
4,2,64,32,0.4652048647403717,0.05745973438024521
4,2,64,33,0.4086955189704895,0.08682200312614441
4,2,64,34,0.5022028684616089,0.1395733803510666
4,2,64,35,0.5119331479072571,0.04519401118159294
4,2,64,36,0.5959746837615967,0.04258674010634422
4,2,64,37,0.578581690788269,0.0538564957678318
4,2,64,38,0.598372220993042,0.06095530837774277
4,2,64,39,0.39941278100013733,0.1345408409833908
4,2,64,40,0.4887571930885315,0.08070458471775055
4,2,64,41,0.515189528465271,0.11250486969947815
4,2,64,42,0.6180838346481323,0.10614632070064545
4,2,64,43,0.4494969844818115,0.08760270476341248
4,2,64,44,0.420354962348938,0.03252529725432396
4,2,64,45,0.4930155873298645,0.07053274661302567
4,2,64,46,0.5407789945602417,0.02683103270828724
4,2,64,47,0.664775550365448,0.09584368765354156
4,2,64,48,0.5485461950302124,0.10057833790779114
4,2,64,49,0.5132207870483398,0.07291195541620255
4,2,64,50,0.5484475493431091,0.14145441353321075
4,2,64,51,0.5589255690574646,0.07591088116168976
4,2,64,52,0.5697202086448669,0.09205058962106705
4,2,64,53,0.4832104444503784,0.06687837839126587
4,2,64,54,0.4720727801322937,0.08564645051956177
4,2,64,55,0.475223571062088,0.06456157565116882
4,2,64,56,0.5435287952423096,0.10431942343711853
4,2,64,57,0.4429689645767212,0.14613690972328186
4,2,64,58,0.6036205291748047,0.10997533053159714
4,2,64,59,0.5023762583732605,0.06556548923254013
4,2,64,60,0.545026957988739,0.13306529819965363
4,2,64,61,0.48590001463890076,0.04230652004480362
4,2,64,62,0.539025068283081,0.13723072409629822
4,2,64,63,0.5621444582939148,0.05328390747308731
4,3,64,0,0.595684289932251,0.05863848328590393
4,3,64,1,0.5228230953216553,0.07283086329698563
4,3,64,2,0.4577917754650116,0.0860213115811348
4,3,64,3,0.4696485698223114,0.0378444567322731
4,3,64,4,0.4950425326824188,0.08966074883937836
4,3,64,5,0.4607189893722534,0.05961484834551811
4,3,64,6,0.397587388753891,0.05627201497554779
4,3,64,7,0.5185661911964417,0.029528019949793816
4,3,64,8,0.4905037581920624,0.09296819567680359
4,3,64,9,0.6188945770263672,0.07780321687459946
4,3,64,10,0.4522976875305176,0.08315306156873703
4,3,64,11,0.529633641242981,0.02875317446887493
4,3,64,12,0.40302056074142456,0.06228801980614662
4,3,64,13,0.4566570818424225,0.09054197371006012
4,3,64,14,0.6070094704627991,0.05356818437576294
4,3,64,15,0.38594019412994385,0.04698113352060318
4,3,64,16,0.5264409184455872,0.04129641503095627
4,3,64,17,0.4439440965652466,0.07934367656707764
4,3,64,18,0.6361307501792908,0.058073751628398895
4,3,64,19,0.5605126023292542,0.1402844339609146
4,3,64,20,0.4070841372013092,0.06182639300823212
4,3,64,21,0.39714986085891724,0.06976164877414703
4,3,64,22,0.4928464889526367,0.0872146263718605
4,3,64,23,0.37945470213890076,0.04345090687274933
4,3,64,24,0.6010842323303223,0.0767635703086853
4,3,64,25,0.37887272238731384,0.06147659569978714
4,3,64,26,0.420779824256897,0.08181598037481308
4,3,64,27,0.48816022276878357,0.04701089859008789
4,3,64,28,0.5061821937561035,0.06275548785924911
4,3,64,29,0.4524572789669037,0.07723702490329742
4,3,64,30,0.6030893921852112,0.07569720596075058
4,3,64,31,0.47097623348236084,0.0744597464799881
4,3,64,32,0.4871794879436493,0.0521065890789032
4,3,64,33,0.5780385732650757,0.08188918232917786
4,3,64,34,0.5830605030059814,0.08367602527141571
4,3,64,35,0.5320932865142822,0.04704101383686066
4,3,64,36,0.4191630184650421,0.06613723188638687
4,3,64,37,0.5641182661056519,0.0619332417845726
4,3,64,38,0.4154842495918274,0.05656053125858307
4,3,64,39,0.4359959065914154,0.0915304645895958
4,3,64,40,0.6759430766105652,0.05742807313799858
4,3,64,41,0.48470184206962585,0.07369541376829147
4,3,64,42,0.592680811882019,0.06253675371408463
4,3,64,43,0.40152525901794434,0.09074965864419937
4,3,64,44,0.44890549778938293,0.056319113820791245
4,3,64,45,0.44269612431526184,0.0788230448961258
4,3,64,46,0.4433113932609558,0.09110171347856522
4,3,64,47,0.46983978152275085,0.0595024973154068
4,3,64,48,0.3968583345413208,0.025622982531785965
4,3,64,49,0.46824926137924194,0.08867567032575607
4,3,64,50,0.4621622562408447,0.044945187866687775
4,3,64,51,0.4745810627937317,0.09424769133329391
4,3,64,52,0.4816524088382721,0.06692582368850708
4,3,64,53,0.5134696960449219,0.05848045274615288
4,3,64,54,0.43302762508392334,0.04808095097541809
4,3,64,55,0.5297390222549438,0.07624030113220215
4,3,64,56,0.5502126812934875,0.069208063185215
4,3,64,57,0.5759952664375305,0.04688766226172447
4,3,64,58,0.47153258323669434,0.09487790614366531
4,3,64,59,0.3954193890094757,0.06117136776447296
4,3,64,60,0.3920034170150757,0.034192368388175964
4,3,64,61,0.5052388906478882,0.03854755684733391
4,3,64,62,0.37713244557380676,0.06116429343819618
4,3,64,63,0.5022122859954834,0.06499842554330826
4,4,128,0,0.5939515829086304,0.10682611167430878
4,4,128,1,0.6801250576972961,0.26456397771835327
4,4,128,2,0.4431733191013336,0.10904849320650101
4,4,128,3,0.720623254776001,0.23803190886974335
4,4,128,4,0.6788443326950073,0.20369820296764374
4,4,128,5,0.578339695930481,0.056320011615753174
4,4,128,6,0.5950447916984558,0.10840436816215515
4,4,128,7,0.6635904312133789,0.2769559323787689
4,4,128,8,0.46313223242759705,0.030895544216036797
4,4,128,9,0.4000343084335327,0.17319174110889435
4,4,128,10,0.4525502324104309,0.10341400653123856
4,4,128,11,0.6426088809967041,0.1654457151889801
4,4,128,12,0.6326928734779358,0.14285199344158173
4,4,128,13,0.6690078973770142,0.09474197775125504
4,4,128,14,0.30376312136650085,0.0987653136253357
4,4,128,15,0.567619264125824,0.055243849754333496
4,4,128,16,0.4963112771511078,0.0668649971485138
4,4,128,17,0.4596834182739258,0.05110572651028633
4,4,128,18,0.617911696434021,0.05345211178064346
4,4,128,19,0.6121251583099365,0.06625542789697647
4,4,128,20,0.34740325808525085,0.2247319221496582
4,4,128,21,0.38849449157714844,0.22513189911842346
4,4,128,22,0.4673002362251282,0.051036711782217026
4,4,128,23,0.586845874786377,0.16411930322647095
4,4,128,24,0.4916932284832001,0.038395702838897705
4,4,128,25,0.6604225039482117,0.15349136292934418
4,4,128,26,0.2946283519268036,0.07358429580926895
4,4,128,27,0.6339269280433655,0.10767531394958496
4,4,128,28,0.41637271642684937,0.1971900314092636
4,4,128,29,0.7258724570274353,0.21793806552886963
4,4,128,30,0.6571803689002991,0.2097090184688568
4,4,128,31,0.3058236837387085,0.1218356266617775
4,4,128,32,0.41855528950691223,0.15447059273719788
4,4,128,33,0.6529546976089478,0.08677985519170761
4,4,128,34,0.5541935563087463,0.06400739401578903
4,4,128,35,0.6976379752159119,0.21355439722537994
4,4,128,36,0.5947779417037964,0.1569482982158661
4,4,128,37,0.3766060471534729,0.19971352815628052
4,4,128,38,0.27875614166259766,0.15461184084415436
4,4,128,39,0.658988356590271,0.15538863837718964
4,4,128,40,0.5083381533622742,0.1025635302066803
4,4,128,41,0.3205680847167969,0.17282415926456451
4,4,128,42,0.5266712307929993,0.10193276405334473
4,4,128,43,0.40060293674468994,0.12503084540367126
4,4,128,44,0.7436331510543823,0.20820993185043335
4,4,128,45,0.6663886904716492,0.2701973021030426
4,4,128,46,0.3322743773460388,0.21296367049217224
4,4,128,47,0.6519490480422974,0.09977412968873978
4,4,128,48,0.43008628487586975,0.05813560262322426
4,4,128,49,0.3441193401813507,0.2151518315076828
4,4,128,50,0.596984326839447,0.16042892634868622
4,4,128,51,0.4595320224761963,0.02871621400117874
4,4,128,52,0.6365364193916321,0.09474760293960571
4,4,128,53,0.5818988084793091,0.1728687584400177
4,4,128,54,0.36493512988090515,0.06644196808338165
4,4,128,55,0.4081914722919464,0.17101424932479858
4,4,128,56,0.5860224366188049,0.04753000661730766
4,4,128,57,0.6340374946594238,0.14848916232585907
4,4,128,58,0.3332515358924866,0.17935951054096222
4,4,128,59,0.44151362776756287,0.06253398954868317
4,4,128,60,0.7605577111244202,0.12615865468978882
4,4,128,61,0.38325047492980957,0.10350630432367325
4,4,128,62,0.338369220495224,0.14351899921894073
4,4,128,63,0.7350028157234192,0.22574789822101593
4,4,128,64,0.5960584282875061,0.11167975515127182
4,4,128,65,0.6994814872741699,0.13628345727920532
4,4,128,66,0.5658443570137024,0.022799624130129814
4,4,128,67,0.42726001143455505,0.08243785053491592
4,4,128,68,0.45385614037513733,0.0949840322136879
4,4,128,69,0.47221505641937256,0.045343510806560516
4,4,128,70,0.6671556830406189,0.2782519459724426
4,4,128,71,0.5053063631057739,0.06916018575429916
4,4,128,72,0.5388674736022949,0.12963257730007172
4,4,128,73,0.21068665385246277,0.08615761995315552
4,4,128,74,0.7664219737052917,0.13965679705142975
4,4,128,75,0.5937149524688721,0.17383521795272827
4,4,128,76,0.6893854737281799,0.20471733808517456
4,4,128,77,0.6681904792785645,0.0584380142390728
4,4,128,78,0.37822166085243225,0.1375824362039566
4,4,128,79,0.4045681059360504,0.0628942921757698
4,4,128,80,0.2685041129589081,0.17048421502113342
4,4,128,81,0.5245388746261597,0.02557956427335739
4,4,128,82,0.3123907148838043,0.19294072687625885
4,4,128,83,0.4049137532711029,0.16978731751441956
4,4,128,84,0.5964247584342957,0.08855637907981873
4,4,128,85,0.6862075924873352,0.2863686978816986
4,4,128,86,0.6593775749206543,0.04351716861128807
4,4,128,87,0.46995973587036133,0.12045280635356903
4,4,128,88,0.6161473989486694,0.19364747405052185
4,4,128,89,0.5320396423339844,0.031817253679037094
4,4,128,90,0.5543478727340698,0.07485770434141159
4,4,128,91,0.7579267621040344,0.17902645468711853
4,4,128,92,0.6475297212600708,0.24430955946445465
4,4,128,93,0.30963268876075745,0.17324502766132355
4,4,128,94,0.6431152820587158,0.12582555413246155
4,4,128,95,0.38239267468452454,0.06802480667829514
4,4,128,96,0.3144527077674866,0.15694007277488708
4,4,128,97,0.4100722670555115,0.0440763495862484
4,4,128,98,0.4728919267654419,0.1823609322309494
4,4,128,99,0.6883269548416138,0.24461807310581207
4,4,128,100,0.7316283583641052,0.19788651168346405
4,4,128,101,0.4317258596420288,0.05793391540646553
4,4,128,102,0.7045842409133911,0.2012563794851303
4,4,128,103,0.558030903339386,0.10560058057308197
4,4,128,104,0.7822543978691101,0.14873006939888
4,4,128,105,0.49543148279190063,0.18449673056602478
4,4,128,106,0.49471575021743774,0.14159367978572845
4,4,128,107,0.6159793138504028,0.175499826669693
4,4,128,108,0.7188460826873779,0.18840532004833221
4,4,128,109,0.4490084946155548,0.09250421077013016
4,4,128,110,0.47535863518714905,0.1435701698064804
4,4,128,111,0.2820022404193878,0.14288552105426788
4,4,128,112,0.5290114879608154,0.12572559714317322
4,4,128,113,0.6676996350288391,0.2011948674917221
4,4,128,114,0.6668606996536255,0.24444988369941711
4,4,128,115,0.7098608613014221,0.20616918802261353
4,4,128,116,0.5378097891807556,0.12070164084434509
4,4,128,117,0.5957420468330383,0.1569354385137558
4,4,128,118,0.3259649872779846,0.09205398708581924
4,4,128,119,0.7201424241065979,0.2626296281814575
4,4,128,120,0.4776720106601715,0.16966235637664795
4,4,128,121,0.6528754234313965,0.20014235377311707
4,4,128,122,0.7843572497367859,0.14263349771499634
4,4,128,123,0.5208555459976196,0.1405523717403412
4,4,128,124,0.5226699709892273,0.05492294207215309
4,4,128,125,0.5768061876296997,0.09750733524560928
4,4,128,126,0.5665157437324524,0.045954372733831406
4,4,128,127,0.3211251199245453,0.06663956493139267
4,5,128,0,0.5638722777366638,0.10838743299245834
4,5,128,1,0.6236100196838379,0.1498086303472519
4,5,128,2,0.4331766366958618,0.10156704485416412
4,5,128,3,0.627418577671051,0.1270197331905365
4,5,128,4,0.5394721031188965,0.0806131660938263
4,5,128,5,0.49133914709091187,0.032048244029283524
4,5,128,6,0.6193077564239502,0.04687431454658508
4,5,128,7,0.622751772403717,0.06605161726474762
4,5,128,8,0.4191732406616211,0.054876621812582016
4,5,128,9,0.4894566833972931,0.09582400321960449
4,5,128,10,0.6871631741523743,0.0947081446647644
4,5,128,11,0.36307185888290405,0.05436858534812927
4,5,128,12,0.5857608914375305,0.051305368542671204
4,5,128,13,0.6764246225357056,0.08352701365947723
4,5,128,14,0.6850863695144653,0.08535466343164444
4,5,128,15,0.5639292001724243,0.05743858218193054
4,5,128,16,0.5134775042533875,0.08344221115112305
4,5,128,17,0.41852837800979614,0.07775694876909256
4,5,128,18,0.6696003079414368,0.1512303501367569
4,5,128,19,0.5584617853164673,0.1036967933177948
4,5,128,20,0.5042986273765564,0.07163004577159882
4,5,128,21,0.4876452684402466,0.05030806362628937
4,5,128,22,0.5524069666862488,0.05089004337787628
4,5,128,23,0.49656039476394653,0.04089496284723282
4,5,128,24,0.4328477680683136,0.07486021518707275
4,5,128,25,0.44208356738090515,0.05794889107346535
4,5,128,26,0.4955317974090576,0.09736204892396927
4,5,128,27,0.6260507106781006,0.0886869952082634
4,5,128,28,0.466701865196228,0.049272194504737854
4,5,128,29,0.6387534141540527,0.10439047962427139
4,5,128,30,0.608345627784729,0.12894026935100555
4,5,128,31,0.530254602432251,0.05635049566626549
4,5,128,32,0.5996037721633911,0.09019302576780319
4,5,128,33,0.5191714763641357,0.04012693837285042
4,5,128,34,0.5579169988632202,0.07056565582752228
4,5,128,35,0.5260348916053772,0.08568629622459412
4,5,128,36,0.4816949963569641,0.05307343602180481
4,5,128,37,0.5782259106636047,0.08294690400362015
4,5,128,38,0.3960028886795044,0.12215478718280792
4,5,128,39,0.5648687481880188,0.06536050885915756
4,5,128,40,0.5229360461235046,0.06473399698734283
4,5,128,41,0.5253015756607056,0.03910604864358902
4,5,128,42,0.522520124912262,0.0453680157661438
4,5,128,43,0.5565951466560364,0.08506708592176437
4,5,128,44,0.6493922472000122,0.1883184164762497
4,5,128,45,0.6924171447753906,0.14170479774475098
4,5,128,46,0.6195479035377502,0.10572939366102219
4,5,128,47,0.44838204979896545,0.03357363119721413
4,5,128,48,0.45662370324134827,0.030156083405017853
4,5,128,49,0.5433340072631836,0.035484589636325836
4,5,128,50,0.5477254390716553,0.10599866509437561
4,5,128,51,0.5378917455673218,0.05499714985489845
4,5,128,52,0.5979034900665283,0.08655354380607605
4,5,128,53,0.49134114384651184,0.08631668984889984
4,5,128,54,0.47991669178009033,0.05775415524840355
4,5,128,55,0.5965198278427124,0.13233248889446259
4,5,128,56,0.387927383184433,0.10618820041418076
4,5,128,57,0.52800053358078,0.03360489010810852
4,5,128,58,0.6108004450798035,0.05073419213294983
4,5,128,59,0.5852370858192444,0.07772195339202881
4,5,128,60,0.46420973539352417,0.04668769612908363
4,5,128,61,0.5645368099212646,0.051101140677928925
4,5,128,62,0.5590555667877197,0.09110379964113235
4,5,128,63,0.5399487614631653,0.12371528893709183
4,5,128,64,0.5019326210021973,0.05511100962758064
4,5,128,65,0.5476460456848145,0.10614094138145447
4,5,128,66,0.5376623272895813,0.0451529286801815
4,5,128,67,0.5345218777656555,0.05422741919755936
4,5,128,68,0.6205898523330688,0.11292409151792526
4,5,128,69,0.54948890209198,0.05144136771559715
4,5,128,70,0.5911766290664673,0.08178664743900299
4,5,128,71,0.4787614047527313,0.08334731310606003
4,5,128,72,0.5386418104171753,0.014656753279268742
4,5,128,73,0.5292737483978271,0.11584758758544922
4,5,128,74,0.5798144340515137,0.06009010225534439
4,5,128,75,0.5144195556640625,0.0776708573102951
4,5,128,76,0.626113772392273,0.1732105314731598
4,5,128,77,0.5050024390220642,0.06686814874410629
4,5,128,78,0.494671106338501,0.022724345326423645
4,5,128,79,0.46070483326911926,0.047490354627370834
4,5,128,80,0.47376295924186707,0.06187399849295616
4,5,128,81,0.4522697627544403,0.05602999031543732
4,5,128,82,0.3549763262271881,0.1083521693944931
4,5,128,83,0.6485534906387329,0.08284738659858704
4,5,128,84,0.5889729261398315,0.10137253999710083
4,5,128,85,0.5632787942886353,0.09908667206764221
4,5,128,86,0.635359525680542,0.08617200702428818
4,5,128,87,0.5003297328948975,0.039747629314661026
4,5,128,88,0.5862163305282593,0.15721146762371063
4,5,128,89,0.6082387566566467,0.056170932948589325
4,5,128,90,0.5384373068809509,0.06705696135759354
4,5,128,91,0.5241392850875854,0.0202544666826725
4,5,128,92,0.5826565027236938,0.1310320496559143
4,5,128,93,0.5775236487388611,0.06250201165676117
4,5,128,94,0.6074212789535522,0.11470545828342438
4,5,128,95,0.4939339756965637,0.037579260766506195
4,5,128,96,0.6183216571807861,0.04365365952253342
4,5,128,97,0.5122225284576416,0.07265783846378326
4,5,128,98,0.45440712571144104,0.047282226383686066
4,5,128,99,0.5989413857460022,0.04288344830274582
4,5,128,100,0.46120595932006836,0.05109285190701485
4,5,128,101,0.4948662519454956,0.14844608306884766
4,5,128,102,0.5300291776657104,0.05879535153508186
4,5,128,103,0.6153859496116638,0.10335680842399597
4,5,128,104,0.6302904486656189,0.09375420212745667
4,5,128,105,0.6444085836410522,0.15598000586032867
4,5,128,106,0.5094665884971619,0.053394995629787445
4,5,128,107,0.5690150856971741,0.08445706963539124
4,5,128,108,0.6013324856758118,0.10228545218706131
4,5,128,109,0.5603860020637512,0.052005305886268616
4,5,128,110,0.6106748580932617,0.16335825622081757
4,5,128,111,0.5649958848953247,0.08410508930683136
4,5,128,112,0.6061834096908569,0.04572058841586113
4,5,128,113,0.63226318359375,0.13281728327274323
4,5,128,114,0.6695536971092224,0.12302368879318237
4,5,128,115,0.5370544791221619,0.06146015226840973
4,5,128,116,0.6177803874015808,0.09795195609331131
4,5,128,117,0.40958356857299805,0.06200215220451355
4,5,128,118,0.6197492480278015,0.12463401257991791
4,5,128,119,0.5521049499511719,0.04607129096984863
4,5,128,120,0.48239991068840027,0.08482689410448074
4,5,128,121,0.6165590882301331,0.14621387422084808
4,5,128,122,0.47967079281806946,0.052752286195755005
4,5,128,123,0.5530067086219788,0.04780220985412598
4,5,128,124,0.5476311445236206,0.042380087077617645
4,5,128,125,0.592390239238739,0.0881645455956459
4,5,128,126,0.4793838858604431,0.056948043406009674
4,5,128,127,0.4790892004966736,0.04046446830034256
5,0,32,0,0.5194287300109863,0.03827684000134468
5,0,32,1,0.41050246357917786,0.023269297555088997
5,0,32,2,0.5857335925102234,0.05201034992933273
5,0,32,3,0.5326001644134521,0.04322044178843498
5,0,32,4,0.5544836521148682,0.03842509537935257
5,0,32,5,0.5170915126800537,0.021145744249224663
5,0,32,6,0.5446689128875732,0.04272305965423584
5,0,32,7,0.36675024032592773,0.046134017407894135
5,0,32,8,0.5685696601867676,0.059003762900829315
5,0,32,9,0.6131938695907593,0.02361362800002098
5,0,32,10,0.5588852763175964,0.028183672577142715
5,0,32,11,0.4671667516231537,0.038777805864810944
5,0,32,12,0.38643646240234375,0.03691914305090904
5,0,32,13,0.48123469948768616,0.02721528895199299
5,0,32,14,0.3912896513938904,0.05278252065181732
5,0,32,15,0.4625619649887085,0.03814327344298363
5,0,32,16,0.589603841304779,0.07058915495872498
5,0,32,17,0.4858523905277252,0.042794905602931976
5,0,32,18,0.629478931427002,0.039260320365428925
5,0,32,19,0.42487451434135437,0.04706671088933945
5,0,32,20,0.4467422068119049,0.01690450869500637
5,0,32,21,0.47849640250205994,0.041688788682222366
5,0,32,22,0.578039288520813,0.022703878581523895
5,0,32,23,0.4931451082229614,0.021285049617290497
5,0,32,24,0.49938008189201355,0.040802087634801865
5,0,32,25,0.5856176614761353,0.04299292713403702
5,0,32,26,0.5506253242492676,0.06451354175806046
5,0,32,27,0.3645118772983551,0.042890455573797226
5,0,32,28,0.46260011196136475,0.06330182403326035
5,0,32,29,0.6110150218009949,0.05569621920585632
5,0,32,30,0.6115832924842834,0.033732425421476364
5,0,32,31,0.5805387496948242,0.023849233984947205
5,1,32,0,0.6335206031799316,0.05443170294165611
5,1,32,1,0.5292096138000488,0.03313092887401581
5,1,32,2,0.4268310070037842,0.06439385563135147
5,1,32,3,0.32511043548583984,0.07740915566682816
5,1,32,4,0.3928731381893158,0.10646438598632812
5,1,32,5,0.5327858924865723,0.0850900337100029
5,1,32,6,0.6057636141777039,0.03831387311220169
5,1,32,7,0.600490391254425,0.031945932656526566
5,1,32,8,0.6504237055778503,0.07234450429677963
5,1,32,9,0.4048977494239807,0.06321635842323303
5,1,32,10,0.5791584253311157,0.015907621011137962
5,1,32,11,0.4742316007614136,0.0574050098657608
5,1,32,12,0.6144837141036987,0.06289156526327133
5,1,32,13,0.5133919715881348,0.08736655116081238
5,1,32,14,0.4717754125595093,0.09319476038217545
5,1,32,15,0.5737147927284241,0.07039278745651245
5,1,32,16,0.5886491537094116,0.07931139320135117
5,1,32,17,0.454592764377594,0.09733321517705917
5,1,32,18,0.4852084219455719,0.06784551590681076
5,1,32,19,0.5051721930503845,0.0806364044547081
5,1,32,20,0.5358373522758484,0.014340025372803211
5,1,32,21,0.6594370007514954,0.0515911839902401
5,1,32,22,0.6674333214759827,0.08455350995063782
5,1,32,23,0.47072938084602356,0.060005929321050644
5,1,32,24,0.5761708617210388,0.027282385155558586
5,1,32,25,0.35248711705207825,0.05329730361700058
5,1,32,26,0.4363386929035187,0.11617916822433472
5,1,32,27,0.5038341283798218,0.03243165463209152
5,1,32,28,0.4141717255115509,0.10137340426445007
5,1,32,29,0.4777252674102783,0.12392790615558624
5,1,32,30,0.3741701543331146,0.044740211218595505
5,1,32,31,0.5041567087173462,0.06478721648454666
5,2,64,0,0.5191300511360168,0.06008113920688629
5,2,64,1,0.6043543219566345,0.06408335268497467
5,2,64,2,0.5429286360740662,0.05283861234784126
5,2,64,3,0.4727969467639923,0.059446968138217926
5,2,64,4,0.5689541101455688,0.06001884862780571
5,2,64,5,0.457312673330307,0.07249506562948227
5,2,64,6,0.555102527141571,0.031102653592824936
5,2,64,7,0.5942942500114441,0.08019092679023743
5,2,64,8,0.4238494038581848,0.09918313473463058
5,2,64,9,0.46869534254074097,0.12270364165306091
5,2,64,10,0.5082789659500122,0.05576919764280319
5,2,64,11,0.6034024357795715,0.08290185779333115
5,2,64,12,0.4318961501121521,0.06339024752378464
5,2,64,13,0.4213896095752716,0.052993252873420715
5,2,64,14,0.5591831207275391,0.04664153233170509
5,2,64,15,0.5271583795547485,0.06272237747907639
5,2,64,16,0.47355329990386963,0.03319849073886871
5,2,64,17,0.5575022101402283,0.043277088552713394
5,2,64,18,0.6365275382995605,0.038202010095119476
5,2,64,19,0.4959196448326111,0.06759846955537796
5,2,64,20,0.588985800743103,0.03080161102116108
5,2,64,21,0.559602677822113,0.06827185302972794
5,2,64,22,0.4287184476852417,0.0800882875919342
5,2,64,23,0.5644959211349487,0.05909280106425285
5,2,64,24,0.5601807832717896,0.0751456692814827
5,2,64,25,0.5792211294174194,0.05910656601190567
5,2,64,26,0.40328100323677063,0.053860198706388474
5,2,64,27,0.5554172992706299,0.08186504989862442
5,2,64,28,0.5272924304008484,0.06470329314470291
5,2,64,29,0.48193883895874023,0.067277692258358
5,2,64,30,0.6009137034416199,0.07865969836711884
5,2,64,31,0.48277583718299866,0.050162769854068756
5,2,64,32,0.4981392025947571,0.06808178871870041
5,2,64,33,0.4266856610774994,0.04087221994996071
5,2,64,34,0.4822840392589569,0.09911523014307022
5,2,64,35,0.4164740741252899,0.08522166311740875
5,2,64,36,0.6046989560127258,0.06844500452280045
5,2,64,37,0.4504586458206177,0.05050746724009514
5,2,64,38,0.5666912794113159,0.06301642954349518
5,2,64,39,0.3854726552963257,0.06493725627660751
5,2,64,40,0.5669355392456055,0.061283938586711884
5,2,64,41,0.5065743923187256,0.07309462875127792
5,2,64,42,0.5628753304481506,0.05020784214138985
5,2,64,43,0.6181836128234863,0.052274588495492935
5,2,64,44,0.48037102818489075,0.04327715188264847
5,2,64,45,0.5256547927856445,0.04864371195435524
5,2,64,46,0.4703628718852997,0.07280590385198593
5,2,64,47,0.5588389039039612,0.04811464250087738
5,2,64,48,0.5315027832984924,0.09713687002658844
5,2,64,49,0.48550018668174744,0.08478778600692749
5,2,64,50,0.3893095552921295,0.03000488691031933
5,2,64,51,0.47331950068473816,0.07421863824129105
5,2,64,52,0.5271084904670715,0.0406000018119812
5,2,64,53,0.6284480690956116,0.05195420980453491
5,2,64,54,0.5406988263130188,0.06543245911598206
5,2,64,55,0.4778212606906891,0.05536391958594322
5,2,64,56,0.5749898552894592,0.07543613761663437
5,2,64,57,0.477413535118103,0.06581608951091766
5,2,64,58,0.5850399732589722,0.05043339729309082
5,2,64,59,0.4775956869125366,0.02698543481528759
5,2,64,60,0.538785457611084,0.06891858577728271
5,2,64,61,0.5462364554405212,0.1251753568649292
5,2,64,62,0.5552754402160645,0.1310700625181198
5,2,64,63,0.5554065704345703,0.06075098365545273
5,3,64,0,0.5620026588439941,0.05103760212659836
5,3,64,1,0.47595927119255066,0.028544815257191658
5,3,64,2,0.4647067189216614,0.038266539573669434
5,3,64,3,0.5162114500999451,0.025154292583465576
5,3,64,4,0.4554904103279114,0.05464507266879082
5,3,64,5,0.47857898473739624,0.02921820431947708
5,3,64,6,0.5848389267921448,0.07974047213792801
5,3,64,7,0.4818735122680664,0.07575350254774094
5,3,64,8,0.40599891543388367,0.05832786485552788
5,3,64,9,0.5690191984176636,0.022778335958719254
5,3,64,10,0.38833579421043396,0.05039309337735176
5,3,64,11,0.3803335428237915,0.07250083237886429
5,3,64,12,0.48505091667175293,0.031401921063661575
5,3,64,13,0.469808965921402,0.04585506394505501
5,3,64,14,0.5077224373817444,0.07189512997865677
5,3,64,15,0.4551648199558258,0.055566731840372086
5,3,64,16,0.4582187533378601,0.03127311170101166
5,3,64,17,0.37404948472976685,0.07060902565717697
5,3,64,18,0.4231524169445038,0.06517524272203445
5,3,64,19,0.3427217900753021,0.11017316579818726
5,3,64,20,0.5929132699966431,0.06902024149894714
5,3,64,21,0.4965612590312958,0.035285431891679764
5,3,64,22,0.5414202809333801,0.055620044469833374
5,3,64,23,0.41932833194732666,0.09773176163434982
5,3,64,24,0.6305623054504395,0.10699924826622009
5,3,64,25,0.5226005911827087,0.05324167385697365
5,3,64,26,0.5214020013809204,0.0640568882226944
5,3,64,27,0.47410938143730164,0.028155604377388954
5,3,64,28,0.3828897774219513,0.08997084200382233
5,3,64,29,0.38195282220840454,0.07270996272563934
5,3,64,30,0.4606247842311859,0.04716517776250839
5,3,64,31,0.5617843866348267,0.03602851182222366
5,3,64,32,0.4724980890750885,0.0713142678141594
5,3,64,33,0.5832149982452393,0.11610159277915955
5,3,64,34,0.5860483646392822,0.018615171313285828
5,3,64,35,0.42877137660980225,0.053759220987558365
5,3,64,36,0.42391347885131836,0.07894466817378998
5,3,64,37,0.4754207730293274,0.07438191026449203
5,3,64,38,0.44749322533607483,0.05081676319241524
5,3,64,39,0.4507971405982971,0.02347799390554428
5,3,64,40,0.4732857346534729,0.06795866042375565
5,3,64,41,0.5615817308425903,0.09859050810337067
5,3,64,42,0.3791698217391968,0.0810488909482956
5,3,64,43,0.6090143918991089,0.09620953351259232
5,3,64,44,0.48297783732414246,0.07157735526561737
5,3,64,45,0.47163355350494385,0.07070211321115494
5,3,64,46,0.5763096809387207,0.08983486890792847
5,3,64,47,0.5104132890701294,0.09464451670646667
5,3,64,48,0.6156725883483887,0.09097079932689667
5,3,64,49,0.5145457983016968,0.10082201659679413
5,3,64,50,0.559363842010498,0.08663536608219147
5,3,64,51,0.46784067153930664,0.049217887222766876
5,3,64,52,0.5482155084609985,0.05406449735164642
5,3,64,53,0.5148153305053711,0.05319114401936531
5,3,64,54,0.43243545293807983,0.020427163690328598
5,3,64,55,0.45934274792671204,0.04578525945544243
5,3,64,56,0.5967219471931458,0.059811051934957504
5,3,64,57,0.5140576958656311,0.060310035943984985
5,3,64,58,0.5215786695480347,0.09742861986160278
5,3,64,59,0.5309969186782837,0.06127902492880821
5,3,64,60,0.3986667990684509,0.04174496978521347
5,3,64,61,0.5352493524551392,0.06498656421899796
5,3,64,62,0.5993430614471436,0.06386950612068176
5,3,64,63,0.4843524694442749,0.07496543228626251
5,4,128,0,0.5463284254074097,0.08994980156421661
5,4,128,1,0.6911153793334961,0.24852503836154938
5,4,128,2,0.5108230113983154,0.1278543919324875
5,4,128,3,0.6591079831123352,0.22779065370559692
5,4,128,4,0.5017991065979004,0.1231512650847435
5,4,128,5,0.4687138497829437,0.10563633590936661
5,4,128,6,0.5968702435493469,0.06851533055305481
5,4,128,7,0.3730122745037079,0.10682924091815948
5,4,128,8,0.627896785736084,0.10000664740800858
5,4,128,9,0.7072480916976929,0.14428094029426575
5,4,128,10,0.4647327959537506,0.03799285367131233
5,4,128,11,0.6637386083602905,0.1349634826183319
5,4,128,12,0.3992179036140442,0.10335437208414078
5,4,128,13,0.26748836040496826,0.14118173718452454
5,4,128,14,0.5067291855812073,0.03964288905262947
5,4,128,15,0.6165018081665039,0.15081115067005157
5,4,128,16,0.5149404406547546,0.14101608097553253
5,4,128,17,0.44107645750045776,0.07699934393167496
5,4,128,18,0.7271286845207214,0.17052359879016876
5,4,128,19,0.6181226968765259,0.2037169337272644
5,4,128,20,0.6470667719841003,0.15082940459251404
5,4,128,21,0.7130802273750305,0.08333422243595123
5,4,128,22,0.6879170536994934,0.16067242622375488
5,4,128,23,0.5339884757995605,0.06118223816156387
5,4,128,24,0.6577006578445435,0.15448658168315887
5,4,128,25,0.525831401348114,0.06544556468725204
5,4,128,26,0.5406153798103333,0.04888129606842995
5,4,128,27,0.3986302316188812,0.036138828843832016
5,4,128,28,0.4904783070087433,0.05500565096735954
5,4,128,29,0.5097447037696838,0.0816541537642479
5,4,128,30,0.4928840696811676,0.15176209807395935
5,4,128,31,0.7039681077003479,0.12751412391662598
5,4,128,32,0.6139892339706421,0.08758963644504547
5,4,128,33,0.4812910854816437,0.04475760832428932
5,4,128,34,0.6900396943092346,0.11661049723625183
5,4,128,35,0.669653058052063,0.18755276501178741
5,4,128,36,0.6530379056930542,0.07793933898210526
5,4,128,37,0.49898144602775574,0.15842461585998535
5,4,128,38,0.5566238164901733,0.10759513825178146
5,4,128,39,0.35735076665878296,0.06719595938920975
5,4,128,40,0.6713594198226929,0.22307462990283966
5,4,128,41,0.5543730854988098,0.06452754884958267
5,4,128,42,0.43223777413368225,0.07031120359897614
5,4,128,43,0.5202849507331848,0.06460999697446823
5,4,128,44,0.292623370885849,0.11980589479207993
5,4,128,45,0.5849578380584717,0.08158010989427567
5,4,128,46,0.6675764322280884,0.11732228100299835
5,4,128,47,0.48032158613204956,0.07193662226200104
5,4,128,48,0.491738885641098,0.09639773517847061
5,4,128,49,0.5012853145599365,0.11669797450304031
5,4,128,50,0.5401254296302795,0.21163375675678253
5,4,128,51,0.47059333324432373,0.12364577502012253
5,4,128,52,0.393328994512558,0.06453947722911835
5,4,128,53,0.4205545485019684,0.0767364501953125
5,4,128,54,0.6436640620231628,0.07856864482164383
5,4,128,55,0.5846619009971619,0.1692655384540558
5,4,128,56,0.5727249383926392,0.1366320252418518
5,4,128,57,0.41487255692481995,0.06403711438179016
5,4,128,58,0.7021494507789612,0.09147816896438599
5,4,128,59,0.6925048232078552,0.14575743675231934
5,4,128,60,0.5459124445915222,0.05227112025022507
5,4,128,61,0.6327348947525024,0.10874754190444946
5,4,128,62,0.6070395708084106,0.22413454949855804
5,4,128,63,0.6529340744018555,0.14649492502212524
5,4,128,64,0.4147220849990845,0.08972110599279404
5,4,128,65,0.4406970143318176,0.09060847759246826
5,4,128,66,0.651900053024292,0.041086554527282715
5,4,128,67,0.5677196979522705,0.19113601744174957
5,4,128,68,0.3907454013824463,0.05183250829577446
5,4,128,69,0.4126957654953003,0.06676707416772842
5,4,128,70,0.43427979946136475,0.06696970760822296
5,4,128,71,0.4706907868385315,0.07169504463672638
5,4,128,72,0.43247494101524353,0.06910471618175507
5,4,128,73,0.6201620697975159,0.09541162103414536
5,4,128,74,0.5880940556526184,0.18287377059459686
5,4,128,75,0.5432543754577637,0.12152176350355148
5,4,128,76,0.2850729823112488,0.14873455464839935
5,4,128,77,0.7249319553375244,0.08735410869121552
5,4,128,78,0.5207188725471497,0.06850016862154007
5,4,128,79,0.36235734820365906,0.05088965594768524
5,4,128,80,0.6721624135971069,0.11586014181375504
5,4,128,81,0.4410104751586914,0.17938999831676483
5,4,128,82,0.40296104550361633,0.11407247185707092
5,4,128,83,0.514584481716156,0.06062609702348709
5,4,128,84,0.566075325012207,0.02824176475405693
5,4,128,85,0.4171939492225647,0.08532911539077759
5,4,128,86,0.4432496726512909,0.10919243842363358
5,4,128,87,0.5377820134162903,0.050373610109090805
5,4,128,88,0.655621349811554,0.10232898592948914
5,4,128,89,0.5173105597496033,0.042417921125888824
5,4,128,90,0.6276534795761108,0.07050896435976028
5,4,128,91,0.3785267770290375,0.20008869469165802
5,4,128,92,0.6430898308753967,0.16877228021621704
5,4,128,93,0.3844660222530365,0.10890394449234009
5,4,128,94,0.6512914896011353,0.053980451077222824
5,4,128,95,0.6247458457946777,0.12262352555990219
5,4,128,96,0.5589706897735596,0.11940345168113708
5,4,128,97,0.5514532327651978,0.04588305950164795
5,4,128,98,0.37324777245521545,0.11529238522052765
5,4,128,99,0.4319988489151001,0.10586510598659515
5,4,128,100,0.45215725898742676,0.03562324866652489
5,4,128,101,0.3900531828403473,0.06748149544000626
5,4,128,102,0.5025628805160522,0.08263898640871048
5,4,128,103,0.449666827917099,0.04231957346200943
5,4,128,104,0.40589386224746704,0.08486909419298172
5,4,128,105,0.4954894781112671,0.04877224564552307
5,4,128,106,0.6826890707015991,0.10273172706365585
5,4,128,107,0.6753835082054138,0.19872325658798218
5,4,128,108,0.6370130777359009,0.0562882199883461
5,4,128,109,0.5418046712875366,0.08443939685821533
5,4,128,110,0.42354923486709595,0.06255894899368286
5,4,128,111,0.6283243298530579,0.0776180699467659
5,4,128,112,0.6014826893806458,0.1334928423166275
5,4,128,113,0.5065767765045166,0.040937233716249466
5,4,128,114,0.39612212777137756,0.07114886492490768
5,4,128,115,0.5321721434593201,0.06751678138971329
5,4,128,116,0.7275390028953552,0.1738807111978531
5,4,128,117,0.5125743746757507,0.10989729315042496
5,4,128,118,0.6341301798820496,0.0584210604429245
5,4,128,119,0.36102190613746643,0.11316137760877609
5,4,128,120,0.6132534742355347,0.1348821073770523
5,4,128,121,0.4298226237297058,0.06918643414974213
5,4,128,122,0.645980954170227,0.2596893608570099
5,4,128,123,0.5076619386672974,0.06460469961166382
5,4,128,124,0.6180482506752014,0.13690736889839172
5,4,128,125,0.6629740595817566,0.13720479607582092
5,4,128,126,0.4362155497074127,0.036784522235393524
5,4,128,127,0.46937745809555054,0.08438791334629059
5,5,128,0,0.6832726001739502,0.15711356699466705
5,5,128,1,0.771399974822998,0.14243043959140778
5,5,128,2,0.6189329624176025,0.08869800716638565
5,5,128,3,0.6177349090576172,0.1392906904220581
5,5,128,4,0.5887990593910217,0.1409878134727478
5,5,128,5,0.5366241335868835,0.09593785554170609
5,5,128,6,0.6040620803833008,0.07578985393047333
5,5,128,7,0.5199490189552307,0.05704833194613457
5,5,128,8,0.6857500672340393,0.15029194951057434
5,5,128,9,0.5131322741508484,0.03385787457227707
5,5,128,10,0.6677201986312866,0.14533087611198425
5,5,128,11,0.4412059783935547,0.056327663362026215
5,5,128,12,0.42534422874450684,0.1587398499250412
5,5,128,13,0.6983423233032227,0.07544033229351044
5,5,128,14,0.44708794355392456,0.06478056311607361
5,5,128,15,0.5283826589584351,0.07046972960233688
5,5,128,16,0.6010693907737732,0.11084896326065063
5,5,128,17,0.6246933341026306,0.13454429805278778
5,5,128,18,0.6451858878135681,0.12328614294528961
5,5,128,19,0.654416024684906,0.1180582195520401
5,5,128,20,0.5286752581596375,0.15120665729045868
5,5,128,21,0.7265667915344238,0.16017088294029236
5,5,128,22,0.5591303706169128,0.043214067816734314
5,5,128,23,0.6916127800941467,0.20274826884269714
5,5,128,24,0.671194314956665,0.20212094485759735
5,5,128,25,0.6914446949958801,0.18549130856990814
5,5,128,26,0.6604225635528564,0.09793294221162796
5,5,128,27,0.347616970539093,0.09350070357322693
5,5,128,28,0.3460862338542938,0.08821991831064224
5,5,128,29,0.6306542754173279,0.1286807358264923
5,5,128,30,0.5193605422973633,0.03728700056672096
5,5,128,31,0.608696699142456,0.19723494350910187
5,5,128,32,0.6619412899017334,0.16001828014850616
5,5,128,33,0.5740485787391663,0.13292106986045837
5,5,128,34,0.5265533328056335,0.08907820284366608
5,5,128,35,0.6661408543586731,0.18720626831054688
5,5,128,36,0.7104932069778442,0.14794179797172546
5,5,128,37,0.5605074167251587,0.09822635352611542
5,5,128,38,0.6229587197303772,0.12496690452098846
5,5,128,39,0.5668665170669556,0.12904231250286102
5,5,128,40,0.6740272641181946,0.12687498331069946
5,5,128,41,0.5826560258865356,0.07068043202161789
5,5,128,42,0.6770269274711609,0.16173049807548523
5,5,128,43,0.5651041865348816,0.024596579372882843
5,5,128,44,0.5647980570793152,0.07137398421764374
5,5,128,45,0.6254592537879944,0.05905308574438095
5,5,128,46,0.47500380873680115,0.10178524255752563
5,5,128,47,0.6744411587715149,0.10045260936021805
5,5,128,48,0.7169788479804993,0.16433782875537872
5,5,128,49,0.7422727346420288,0.12518316507339478
5,5,128,50,0.4116431772708893,0.09337922185659409
5,5,128,51,0.40991106629371643,0.12719160318374634
5,5,128,52,0.5014761686325073,0.039552800357341766
5,5,128,53,0.4150931239128113,0.04537654668092728
5,5,128,54,0.6486859321594238,0.17689363658428192
5,5,128,55,0.6761233806610107,0.17185981571674347
5,5,128,56,0.34355172514915466,0.10998274385929108
5,5,128,57,0.5724372863769531,0.1347467452287674
5,5,128,58,0.7418023943901062,0.1565079540014267
5,5,128,59,0.4674164652824402,0.03566288203001022
5,5,128,60,0.6539521217346191,0.1627817004919052
5,5,128,61,0.6869583129882812,0.17055213451385498
5,5,128,62,0.6188328862190247,0.06511248648166656
5,5,128,63,0.6718356013298035,0.16738227009773254
5,5,128,64,0.6081153750419617,0.04302842915058136
5,5,128,65,0.6019545793533325,0.06913730502128601
5,5,128,66,0.6159528493881226,0.18788015842437744
5,5,128,67,0.4022100269794464,0.10630811750888824
5,5,128,68,0.5872184634208679,0.2039950042963028
5,5,128,69,0.48044586181640625,0.016150331124663353
5,5,128,70,0.4593763053417206,0.044448282569646835
5,5,128,71,0.6212961673736572,0.16205957531929016
5,5,128,72,0.5404956340789795,0.05536849796772003
5,5,128,73,0.6549206376075745,0.1452636420726776
5,5,128,74,0.36947908997535706,0.05291501432657242
5,5,128,75,0.5607269406318665,0.09015240520238876
5,5,128,76,0.5368523597717285,0.0354987233877182
5,5,128,77,0.6023123264312744,0.07190394401550293
5,5,128,78,0.7266627550125122,0.15251393616199493
5,5,128,79,0.6410941481590271,0.1939491480588913
5,5,128,80,0.4525756537914276,0.03269185125827789
5,5,128,81,0.558180570602417,0.0878838300704956
5,5,128,82,0.5525708198547363,0.05244186148047447
5,5,128,83,0.6104987263679504,0.046468816697597504
5,5,128,84,0.47566917538642883,0.10526877641677856
5,5,128,85,0.3728015422821045,0.0911235362291336
5,5,128,86,0.6157286167144775,0.05469706282019615
5,5,128,87,0.49534228444099426,0.08653915673494339
5,5,128,88,0.4886610805988312,0.08145851641893387
5,5,128,89,0.49135273694992065,0.01551063358783722
5,5,128,90,0.4941053092479706,0.052862416952848434
5,5,128,91,0.7260528206825256,0.18627126514911652
5,5,128,92,0.6570827960968018,0.13707758486270905
5,5,128,93,0.6779295206069946,0.11387522518634796
5,5,128,94,0.47691285610198975,0.022963397204875946
5,5,128,95,0.6013259291648865,0.15080024302005768
5,5,128,96,0.5656198859214783,0.09048005193471909
5,5,128,97,0.5849448442459106,0.1019468605518341
5,5,128,98,0.420635849237442,0.038041338324546814
5,5,128,99,0.5942050218582153,0.0448450967669487
5,5,128,100,0.6333983540534973,0.1506616473197937
5,5,128,101,0.5007190108299255,0.16117070615291595
5,5,128,102,0.522609531879425,0.05738631263375282
5,5,128,103,0.5134302377700806,0.09588175266981125
5,5,128,104,0.5549333095550537,0.04291321337223053
5,5,128,105,0.41666993498802185,0.06815871596336365
5,5,128,106,0.7168070673942566,0.11454547941684723
5,5,128,107,0.6998895406723022,0.10953675955533981
5,5,128,108,0.6606872081756592,0.16367411613464355
5,5,128,109,0.610274076461792,0.15393905341625214
5,5,128,110,0.5748196840286255,0.16299301385879517
5,5,128,111,0.4465027153491974,0.05191437900066376
5,5,128,112,0.45270633697509766,0.057594574987888336
5,5,128,113,0.639133870601654,0.2591191828250885
5,5,128,114,0.5727357864379883,0.1334976702928543
5,5,128,115,0.5315490365028381,0.038113586604595184
5,5,128,116,0.6044168472290039,0.10514361411333084
5,5,128,117,0.5750740170478821,0.04953797534108162
5,5,128,118,0.6617483496665955,0.17180678248405457
5,5,128,119,0.5044093728065491,0.05723771080374718
5,5,128,120,0.39807048439979553,0.10365539789199829
5,5,128,121,0.5872412919998169,0.11936303973197937
5,5,128,122,0.5311288833618164,0.03886699676513672
5,5,128,123,0.6409773826599121,0.11342164874076843
5,5,128,124,0.7294319868087769,0.1877661794424057
5,5,128,125,0.6037464737892151,0.19289030134677887
5,5,128,126,0.501116931438446,0.06473065167665482
5,5,128,127,0.5473523139953613,0.05508514121174812
6,0,32,0,0.5286209583282471,0.02229449152946472
6,0,32,1,0.41035449504852295,0.01727394014596939
6,0,32,2,0.5746636986732483,0.02758098766207695
6,0,32,3,0.5153964757919312,0.021167030557990074
6,0,32,4,0.560195803642273,0.022142674773931503
6,0,32,5,0.5271673798561096,0.025155331939458847
6,0,32,6,0.5304295420646667,0.022905167192220688
6,0,32,7,0.38685160875320435,0.02455613575875759
6,0,32,8,0.5921744704246521,0.02498764544725418
6,0,32,9,0.6215125918388367,0.018032431602478027
6,0,32,10,0.5565464496612549,0.013330427929759026
6,0,32,11,0.46974462270736694,0.01804337091743946
6,0,32,12,0.3954464793205261,0.017126163467764854
6,0,32,13,0.4728483557701111,0.015402394346892834
6,0,32,14,0.38603973388671875,0.029488882049918175
6,0,32,15,0.48236221075057983,0.0336047001183033
6,0,32,16,0.5728456974029541,0.04171019420027733
6,0,32,17,0.49776607751846313,0.026165032759308815
6,0,32,18,0.644070565700531,0.021450623869895935
6,0,32,19,0.4325132668018341,0.01734156906604767
6,0,32,20,0.4410246014595032,0.009110056795179844
6,0,32,21,0.4727078080177307,0.037316709756851196
6,0,32,22,0.5758630037307739,0.014877651818096638
6,0,32,23,0.5040698051452637,0.022083302959799767
6,0,32,24,0.5045503377914429,0.028037743642926216
6,0,32,25,0.5839303135871887,0.018767600879073143
6,0,32,26,0.5374854803085327,0.03962712734937668
6,0,32,27,0.3596515357494354,0.021980170160531998
6,0,32,28,0.45395907759666443,0.03262386471033096
6,0,32,29,0.5966459512710571,0.026927171275019646
6,0,32,30,0.6083819270133972,0.01725611463189125
6,0,32,31,0.5766381621360779,0.021001964807510376
6,1,32,0,0.636591911315918,0.042283616960048676
6,1,32,1,0.5172867178916931,0.029413362964987755
6,1,32,2,0.4552184045314789,0.03136986121535301
6,1,32,3,0.33974799513816833,0.04661663994193077
6,1,32,4,0.41779470443725586,0.06746483594179153
6,1,32,5,0.5460920929908752,0.06930197775363922
6,1,32,6,0.6057435870170593,0.0359664261341095
6,1,32,7,0.6053304672241211,0.028102373704314232
6,1,32,8,0.6336003541946411,0.04275771602988243
6,1,32,9,0.4144054055213928,0.05398042872548103
6,1,32,10,0.5909311175346375,0.015295175835490227
6,1,32,11,0.47171634435653687,0.03695469722151756
6,1,32,12,0.6037739515304565,0.048716671764850616
6,1,32,13,0.525785505771637,0.054415296763181686
6,1,32,14,0.4797203242778778,0.06242113932967186
6,1,32,15,0.5769195556640625,0.04034174978733063
6,1,32,16,0.5819941163063049,0.05752211809158325
6,1,32,17,0.4517327547073364,0.07666976004838943
6,1,32,18,0.48754867911338806,0.045674167573451996
6,1,32,19,0.5287639498710632,0.04211920499801636
6,1,32,20,0.543971061706543,0.009693705476820469
6,1,32,21,0.6587253212928772,0.03326963633298874
6,1,32,22,0.6500366926193237,0.05067199096083641
6,1,32,23,0.47190922498703003,0.0443311370909214
6,1,32,24,0.5681610107421875,0.014041748829185963
6,1,32,25,0.36291927099227905,0.030687516555190086
6,1,32,26,0.4488822817802429,0.08312647044658661
6,1,32,27,0.5119969248771667,0.02196280099451542
6,1,32,28,0.44037535786628723,0.06554820388555527
6,1,32,29,0.4640556275844574,0.07929971814155579
6,1,32,30,0.371938556432724,0.022680554538965225
6,1,32,31,0.514375627040863,0.05272654816508293
6,2,64,0,0.5005550384521484,0.0543193519115448
6,2,64,1,0.5941628217697144,0.09652864933013916
6,2,64,2,0.5230138301849365,0.043210580945014954
6,2,64,3,0.4870598018169403,0.06976796686649323
6,2,64,4,0.5894313454627991,0.07558517903089523
6,2,64,5,0.49668624997138977,0.05000057816505432
6,2,64,6,0.5665989518165588,0.046639636158943176
6,2,64,7,0.588654100894928,0.08076297491788864
6,2,64,8,0.4303857386112213,0.05266966298222542
6,2,64,9,0.44472187757492065,0.05008403956890106
6,2,64,10,0.5345600247383118,0.0535886287689209
6,2,64,11,0.5807942152023315,0.0426272414624691
6,2,64,12,0.426619291305542,0.07367697358131409
6,2,64,13,0.4113304316997528,0.06822360306978226
6,2,64,14,0.552418053150177,0.06496413797140121
6,2,64,15,0.5311082601547241,0.04487959295511246
6,2,64,16,0.4878058433532715,0.049718037247657776
6,2,64,17,0.5199846625328064,0.020934220403432846
6,2,64,18,0.630031168460846,0.08685342222452164
6,2,64,19,0.44280320405960083,0.01812564581632614
6,2,64,20,0.5884532928466797,0.036066457629203796
6,2,64,21,0.5678831934928894,0.03630268946290016
6,2,64,22,0.41583356261253357,0.10266748815774918
6,2,64,23,0.5538840889930725,0.04752722382545471
6,2,64,24,0.5661648511886597,0.025284418836236
6,2,64,25,0.5369998812675476,0.041710034012794495
6,2,64,26,0.437513142824173,0.06855739653110504
6,2,64,27,0.5318730473518372,0.041020747274160385
6,2,64,28,0.4856945276260376,0.046966224908828735
6,2,64,29,0.4657230079174042,0.03502373769879341
6,2,64,30,0.6059005856513977,0.07557385414838791
6,2,64,31,0.44036194682121277,0.04059005156159401
6,2,64,32,0.4919588565826416,0.10587204247713089
6,2,64,33,0.4138427674770355,0.09214423596858978
6,2,64,34,0.5287832021713257,0.0814712792634964
6,2,64,35,0.4430252015590668,0.07265904545783997
6,2,64,36,0.5950657725334167,0.0647314116358757
6,2,64,37,0.46521273255348206,0.08579274266958237
6,2,64,38,0.5860432982444763,0.029568595811724663
6,2,64,39,0.4311329424381256,0.04827038198709488
6,2,64,40,0.5388938188552856,0.06575988233089447
6,2,64,41,0.509579062461853,0.10175204277038574
6,2,64,42,0.5158703923225403,0.027993448078632355
6,2,64,43,0.560221791267395,0.027666645124554634
6,2,64,44,0.44645556807518005,0.033585354685783386
6,2,64,45,0.5498316884040833,0.029343610629439354
6,2,64,46,0.4768720865249634,0.10708489269018173
6,2,64,47,0.4876376986503601,0.06670495122671127
6,2,64,48,0.4684046804904938,0.022673187777400017
6,2,64,49,0.49978652596473694,0.04306628927588463
6,2,64,50,0.4305627644062042,0.0756339430809021
6,2,64,51,0.48191338777542114,0.09029920399188995
6,2,64,52,0.5614710450172424,0.037185169756412506
6,2,64,53,0.6181763410568237,0.03225959464907646
6,2,64,54,0.49541476368904114,0.029558708891272545
6,2,64,55,0.4731508195400238,0.023469997569918633
6,2,64,56,0.5968521237373352,0.06956462562084198
6,2,64,57,0.4929583966732025,0.08561418205499649
6,2,64,58,0.5715071558952332,0.07071495801210403
6,2,64,59,0.47261321544647217,0.07134723663330078
6,2,64,60,0.5878843665122986,0.06278957426548004
6,2,64,61,0.5555890202522278,0.0709960013628006
6,2,64,62,0.5738128423690796,0.04988414794206619
6,2,64,63,0.5809623599052429,0.06291919201612473
6,3,64,0,0.5309234261512756,0.07689209282398224
6,3,64,1,0.4789533019065857,0.033863455057144165
6,3,64,2,0.45304375886917114,0.04423937201499939
6,3,64,3,0.5303894281387329,0.04535576328635216
6,3,64,4,0.4354919493198395,0.03532623127102852
6,3,64,5,0.49620598554611206,0.060519568622112274
6,3,64,6,0.5829938650131226,0.060074757784605026
6,3,64,7,0.497619092464447,0.0533624067902565
6,3,64,8,0.40448197722435,0.05050020292401314
6,3,64,9,0.5747219324111938,0.03708146885037422
6,3,64,10,0.3965182900428772,0.0460236519575119
6,3,64,11,0.40629830956459045,0.016514355316758156
6,3,64,12,0.5034918189048767,0.038703154772520065
6,3,64,13,0.4563750922679901,0.0340413860976696
6,3,64,14,0.5110265016555786,0.06590209901332855
6,3,64,15,0.4699033200740814,0.073980912566185
6,3,64,16,0.46282410621643066,0.02336888387799263
6,3,64,17,0.36827552318573,0.05958593264222145
6,3,64,18,0.44772928953170776,0.09435522556304932
6,3,64,19,0.3506636619567871,0.09461282938718796
6,3,64,20,0.6148692965507507,0.035303227603435516
6,3,64,21,0.5088053345680237,0.06596101820468903
6,3,64,22,0.5325075387954712,0.05946873873472214
6,3,64,23,0.46641308069229126,0.10371391475200653
6,3,64,24,0.6195268034934998,0.10625085234642029
6,3,64,25,0.5170584321022034,0.05882159620523453
6,3,64,26,0.5591630339622498,0.049885645508766174
6,3,64,27,0.48874807357788086,0.028991933912038803
6,3,64,28,0.4099012315273285,0.032748810946941376
6,3,64,29,0.400286465883255,0.039357565343379974
6,3,64,30,0.46839722990989685,0.048660553991794586
6,3,64,31,0.5424286723136902,0.02400241792201996
6,3,64,32,0.47402048110961914,0.09014157205820084
6,3,64,33,0.5536713004112244,0.10230133682489395
6,3,64,34,0.5769398212432861,0.05594685673713684
6,3,64,35,0.4457806944847107,0.06144307553768158
6,3,64,36,0.4616864025592804,0.054475992918014526
6,3,64,37,0.5107024312019348,0.06978699564933777
6,3,64,38,0.41944003105163574,0.052452944219112396
6,3,64,39,0.4384749233722687,0.01316981203854084
6,3,64,40,0.476928174495697,0.06272371113300323
6,3,64,41,0.5665910840034485,0.07807788252830505
6,3,64,42,0.38370323181152344,0.07223454117774963
6,3,64,43,0.5627073645591736,0.0995652973651886
6,3,64,44,0.501498281955719,0.040526267141103745
6,3,64,45,0.4612889885902405,0.07119785994291306
6,3,64,46,0.5525832772254944,0.07427456974983215
6,3,64,47,0.49371081590652466,0.10391281545162201
6,3,64,48,0.6122355461120605,0.07847199589014053
6,3,64,49,0.5082110166549683,0.07984609156847
6,3,64,50,0.5891614556312561,0.049838870763778687
6,3,64,51,0.44025108218193054,0.04956260696053505
6,3,64,52,0.5305365324020386,0.05149363353848457
