subject,channel,f1_full,f1_occluded,drop_pp
1,0,0.524640552523241,0.487681698127082,3.6958854396159033
1,1,0.524640552523241,0.5094232542317149,1.5217298291526182
1,2,0.524640552523241,0.4937708744020356,3.0869678121205446
1,3,0.524640552523241,0.403229761595847,12.141079092739403
1,4,0.524640552523241,0.49665948931304205,2.7981063210198998
1,5,0.524640552523241,0.3805050422757467,14.413551024749433
1,6,0.524640552523241,0.6302891968282994,-10.564864430505839
1,7,0.524640552523241,0.46301881099345205,6.1621741529789
1,8,0.524640552523241,0.48000791212697314,4.463264039626791
2,0,0.8476918569213915,0.7307894840162892,11.69023729051023
2,1,0.8476918569213915,0.7019012486608964,14.579060826049506
2,2,0.8476918569213915,0.7714036792311451,7.628817769024643
2,3,0.8476918569213915,0.8016666815570586,4.602517536433293
2,4,0.8476918569213915,0.7974857779053068,5.020607901608464
2,5,0.8476918569213915,0.7372889203950577,11.040293652633382
2,6,0.8476918569213915,0.7461917336866103,10.15001232347812
2,7,0.8476918569213915,0.7138727988412791,13.38190580801124
2,8,0.8476918569213915,0.6536078406995712,19.408401622182026
3,0,0.8151598321947937,0.7038724749313742,11.128735726341954
3,1,0.8151598321947937,0.741453457950095,7.370637424469873
3,2,0.8151598321947937,0.7134732113634199,10.16866208313738
3,3,0.8151598321947937,0.5781851354645575,23.69746967302362
3,4,0.8151598321947937,0.7200974597720794,9.506237242271432
3,5,0.8151598321947937,0.6469402763714265,16.821955582336724
3,6,0.8151598321947937,0.7503885477049779,6.477128448981584
3,7,0.8151598321947937,0.7161725190839695,9.89873131108242
3,8,0.8151598321947937,0.7087504768539252,10.640935534086848
4,0,0.7959903369183023,0.6583621028856423,13.762823403266001
4,1,0.7959903369183023,0.6556511369139281,14.033920000437428
4,2,0.7959903369183023,0.5305826669299183,26.540766998838407
4,3,0.7959903369183023,0.6518753232334458,14.411501368485657
4,4,0.7959903369183023,0.7482940962028245,4.769624071547785
4,5,0.7959903369183023,0.5649833418215771,23.10069950967253
4,6,0.7959903369183023,0.7126264420980315,8.336389482027084
4,7,0.7959903369183023,0.625969411930968,17.002092498733433
4,8,0.7959903369183023,0.6698341291007828,12.615620781751957
5,0,0.49939014200050896,0.46972119951659597,2.9668942483912994
5,1,0.49939014200050896,0.45664302712656013,4.2747114873948835
5,2,0.49939014200050896,0.48828198243714516,1.1108159563363806
5,3,0.49939014200050896,0.5503377936337304,-5.0947651633221405
5,4,0.49939014200050896,0.4584135431031235,4.097659889738548
5,5,0.49939014200050896,0.4318465832708409,6.754355872966805
5,6,0.49939014200050896,0.5093865764450383,-0.9996434444529301
5,7,0.49939014200050896,0.4839604315454289,1.542971045508007
5,8,0.49939014200050896,0.4341337760324827,6.5256365968026255
6,0,0.7096051278720067,0.6074170517833867,10.218807608862
6,1,0.7096051278720067,0.6048587306633568,10.474639720864987
6,2,0.7096051278720067,0.7315454569192116,-2.1940329047204887
6,3,0.7096051278720067,0.6283149470041098,8.129018086789685
6,4,0.7096051278720067,0.7041896490938562,0.5415478778150518
6,5,0.7096051278720067,0.5187677892487493,19.083733862325737
6,6,0.7096051278720067,0.6760424419150477,3.3562685956958993
6,7,0.7096051278720067,0.4938533953871531,21.575173248485356
6,8,0.7096051278720067,0.6167998246974323,9.280530317457437
7,0,0.7006757797971497,0.5598517660339245,14.082401376322517
7,1,0.7006757797971497,0.5273765282917204,17.329925150542923
7,2,0.7006757797971497,0.6774340875595879,2.3241692237561784
7,3,0.7006757797971497,0.5643921291545646,13.628365064258507
7,4,0.7006757797971497,0.6480385958293986,5.263718396775108
7,5,0.7006757797971497,0.4858170582383854,21.48587215587643
7,6,0.7006757797971497,0.5773764841999303,12.329929559721942
7,7,0.7006757797971497,0.514961589029013,18.571419076813665
7,8,0.7006757797971497,0.6377986281951039,6.287715160204577
8,0,0.7617225341013287,0.6734952918212869,8.822724228004187
8,1,0.7617225341013287,0.7109595558181987,5.076297828313003
8,2,0.7617225341013287,0.7482790527464396,1.3443481354889153
8,3,0.7617225341013287,0.658629534682511,10.309299941881777
8,4,0.7617225341013287,0.6418650726344612,11.985746146686749
8,5,0.7617225341013287,0.5370383224613391,22.468421163998965
8,6,0.7617225341013287,0.7266363930526527,3.5086141048676023
8,7,0.7617225341013287,0.7053188922546361,5.6403641846692665
8,8,0.7617225341013287,0.6455786303499765,11.614390375135219
9,0,0.7571539776907442,0.744261966333577,1.2892011357167221
9,1,0.7571539776907442,0.6815040739425888,7.5649903748155385
9,2,0.7571539776907442,0.7413065212054686,1.5847456485275635
9,3,0.7571539776907442,0.702952116859276,5.420186083146817
9,4,0.7571539776907442,0.6505663929353126,10.658758475543163
9,5,0.7571539776907442,0.5530206659947309,20.413331169601335
9,6,0.7571539776907442,0.7424677625897138,1.4686215101030409
9,7,0.7571539776907442,0.6663941507902563,9.07598269004879
9,8,0.7571539776907442,0.720221904835918,3.693207285482625
10,0,0.757235681926978,0.5036361584197575,25.359952350722047
10,1,0.757235681926978,0.633744790094791,12.349089183218698
10,2,0.757235681926978,0.7112229509452879,4.6012730981690115
10,3,0.757235681926978,0.5468733793022159,21.03623026247621
10,4,0.757235681926978,0.6920488484309604,6.518683349601762
10,5,0.757235681926978,0.684505684397125,7.2729997529852985
10,6,0.757235681926978,0.7040629510311982,5.317273089577979
10,7,0.757235681926978,0.6562532365107472,10.09824454162308
10,8,0.757235681926978,0.6678695280877944,8.936615383918356
11,0,0.8967933783372002,0.805554996646546,9.123838169065424
11,1,0.8967933783372002,0.7480799033984304,14.871347493876975
11,2,0.8967933783372002,0.7319587367448157,16.483464159238448
11,3,0.8967933783372002,0.8215177331997886,7.527564513741158
11,4,0.8967933783372002,0.846662174075991,5.013120426120921
11,5,0.8967933783372002,0.69819257427543,19.860080406177016
11,6,0.8967933783372002,0.8836886853587258,1.3104692978474386
11,7,0.8967933783372002,0.6421987840670569,25.45945942701433
11,8,0.8967933783372002,0.72528211909215,17.151125924505017
12,0,0.839227326185227,0.7807389635523294,5.848836263289758
12,1,0.839227326185227,0.7056292035279866,13.359812265724036
12,2,0.839227326185227,0.6385068650343314,20.07204611508956
12,3,0.839227326185227,0.7378057232249973,10.142160296022972
12,4,0.839227326185227,0.6429971390417556,19.62301871434714
12,5,0.839227326185227,0.6893514456916587,14.987588049356827
12,6,0.839227326185227,0.8384536091751631,0.07737170100639013
12,7,0.839227326185227,0.7040267759199978,13.520055026522915
12,8,0.839227326185227,0.7160234772849102,12.320384890031677
13,0,0.9149571938825524,0.8425213983588455,7.243579552370683
13,1,0.9149571938825524,0.8477991801135296,6.7158013769022755
13,2,0.9149571938825524,0.7866066096423512,12.835058424020119
13,3,0.9149571938825524,0.8292880954171277,8.566909846542469
13,4,0.9149571938825524,0.7871036651904058,12.78535286921466
13,5,0.9149571938825524,0.6109702071649181,30.398698671763423
13,6,0.9149571938825524,0.8447640777301794,7.0193116152373
13,7,0.9149571938825524,0.7975007240935106,11.745646978904178
13,8,0.9149571938825524,0.8183942577661054,9.656293611644696
14,0,0.7328068595541561,0.6626670714131361,7.013978814102007
14,1,0.7328068595541561,0.6954291418121579,3.7377717741998273
14,2,0.7328068595541561,0.6634084605982027,6.9398398955953455
14,3,0.7328068595541561,0.6327017829626829,10.010507659147327
14,4,0.7328068595541561,0.667854202196295,6.495265735786115
14,5,0.7328068595541561,0.5341051248648658,19.870173468929032
14,6,0.7328068595541561,0.7280731364559893,0.47337230981668865
14,7,0.7328068595541561,0.693977407963468,3.882945159068818
14,8,0.7328068595541561,0.6260084396597554,10.679841989440074
15,0,0.8887965164273849,0.7253011289395667,16.34953874878182
15,1,0.8887965164273849,0.7514729995070437,13.732351692034117
15,2,0.8887965164273849,0.6705721636099421,21.82243528174428
15,3,0.8887965164273849,0.7802521487581224,10.854436766926245
15,4,0.8887965164273849,0.8060733568440133,8.272315958337161
15,5,0.8887965164273849,0.7200638287629471,16.873268766443783
15,6,0.8887965164273849,0.8026479104945461,8.614860593283879
15,7,0.8887965164273849,0.7470186861433632,14.17778302840217
15,8,0.8887965164273849,0.8376005119033638,5.119600452402107
16,0,0.8448257254167657,0.7025735023608269,14.225222305593876
16,1,0.8448257254167657,0.7319553017363565,11.287042368040922
16,2,0.8448257254167657,0.7124005298151921,13.242519560157362
16,3,0.8448257254167657,0.7624719864908819,8.235373892588383
16,4,0.8448257254167657,0.6687302210261394,17.609550439062627
16,5,0.8448257254167657,0.701922770781061,14.290295463570468
16,6,0.8448257254167657,0.8461544618743411,-0.13287364575753635
16,7,0.8448257254167657,0.7539358032392709,9.088992217749482
16,8,0.8448257254167657,0.7285676566926081,11.625806872415756
17,0,0.8199572676721031,0.5597718751692261,26.0185392502877
17,1,0.8199572676721031,0.6741273821995328,14.582988547257026
17,2,0.8199572676721031,0.555765449299568,26.419181837253515
17,3,0.8199572676721031,0.7233265718248524,9.66306958472507
17,4,0.8199572676721031,0.7277137354975954,9.224353217450766
17,5,0.8199572676721031,0.4574536342131997,36.25036334589034
17,6,0.8199572676721031,0.7732637169308462,4.669355074125692
17,7,0.8199572676721031,0.7180268325631509,10.193043510895217
17,8,0.8199572676721031,0.6823074712948713,13.764979637723174
18,0,0.7006339405245927,0.6264202093955271,7.42137311290656
18,1,0.7006339405245927,0.638199235923759,6.243470460083367
18,2,0.7006339405245927,0.6523545790410081,4.827936148358458
18,3,0.7006339405245927,0.5873656850415874,11.326825548300533
18,4,0.7006339405245927,0.6878466882855208,1.2787252239071956
18,5,0.7006339405245927,0.5627309562398704,13.790298428472237
18,6,0.7006339405245927,0.7347626580648825,-3.412871754028979
18,7,0.7006339405245927,0.6577656731119667,4.286826741262606
18,8,0.7006339405245927,0.6875920934342988,1.3041847090293879
19,0,0.8001654977123522,0.7757911741570834,2.4374323555268806
19,1,0.8001654977123522,0.7503420840285918,4.9823413683760425
19,2,0.8001654977123522,0.7616889493966019,3.8476548315750314
19,3,0.8001654977123522,0.6562671877057351,14.389831000661712
19,4,0.8001654977123522,0.7130370547649166,8.71284429474356
19,5,0.8001654977123522,0.5219413626556563,27.822413505669598
19,6,0.8001654977123522,0.8093547246911558,-0.9189226978803533
19,7,0.8001654977123522,0.6826174695858837,11.754802812646858
19,8,0.8001654977123522,0.7232727659115354,7.689273180081679
20,0,0.8058867209887618,0.633656801236024,17.222991975273782
20,1,0.8058867209887618,0.6933445887945217,11.254213219424013
20,2,0.8058867209887618,0.5736937522440622,23.219296874469965
20,3,0.8058867209887618,0.788048540273813,1.7838180714948804
20,4,0.8058867209887618,0.701617523527408,10.426919746135377
20,5,0.8058867209887618,0.4790574111944255,32.68293097943363
20,6,0.8058867209887618,0.7588537877990311,4.703293318973067
20,7,0.8058867209887618,0.7047886925631464,10.109802842561544
20,8,0.8058867209887618,0.7504813695255206,5.540535146324121
21,0,0.7177137820688106,0.626972527397964,9.07412546708466
21,1,0.7177137820688106,0.6884344737173766,2.9279308351433997
21,2,0.7177137820688106,0.7103976172576545,0.7316164811156156
21,3,0.7177137820688106,0.6671886495257946,5.052513254301605
21,4,0.7177137820688106,0.6959845981563022,2.1729183912508443
21,5,0.7177137820688106,0.4582608570858644,25.945292498294627
21,6,0.7177137820688106,0.7053699557147833,1.234382635402731
21,7,0.7177137820688106,0.677823026646556,3.989075542225462
21,8,0.7177137820688106,0.7003134277239783,1.7400354344832336
22,0,0.7761366052512895,0.6975750055429109,7.8561599708378616
22,1,0.7761366052512895,0.7274756003907954,4.866100486049407
22,2,0.7761366052512895,0.7140614165245319,6.207518872675754
22,3,0.7761366052512895,0.7426690039338872,3.346760131740223
22,4,0.7761366052512895,0.7076762628878213,6.846034236346821
22,5,0.7761366052512895,0.6368954451712873,13.92411600800022
22,6,0.7761366052512895,0.7214890234146709,5.464758183661855
22,7,0.7761366052512895,0.6512712611202798,12.48653441310097
22,8,0.7761366052512895,0.6798544597075599,9.62821455437296
23,0,0.707257439552779,0.6321084919740008,7.514894757877821
23,1,0.707257439552779,0.672716561487083,3.4540878065695946
23,2,0.707257439552779,0.7544886516476286,-4.72312120948496
23,3,0.707257439552779,0.6683810137506417,3.8876425802137238
23,4,0.707257439552779,0.6678868855715472,3.9370553981231793
23,5,0.707257439552779,0.529090469661347,17.8166969891432
23,6,0.707257439552779,0.6457289921174302,6.15284474353488
23,7,0.707257439552779,0.5923266114722359,11.49308280805431
23,8,0.707257439552779,0.5994137776742648,10.784366187851413
24,0,0.7517955820725903,0.6676790028709716,8.411657920161876
24,1,0.7517955820725903,0.6904177942850884,6.137778778750191
24,2,0.7517955820725903,0.707368972056578,4.442661001601234
24,3,0.7517955820725903,0.765776267619029,-1.398068554643861
24,4,0.7517955820725903,0.597332076719611,15.446350535297936
24,5,0.7517955820725903,0.4243765256442891,32.74190564283012
24,6,0.7517955820725903,0.6418089892939678,10.998659277862256
24,7,0.7517955820725903,0.6149585509476982,13.683703112489209
24,8,0.7517955820725903,0.6945099159583838,5.728566611420649
25,0,0.8074489683263492,0.7227217559750161,8.472721235133307
25,1,0.8074489683263492,0.7212669772696358,8.618199105671332
25,2,0.8074489683263492,0.6509349258211214,15.651404250522772
25,3,0.8074489683263492,0.6831185277386103,12.43304405877389
25,4,0.8074489683263492,0.6185185735481237,18.893039477822548
25,5,0.8074489683263492,0.6147741600040716,19.267480832227758
25,6,0.8074489683263492,0.7680206211340086,3.9428347192340563
25,7,0.8074489683263492,0.7095244699143883,9.792449841196083
25,8,0.8074489683263492,0.7597201961423983,4.772877218395088
26,0,0.6570335080997513,0.5692681915987539,8.77653165009974
26,1,0.6570335080997513,0.5992984217360444,5.773508636370684
26,2,0.6570335080997513,0.5211433525277596,13.589015557199168
26,3,0.6570335080997513,0.6534907494326029,0.35427586671483713
26,4,0.6570335080997513,0.5770310099257467,8.000249817400451
26,5,0.6570335080997513,0.5433214748461087,11.371203325364254
26,6,0.6570335080997513,0.6128254201839268,4.420808791582442
26,7,0.6570335080997513,0.6331220607941075,2.3911447305643763
26,8,0.6570335080997513,0.601292181600003,5.574132649974828
27,0,0.8365836903671735,0.6218420831668908,21.47416072002827
27,1,0.8365836903671735,0.7977958349914945,3.878785537567897
27,2,0.8365836903671735,0.7461687725844639,9.04149177827096
27,3,0.8365836903671735,0.6444682442447206,19.21154461224529
27,4,0.8365836903671735,0.7289180315031101,10.766565886406344
27,5,0.8365836903671735,0.49153268686259616,34.50510035045774
27,6,0.8365836903671735,0.8145677117000646,2.2015978667108915
27,7,0.8365836903671735,0.759570031999276,7.701365836789753
27,8,0.8365836903671735,0.7829538223587597,5.3629868008413855
28,0,0.7123097605843534,0.684831160931418,2.747859965293531
28,1,0.7123097605843534,0.6470656892717854,6.524407131256793
28,2,0.7123097605843534,0.6640647204797157,4.82450401046377
28,3,0.7123097605843534,0.6871816418121617,2.5128118772191677
28,4,0.7123097605843534,0.6672054243552779,4.51043362290755
28,5,0.7123097605843534,0.5019740199000964,21.033574068425697
28,6,0.7123097605843534,0.702813180519366,0.9496580064987326
28,7,0.7123097605843534,0.6523518136787588,5.995794690559453
28,8,0.7123097605843534,0.6444092497408264,6.790051084352699
29,0,0.794746370705795,0.6130582611037236,18.16881096020714
29,1,0.794746370705795,0.7219093572706367,7.283701343515836
29,2,0.794746370705795,0.736332740868146,5.841362983764897
29,3,0.794746370705795,0.7920724209795448,0.26739497262502354
29,4,0.794746370705795,0.6815266448385138,11.321972586728124
29,5,0.794746370705795,0.6502468092432527,14.449956146254229
29,6,0.794746370705795,0.7917448935402789,0.3001477165516131
29,7,0.794746370705795,0.6924487107095803,10.229765999621476
29,8,0.794746370705795,0.6459234960517538,14.88228746540412
30,0,0.8557071684884616,0.7953305400061083,6.037662848235337
30,1,0.8557071684884616,0.7427199738053107,11.298719468315088
30,2,0.8557071684884616,0.7795070426649373,7.620012582352431
30,3,0.8557071684884616,0.7730068071665113,8.270036132195035
30,4,0.8557071684884616,0.7866335632839988,6.907360520446282
30,5,0.8557071684884616,0.731414308164088,12.429286032437359
30,6,0.8557071684884616,0.8235333479460901,3.21738205423715
30,7,0.8557071684884616,0.723702492713598,13.200467577486364
30,8,0.8557071684884616,0.7625653975984307,9.314177089003095
31,0,0.7051461915958134,0.6392245131314029,6.592167846441043
31,1,0.7051461915958134,0.6195948730958201,8.55513184999933
31,2,0.7051461915958134,0.624627667197723,8.051852439809037
31,3,0.7051461915958134,0.6428522730525551,6.2293918543258275
31,4,0.7051461915958134,0.6793610723451684,2.5785119250644972
31,5,0.7051461915958134,0.5630152195073788,14.213097208843461
31,6,0.7051461915958134,0.6749361731547004,3.021001844111293
31,7,0.7051461915958134,0.4695583723888345,23.558781920697886
31,8,0.7051461915958134,0.5990752766660794,10.607091492973398
32,0,0.6347566130794775,0.5757461632354758,5.901044984400173
32,1,0.6347566130794775,0.6076192856889512,2.7137327390526322
32,2,0.6347566130794775,0.6130905629992034,2.1666050080274113
32,3,0.6347566130794775,0.6394449835125291,-0.4688370433051592
32,4,0.6347566130794775,0.5880024862543108,4.675412682516667
32,5,0.6347566130794775,0.5586831647802112,7.607344829926632
32,6,0.6347566130794775,0.6271936408737796,0.7562972205697904
32,7,0.6347566130794775,0.5537203636934966,8.103624938598086
32,8,0.6347566130794775,0.6039605425258769,3.0796070553600563
33,0,0.8347844848203796,0.6700435485370371,16.474093628334252
33,1,0.8347844848203796,0.8009139367185081,3.387054810187151
33,2,0.8347844848203796,0.7605622242453718,7.42222605750078
33,3,0.8347844848203796,0.7652701434687038,6.9514341351675775
33,4,0.8347844848203796,0.7560122927151225,7.87721921052571
33,5,0.8347844848203796,0.44522311976895695,38.95613650514226
33,6,0.8347844848203796,0.7395868765790182,9.519760824136137
33,7,0.8347844848203796,0.6583296322836818,17.64548525366978
33,8,0.8347844848203796,0.6426794766843255,19.210500813605414
34,0,0.8359411554234444,0.743120755535628,9.282039988781642
34,1,0.8359411554234444,0.7834998865607845,5.244126886265987
34,2,0.8359411554234444,0.7665984756637565,6.934267975968789
34,3,0.8359411554234444,0.7957909296047925,4.015022581865191
34,4,0.8359411554234444,0.7738253553024048,6.211580012103957
34,5,0.8359411554234444,0.7688433447865394,6.709781063690501
34,6,0.8359411554234444,0.8107901189206049,2.5151036502839452
34,7,0.8359411554234444,0.6223868903295101,21.35542650939343
34,8,0.8359411554234444,0.6842077621382382,15.173339328520619
35,0,0.6891468732508098,0.602953405111634,8.619346813917584
35,1,0.6891468732508098,0.6203055323794225,6.884134087138727
35,2,0.6891468732508098,0.6640976843617846,2.5049188889025187
35,3,0.6891468732508098,0.609518303666031,7.962856958477882
35,4,0.6891468732508098,0.6467799799108827,4.236689333992716
35,5,0.6891468732508098,0.6816912964328876,0.7455576817922194
35,6,0.6891468732508098,0.6872569459624854,0.18899272883243778
35,7,0.6891468732508098,0.6719570085301796,1.7189864720630221
35,8,0.6891468732508098,0.6607274948809956,2.841937836981423
36,0,0.6740911881994177,0.6194020757013625,5.468911249805519
36,1,0.6740911881994177,0.6180898562186453,5.6001331980772395
36,2,0.6740911881994177,0.6240869740798911,5.00042141195266
36,3,0.6740911881994177,0.653712723394875,2.037846480454275
36,4,0.6740911881994177,0.6034541145197463,7.063707367967142
36,5,0.6740911881994177,0.732335432536736,-5.824424433731834
36,6,0.6740911881994177,0.6097727217494332,6.431846644998451
36,7,0.6740911881994177,0.5965537260162854,7.753746218313228
36,8,0.6740911881994177,0.6333108344021402,4.078035379727751
37,0,0.8313477352566392,0.7511521855317832,8.019554972485599
37,1,0.8313477352566392,0.7837928524718127,4.755488278482645
37,2,0.8313477352566392,0.7394023357402286,9.194539951641056
37,3,0.8313477352566392,0.8154451049638457,1.5902630292793485
37,4,0.8313477352566392,0.7310716400550519,10.02760952015873
37,5,0.8313477352566392,0.44112628799201203,39.02214472646271
37,6,0.8313477352566392,0.8020833333333333,2.9264401923305927
37,7,0.8313477352566392,0.7571542267898543,7.419350846678485
37,8,0.8313477352566392,0.738427293569411,9.292044168722825
38,0,0.8393012400923167,0.7642105921253717,7.5090647966944974
38,1,0.8393012400923167,0.7262638469917843,11.30373931005324
38,2,0.8393012400923167,0.7596460735792254,7.965516651309123
38,3,0.8393012400923167,0.7633783470853853,7.592289300693134
38,4,0.8393012400923167,0.6888353430601535,15.046589703216318
38,5,0.8393012400923167,0.5768692042562802,26.24320358360365
38,6,0.8393012400923167,0.7026225035616608,13.667873653065588
38,7,0.8393012400923167,0.7796395568993804,5.9661683192936295
38,8,0.8393012400923167,0.7786122240216141,6.068901607070254
39,0,0.719670009482882,0.5447013548572655,17.49686546256165
39,1,0.719670009482882,0.6866775332276545,3.29924762552275
39,2,0.719670009482882,0.6712979901529949,4.837201932988711
39,3,0.719670009482882,0.6056600648038326,11.400994467904935
39,4,0.719670009482882,0.6200939372437914,9.95760722390906
39,5,0.719670009482882,0.3309810596685223,38.868894981435965
39,6,0.719670009482882,0.6238665789215384,9.580343056134355
39,7,0.719670009482882,0.6898455073612018,2.9824502121680196
39,8,0.719670009482882,0.6953512846953949,2.431872478748709
40,0,0.7471248608774347,0.6778748175635552,6.925004331387951
40,1,0.7471248608774347,0.7220638144066136,2.506104647082108
40,2,0.7471248608774347,0.7322387278319482,1.4886133045486472
40,3,0.7471248608774347,0.7409437073693618,0.6181153508072912
40,4,0.7471248608774347,0.7199734812983284,2.7151379579106294
40,5,0.7471248608774347,0.7029906634153447,4.4134197462090015
40,6,0.7471248608774347,0.7259018012839502,2.1223059593484472
40,7,0.7471248608774347,0.55920352613266,18.792133474477467
40,8,0.7471248608774347,0.5890570446699768,15.806781620745792
