subject,channel,alpha,f1,drop_pp
1,0,1.0,0.6349714976929326,0.0
1,0,0.75,0.6294196293115106,0.5551868381421965
1,0,0.5,0.6308598156510671,0.41116820418655164
1,0,0.25,0.6365462826035551,-0.1574784910622462
1,0,0.0,0.5981588197995316,3.6812677893401036
1,1,1.0,0.6349714976929326,0.0
1,1,0.75,0.6521077722056048,-1.713627451267219
1,1,0.5,0.6376262943649131,-0.26547966719805416
1,1,0.25,0.6335112598264749,0.14602378664576587
1,1,0.0,0.6170959171975534,1.7875580495379184
1,2,1.0,0.6349714976929326,0.0
1,2,0.75,0.6324379698794398,0.25335278134928085
1,2,0.5,0.6147055001031259,2.026599758980674
1,2,0.25,0.5824386925656175,5.253280512731506
1,2,0.0,0.5328241032873973,10.214739440553533
1,3,1.0,0.6349714976929326,0.0
1,3,0.75,0.6374662634679064,-0.24947657749737617
1,3,0.5,0.6375256111322037,-0.2554113439271144
1,3,0.25,0.6129196148141194,2.205188287881321
1,3,0.0,0.5846884203955234,5.028307729740922
1,4,1.0,0.6349714976929326,0.0
1,4,0.75,0.6429695040461061,-0.7998006353173492
1,4,0.5,0.6343594366805199,0.06120610124127346
1,4,0.25,0.6154333619152252,1.9538135777707355
1,4,0.0,0.5804472194308599,5.452427826207273
1,5,1.0,0.6349714976929326,0.0
1,5,0.75,0.6187219878618975,1.6249509831035125
1,5,0.5,0.5631361365551592,7.183536113777345
1,5,0.25,0.4972558439225301,13.77156537704025
1,5,0.0,0.440208256070228,19.47632416227046
1,6,1.0,0.6349714976929326,0.0
1,6,0.75,0.6404656594683079,-0.5494161775375317
1,6,0.5,0.6438554914176369,-0.8883993724704276
1,6,0.25,0.6257346333381253,0.9236864354807306
1,6,0.0,0.6107809647562696,2.4190532936662956
1,7,1.0,0.6349714976929326,0.0
1,7,0.75,0.6282782368106435,0.6693260882289054
1,7,0.5,0.5926869729789918,4.228452471394084
1,7,0.25,0.563558002874883,7.141349481804959
1,7,0.0,0.537134107722343,9.783738997058954
1,8,1.0,0.6349714976929326,0.0
1,8,0.75,0.6180066257272139,1.696487196571872
1,8,0.5,0.5943549101341512,4.061658755878139
1,8,0.25,0.5545123530085558,8.045914468437676
1,8,0.0,0.5128492607036543,12.212223698927826
2,0,1.0,0.7868904543755912,0.0
2,0,0.75,0.8084386902914441,-2.1548235915852865
2,0,0.5,0.8177230987213474,-3.0832644345756166
2,0,0.25,0.8313460760855842,-4.445562170999295
2,0,0.0,0.7914151682189176,-0.4524713843326311
2,1,1.0,0.7868904543755912,0.0
2,1,0.75,0.7662139951327595,2.067645924283179
2,1,0.5,0.7501335301422918,3.675692423329946
2,1,0.25,0.7322064421067261,5.46840122688651
2,1,0.0,0.7229784280157785,6.391202635981275
2,2,1.0,0.7868904543755912,0.0
2,2,0.75,0.7831349311000185,0.3755523275572714
2,2,0.5,0.7618357903040277,2.5054664071563537
2,2,0.25,0.7552523437769645,3.1638110598626756
2,2,0.0,0.7141563363431893,7.273411803240193
2,3,1.0,0.7868904543755912,0.0
2,3,0.75,0.7994837764022771,-1.2593322026685838
2,3,0.5,0.7898887553356922,-0.2998300960101008
2,3,0.25,0.7583144995448874,2.8575954830703854
2,3,0.0,0.7405948947975207,4.629555957807052
2,4,1.0,0.7868904543755912,0.0
2,4,0.75,0.8190012583929864,-3.211080401739519
2,4,0.5,0.8285817429131372,-4.1691288537546
2,4,0.25,0.8136331956260962,-2.674274125050491
2,4,0.0,0.772553569976787,1.4336884398804206
2,5,1.0,0.7868904543755912,0.0
2,5,0.75,0.7973757221239708,-1.0485267748379545
2,5,0.5,0.8009373785167428,-1.4046924141151607
2,5,0.25,0.7772580043187716,0.9632450056819675
2,5,0.0,0.7100661553252349,7.682429905035637
2,6,1.0,0.7868904543755912,0.0
2,6,0.75,0.779778430742972,0.7112023632619202
2,6,0.5,0.7568827488333446,3.000770554224663
2,6,0.25,0.7477615939703954,3.912886040519581
2,6,0.0,0.7509305152300632,3.5959939145528086
2,7,1.0,0.7868904543755912,0.0
2,7,0.75,0.763546838718403,2.3343615657188233
2,7,0.5,0.7253855793329478,6.150487504264346
2,7,0.25,0.6954984721137394,9.139198226185187
2,7,0.0,0.6693184684282889,11.757198594730234
2,8,1.0,0.7868904543755912,0.0
2,8,0.75,0.8075964613506534,-2.0706006975062197
2,8,0.5,0.810003754387036,-2.3113300011444737
2,8,0.25,0.7757492918744961,1.1141162501095092
2,8,0.0,0.7369043252389047,4.998612913668654
3,0,1.0,0.8553290368268558,0.0
3,0,0.75,0.844498168539071,1.083086828778479
3,0,0.5,0.8355087492633392,1.9820287563516614
3,0,0.25,0.7995492747876802,5.577976203917556
3,0,0.0,0.6611978032109879,19.41312336158679
3,1,1.0,0.8553290368268558,0.0
3,1,0.75,0.834655722564626,2.0673314262229847
3,1,0.5,0.8205134026249207,3.481563420193512
3,1,0.25,0.7888818123114755,6.644722451538032
3,1,0.0,0.7577205989460198,9.760843788083594
3,2,1.0,0.8553290368268558,0.0
3,2,0.75,0.836209514686712,1.9119522140143785
3,2,0.5,0.8334631143607649,2.186592246609087
3,2,0.25,0.8298993664412881,2.542967038556765
3,2,0.0,0.7690431031607502,8.62859336661056
3,3,1.0,0.8553290368268558,0.0
3,3,0.75,0.824575391869296,3.0753644957559834
3,3,0.5,0.7902188036270728,6.511023319978304
3,3,0.25,0.6247651863040733,23.05638505227825
3,3,0.0,0.560611802524478,29.471723430237784
3,4,1.0,0.8553290368268558,0.0
3,4,0.75,0.8583026819081939,-0.29736450813381277
3,4,0.5,0.8514159209269815,0.3913115899874309
3,4,0.25,0.8422116990389196,1.3117337787936223
3,4,0.0,0.8118881821279238,4.3440854698932
3,5,1.0,0.8553290368268558,0.0
3,5,0.75,0.8587065469415205,-0.33775101146646946
3,5,0.5,0.8644579489783542,-0.9128912151498358
3,5,0.25,0.8408284370563646,1.450059977049123
3,5,0.0,0.7827050523913269,7.262398443552886
3,6,1.0,0.8553290368268558,0.0
3,6,0.75,0.8504811503872027,0.48478864396530597
3,6,0.5,0.8391573316908344,1.6171705136021397
3,6,0.25,0.823765955255956,3.156308157089982
3,6,0.0,0.8229697697168085,3.235926711004733
3,7,1.0,0.8553290368268558,0.0
3,7,0.75,0.8325892875866008,2.2739749240255014
3,7,0.5,0.7734024435190361,8.192659330781972
3,7,0.25,0.7507049605071188,10.462407631973702
3,7,0.0,0.7241981662647365,13.113087056211924
3,8,1.0,0.8553290368268558,0.0
3,8,0.75,0.8485168139475361,0.6812222879319707
3,8,0.5,0.868564598985859,-1.3235562159003234
3,8,0.25,0.8299599410963635,2.5369095730492286
3,8,0.0,0.7322529254301555,12.307611139670026
4,0,1.0,0.8438243608554794,0.0
4,0,0.75,0.8408175511811193,0.3006809674360067
4,0,0.5,0.8078290153718617,3.5995345483617713
4,0,0.25,0.7697207377179103,7.410362313756913
4,0,0.0,0.7122619567091293,13.156240414635011
4,1,1.0,0.8438243608554794,0.0
4,1,0.75,0.8525839464934182,-0.8759585637938772
4,1,0.5,0.8184572655659396,2.5367095289539843
4,1,0.25,0.7897321715571475,5.409218929833193
4,1,0.0,0.7535045635673157,9.031979728816374
4,2,1.0,0.8438243608554794,0.0
4,2,0.75,0.8558499319080561,-1.2025571052576733
4,2,0.5,0.8223192005611711,2.1505160294308268
4,2,0.25,0.7935364619904357,5.02878988650437
4,2,0.0,0.7377421460821226,10.608221477335677
4,3,1.0,0.8438243608554794,0.0
4,3,0.75,0.8468587279096076,-0.3034367054128184
4,3,0.5,0.8366713143802309,0.7153046475248503
4,3,0.25,0.8183799977130481,2.544436314243126
4,3,0.0,0.7507006065829596,9.312375427251984
4,4,1.0,0.8438243608554794,0.0
4,4,0.75,0.8416652443359806,0.21591165194988493
4,4,0.5,0.7942919763398792,4.953238451560016
4,4,0.25,0.7715725386005837,7.225182225489569
4,4,0.0,0.7568193021199613,8.700505873551812
4,5,1.0,0.8438243608554794,0.0
4,5,0.75,0.8392863014748977,0.4538059380581716
4,5,0.5,0.8290900332684491,1.4734327587030305
4,5,0.25,0.8058667147948387,3.795764606064067
4,5,0.0,0.7423384165322264,10.148594432325297
4,6,1.0,0.8438243608554794,0.0
4,6,0.75,0.8432730729385598,0.05512879169196072
4,6,0.5,0.8345919774686827,0.9232383386796661
4,6,0.25,0.820812837603722,2.301152325175737
4,6,0.0,0.8074072405251718,3.641712033030764
4,7,1.0,0.8438243608554794,0.0
4,7,0.75,0.8481898358145796,-0.4365474959100224
4,7,0.5,0.8216720022243418,2.2152358631137625
4,7,0.25,0.781027385106325,6.279697574915444
4,7,0.0,0.7043461724467253,13.947818840875414
4,8,1.0,0.8438243608554794,0.0
4,8,0.75,0.8455158830240797,-0.16915221686002457
4,8,0.5,0.8351543012761213,0.8670059579358069
4,8,0.25,0.7778336819080944,6.599067894738497
4,8,0.0,0.7011762747056864,14.264808614979296
5,0,1.0,0.484269656641532,0.0
5,0,0.75,0.4885663526982693,-0.4296696056737326
5,0,0.5,0.46315767103582595,2.111198560570604
5,0,0.25,0.4324613348965115,5.180832174502048
5,0,0.0,0.4449710429465121,3.9298613695019915
5,1,1.0,0.484269656641532,0.0
5,1,0.75,0.4907673745264742,-0.6497717884942189
5,1,0.5,0.49223200208340545,-0.7962345441873464
5,1,0.25,0.4870001919940541,-0.2730535352522101
5,1,0.0,0.46023847979585686,2.403117684567513
5,2,1.0,0.484269656641532,0.0
5,2,0.75,0.5037695394059344,-1.9499882764402399
5,2,0.5,0.5322206679042545,-4.79510112627225
5,2,0.25,0.5330989059460797,-4.882924930454768
5,2,0.0,0.5084394973499552,-2.4169840708423207
5,3,1.0,0.484269656641532,0.0
5,3,0.75,0.5249347357990815,-4.066507915754947
5,3,0.5,0.5600386595172815,-7.576900287574951
5,3,0.25,0.5629154774044678,-7.86458207629358
5,3,0.0,0.493834537943984,-0.9564881302452033
5,4,1.0,0.484269656641532,0.0
5,4,0.75,0.48974629469418873,-0.5476638052656746
5,4,0.5,0.47701413615026544,0.7255520491266543
5,4,0.25,0.47288512668669985,1.1384529954832134
5,4,0.0,0.4735809569967986,1.0688699644733402
5,5,1.0,0.484269656641532,0.0
5,5,0.75,0.473076424237109,1.1193232404422992
5,5,0.5,0.4506141818388003,3.3655474802731677
5,5,0.25,0.4460045766008327,3.8265080040699284
5,5,0.0,0.45000397507520556,3.4265681566326425
5,6,1.0,0.484269656641532,0.0
5,6,0.75,0.4930235984452852,-0.8753941803753218
5,6,0.5,0.4935030860302012,-0.9233429388669223
5,6,0.25,0.4854685317039506,-0.1198875062418614
5,6,0.0,0.48079103927798494,0.3478617363547043
5,7,1.0,0.484269656641532,0.0
5,7,0.75,0.505576344406332,-2.1306687764800047
5,7,0.5,0.5033310390186452,-1.906138237711319
5,7,0.25,0.5323030932071783,-4.803343656564629
5,7,0.0,0.531601725708589,-4.7332069067057
5,8,1.0,0.484269656641532,0.0
5,8,0.75,0.5038071596306939,-1.9537502989161903
5,8,0.5,0.4956013752526001,-1.1331718611068131
5,8,0.25,0.4563621311333894,2.790752550814257
5,8,0.0,0.4536179577363568,3.065169890517516
6,0,1.0,0.7501012181957278,0.0
6,0,0.75,0.7262980654999689,2.3803152695758945
6,0,0.5,0.675124495556925,7.497672263880284
6,0,0.25,0.6393759394549106,11.072527874081729
6,0,0.0,0.6526653589608844,9.743585923484343
6,1,1.0,0.7501012181957278,0.0
6,1,0.75,0.692886905250856,5.721431294487189
6,1,0.5,0.6355952380952381,11.450598010048974
6,1,0.25,0.6170682340991247,13.303298409660314
6,1,0.0,0.6056936838878791,14.44075343078487
6,2,1.0,0.7501012181957278,0.0
6,2,0.75,0.7597535460992908,-0.9652327903562963
6,2,0.5,0.7657233472479098,-1.5622129052181966
6,2,0.25,0.7610034989876411,-1.0902280791913244
6,2,0.0,0.736225053852372,1.3876164343355812
6,3,1.0,0.7501012181957278,0.0
6,3,0.75,0.7568402436092716,-0.6739025413543764
6,3,0.5,0.7553660284965246,-0.526481030079673
6,3,0.25,0.7438722321897226,0.6228986006005188
6,3,0.0,0.7327956625754108,1.7305555620316992
6,4,1.0,0.7501012181957278,0.0
6,4,0.75,0.7400597301267083,1.00414880690195
6,4,0.5,0.7423863384850645,0.7714879710663314
6,4,0.25,0.7320568321781766,1.8044386017551206
6,4,0.0,0.6921922356680882,5.790898252763965
6,5,1.0,0.7501012181957278,0.0
6,5,0.75,0.7409782568688382,0.9122961326889611
6,5,0.5,0.7076298577710247,4.247136042470312
6,5,0.25,0.6623809051060923,8.772031308963557
6,5,0.0,0.6449173345818323,10.518388361389553
6,6,1.0,0.7501012181957278,0.0
6,6,0.75,0.742572633323333,0.7528584872394828
6,6,0.5,0.7254081715713406,2.4693046624387205
6,6,0.25,0.7265006323964199,2.3600585799307905
6,6,0.0,0.7103771614735221,3.972405672220569
6,7,1.0,0.7501012181957278,0.0
6,7,0.75,0.668774678439183,8.132653975654481
6,7,0.5,0.5893599853113147,16.07412328844131
6,7,0.25,0.5587834640451081,19.13177541506197
6,7,0.0,0.5161222295288498,23.397898866687804
6,8,1.0,0.7501012181957278,0.0
6,8,0.75,0.7668914449629607,-1.6790226767232852
6,8,0.5,0.7646700108767525,-1.4568792681024623
6,8,0.25,0.7154215822461103,3.4679635949617538
6,8,0.0,0.6544755759304437,9.562564226528414
7,0,1.0,0.7068243273011435,0.0
7,0,0.75,0.6924592494537829,1.436507784736063
7,0,0.5,0.5886458683695922,11.817845893155132
7,0,0.25,0.5413105384282277,16.55137888729158
7,0,0.0,0.5112176832710129,19.56066440301306
7,1,1.0,0.7068243273011435,0.0
7,1,0.75,0.7000785127241034,0.6745814577040155
7,1,0.5,0.6257902572654975,8.1034070035646
7,1,0.25,0.6121148083040613,9.470951899708224
7,1,0.0,0.5801632878813721,12.666103941977147
7,2,1.0,0.7068243273011435,0.0
7,2,0.75,0.6998996227458061,0.6924704555337446
7,2,0.5,0.7005608520937924,0.6263475207351155
7,2,0.25,0.6813884161461393,2.543591115500421
7,2,0.0,0.6282008706587756,7.862345664236791
7,3,1.0,0.7068243273011435,0.0
7,3,0.75,0.7208052009789288,-1.3980873677785222
7,3,0.5,0.7289017440734203,-2.2077416772276814
7,3,0.25,0.7406670999063123,-3.384277260516877
7,3,0.0,0.7324218000383803,-2.559747273723678
7,4,1.0,0.7068243273011435,0.0
7,4,0.75,0.6769600765380993,2.986425076304422
7,4,0.5,0.6460153385188314,6.080898878231212
7,4,0.25,0.6258797283601198,8.094459894102368
7,4,0.0,0.6216521077621258,8.517221953901776
7,5,1.0,0.7068243273011435,0.0
7,5,0.75,0.7120404802343825,-0.521615293323896
7,5,0.5,0.6975607315103998,0.9263595790743762
7,5,0.25,0.6726833614509865,3.4140965850157023
7,5,0.0,0.658361159301057,4.846316800008655
7,6,1.0,0.7068243273011435,0.0
7,6,0.75,0.6518790528780247,5.494527442311881
7,6,0.5,0.5554586408740607,15.136568642708282
7,6,0.25,0.5356310857817632,17.11932415193803
7,6,0.0,0.5281033220838739,17.872100521726964
7,7,1.0,0.7068243273011435,0.0
7,7,0.75,0.7043675102522099,0.2456817048933635
7,7,0.5,0.6702146702240633,3.6609657077080193
7,7,0.25,0.6012729493559129,10.555137794523063
7,7,0.0,0.5687882953059913,13.803603199515225
7,8,1.0,0.7068243273011435,0.0
7,8,0.75,0.6748238831134697,3.200044418767378
7,8,0.5,0.6508959534061228,5.59283738950207
7,8,0.25,0.6295842421514648,7.724008514967872
7,8,0.0,0.5545611994403665,15.2263127860777
8,0,1.0,0.7691114038313652,0.0
8,0,0.75,0.7717139213822584,-0.26025175508931353
8,0,0.5,0.7854672378232588,-1.6355833991893554
8,0,0.25,0.7300629601504334,3.9048443680931855
8,0,0.0,0.697137936259958,7.197346757140721
8,1,1.0,0.7691114038313652,0.0
8,1,0.75,0.7832096345685602,-1.4098230737194961
8,1,0.5,0.7816747179405162,-1.2563314109151014
8,1,0.25,0.7498342713827082,1.927713244865703
8,1,0.0,0.6921941442670835,7.691725956428175
8,2,1.0,0.7691114038313652,0.0
8,2,0.75,0.779264495134231,-1.015309130286579
8,2,0.5,0.7888793722981823,-1.9767968466817054
8,2,0.25,0.7899858146031743,-2.087441077180907
8,2,0.0,0.7782609013888072,-0.9149497557441988
8,3,1.0,0.7691114038313652,0.0
8,3,0.75,0.7824833309713244,-1.337192713995916
8,3,0.5,0.7963900366131852,-2.7278632781819967
8,3,0.25,0.7669042706592611,0.2207133172104081
8,3,0.0,0.7049213947115257,6.419000911983952
8,4,1.0,0.7691114038313652,0.0
8,4,0.75,0.7655894883441781,0.3521915487187166
8,4,0.5,0.7474814996842823,2.162990414708288
8,4,0.25,0.6974733435213318,7.16380603100334
8,4,0.0,0.6623611122489943,10.675029158237093
8,5,1.0,0.7691114038313652,0.0
8,5,0.75,0.756170879948641,1.2940523882724264
8,5,0.5,0.7004719787737114,6.863942505765386
8,5,0.25,0.6492970248272498,11.98143790041154
8,5,0.0,0.6116738941698714,15.743750966149383
8,6,1.0,0.7691114038313652,0.0
8,6,0.75,0.7693319050471232,-0.022050121575800663
8,6,0.5,0.7717724881151771,-0.2661084283811843
8,6,0.25,0.7689365370192369,0.01748668121283048
8,6,0.0,0.7652065407611108,0.3904863070254394
8,7,1.0,0.7691114038313652,0.0
8,7,0.75,0.7907166638771602,-2.1605260045794994
8,7,0.5,0.7852560817831684,-1.6144677951803188
8,7,0.25,0.7617539169890823,0.7357486842282879
8,7,0.0,0.7279572679205933,4.115413591077188
8,8,1.0,0.7691114038313652,0.0
8,8,0.75,0.78222866488215,-1.3117261050784812
8,8,0.5,0.7712799028993691,-0.21684990680038707
8,8,0.25,0.7275427565392354,4.156864729212984
8,8,0.0,0.6613943906770078,10.771701315435745
9,0,1.0,0.7794169614198478,0.0
9,0,0.75,0.7809287858309467,-0.1511824411098872
9,0,0.5,0.7820099191615062,-0.25929577416583527
9,0,0.25,0.7452057920164333,3.421116940341451
9,0,0.0,0.7243917776573868,5.502518376246101
9,1,1.0,0.7794169614198478,0.0
9,1,0.75,0.7745282102593424,0.4888751160505467
9,1,0.5,0.7570064872488222,2.2410474171025596
9,1,0.25,0.7449365227618652,3.448043865798267
9,1,0.0,0.7189458932896514,6.047106813019642
9,2,1.0,0.7794169614198478,0.0
9,2,0.75,0.7769682820367481,0.24486793830997833
9,2,0.5,0.7644628107297896,1.4954150690058232
9,2,0.25,0.7577174507399982,2.1699510679849654
9,2,0.0,0.7507477363620098,2.866922505783809
9,3,1.0,0.7794169614198478,0.0
9,3,0.75,0.7949074629527801,-1.54905015329323
9,3,0.5,0.8051221951849713,-2.570523376512346
9,3,0.25,0.7738874232260716,0.5529538193776218
9,3,0.0,0.7035342854402555,7.588267597959231
9,4,1.0,0.7794169614198478,0.0
9,4,0.75,0.7662557910435753,1.3161170376272513
9,4,0.5,0.7586494141833023,2.0767547236545503
9,4,0.25,0.7424772917333808,3.6939669686467003
9,4,0.0,0.7195431990662154,5.987376235363239
9,5,1.0,0.7794169614198478,0.0
9,5,0.75,0.768839323285188,1.057763813465984
9,5,0.5,0.7549984562094267,2.4418505210421104
9,5,0.25,0.6975963346935334,8.18206267263144
9,5,0.0,0.5165877698194553,26.282919160039253
9,6,1.0,0.7794169614198478,0.0
9,6,0.75,0.7855128243685151,-0.6095862948667263
9,6,0.5,0.7803641797285915,-0.09472183087436692
9,6,0.25,0.778490084411866,0.09268770079818855
9,6,0.0,0.7764276491390655,0.29893122807823636
9,7,1.0,0.7794169614198478,0.0
9,7,0.75,0.7710372962796509,0.8379665140196946
9,7,0.5,0.7454056140883274,3.4011347331520447
9,7,0.25,0.7096552770506427,6.976168436920515
9,7,0.0,0.6481840515287629,13.123290989108494
9,8,1.0,0.7794169614198478,0.0
9,8,0.75,0.7654983904677439,1.3918570952103915
9,8,0.5,0.7566106146001631,2.280634681968474
9,8,0.25,0.7228277415486493,5.658921987119858
9,8,0.0,0.6506073232188185,12.88096382010293
10,0,1.0,0.7226587746803792,0.0
10,0,0.75,0.71216494832185,1.0493826358529246
10,0,0.5,0.6700208122477662,5.263796243261298
10,0,0.25,0.6393004612612756,8.33583134191036
10,0,0.0,0.5915032139533468,13.115556072703239
10,1,1.0,0.7226587746803792,0.0
10,1,0.75,0.7151581678011595,0.7500606879219718
10,1,0.5,0.6704624573524504,5.219631732792884
10,1,0.25,0.6403615556808157,8.229721899956354
10,1,0.0,0.6082254423716414,11.443333230873776
10,2,1.0,0.7226587746803792,0.0
10,2,0.75,0.7279001297391012,-0.524135505872203
10,2,0.5,0.7177280508716918,0.49307238086874206
10,2,0.25,0.7094614185649891,1.319735611539008
10,2,0.0,0.6895097168902433,3.3149057790135883
10,3,1.0,0.7226587746803792,0.0
10,3,0.75,0.7139125476109206,0.8746227069458601
10,3,0.5,0.6940868771751124,2.8571897505266786
10,3,0.25,0.6687430236974459,5.391575098293333
10,3,0.0,0.5728190708513679,14.983970382901134
10,4,1.0,0.7226587746803792,0.0
10,4,0.75,0.7326017070330714,-0.9942932352692169
10,4,0.5,0.7033826532665075,1.9276121413871694
10,4,0.25,0.6751490257760453,4.75097489043339
10,4,0.0,0.6517315977707099,7.092717690966932
10,5,1.0,0.7226587746803792,0.0
10,5,0.75,0.6986902508747369,2.3968523805642294
10,5,0.5,0.6888360631496477,3.3822711530731464
10,5,0.25,0.6783581836883285,4.430059099205074
10,5,0.0,0.6587686570229264,6.389011765745279
10,6,1.0,0.7226587746803792,0.0
10,6,0.75,0.7266403691942497,-0.3981594513870479
10,6,0.5,0.7271789270127036,-0.452015233232439
10,6,0.25,0.6976377635348816,2.5021011145497596
10,6,0.0,0.6991289483700234,2.352982631035583
10,7,1.0,0.7226587746803792,0.0
10,7,0.75,0.723723503102627,-0.1064728422247807
10,7,0.5,0.7155854207711793,0.7073353909199942
10,7,0.25,0.6664382570267812,5.622051765359803
10,7,0.0,0.6414573086862462,8.120146599413303
10,8,1.0,0.7226587746803792,0.0
10,8,0.75,0.7174649607817924,0.5193813898586752
10,8,0.5,0.6829293600092702,3.972941467110902
10,8,0.25,0.6423065990886193,8.035217559175988
10,8,0.0,0.5914609274610487,13.119784721933048
11,0,1.0,0.8564734744441223,0.0
11,0,0.75,0.8119641807462732,4.450929369784906
11,0,0.5,0.7489504491976302,10.752302524649204
11,0,0.25,0.7324946431866937,12.397883125742858
11,0,0.0,0.7294291417383583,12.704433270576398
11,1,1.0,0.8564734744441223,0.0
11,1,0.75,0.8553895225437174,0.10839519004048892
11,1,0.5,0.8224225556971396,3.405091874698263
11,1,0.25,0.8160590409180257,4.041443352609653
11,1,0.0,0.7778382031627129,7.863527128140935
11,2,1.0,0.8564734744441223,0.0
11,2,0.75,0.8383689572981621,1.8104517145960175
11,2,0.5,0.8217411972135312,3.4732277230591024
11,2,0.25,0.808944361697221,4.75291127469013
11,2,0.0,0.7859111379099618,7.056233653416044
11,3,1.0,0.8564734744441223,0.0
11,3,0.75,0.8576479128862029,-0.11744384420806497
11,3,0.5,0.8532758748446448,0.31975995994774076
11,3,0.25,0.8368633960739223,1.9610078370199902
11,3,0.0,0.8059944891607463,5.047898528337591
11,4,1.0,0.8564734744441223,0.0
11,4,0.75,0.8515194812618875,0.49539931822347727
11,4,0.5,0.811429699503778,4.504377494034428
11,4,0.25,0.763127796700728,9.33456777433943
11,4,0.0,0.7236430380172357,13.283043642688652
11,5,1.0,0.8564734744441223,0.0
11,5,0.75,0.7687857667661644,8.768770767795786
11,5,0.5,0.6190262179035619,23.744725654056033
11,5,0.25,0.5651038412130054,29.136963323111686
11,5,0.0,0.5547430368909596,30.173043755316264
11,6,1.0,0.8564734744441223,0.0
11,6,0.75,0.8462216340881075,1.0251840356014785
11,6,0.5,0.8349670246940075,2.150644975011473
11,6,0.25,0.8174324942526141,3.9040980191508146
11,6,0.0,0.783657817462886,7.281565698123627
11,7,1.0,0.8564734744441223,0.0
11,7,0.75,0.8565391277212501,-0.006565327712781954
11,7,0.5,0.8421758692348199,1.4297605209302344
11,7,0.25,0.7898235020268707,6.664997241725157
11,7,0.0,0.7265896761734623,12.988379827065998
11,8,1.0,0.8564734744441223,0.0
11,8,0.75,0.8454555026812779,1.1017971762844359
11,8,0.5,0.8179551059848562,3.851836845926604
11,8,0.25,0.8023707084920699,5.410276595205232
11,8,0.0,0.7706194546432686,8.585401980085361
12,0,1.0,0.7924106394831147,0.0
12,0,0.75,0.7930780772213594,-0.0667437738244625
12,0,0.5,0.7772895580813469,1.5121081401767822
12,0,0.25,0.7529118205987294,3.9498818884385334
12,0,0.0,0.7406166515189071,5.179398796420765
12,1,1.0,0.7924106394831147,0.0
12,1,0.75,0.7890558877272661,0.33547517558486506
12,1,0.5,0.767433699685572,2.4976939797542785
12,1,0.25,0.7553982996206828,3.701233986243191
12,1,0.0,0.7092450264650638,8.316561301805091
12,2,1.0,0.7924106394831147,0.0
12,2,0.75,0.7988431253785584,-0.6432485895443651
12,2,0.5,0.8265015991499629,-3.4090959666848164
12,2,0.25,0.7964173659527449,-0.4006726469630184
12,2,0.0,0.7662550600122771,2.6155579470837687
12,3,1.0,0.7924106394831147,0.0
12,3,0.75,0.7794844964324554,1.2926143050659311
12,3,0.5,0.7757997408939159,1.6610898589198841
12,3,0.25,0.7497459004630097,4.266473902010503
12,3,0.0,0.6970244313194152,9.538620816369958
12,4,1.0,0.7924106394831147,0.0
12,4,0.75,0.7760183747238647,1.6392264759250041
12,4,0.5,0.7467160995085887,4.5694539974526
12,4,0.25,0.7059381285141741,8.64725109689406
12,4,0.0,0.6434984625910557,14.891217689205904
12,5,1.0,0.7924106394831147,0.0
12,5,0.75,0.7736312273213768,1.8779412161737952
12,5,0.5,0.7479025922505451,4.4508047232569625
12,5,0.25,0.7047244731640214,8.768616631909332
12,5,0.0,0.6319568401175899,16.045379936552486
12,6,1.0,0.7924106394831147,0.0
12,6,0.75,0.78468791025182,0.7722729231294689
12,6,0.5,0.7910531672070134,0.13574722761013902
12,6,0.25,0.7913100854447281,0.1100554038386603
12,6,0.0,0.7827851991014312,0.9625440381683559
12,7,1.0,0.7924106394831147,0.0
12,7,0.75,0.7952283469216761,-0.28177074385613565
12,7,0.5,0.777469141473028,1.4941498010086707
12,7,0.25,0.7633817582794029,2.902888120371183
12,7,0.0,0.7212884327758253,7.1122206707289415
12,8,1.0,0.7924106394831147,0.0
12,8,0.75,0.776005954782614,1.6404684700500716
12,8,0.5,0.7537785893504094,3.863205013270532
12,8,0.25,0.743280250692581,4.913038879053378
12,8,0.0,0.7219142869032725,7.049635257984221
13,0,1.0,0.8771776998549805,0.0
13,0,0.75,0.8972918034934696,-2.011410363848909
13,0,0.5,0.9108924878081225,-3.371478795314198
13,0,0.25,0.8966094728383706,-1.943177298339005
13,0,0.0,0.8486814537361207,2.8496246118859814
13,1,1.0,0.8771776998549805,0.0
13,1,0.75,0.8706631597600168,0.6514540094963661
13,1,0.5,0.8517986253026241,2.537907455235644
13,1,0.25,0.8368151007744795,4.036259908050099
13,1,0.0,0.8103751335781972,6.680256627678327
13,2,1.0,0.8771776998549805,0.0
13,2,0.75,0.8688541828678988,0.8323516987081669
13,2,0.5,0.846378276006759,3.079942384822154
13,2,0.25,0.8129094310941521,6.426826876082837
13,2,0.0,0.7735520105770146,10.36256892779659
13,3,1.0,0.8771776998549805,0.0
13,3,0.75,0.8806624607044968,-0.3484760849516322
13,3,0.5,0.8611442271663265,1.603347268865396
13,3,0.25,0.8252069698878209,5.197072996715956
13,3,0.0,0.7996493759651654,7.752832388981512
13,4,1.0,0.8771776998549805,0.0
13,4,0.75,0.8591256994108895,1.8052000444091054
13,4,0.5,0.8220796107590094,5.509808909597114
13,4,0.25,0.7841703893322626,9.300731052271793
13,4,0.0,0.7467639586393338,13.041374121564676
13,5,1.0,0.8771776998549805,0.0
13,5,0.75,0.8667890807390123,1.0388619115968223
13,5,0.5,0.8243564484892845,5.282125136569604
13,5,0.25,0.7561770212562735,12.1000678598707
13,5,0.0,0.6841075857540836,19.307011410089693
13,6,1.0,0.8771776998549805,0.0
13,6,0.75,0.8675813724533544,0.9596327401626081
13,6,0.5,0.8652538592173118,1.1923840637668714
13,6,0.25,0.8499560371061762,2.722166274880433
13,6,0.0,0.8395252553683731,3.765244448660743
13,7,1.0,0.8771776998549805,0.0
13,7,0.75,0.8718790459753452,0.5298653879635351
13,7,0.5,0.8411573832461845,3.602031660879601
13,7,0.25,0.7474416807118119,12.973601914316857
13,7,0.0,0.7135625530949641,16.361514676001644
13,8,1.0,0.8771776998549805,0.0
13,8,0.75,0.8895190871769203,-1.234138732193979
13,8,0.5,0.8843156127399274,-0.7137912884946918
13,8,0.25,0.8984521506120074,-2.127445075702694
13,8,0.0,0.8572305484904804,1.9947151364500093
14,0,1.0,0.8255989860808965,0.0
14,0,0.75,0.8112510871055992,1.4347898975297313
14,0,0.5,0.8025863054779515,2.3012680602945035
14,0,0.25,0.7606760653799711,6.492292070092542
14,0,0.0,0.6986260414806966,12.697294460019993
14,1,1.0,0.8255989860808965,0.0
14,1,0.75,0.8257800005516079,-0.018101447071139365
14,1,0.5,0.8179033537031278,0.7695632377768713
14,1,0.25,0.8074559402812526,1.8143045799643986
14,1,0.0,0.7763151899032175,4.9283796177679084
14,2,1.0,0.8255989860808965,0.0
14,2,0.75,0.8342088088445854,-0.8609822763688824
14,2,0.5,0.8310003901759264,-0.5401404095029871
14,2,0.25,0.8002906306431585,2.5308355437738017
14,2,0.0,0.7237890939992763,10.180989208162028
14,3,1.0,0.8255989860808965,0.0
14,3,0.75,0.8263345185589479,-0.07355324780513595
14,3,0.5,0.8238033282044916,0.17956578764048992
14,3,0.25,0.7916651645854367,3.393382149545987
14,3,0.0,0.7415924145649,8.400657151599656
14,4,1.0,0.8255989860808965,0.0
14,4,0.75,0.8280824378139608,-0.24834517330643013
14,4,0.5,0.7986925543086084,2.690643177228813
14,4,0.25,0.7545806112231405,7.101837485775608
14,4,0.0,0.7074300714738873,11.81689146070093
14,5,1.0,0.8255989860808965,0.0
14,5,0.75,0.8384601483184129,-1.2861162237516321
14,5,0.5,0.8273204747627962,-0.17214886818996966
14,5,0.25,0.787759580955874,3.7839405125022596
14,5,0.0,0.726359519032095,9.92394670488016
14,6,1.0,0.8255989860808965,0.0
14,6,0.75,0.8219066805153488,0.3692305565547782
14,6,0.5,0.8274041864060961,-0.18052003251995963
14,6,0.25,0.8226716614519902,0.2927324628906325
14,6,0.0,0.8016712941688947,2.3927691912001836
14,7,1.0,0.8255989860808965,0.0
14,7,0.75,0.8195595468733182,0.6039439207578323
14,7,0.5,0.8077459133079337,1.7853072772962886
14,7,0.25,0.7960591066888661,2.95398793920304
14,7,0.0,0.7652009878201366,6.039799826075997
14,8,1.0,0.8255989860808965,0.0
14,8,0.75,0.8238584610902553,0.17405249906412568
14,8,0.5,0.8283143680375971,-0.27153819567005133
14,8,0.25,0.8023696122994123,2.3229373781484264
14,8,0.0,0.7327746546457314,9.28243314351651
15,0,1.0,0.9142449360237402,0.0
15,0,0.75,0.9021037649075222,1.2141171116218041
15,0,0.5,0.8866840115995251,2.7560924424215094
15,0,0.25,0.8185755702037096,9.566936582003061
15,0,0.0,0.7821670544276176,13.207788159612265
15,1,1.0,0.9142449360237402,0.0
15,1,0.75,0.8997903609146494,1.4454575109090873
15,1,0.5,0.8737706079265513,4.047432809718899
15,1,0.25,0.8197713785363989,9.447355748734132
15,1,0.0,0.7768329393751033,13.74119966486369
15,2,1.0,0.9142449360237402,0.0
15,2,0.75,0.8829751566607755,3.126977936296471
15,2,0.5,0.86053475317467,5.371018284907025
15,2,0.25,0.8487707088587708,6.547422716496943
15,2,0.0,0.8136182418544431,10.062669416929715
15,3,1.0,0.9142449360237402,0.0
15,3,0.75,0.9104869598249755,0.3757976198764723
15,3,0.5,0.8796841841717771,3.4560751851963167
15,3,0.25,0.8685600590179868,4.568487700575341
15,3,0.0,0.8463300459848744,6.791489003886586
15,4,1.0,0.9142449360237402,0.0
15,4,0.75,0.9154476908187867,-0.12027547950465012
15,4,0.5,0.9022229027527306,1.2022033271009591
15,4,0.25,0.8534820442715181,6.076289175222216
15,4,0.0,0.8334071131796217,8.083782284411855
15,5,1.0,0.9142449360237402,0.0
15,5,0.75,0.8893716990240834,2.4873236999656823
15,5,0.5,0.8660376017274904,4.82073342962498
15,5,0.25,0.8016072555281017,11.263768049563849
15,5,0.0,0.7436642990580484,17.05806369656918
15,6,1.0,0.9142449360237402,0.0
15,6,0.75,0.9110110673457581,0.32338686779821435
15,6,0.5,0.8987009777814593,1.5543958242280942
15,6,0.25,0.8804074022027889,3.3837533820951338
15,6,0.0,0.8481527673493482,6.609216867439205
15,7,1.0,0.9142449360237402,0.0
15,7,0.75,0.9052803276928842,0.8964608330855994
15,7,0.5,0.8671689395731899,4.707599645055039
15,7,0.25,0.8160948327421859,9.815010328155438
15,7,0.0,0.8043525650766208,10.989237094711946
15,8,1.0,0.9142449360237402,0.0
15,8,0.75,0.9117634941247259,0.2481441899014336
15,8,0.5,0.8997741717707993,1.4470764252940915
15,8,0.25,0.8698667916398685,4.437814438387178
15,8,0.0,0.8277778916771574,8.64670443465828
16,0,1.0,0.8251185394339565,0.0
16,0,0.75,0.8286068756825165,-0.3488336248559931
16,0,0.5,0.8124327953991658,1.2685744034790725
16,0,0.25,0.7701016329202859,5.501690651367063
16,0,0.0,0.744238651516612,8.087988791734457
16,1,1.0,0.8251185394339565,0.0
16,1,0.75,0.8243959350342329,0.07226043997236031
16,1,0.5,0.826078330820935,-0.09597913869784369
16,1,0.25,0.8129845278223988,1.2134011611557693
16,1,0.0,0.7743192869529676,5.079925248098894
16,2,1.0,0.8251185394339565,0.0
16,2,0.75,0.823862847215932,0.12556922180245733
16,2,0.5,0.8211037907875789,0.40147486463776305
16,2,0.25,0.799400647344477,2.57178920894795
16,2,0.0,0.7646773069138522,6.044123252010436
16,3,1.0,0.8251185394339565,0.0
16,3,0.75,0.828512008481515,-0.33934690475584395
16,3,0.5,0.84650901934556,-2.1390479911603477
16,3,0.25,0.8338643911387364,-0.8745851704779928
16,3,0.0,0.8197995050612785,0.5319034372678
16,4,1.0,0.8251185394339565,0.0
16,4,0.75,0.8207969362725599,0.43216031613966255
16,4,0.5,0.8062049541009839,1.8913585332972604
16,4,0.25,0.7941962154533163,3.092232398064021
16,4,0.0,0.7803813977943203,4.473714163963627
16,5,1.0,0.8251185394339565,0.0
16,5,0.75,0.7977645784682033,2.7353960965753266
16,5,0.5,0.7309457701172222,9.417276931673435
16,5,0.25,0.6466077458435207,17.851079359043588
16,5,0.0,0.6159122965223827,20.920624291157385
16,6,1.0,0.8251185394339565,0.0
16,6,0.75,0.833177923286936,-0.805938385297944
16,6,0.5,0.8418724190114292,-1.6753879577472652
16,6,0.25,0.8504009218232628,-2.5282382389306246
16,6,0.0,0.8487558563935935,-2.3637316959637
16,7,1.0,0.8251185394339565,0.0
16,7,0.75,0.8293941450337907,-0.4275605599834198
16,7,0.5,0.823144665672728,0.1973873761228484
16,7,0.25,0.7913627952813784,3.3755744152578093
16,7,0.0,0.7505821376051766,7.453640182877996
16,8,1.0,0.8251185394339565,0.0
16,8,0.75,0.8276625809254488,-0.25440414914922327
16,8,0.5,0.8114035087719298,1.3715030662026728
16,8,0.25,0.7655335408140138,5.958499861994271
16,8,0.0,0.7076421024504591,11.74764369834974
17,0,1.0,0.8490878412266555,0.0
17,0,0.75,0.8487106905954055,0.03771506312499895
17,0,0.5,0.7956822557291766,5.340558549747887
17,0,0.25,0.7366891825127563,11.23986587138992
17,0,0.0,0.683346236237837,16.574160498881852
17,1,1.0,0.8490878412266555,0.0
17,1,0.75,0.8477434106602814,0.13444305663741218
17,1,0.5,0.834924547829284,1.4163293397371435
17,1,0.25,0.7972515856236786,5.183625560297688
17,1,0.0,0.7105119599796281,13.857588124702735
17,2,1.0,0.8490878412266555,0.0
17,2,0.75,0.8427883780418698,0.6299463184785692
17,2,0.5,0.8154327725448609,3.3655068681794575
17,2,0.25,0.7623812341049618,8.670660712169365
17,2,0.0,0.716549272723089,13.253856850356648
17,3,1.0,0.8490878412266555,0.0
17,3,0.75,0.839910161762283,0.9177679464372535
17,3,0.5,0.8340527038977392,1.503513732891626
17,3,0.25,0.809597291226224,3.9490550000431446
17,3,0.0,0.7421576090752889,10.693023215136655
17,4,1.0,0.8490878412266555,0.0
17,4,0.75,0.8497157486398658,-0.06279074132102824
17,4,0.5,0.8376489627086428,1.143887851801273
17,4,0.25,0.811238618138363,3.7849223088292527
17,4,0.0,0.7764625973908008,7.2625243835854665
17,5,1.0,0.8490878412266555,0.0
17,5,0.75,0.8287876218603764,2.0300219366279126
17,5,0.5,0.8185172910782668,3.057055014838872
17,5,0.25,0.7931331178916349,5.595472333502061
17,5,0.0,0.7395582268208561,10.952961440579934
17,6,1.0,0.8490878412266555,0.0
17,6,0.75,0.8567377639873726,-0.7649922760717076
17,6,0.5,0.8411784839314023,0.7909357295253217
17,6,0.25,0.8288187273386272,2.0269113888028323
17,6,0.0,0.8028895590619094,4.619828216474609
17,7,1.0,0.8490878412266555,0.0
17,7,0.75,0.8555361436142533,-0.644830238759786
17,7,0.5,0.8425358618552748,0.6551979371380634
17,7,0.25,0.7897845016142657,5.930333961238976
17,7,0.0,0.7234592988762949,12.562854235036058
17,8,1.0,0.8490878412266555,0.0
17,8,0.75,0.8415210110704454,0.7566830156210069
17,8,0.5,0.8264989100588841,2.2588931167771387
17,8,0.25,0.8032361665745745,4.585167465208095
17,8,0.0,0.7334818057330242,11.560603549363124
18,0,1.0,0.7578575742162925,0.0
18,0,0.75,0.7346733605244244,2.318421369186807
18,0,0.5,0.717172516057286,4.068505815900647
18,0,0.25,0.7069582571131449,5.089931710314765
18,0,0.0,0.6814401780760083,7.64173961402842
18,1,1.0,0.7578575742162925,0.0
18,1,0.75,0.7667817074655295,-0.8924133249237021
18,1,0.5,0.7416798154453497,1.6177758770942852
18,1,0.25,0.7234558818732192,3.440169234307333
18,1,0.0,0.7136756132174981,4.418196099879445
18,2,1.0,0.7578575742162925,0.0
18,2,0.75,0.7534284523876257,0.44291218286668377
18,2,0.5,0.7346837214509628,2.3173852765329683
18,2,0.25,0.7228386809269162,3.501889328937635
18,2,0.0,0.6862193241991611,7.163825001713143
18,3,1.0,0.7578575742162925,0.0
18,3,0.75,0.7167291098453817,4.112846437091077
18,3,0.5,0.69205301984547,6.580455437082255
18,3,0.25,0.6528494363854171,10.500813783087537
18,3,0.0,0.5765930172568096,18.126455695948295
18,4,1.0,0.7578575742162925,0.0
18,4,0.75,0.7440536504090812,1.3803923807211294
18,4,0.5,0.7175825485395935,4.027502567669905
18,4,0.25,0.6140966490312205,14.3760925185072
18,4,0.0,0.5548971538563544,20.29604203599381
18,5,1.0,0.7578575742162925,0.0
18,5,0.75,0.7625896554615117,-0.47320812452191774
18,5,0.5,0.7147338640256958,4.312371019059668
18,5,0.25,0.6625598128855521,9.52977613307404
18,5,0.0,0.5769536253248335,18.090394889145898
18,6,1.0,0.7578575742162925,0.0
18,6,0.75,0.7803401667470011,-2.248259253070861
18,6,0.5,0.7839874938068746,-2.6129919590582085
18,6,0.25,0.7819331243469174,-2.40755501306249
18,6,0.0,0.7798965135372513,-2.2038939320958795
18,7,1.0,0.7578575742162925,0.0
18,7,0.75,0.7497331542807586,0.8124419935533922
18,7,0.5,0.7244316205631756,3.3425953653116958
18,7,0.25,0.696930011534417,6.092756268187549
18,7,0.0,0.6744109624794025,8.344661173689005
18,8,1.0,0.7578575742162925,0.0
18,8,0.75,0.7384893459775835,1.9368228238708984
18,8,0.5,0.7349679473644386,2.2889626851853917
18,8,0.25,0.6884990335143821,6.935854070191039
18,8,0.0,0.6592790175687218,9.857855664757075
19,0,1.0,0.8034870049266465,0.0
19,0,0.75,0.7991358950738912,0.43511098527553305
19,0,0.5,0.7867222190458077,1.676478588083874
19,0,0.25,0.7638513296071885,3.9635675319457997
19,0,0.0,0.7437917324567767,5.969527246986983
19,1,1.0,0.8034870049266465,0.0
19,1,0.75,0.7804751222905917,2.3011882636054803
19,1,0.5,0.7539210891397301,4.956591578691638
19,1,0.25,0.7392822275515396,6.420477737510688
19,1,0.0,0.7153711607789299,8.811584414771655
19,2,1.0,0.8034870049266465,0.0
19,2,0.75,0.8005308490463254,0.2956155880321054
19,2,0.5,0.7903511649260497,1.3135840000596755
19,2,0.25,0.7822242599477132,2.1262744978933323
19,2,0.0,0.7653195488465512,3.8167456080095308
19,3,1.0,0.8034870049266465,0.0
19,3,0.75,0.7881773823734607,1.5309622553185798
19,3,0.5,0.781778550562021,2.170845436462554
19,3,0.25,0.7442005892858627,5.928641564078374
19,3,0.0,0.7022767926565395,10.121021227010695
19,4,1.0,0.8034870049266465,0.0
19,4,0.75,0.8034810998827497,0.0005905043896747841
19,4,0.5,0.7971400163739766,0.6346988552669908
19,4,0.25,0.7471389779925384,5.634802693410812
19,4,0.0,0.6964423270585072,10.704467786813932
19,5,1.0,0.8034870049266465,0.0
19,5,0.75,0.7958353400045978,0.7651664922048718
19,5,0.5,0.7882983997286449,1.5188605198001581
19,5,0.25,0.7554221604904572,4.80648444361893
19,5,0.0,0.660225263813037,14.326174111360945
19,6,1.0,0.8034870049266465,0.0
19,6,0.75,0.8141646736084053,-1.067766868175879
19,6,0.5,0.815520906143265,-1.2033901216618514
19,6,0.25,0.8129933756179831,-0.9506370691336641
19,6,0.0,0.8054875482165444,-0.20005432898979603
19,7,1.0,0.8034870049266465,0.0
19,7,0.75,0.7994448288819829,0.40421760446636146
19,7,0.5,0.7958512268592921,0.7635778067354382
19,7,0.25,0.7703794280701634,3.3107576856483134
19,7,0.0,0.7269164454088359,7.6570559517810555
19,8,1.0,0.8034870049266465,0.0
19,8,0.75,0.7943820185653647,0.9104986361281764
19,8,0.5,0.7757303113587058,2.775669356794064
19,8,0.25,0.7587736121193,4.471339280734654
19,8,0.0,0.7111242003816369,9.236280454500957
20,0,1.0,0.7148804223332512,0.0
20,0,0.75,0.7082711572266969,0.6609265106554352
20,0,0.5,0.7112438330442005,0.3636589289050751
20,0,0.25,0.7086314456413811,0.6248976691870078
20,0,0.0,0.694527493373205,2.0352928960046257
20,1,1.0,0.7148804223332512,0.0
20,1,0.75,0.6996459827568142,1.5234439576436998
20,1,0.5,0.6699580756252063,4.492234670804496
20,1,0.25,0.6264973404101717,8.838308192307952
20,1,0.0,0.5788641999019992,13.601622243125199
20,2,1.0,0.7148804223332512,0.0
20,2,0.75,0.7028677584900263,1.2012663843224969
20,2,0.5,0.7009545083502364,1.3925913983014793
20,2,0.25,0.6503185150514534,6.456190728179778
20,2,0.0,0.6326862359647402,8.219418636851106
20,3,1.0,0.7148804223332512,0.0
20,3,0.75,0.7011306559749975,1.3749766358253757
20,3,0.5,0.689900113177121,2.4980309156130254
20,3,0.25,0.7098585056042724,0.5021916728978781
20,3,0.0,0.720821126439104,-0.594070410585279
20,4,1.0,0.7148804223332512,0.0
20,4,0.75,0.7344564087990041,-1.957598646575287
20,4,0.5,0.7393259872853891,-2.44455649521379
20,4,0.25,0.7039116812152133,1.0968741118037917
20,4,0.0,0.6676678366354892,4.721258569776198
20,5,1.0,0.7148804223332512,0.0
20,5,0.75,0.7219631665965196,-0.7082744263268381
20,5,0.5,0.7129985016451807,0.18819206880704709
20,5,0.25,0.6620537059449672,5.282671638828407
20,5,0.0,0.561661122423902,15.321929990934924
20,6,1.0,0.7148804223332512,0.0
20,6,0.75,0.7112603299118343,0.36200924214169206
20,6,0.5,0.7188964950711938,-0.40160727379425776
20,6,0.25,0.722535216985345,-0.7654794652093733
20,6,0.0,0.6977266472349638,1.7153775098287416
20,7,1.0,0.7148804223332512,0.0
20,7,0.75,0.7006632699094356,1.4217152423815604
20,7,0.5,0.6911622899614098,2.3718132371841394
20,7,0.25,0.6398879381867971,7.499248414645409
20,7,0.0,0.6045902513931465,11.029017094010474
20,8,1.0,0.7148804223332512,0.0
20,8,0.75,0.7261527259853439,-1.1272303652092641
20,8,0.5,0.7203453115850333,-0.5464889251782123
20,8,0.25,0.6981219967333474,1.6758425599903815
20,8,0.0,0.6712534743355087,4.362694799774247
21,0,1.0,0.7849368676831718,0.0
21,0,0.75,0.7690169791357098,1.5919888547462069
21,0,0.5,0.7139123643767606,7.102450330641119
21,0,0.25,0.648649573079114,13.628729460405786
21,0,0.0,0.6299616057309244,15.497526195224742
21,1,1.0,0.7849368676831718,0.0
21,1,0.75,0.7622637227998657,2.2673144883306184
21,1,0.5,0.7421181726399096,4.2818695043262185
21,1,0.25,0.7194518882389924,6.548497944417941
21,1,0.0,0.7144038539069425,7.053301377622933
21,2,1.0,0.7849368676831718,0.0
21,2,0.75,0.7695375405380609,1.5399327145110941
21,2,0.5,0.7549299064822423,3.0006961200929494
21,2,0.25,0.7646611273594339,2.027574032373791
21,2,0.0,0.748253936985917,3.668293069725481
21,3,1.0,0.7849368676831718,0.0
21,3,0.75,0.7495521925901382,3.538467509303367
21,3,0.5,0.714090615532725,7.084625215044682
21,3,0.25,0.7080409356725146,7.689593201065725
21,3,0.0,0.6880959977187617,9.68408699644101
21,4,1.0,0.7849368676831718,0.0
21,4,0.75,0.7843235516043393,0.06133160788325265
21,4,0.5,0.7943562911125571,-0.9419423429385287
21,4,0.25,0.777820693170315,0.7116174512856843
21,4,0.0,0.7564216170045766,2.8515250678595283
21,5,1.0,0.7849368676831718,0.0
21,5,0.75,0.7826580440432432,0.22788236399285955
21,5,0.5,0.799527288814594,-1.459042113142217
21,5,0.25,0.7880165061821546,-0.30796384989827397
21,5,0.0,0.7814361073533299,0.3500760329841923
21,6,1.0,0.7849368676831718,0.0
21,6,0.75,0.7894886145516383,-0.45517468684664886
21,6,0.5,0.798823919467853,-1.3887051784681193
21,6,0.25,0.7961809681785091,-1.1244100495337306
21,6,0.0,0.7862782149265923,-0.13413472434204987
21,7,1.0,0.7849368676831718,0.0
21,7,0.75,0.7947331370229435,-0.9796269339771624
21,7,0.5,0.7733432442591697,1.1593623424002164
21,7,0.25,0.7714868823244274,1.344998535874442
21,7,0.0,0.7767733711256548,0.8163496557517025
21,8,1.0,0.7849368676831718,0.0
21,8,0.75,0.7893522079794044,-0.4415340296232584
21,8,0.5,0.7923008105994984,-0.7363942916326582
21,8,0.25,0.7513437045806685,3.3593163102503376
21,8,0.0,0.7182516013398366,6.668526634333527
22,0,1.0,0.7201778676816993,0.0
22,0,0.75,0.7235917098465681,-0.341384216486873
22,0,0.5,0.7255991642001757,-0.5421296518476337
22,0,0.25,0.7188888622674111,0.12890054142882246
22,0,0.0,0.698316441189981,2.1861426491718294
22,1,1.0,0.7201778676816993,0.0
22,1,0.75,0.7292899389283256,-0.9112071246626274
22,1,0.5,0.7357452768226249,-1.556740914092558
22,1,0.25,0.7196693967747695,0.050847090692984764
22,1,0.0,0.6678234266908081,5.235444099089126
22,2,1.0,0.7201778676816993,0.0
22,2,0.75,0.7234765885763031,-0.32987208946038127
22,2,0.5,0.7027044846852822,1.7473382996417097
22,2,0.25,0.6790709351868457,4.110693249485364
22,2,0.0,0.6476304712449855,7.254739643671382
22,3,1.0,0.7201778676816993,0.0
22,3,0.75,0.7261015925563237,-0.5923724874624337
22,3,0.5,0.7211606623802188,-0.09827946985194735
22,3,0.25,0.7047928524238072,1.5385015257892154
22,3,0.0,0.6792470743352035,4.093079334649586
22,4,1.0,0.7201778676816993,0.0
22,4,0.75,0.7491067404598193,-2.892887277811995
22,4,0.5,0.7313435630727307,-1.1165695391031405
22,4,0.25,0.7023013249594493,1.7876542722250033
22,4,0.0,0.6781324334985938,4.204543418310558
22,5,1.0,0.7201778676816993,0.0
22,5,0.75,0.6869704598277234,3.320740785397591
22,5,0.5,0.6728060463243652,4.737182135733409
22,5,0.25,0.576710112630995,14.34677550507043
22,5,0.0,0.46198314926628103,25.81947184154183
22,6,1.0,0.7201778676816993,0.0
22,6,0.75,0.7331710942020817,-1.2993226520382373
22,6,0.5,0.7354132057656537,-1.5235338083954386
22,6,0.25,0.7263404365576781,-0.6162568875978769
22,6,0.0,0.7224568214676665,-0.22789537859672082
22,7,1.0,0.7201778676816993,0.0
22,7,0.75,0.7086357065860989,1.1542161095600467
22,7,0.5,0.6898604799164342,3.031738776526516
22,7,0.25,0.6602973722468245,5.988049543487484
22,7,0.0,0.6303196904328535,8.985817724884582
22,8,1.0,0.7201778676816993,0.0
22,8,0.75,0.7316752754561802,-1.1497407774480828
22,8,0.5,0.7114171704199405,0.8760697261758876
22,8,0.25,0.6838632447153687,3.631462296633059
22,8,0.0,0.6307851897129713,8.939267796872807
23,0,1.0,0.742252781713566,0.0
23,0,0.75,0.7438852984302909,-0.163251671672493
23,0,0.5,0.7279051810536069,1.4347600659959103
23,0,0.25,0.6749096520749304,6.734312963863564
23,0,0.0,0.6099068669962611,13.234591471730495
23,1,1.0,0.742252781713566,0.0
23,1,0.75,0.7344444118858521,0.7808369827713935
23,1,0.5,0.7336060502818896,0.864673143167638
23,1,0.25,0.7131582442699985,2.909453744356749
23,1,0.0,0.6772098845197423,6.504289719382372
23,2,1.0,0.742252781713566,0.0
23,2,0.75,0.7327448981223811,0.9507883591184929
23,2,0.5,0.7364742706028631,0.5778511110702933
23,2,0.25,0.7258942045282205,1.6358577185345502
23,2,0.0,0.6957249772367742,4.652780447679183
23,3,1.0,0.742252781713566,0.0
23,3,0.75,0.7315379959057439,1.0714785807822147
23,3,0.5,0.7318343902988387,1.0418391414727335
23,3,0.25,0.7220101465257531,2.0242635187812885
23,3,0.0,0.6944810174103528,4.777176430321317
23,4,1.0,0.742252781713566,0.0
23,4,0.75,0.7336421707609928,0.8610610952573206
23,4,0.5,0.691638058186627,5.0614723526938965
23,4,0.25,0.6534014280226974,8.88513536908686
23,4,0.0,0.64722834091381,9.502444079975604
23,5,1.0,0.742252781713566,0.0
23,5,0.75,0.6997522854243068,4.250049628925923
23,5,0.5,0.6299722747128624,11.228050700070359
23,5,0.25,0.5648492621957878,17.74035195177782
23,5,0.0,0.5031380120515907,23.911476966197533
23,6,1.0,0.742252781713566,0.0
23,6,0.75,0.7274806662880254,1.4772115425540577
23,6,0.5,0.6900606214232093,5.2192160290356675
23,6,0.25,0.6639927571365356,7.826002457703041
23,6,0.0,0.6432669297599701,9.898585195359589
23,7,1.0,0.742252781713566,0.0
23,7,0.75,0.7356469066189002,0.6605875094665814
23,7,0.5,0.7002802659828675,4.197251573069849
23,7,0.25,0.6654074136690182,7.684536804454778
23,7,0.0,0.6163817292446812,12.587105246888486
23,8,1.0,0.742252781713566,0.0
23,8,0.75,0.7426537110259742,-0.04009293124082047
23,8,0.5,0.7289677289550403,1.3285052758525762
23,8,0.25,0.70101135656193,4.124142515163598
23,8,0.0,0.6566664108990866,8.558637081447939
24,0,1.0,0.675099053753661,0.0
24,0,0.75,0.6644565306624104,1.0642523091250577
24,0,0.5,0.680862154632899,-0.5763100879238037
24,0,0.25,0.659528866167107,1.557018758655393
24,0,0.0,0.6429609611812717,3.213809257238931
24,1,1.0,0.675099053753661,0.0
24,1,0.75,0.701401398780431,-2.630234502676998
24,1,0.5,0.7093400533497486,-3.424099959608762
24,1,0.25,0.7036542722290092,-2.8555218475348254
24,1,0.0,0.693534879079688,-1.8435825326027055
24,2,1.0,0.675099053753661,0.0
24,2,0.75,0.6895119684915281,-1.44129147378671
24,2,0.5,0.6887786619229296,-1.367960816926861
24,2,0.25,0.6662330768885211,0.8865976865139902
24,2,0.0,0.6437483779832904,3.135067577037054
24,3,1.0,0.675099053753661,0.0
24,3,0.75,0.7204467788743216,-4.534772512066065
24,3,0.5,0.7410220684633243,-6.5923014709663335
24,3,0.25,0.7380426972595033,-6.294364350584236
24,3,0.0,0.7273857293280157,-5.2286675574354735
24,4,1.0,0.675099053753661,0.0
24,4,0.75,0.6726030818955842,0.24959718580768175
24,4,0.5,0.6269255531741658,4.817350057949521
24,4,0.25,0.5389941512393299,13.610490251433106
24,4,0.0,0.4518705571485333,22.322849660512766
24,5,1.0,0.675099053753661,0.0
24,5,0.75,0.6398004475399498,3.529860621371117
24,5,0.5,0.561120066734027,11.397898701963394
24,5,0.25,0.41459220794461066,26.05068458090503
24,5,0.0,0.3229935476996904,35.21055060539705
24,6,1.0,0.675099053753661,0.0
24,6,0.75,0.668397084152239,0.6701969601421998
24,6,0.5,0.6562307074947524,1.8868346258908542
24,6,0.25,0.6379847828160268,3.7114270937634197
24,6,0.0,0.6302464010884513,4.485265266520965
24,7,1.0,0.675099053753661,0.0
24,7,0.75,0.6726921019306059,0.2406951823055059
24,7,0.5,0.6440092871977,3.1089766555960963
24,7,0.25,0.603081671992821,7.201738176083994
24,7,0.0,0.5798570698537531,9.52419838999079
24,8,1.0,0.675099053753661,0.0
24,8,0.75,0.6673346718731628,0.7764381880498217
24,8,0.5,0.6697882031189404,0.5310850634720587
24,8,0.25,0.6476240568599346,2.7474996893726344
24,8,0.0,0.6383167281456618,3.678232560799921
25,0,1.0,0.7985679539952264,0.0
25,0,0.75,0.7932860331199098,0.5281920875316648
25,0,0.5,0.7783018467886889,2.0266107206537542
25,0,0.25,0.7504823216035869,4.808563239163954
25,0,0.0,0.7183170274344272,8.025092656079924
25,1,1.0,0.7985679539952264,0.0
25,1,0.75,0.8232387028273834,-2.467074883215703
25,1,0.5,0.8406756083661252,-4.210765437089881
25,1,0.25,0.8204100332561112,-2.1842079260884772
25,1,0.0,0.7994163932370113,-0.0848439241784904
25,2,1.0,0.7985679539952264,0.0
25,2,0.75,0.8082859784695989,-0.9718024474372533
25,2,0.5,0.7597156573061964,3.885229668903001
25,2,0.25,0.715245536499892,8.332241749533441
25,2,0.0,0.6557707663842633,14.279718761096305
25,3,1.0,0.7985679539952264,0.0
25,3,0.75,0.8012470610512964,-0.2679107056069996
25,3,0.5,0.8007118292243083,-0.2143875229081882
25,3,0.25,0.7694383616673017,2.912959232792467
25,3,0.0,0.7014376750087423,9.713027898648408
25,4,1.0,0.7985679539952264,0.0
25,4,0.75,0.7996609037780569,-0.10929497828304768
25,4,0.5,0.7426450270496462,5.5922926945580205
25,4,0.25,0.6669668498953908,13.160110409983561
25,4,0.0,0.6045718305738637,19.399612342136273
25,5,1.0,0.7985679539952264,0.0
25,5,0.75,0.7244443641502465,7.412358984497991
25,5,0.5,0.6742616371036088,12.430631689161764
25,5,0.25,0.6267615680478311,17.180638594739527
25,5,0.0,0.5663894962493763,23.21784577458501
25,6,1.0,0.7985679539952264,0.0
25,6,0.75,0.8068646405795481,-0.82966865843217
25,6,0.5,0.8079926571027608,-0.9424703107534405
25,6,0.25,0.8077114191796769,-0.9143465184450528
25,6,0.0,0.7967177865780001,0.18501674172263227
25,7,1.0,0.7985679539952264,0.0
25,7,0.75,0.8003170502247078,-0.1749096229481384
25,7,0.5,0.801743032052875,-0.3175078057648606
25,7,0.25,0.7702566622833182,2.831129171190816
25,7,0.0,0.7163101566451886,8.22577973500378
25,8,1.0,0.7985679539952264,0.0
25,8,0.75,0.8048573956770438,-0.6289441681817443
25,8,0.5,0.8008300561099383,-0.22621021147118947
25,8,0.25,0.791068345133468,0.7499608861758378
25,8,0.0,0.7635988849253399,3.4969069069886505
26,0,1.0,0.7438463074291937,0.0
26,0,0.75,0.7480564109024792,-0.42101034732855425
26,0,0.5,0.7320244866226384,1.182182080655525
26,0,0.25,0.7125234962406015,3.132281118859215
26,0,0.0,0.6799827734501637,6.386353397902999
26,1,1.0,0.7438463074291937,0.0
26,1,0.75,0.744796927366272,-0.09506199370783452
26,1,0.5,0.7300626962726233,1.3783611156570341
26,1,0.25,0.7181682243635319,2.567808306566177
26,1,0.0,0.6980782582778826,4.576804915131105
26,2,1.0,0.7438463074291937,0.0
26,2,0.75,0.7241593221738907,1.9686985255302991
26,2,0.5,0.701567554851021,4.227875257817271
26,2,0.25,0.6465627025129229,9.728360491627075
26,2,0.0,0.575196304733946,16.865000269524767
26,3,1.0,0.7438463074291937,0.0
26,3,0.75,0.741842256593412,0.2004050835781701
26,3,0.5,0.7395142471580942,0.4332060271099447
26,3,0.25,0.7255587140562015,1.8287593372992128
26,3,0.0,0.704449894677049,3.939641275214467
26,4,1.0,0.7438463074291937,0.0
26,4,0.75,0.7336865578125763,1.0159749616617364
26,4,0.5,0.7059305160183187,3.7915791410874977
26,4,0.25,0.6650301965652797,7.881611086391393
26,4,0.0,0.5984184917363938,14.542781569279983
26,5,1.0,0.7438463074291937,0.0
26,5,0.75,0.7117858549796149,3.206045244957878
26,5,0.5,0.6382931724201326,10.555313500906106
26,5,0.25,0.5507342487640488,19.31120586651449
26,5,0.0,0.5282477838599833,21.559852356921038
26,6,1.0,0.7438463074291937,0.0
26,6,0.75,0.7310120495937292,1.2834257835464435
26,6,0.5,0.7095270575077283,3.43192499214654
26,6,0.25,0.6919734578937601,5.187284953543358
26,6,0.0,0.6890747373373517,5.477157009184197
26,7,1.0,0.7438463074291937,0.0
26,7,0.75,0.7423327336569658,0.15135737722278275
26,7,0.5,0.7264725448134636,1.7373762615730093
26,7,0.25,0.7013913580108296,4.245494941836403
26,7,0.0,0.6763391226672801,6.750718476191353
26,8,1.0,0.7438463074291937,0.0
26,8,0.75,0.7619362075523213,-1.8089900123127611
26,8,0.5,0.7554789499035024,-1.163264247430873
26,8,0.25,0.7318729173897789,1.1973390039414777
26,8,0.0,0.711037309661251,3.280899776794266
27,0,1.0,0.8184294526897686,0.0
27,0,0.75,0.8350392732001928,-1.6609820510424145
27,0,0.5,0.764344804969805,5.4084647719963685
27,0,0.25,0.7004661602209945,11.796329246877413
27,0,0.0,0.6726390915284348,14.57903611613338
27,1,1.0,0.8184294526897686,0.0
27,1,0.75,0.8219060790843558,-0.34766263945871234
27,1,0.5,0.8333172026003367,-1.488774991056807
27,1,0.25,0.8353659055980049,-1.693645290823631
27,1,0.0,0.7944763740565343,2.395307863323437
27,2,1.0,0.8184294526897686,0.0
27,2,0.75,0.8082116827523725,1.0217769937396093
27,2,0.5,0.7881648717293143,3.026458096045437
27,2,0.25,0.7514209830857838,6.700846960398488
27,2,0.0,0.6868143351992868,13.161511749048183
27,3,1.0,0.8184294526897686,0.0
27,3,0.75,0.8045938930085271,1.3835559681241505
27,3,0.5,0.7966864437165395,2.1743008973229117
27,3,0.25,0.6624510055458652,15.597844714390341
27,3,0.0,0.6284902606716771,18.99391920180915
27,4,1.0,0.8184294526897686,0.0
27,4,0.75,0.8238285499932638,-0.5399097303495193
27,4,0.5,0.8134653811582787,0.4964071531489922
27,4,0.25,0.7870436527496523,3.1385799940116366
27,4,0.0,0.716867378264437,10.15620744253316
27,5,1.0,0.8184294526897686,0.0
27,5,0.75,0.8018953981728856,1.6534054516883057
27,5,0.5,0.7447994074495925,7.363004524017613
27,5,0.25,0.6480913936688447,17.033805902092393
27,5,0.0,0.581836681668778,23.659277102099065
27,6,1.0,0.8184294526897686,0.0
27,6,0.75,0.817017414852775,0.14120378369936182
27,6,0.5,0.809652076318743,0.8777376371025603
27,6,0.25,0.8061729798298716,1.225647285989706
27,6,0.0,0.8052215442738216,1.320790841594699
27,7,1.0,0.8184294526897686,0.0
27,7,0.75,0.8192311274198201,-0.08016747300514382
27,7,0.5,0.8335612086852298,-1.5131755995461127
27,7,0.25,0.8224685162252006,-0.40390635354319304
27,7,0.0,0.6547737603742984,16.365569231547028
27,8,1.0,0.8184294526897686,0.0
27,8,0.75,0.8178295686548545,0.05998840349141776
27,8,0.5,0.82568279418223,-0.7253341492461374
27,8,0.25,0.8056986266327042,1.2730826057064437
27,8,0.0,0.7626426618850162,5.578679080475246
28,0,1.0,0.8160071291013387,0.0
28,0,0.75,0.829989121057764,-1.3981991956425355
28,0,0.5,0.8210765123814392,-0.5069383280100537
28,0,0.25,0.7945678525028506,2.14392765984881
28,0,0.0,0.7390408489258654,7.696628017547324
28,1,1.0,0.8160071291013387,0.0
28,1,0.75,0.8323860778951102,-1.6378948793771553
28,1,0.5,0.829714076996517,-1.3706947895178345
28,1,0.25,0.8094479823371111,0.655914676422753
28,1,0.0,0.743900803563521,7.210632553781771
28,2,1.0,0.8160071291013387,0.0
28,2,0.75,0.8042962081439768,1.1710920957361814
28,2,0.5,0.8037096902520198,1.2297438849318887
28,2,0.25,0.7757843697563043,4.022275934503439
28,2,0.0,0.7749607597792915,4.10463693220472
28,3,1.0,0.8160071291013387,0.0
28,3,0.75,0.8365915103619255,-2.0584381260586815
28,3,0.5,0.836930894632488,-2.0923765531149385
28,3,0.25,0.7984622487528177,1.7544880348520975
28,3,0.0,0.7390283311117105,7.6978797989628145
28,4,1.0,0.8160071291013387,0.0
28,4,0.75,0.7768594507428195,3.914767835851918
28,4,0.5,0.7474798842557832,6.85272448455555
28,4,0.25,0.723128668592905,9.287846050843363
28,4,0.0,0.7111885542502898,10.481857485104884
28,5,1.0,0.8160071291013387,0.0
28,5,0.75,0.8044974409041656,1.1509688197173018
28,5,0.5,0.7605097323832598,5.549739671807885
28,5,0.25,0.7118876217980232,10.411950730331544
28,5,0.0,0.6823004380285534,13.370669107278522
28,6,1.0,0.8160071291013387,0.0
28,6,0.75,0.8183559398873848,-0.2348810786046096
28,6,0.5,0.7988626861433659,1.7144442957972794
28,6,0.25,0.7972588118283482,1.8748317272990422
28,6,0.0,0.7620030374905498,5.40040916107889
28,7,1.0,0.8160071291013387,0.0
28,7,0.75,0.8088443994929753,0.7162729608363394
28,7,0.5,0.7909617695433943,2.50453595579444
28,7,0.25,0.7407015658214562,7.530556327988247
28,7,0.0,0.691501453784658,12.450567531668067
28,8,1.0,0.8160071291013387,0.0
28,8,0.75,0.8125038089386423,0.35033201626963884
28,8,0.5,0.8144799943843526,0.15271347169860672
28,8,0.25,0.7980873551010998,1.7919774000238808
28,8,0.0,0.726620547780038,8.938658132130062
29,0,1.0,0.7480635016629587,0.0
29,0,0.75,0.7382265773085397,0.9836924354418963
29,0,0.5,0.7337896898690833,1.4273811793875324
29,0,0.25,0.709301372799948,3.876212886301067
29,0,0.0,0.6731198892690566,7.4943612393902015
29,1,1.0,0.7480635016629587,0.0
29,1,0.75,0.7596112966576188,-1.1547794994660188
29,1,0.5,0.7507146451367426,-0.26511434737839235
29,1,0.25,0.7374544263306877,1.0609075332270956
29,1,0.0,0.7247900884604722,2.3273413202486437
29,2,1.0,0.7480635016629587,0.0
29,2,0.75,0.749041185856258,-0.09776841932993552
29,2,0.5,0.753387543321363,-0.5324041658404388
29,2,0.25,0.7399639519580661,0.8099549704892572
29,2,0.0,0.6937045504216992,5.4358951241259446
29,3,1.0,0.7480635016629587,0.0
29,3,0.75,0.7569935264351939,-0.8930024772235257
29,3,0.5,0.7501591387511988,-0.2095637088240121
29,3,0.25,0.738675315623878,0.9388186039080648
29,3,0.0,0.7317840442687082,1.6279457394250407
29,4,1.0,0.7480635016629587,0.0
29,4,0.75,0.7408793354703321,0.7184166192626518
29,4,0.5,0.728441189444936,1.9622312218022686
29,4,0.25,0.7093073930694305,3.8756108593528182
29,4,0.0,0.685208127165537,6.285537449742162
29,5,1.0,0.7480635016629587,0.0
29,5,0.75,0.7516115702479339,-0.354806858497525
29,5,0.5,0.6964657412579041,5.159776040505459
29,5,0.25,0.6307921700429538,11.72713316200048
29,5,0.0,0.5895265158497546,15.853698581320408
29,6,1.0,0.7480635016629587,0.0
29,6,0.75,0.75421415890389,-0.6150657240931334
29,6,0.5,0.744857784140194,0.32057175227646617
29,6,0.25,0.7363993125174697,1.1664189145488946
29,6,0.0,0.7410998022210027,0.6963699441955962
29,7,1.0,0.7480635016629587,0.0
29,7,0.75,0.7659492534433086,-1.78857517803499
29,7,0.5,0.7456657788345209,0.2397722828437754
29,7,0.25,0.7131432655028398,3.4920236160118856
29,7,0.0,0.6683492054034552,7.971429625950344
29,8,1.0,0.7480635016629587,0.0
29,8,0.75,0.7355904708003949,1.2473030862563794
29,8,0.5,0.7112378137021798,3.6825687960778897
29,8,0.25,0.6451269248855592,10.293657677739942
29,8,0.0,0.5776733896746351,17.039011198832355
30,0,1.0,0.8167020582208067,0.0
30,0,0.75,0.826800622169112,-1.0098563948305328
30,0,0.5,0.8268906871646597,-1.0188628943853084
30,0,0.25,0.7970277418276649,1.9674316393141766
30,0,0.0,0.7811173130602733,3.5584745160533338
30,1,1.0,0.8167020582208067,0.0
30,1,0.75,0.8001488449088152,1.6553213311991444
30,1,0.5,0.7864281816321427,3.0273876588663984
30,1,0.25,0.7667043423435114,4.999771587729529
30,1,0.0,0.7371620038827168,7.954005433808986
30,2,1.0,0.8167020582208067,0.0
30,2,0.75,0.812937065590729,0.3764992630077679
30,2,0.5,0.8050727056721224,1.1629352548684246
30,2,0.25,0.7752886648235486,4.1413393397258025
30,2,0.0,0.7423830794582424,7.431897876256421
30,3,1.0,0.8167020582208067,0.0
30,3,0.75,0.8077268304584836,0.8975227762323068
30,3,0.5,0.809750069209941,0.6951989010865689
30,3,0.25,0.8081569483209561,0.8545109899850578
30,3,0.0,0.7559661055021426,6.073595271866406
30,4,1.0,0.8167020582208067,0.0
30,4,0.75,0.8071550674685705,0.9546990752236195
30,4,0.5,0.7788736531820255,3.7828405038781154
30,4,0.25,0.7113408982932706,10.536115992753603
30,4,0.0,0.6812038793549817,13.549817886582494
30,5,1.0,0.8167020582208067,0.0
30,5,0.75,0.8216285812538004,-0.49265230329937904
30,5,0.5,0.8119546657902317,0.47473924305749815
30,5,0.25,0.7469342486408497,6.9767809579956985
30,5,0.0,0.700136337594045,11.656572062676162
30,6,1.0,0.8167020582208067,0.0
30,6,0.75,0.8197072468874794,-0.30051886666727645
30,6,0.5,0.8110606154453197,0.5641442775486949
30,6,0.25,0.8009064437001708,1.5795614520635826
30,6,0.0,0.7919353798365781,2.4766678384228524
30,7,1.0,0.8167020582208067,0.0
30,7,0.75,0.8062929175915695,1.0409140629237146
30,7,0.5,0.8015028275434652,1.5199230677341413
30,7,0.25,0.7564893588219818,6.02126993988249
30,7,0.0,0.7312536853127861,8.544837290802054
30,8,1.0,0.8167020582208067,0.0
30,8,0.75,0.8180046112531847,-0.13025530323780288
30,8,0.5,0.8279206254344988,-1.1218567213692188
30,8,0.25,0.8294634614466443,-1.276140322583763
30,8,0.0,0.7883706379277151,2.8331420293091547
31,0,1.0,0.6903704819966707,0.0
31,0,0.75,0.6873411423620139,0.30293396346567913
31,0,0.5,0.6669499260811839,2.3420555915486863
31,0,0.25,0.635819594036552,5.455088796011875
31,0,0.0,0.6158211330429932,7.454934895367749
31,1,1.0,0.6903704819966707,0.0
31,1,0.75,0.6886769902698562,0.16934917268145444
31,1,0.5,0.6671568127433889,2.3213669253281832
31,1,0.25,0.6411973956122934,4.917308638437734
31,1,0.0,0.6203304149783339,7.004006701833687
31,2,1.0,0.6903704819966707,0.0
31,2,0.75,0.6778145099035737,1.2555972093097
31,2,0.5,0.6517499404923575,3.8620541504313266
31,2,0.25,0.6173467987290009,7.302368326766984
31,2,0.0,0.5825226894843031,10.784779251236765
31,3,1.0,0.6903704819966707,0.0
31,3,0.75,0.712583713245103,-2.221323124843222
31,3,0.5,0.7146050859987624,-2.4234604002091653
31,3,0.25,0.6803000836794149,1.0070398317255869
31,3,0.0,0.6676721160134137,2.269836598325703
31,4,1.0,0.6903704819966707,0.0
31,4,0.75,0.6877108042251727,0.26596777714980036
31,4,0.5,0.6823190933041179,0.8051388692552841
31,4,0.25,0.6536874131800064,3.6683068816664277
31,4,0.0,0.6118092509449576,7.856123105171308
31,5,1.0,0.6903704819966707,0.0
31,5,0.75,0.6608085072202936,2.956197477637712
31,5,0.5,0.5891750998366486,10.11953821600221
31,5,0.25,0.42780970967947485,26.256077231719587
31,5,0.0,0.36619370875822255,32.41767732384482
31,6,1.0,0.6903704819966707,0.0
31,6,0.75,0.6937533849032563,-0.33829029065856053
31,6,0.5,0.6937357316978795,-0.33652497012087723
31,6,0.25,0.6938615827074355,-0.34911007107647496
31,6,0.0,0.6735410409814477,1.682944101522299
31,7,1.0,0.6903704819966707,0.0
31,7,0.75,0.6784225296600326,1.1947952336638146
31,7,0.5,0.6656049474903912,2.4765534506279496
31,7,0.25,0.6257292252471081,6.464125674956267
31,7,0.0,0.5151270979726734,17.52433840239973
31,8,1.0,0.6903704819966707,0.0
31,8,0.75,0.6708275048085329,1.95429771881378
31,8,0.5,0.6619881971401081,2.838228485656258
31,8,0.25,0.6026079666995633,8.776251529710743
31,8,0.0,0.5841347449942407,10.623573700243005
32,0,1.0,0.8031667443833453,0.0
32,0,0.75,0.8138035245999777,-1.063678021663239
32,0,0.5,0.78495717387476,1.8209570508585293
32,0,0.25,0.7475922245528326,5.557451983051276
32,0,0.0,0.7227115685035481,8.045517587979722
32,1,1.0,0.8031667443833453,0.0
32,1,0.75,0.7831159337918467,2.0050810591498602
32,1,0.5,0.7487091417662534,5.445760261709198
32,1,0.25,0.7199294894258826,8.32372549574627
32,1,0.0,0.6805674319912166,12.259931239212873
32,2,1.0,0.8031667443833453,0.0
32,2,0.75,0.8013804878487742,0.17862565345710957
32,2,0.5,0.7832966372721195,1.9870107111225832
32,2,0.25,0.7070734198509974,9.609332453234797
32,2,0.0,0.6291379771677319,17.402876721561345
32,3,1.0,0.8031667443833453,0.0
32,3,0.75,0.7999570480104417,0.3209696372903692
32,3,0.5,0.7902450512668133,1.2921693116532018
32,3,0.25,0.7748459350039942,2.832080937935111
32,3,0.0,0.7620330779108986,4.113366647244677
32,4,1.0,0.8031667443833453,0.0
32,4,0.75,0.7723100389193815,3.0856705463963796
32,4,0.5,0.7196803977936053,8.348634658974008
32,4,0.25,0.6671548265162771,13.601191786706824
32,4,0.0,0.6341341721449097,16.90325722384356
32,5,1.0,0.8031667443833453,0.0
32,5,0.75,0.7938067280921804,0.9360016291164897
32,5,0.5,0.7702767980660274,3.2889946317317897
32,5,0.25,0.7259479357117078,7.721880867163755
32,5,0.0,0.6754032105988612,12.776353378448412
32,6,1.0,0.8031667443833453,0.0
32,6,0.75,0.7950544654558878,0.8112278927457583
32,6,0.5,0.7667046485020783,3.646209588126703
32,6,0.25,0.7344583486410962,6.870839574224918
32,6,0.0,0.6878095856534959,11.535715872984941
32,7,1.0,0.8031667443833453,0.0
32,7,0.75,0.792679006630901,1.0487737752444382
32,7,0.5,0.7439664506931655,5.920029369017987
32,7,0.25,0.6815719320356691,12.159481234767622
32,7,0.0,0.6127403105976754,19.042643378566993
32,8,1.0,0.8031667443833453,0.0
32,8,0.75,0.8032472352650949,-0.008049088174955088
32,8,0.5,0.776995320644522,2.6171423738823307
32,8,0.25,0.7479807905128038,5.518595387054159
32,8,0.0,0.7038665098839537,9.930023449939164
33,0,1.0,0.8942276499753032,0.0
33,0,0.75,0.9074068529909967,-1.317920301569342
33,0,0.5,0.9103854118762376,-1.615776190093432
33,0,0.25,0.8778558432681166,1.6371806707186631
33,0,0.0,0.8157874454225068,7.844020455279644
33,1,1.0,0.8942276499753032,0.0
33,1,0.75,0.8998824334260412,-0.5654783450737999
33,1,0.5,0.8965783373676669,-0.23506873923636595
33,1,0.25,0.8648217384319591,2.9405911543344154
33,1,0.0,0.818599857224624,7.562779275067921
33,2,1.0,0.8942276499753032,0.0
33,2,0.75,0.8943698757521428,-0.014222577683953297
33,2,0.5,0.8950328385773844,-0.08051886020811194
33,2,0.25,0.8568812638351004,3.7346386140202803
33,2,0.0,0.8120547431108945,8.21729068644087
33,3,1.0,0.8942276499753032,0.0
33,3,0.75,0.9056765654009123,-1.1448915425609107
33,3,0.5,0.9071761751028069,-1.2948525127503663
33,3,0.25,0.9110169959116476,-1.6789345936344402
33,3,0.0,0.8927504158755765,0.14772340997267763
33,4,1.0,0.8942276499753032,0.0
33,4,0.75,0.9033838582950681,-0.9156208319764825
33,4,0.5,0.9222497499877761,-2.802210001247285
33,4,0.25,0.8874228650331226,0.680478494218062
33,4,0.0,0.8962348169915878,-0.20071670162845612
33,5,1.0,0.8942276499753032,0.0
33,5,0.75,0.8863919076526177,0.7835742322685579
33,5,0.5,0.8875841673594287,0.6643482615874552
33,5,0.25,0.8583910073721522,3.5836642603151003
33,5,0.0,0.8280347352623121,6.619291471299116
33,6,1.0,0.8942276499753032,0.0
33,6,0.75,0.8976508434622635,-0.34231934869602965
33,6,0.5,0.8946931898036602,-0.04655398283569534
33,6,0.25,0.8721686712449401,2.205897873036311
33,6,0.0,0.8593850750315073,3.4842574943795945
33,7,1.0,0.8942276499753032,0.0
33,7,0.75,0.893996943045302,0.023070693000126763
33,7,0.5,0.899344581046833,-0.5116931071529773
33,7,0.25,0.8744476679735227,1.977998200178055
33,7,0.0,0.8200721006301035,7.4155549345199745
33,8,1.0,0.8942276499753032,0.0
33,8,0.75,0.8903805747076129,0.38470752676903475
33,8,0.5,0.8853543250049871,0.8873324970316121
33,8,0.25,0.8646151476372189,2.9612502338084323
33,8,0.0,0.8132751544385208,8.09524955367824
34,0,1.0,0.8547021434018338,0.0
34,0,0.75,0.8540187806009237,0.06833628009100812
34,0,0.5,0.8495658683551482,0.5136275046685568
34,0,0.25,0.8318441064954519,2.2858036906381884
34,0,0.0,0.7877083301093841,6.699381329244969
34,1,1.0,0.8547021434018338,0.0
34,1,0.75,0.8479198196236678,0.6782323778166011
34,1,0.5,0.8278528242985617,2.684931910327215
34,1,0.25,0.8174994570299494,3.7202686371884397
34,1,0.0,0.7847095931447505,6.999255025708329
34,2,1.0,0.8547021434018338,0.0
34,2,0.75,0.8494490378693369,0.5253105532496916
34,2,0.5,0.8427391059884912,1.1963037413342592
34,2,0.25,0.8328182234432234,2.1883919958610387
34,2,0.0,0.8155062265460624,3.9195916855771396
34,3,1.0,0.8547021434018338,0.0
34,3,0.75,0.8425536420101638,1.2148501391670008
34,3,0.5,0.8241655055369684,3.053663786486538
34,3,0.25,0.8222585381593027,3.2443605242531093
34,3,0.0,0.8143742113414754,4.032793206035845
34,4,1.0,0.8547021434018338,0.0
34,4,0.75,0.8540739768681629,0.06281665336709263
34,4,0.5,0.8434565542784226,1.1245589123411226
34,4,0.25,0.8391373075454582,1.556483585637558
34,4,0.0,0.7988336020613016,5.586854134053221
34,5,1.0,0.8547021434018338,0.0
34,5,0.75,0.8514080013764467,0.3294142025387137
34,5,0.5,0.8309063879971587,2.3795755404675156
34,5,0.25,0.6669578480152287,18.77442953866051
34,5,0.0,0.5436075025365431,31.10946408652907
34,6,1.0,0.8547021434018338,0.0
34,6,0.75,0.8476963397307588,0.7005803671075062
34,6,0.5,0.8398563285090831,1.484581489275072
34,6,0.25,0.8192123357963875,3.548980760544629
34,6,0.0,0.7949556858522034,5.974645754963037
34,7,1.0,0.8547021434018338,0.0
34,7,0.75,0.8632144791577623,-0.8512335755928468
34,7,0.5,0.8386197841030179,1.6082359298815962
34,7,0.25,0.8056820604483352,4.902008295349858
34,7,0.0,0.764166827725692,9.053531567614181
34,8,1.0,0.8547021434018338,0.0
34,8,0.75,0.8531852010667527,0.15169423350811506
34,8,0.5,0.844820827763016,0.9881315638817778
34,8,0.25,0.8525740573703307,0.21280860315031624
34,8,0.0,0.8381011056068265,1.6601037795007323
35,0,1.0,0.7148981691317708,0.0
35,0,0.75,0.7178251015496712,-0.29269324179003187
35,0,0.5,0.7153212883010189,-0.042311916924808735
35,0,0.25,0.6973505746713572,1.7547594460413651
35,0,0.0,0.6755607248350924,3.9337444296678403
35,1,1.0,0.7148981691317708,0.0
35,1,0.75,0.7095708459240568,0.5327323207714008
35,1,0.5,0.7031907102021787,1.170745892959213
35,1,0.25,0.6730816050582556,4.18165640735152
35,1,0.0,0.6319948559827524,8.290331314901845
35,2,1.0,0.7148981691317708,0.0
35,2,0.75,0.7238754507958909,-0.897728166412004
35,2,0.5,0.737532098968408,-2.2633929836637146
35,2,0.25,0.7350819215571596,-2.0183752425388723
35,2,0.0,0.6929729807485727,2.1925188383198124
35,3,1.0,0.7148981691317708,0.0
35,3,0.75,0.7148221813024196,0.007598782935125392
35,3,0.5,0.6824096269782239,3.2488542153546907
35,3,0.25,0.669165462171099,4.573270696067189
35,3,0.0,0.6528525815152528,6.204558761651802
35,4,1.0,0.7148981691317708,0.0
35,4,0.75,0.7171436984460067,-0.2245529314235828
35,4,0.5,0.7114558089745359,0.34423601572349805
35,4,0.25,0.7065120240811213,0.8386145050649496
35,4,0.0,0.7212480613767845,-0.63498922450137
35,5,1.0,0.7148981691317708,0.0
35,5,0.75,0.7275237294125205,-1.2625560280749681
35,5,0.5,0.7287998568641979,-1.390168773242706
35,5,0.25,0.6988763050437768,1.6021864087993998
35,5,0.0,0.6941502621380795,2.0747906993691334
35,6,1.0,0.7148981691317708,0.0
35,6,0.75,0.7128537344635395,0.2044434668231343
35,6,0.5,0.7094486668346851,0.544950229708574
35,6,0.25,0.7006472227063408,1.4250946425430011
35,6,0.0,0.7090268102787909,0.5871358852979958
35,7,1.0,0.7148981691317708,0.0
35,7,0.75,0.7245315676411697,-0.9633398509398816
35,7,0.5,0.7272161473454147,-1.2317978213643888
35,7,0.25,0.7091431497330114,0.5755019398759442
35,7,0.0,0.6711568307889099,4.3741338342860985
35,8,1.0,0.7148981691317708,0.0
35,8,0.75,0.7132329197103607,0.16652494214101088
35,8,0.5,0.714978806280471,-0.00806371487001023
35,8,0.25,0.6834847489484394,3.1413420183331486
35,8,0.0,0.6490380618500267,6.5860107281744185
36,0,1.0,0.7076917956517653,0.0
36,0,0.75,0.6941939501941875,1.3497845457577817
36,0,0.5,0.6700448814475111,3.7646914204254256
36,0,0.25,0.6398764453711159,6.781535028064944
36,0,0.0,0.6285400189260044,7.915177672576091
36,1,1.0,0.7076917956517653,0.0
36,1,0.75,0.7060603781560651,0.16314174957001715
36,1,0.5,0.6873151609480236,2.0376634703741736
36,1,0.25,0.668589087332525,3.9102708319240342
36,1,0.0,0.6408297733389665,6.68620223127988
36,2,1.0,0.7076917956517653,0.0
36,2,0.75,0.7183138128343608,-1.0622017182595478
36,2,0.5,0.6962426995359469,1.1449096115818458
36,2,0.25,0.6801996241327953,2.749217151896999
36,2,0.0,0.6624266979631203,4.526509768864506
36,3,1.0,0.7076917956517653,0.0
36,3,0.75,0.7042887357393751,0.3403059912390205
36,3,0.5,0.6917180689366542,1.5973726715111103
36,3,0.25,0.6871004202158895,2.059137543587586
36,3,0.0,0.6539325185398517,5.375927711191364
36,4,1.0,0.7076917956517653,0.0
36,4,0.75,0.7182427282763537,-1.0550932624588394
36,4,0.5,0.7063387460012168,0.1353049650548499
36,4,0.25,0.6818794713027092,2.5812324349056115
36,4,0.0,0.6672826231795447,4.0409172472220645
36,5,1.0,0.7076917956517653,0.0
36,5,0.75,0.7368136015729233,-2.9121805921157984
36,5,0.5,0.740840846325399,-3.3149050673633718
36,5,0.25,0.7307188565979282,-2.3027060946162914
36,5,0.0,0.7089241930510353,-0.12323973992699466
36,6,1.0,0.7076917956517653,0.0
36,6,0.75,0.6980203989931617,0.9671396658603615
36,6,0.5,0.6860462594993533,2.164553615241205
36,6,0.25,0.6717196197099444,3.5972175941820894
36,6,0.0,0.6475268112144094,6.016498443735596
36,7,1.0,0.7076917956517653,0.0
36,7,0.75,0.6941172542949392,1.357454135682612
36,7,0.5,0.6684742064365048,3.921758921526053
36,7,0.25,0.6079699938019426,9.972180184982271
36,7,0.0,0.5818136945502483,12.587810110151699
36,8,1.0,0.7076917956517653,0.0
36,8,0.75,0.6950493424523724,1.2642453199392945
36,8,0.5,0.6718426846547918,3.584911099697352
36,8,0.25,0.6495390582285472,5.815273742321814
36,8,0.0,0.6228412600994603,8.485053555230504
37,0,1.0,0.86225038738805,0.0
37,0,0.75,0.8622366610731583,0.0013726314891715496
37,0,0.5,0.829947394921158,3.2302992466892055
37,0,0.25,0.815485334375434,4.676505301261602
37,0,0.0,0.7630495109371259,9.920087645092412
37,1,1.0,0.86225038738805,0.0
37,1,0.75,0.8482570806100218,1.3993306778028236
37,1,0.5,0.8273563289121734,3.4894058475876677
37,1,0.25,0.801862019838301,6.038836754974907
37,1,0.0,0.7782418194942037,8.400856789384637
37,2,1.0,0.86225038738805,0.0
37,2,0.75,0.857371182709269,0.4879204678781002
37,2,0.5,0.8332241010076642,2.9026286380385846
37,2,0.25,0.8033913961467405,5.8858991241309555
37,2,0.0,0.7839683260422305,7.82820613458195
37,3,1.0,0.86225038738805,0.0
37,3,0.75,0.8507719267729956,1.147846061505442
37,3,0.5,0.8544956209113653,0.7754766476684716
37,3,0.25,0.85018014256971,1.207024481834007
37,3,0.0,0.8450549414396631,1.7195445948386956
37,4,1.0,0.86225038738805,0.0
37,4,0.75,0.8624343104173999,-0.018392302934988614
37,4,0.5,0.8439182998630834,1.8332087524966623
37,4,0.25,0.8288826132493357,3.336777413871439
37,4,0.0,0.801405544989833,6.084484239821708
37,5,1.0,0.86225038738805,0.0
37,5,0.75,0.867959017711796,-0.5708630323745911
37,5,0.5,0.8887179578555708,-2.6467570467520796
37,5,0.25,0.8666714207310882,-0.44210333430381166
37,5,0.0,0.8320264258572989,3.022396153075113
37,6,1.0,0.86225038738805,0.0
37,6,0.75,0.8595623722757253,0.26880151123247487
37,6,0.5,0.8529072748699645,0.9343112518085506
37,6,0.25,0.8350451496212619,2.720523776678818
37,6,0.0,0.8085681548050473,5.368223258300276
37,7,1.0,0.86225038738805,0.0
37,7,0.75,0.8474018548702981,1.4848532517751978
37,7,0.5,0.8265900464208856,3.5660340967164417
37,7,0.25,0.7902716846434701,7.197870274457996
37,7,0.0,0.7752589246648018,8.699146272324821
37,8,1.0,0.86225038738805,0.0
37,8,0.75,0.8483390828432281,1.3911304544821923
37,8,0.5,0.8400971799757371,2.215320741231297
37,8,0.25,0.8159608297487175,4.628955763933251
37,8,0.0,0.7802044849204121,8.204590246763798
38,0,1.0,0.707528502029358,0.0
38,0,0.75,0.7083154436160398,-0.07869415866817997
38,0,0.5,0.7070201745203559,0.050832750900209334
38,0,0.25,0.6947684260184261,1.2760076010931876
38,0,0.0,0.6897891954479044,1.7739306581453618
38,1,1.0,0.707528502029358,0.0
38,1,0.75,0.7133050548317369,-0.5776552802378876
38,1,0.5,0.6963519254180801,1.117657661127791
38,1,0.25,0.6882002221600245,1.9328279869333498
38,1,0.0,0.6731070779355238,3.4421424093834196
38,2,1.0,0.707528502029358,0.0
38,2,0.75,0.6910060138190722,1.652248821028579
38,2,0.5,0.6783158622129281,2.9212639816429964
38,2,0.25,0.6634290466281999,4.409945540115812
38,2,0.0,0.6728621152934788,3.4666386735879184
38,3,1.0,0.707528502029358,0.0
38,3,0.75,0.7258744079481166,-1.834590591875862
38,3,0.5,0.7396172801171585,-3.208877808780053
38,3,0.25,0.7131964131628834,-0.5667911133525383
38,3,0.0,0.6712905204361732,3.623798159318481
38,4,1.0,0.707528502029358,0.0
38,4,0.75,0.7151634191058066,-0.7634917076448589
38,4,0.5,0.7221432412448746,-1.4614739215516592
38,4,0.25,0.6985530345637778,0.89754674655802
38,4,0.0,0.6198988008062798,8.762970122307824
38,5,1.0,0.707528502029358,0.0
38,5,0.75,0.6987857977775953,0.8742704251762712
38,5,0.5,0.659535739942844,4.7992762086514045
38,5,0.25,0.4593863706436082,24.81421313857498
38,5,0.0,0.42252413283392987,28.500436919542814
38,6,1.0,0.707528502029358,0.0
38,6,0.75,0.7126810416207101,-0.515253959135209
38,6,0.5,0.7049044781657556,0.2624023863602387
38,6,0.25,0.691724335122262,1.5804166907096073
38,6,0.0,0.6843400380135016,2.318846401585639
38,7,1.0,0.707528502029358,0.0
38,7,0.75,0.7075120424238072,0.0016459605550855905
38,7,0.5,0.6831043528510423,2.44241491783157
38,7,0.25,0.6478540044119778,5.9674497617380196
38,7,0.0,0.5822721702206262,12.525633180873186
38,8,1.0,0.707528502029358,0.0
38,8,0.75,0.6919973544973546,1.5531147532003464
38,8,0.5,0.6869159518770344,2.061255015232366
38,8,0.25,0.6591545662378632,4.837393579149484
38,8,0.0,0.6286348285258456,7.88936735035124
39,0,1.0,0.7729802897524416,0.0
39,0,0.75,0.7450599825367299,2.7920307215711704
39,0,0.5,0.6990124255190028,7.396786423343881
39,0,0.25,0.6404108210005596,13.256946875188202
39,0,0.0,0.5931131669900084,17.98671227624332
39,1,1.0,0.7729802897524416,0.0
39,1,0.75,0.782036923750407,-0.9056633997965413
39,1,0.5,0.7745434440316974,-0.15631542792557962
39,1,0.25,0.7551690689502228,1.7811220802218752
39,1,0.0,0.7261648533671768,4.681543638526476
39,2,1.0,0.7729802897524416,0.0
39,2,0.75,0.7775604667392917,-0.4580176986850093
39,2,0.5,0.7949369431403378,-2.195665338789621
39,2,0.25,0.7893215124241083,-1.634122267166671
39,2,0.0,0.7768669016555365,-0.38866119030949164
39,3,1.0,0.7729802897524416,0.0
39,3,0.75,0.7667610053160581,0.6219284436383532
39,3,0.5,0.7326832992555311,4.0296990496910485
39,3,0.25,0.7160192478919636,5.696104186047801
39,3,0.0,0.6693151578855165,10.366513186692504
39,4,1.0,0.7729802897524416,0.0
39,4,0.75,0.7738547780078847,-0.08744882554431177
39,4,0.5,0.7618367468860586,1.1143542866382972
39,4,0.25,0.7059214000550451,6.705888969739648
39,4,0.0,0.6613804748108124,11.159981494162919
39,5,1.0,0.7729802897524416,0.0
39,5,0.75,0.7419600451515345,3.102024460090713
39,5,0.5,0.6687103404756047,10.426994927683687
39,5,0.25,0.630154002830994,14.282628692144762
39,5,0.0,0.5586635930717448,21.431669668069674
39,6,1.0,0.7729802897524416,0.0
39,6,0.75,0.7467319238331245,2.624836591931712
39,6,0.5,0.7173141554461476,5.566613430629397
39,6,0.25,0.7200829886960785,5.289730105636314
39,6,0.0,0.7087084203094386,6.427186944300301
39,7,1.0,0.7729802897524416,0.0
39,7,0.75,0.739319819742625,3.3660470009816645
39,7,0.5,0.7231658617580318,4.981442799440982
39,7,0.25,0.7098020980702192,6.317819168222238
39,7,0.0,0.6805464424565144,9.24338472959272
39,8,1.0,0.7729802897524416,0.0
39,8,0.75,0.8055492539041961,-3.2568964151754476
39,8,0.5,0.7940152519893898,-2.103496223694823
39,8,0.25,0.7691594711850576,0.3820818567384032
39,8,0.0,0.7404331412822698,3.2547148470171816
40,0,1.0,0.7699692300160499,0.0
40,0,0.75,0.7733731936249845,-0.3403963608934579
40,0,0.5,0.7614442068794529,0.8525023136596976
40,0,0.25,0.7371811390036045,3.2788091012445397
40,0,0.0,0.6743610725318042,9.560815748424567
40,1,1.0,0.7699692300160499,0.0
40,1,0.75,0.7427695920904679,2.7199637925582
40,1,0.5,0.7475979720754933,2.237125794055661
40,1,0.25,0.7363343966803652,3.3634833335684733
40,1,0.0,0.7267352730959081,4.323395692014175
40,2,1.0,0.7699692300160499,0.0
40,2,0.75,0.7695845001356925,0.03847298803574262
40,2,0.5,0.7628752122221371,0.7094017793912832
40,2,0.25,0.7582172039646501,1.17520260513998
40,2,0.0,0.7165056939286923,5.346353608735754
40,3,1.0,0.7699692300160499,0.0
40,3,0.75,0.7470607433774594,2.2908486638590464
40,3,0.5,0.7178218609418193,5.214736907423056
40,3,0.25,0.678972612769997,9.09966172460529
40,3,0.0,0.6527128340355327,11.725639598051718
40,4,1.0,0.7699692300160499,0.0
40,4,0.75,0.7519230802758665,1.804614974018337
40,4,0.5,0.7503740864505926,1.959514356545733
40,4,0.25,0.7479614023219648,2.2007827694085047
40,4,0.0,0.7208363733463854,4.913285666966449
40,5,1.0,0.7699692300160499,0.0
40,5,0.75,0.7842043112665064,-1.4235081250456472
40,5,0.5,0.7761573756542857,-0.6188145638235776
40,5,0.25,0.7682066483660147,0.17625816500351776
40,5,0.0,0.7289790685691667,4.099016144688317
40,6,1.0,0.7699692300160499,0.0
40,6,0.75,0.7461041127322395,2.3865117283810355
40,6,0.5,0.7090576149814765,6.091161503457343
40,6,0.25,0.6866176594977483,8.335157051830155
40,6,0.0,0.6589167944785276,11.105243553752231
40,7,1.0,0.7699692300160499,0.0
40,7,0.75,0.7538940983722209,1.607513164382901
40,7,0.5,0.7419239463783237,2.804528363772618
40,7,0.25,0.6798700352778798,9.009919473817007
40,7,0.0,0.6393481349467265,13.062109506932341
40,8,1.0,0.7699692300160499,0.0
40,8,0.75,0.770632122786087,-0.06628927700370602
40,8,0.5,0.7471955240722782,2.2773705943771705
40,8,0.25,0.7240013007695808,4.596792924646909
40,8,0.0,0.6834889372082623,8.648029280778758
