subject,block,block_width,feature_channel,gate_mean,gate_sd
1,0,32,0,0.5066551566123962,0.11870425939559937
1,0,32,1,0.4327434301376343,0.12539154291152954
1,0,32,2,0.4552037715911865,0.12488420307636261
1,0,32,3,0.56607586145401,0.1149221807718277
1,0,32,4,0.42418792843818665,0.13086743652820587
1,0,32,5,0.3949568569660187,0.025605887174606323
1,0,32,6,0.45482364296913147,0.060816556215286255
1,0,32,7,0.38128578662872314,0.0789744034409523
1,0,32,8,0.5110805630683899,0.04030482843518257
1,0,32,9,0.6174229383468628,0.09373588114976883
1,0,32,10,0.4181344211101532,0.15621475875377655
1,0,32,11,0.47452667355537415,0.12994730472564697
1,0,32,12,0.6073009371757507,0.1470089852809906
1,0,32,13,0.4416634738445282,0.1085968166589737
1,0,32,14,0.4290741980075836,0.04570389166474342
1,0,32,15,0.4804672598838806,0.14708980917930603
1,0,32,16,0.49547839164733887,0.04947910085320473
1,0,32,17,0.4660716652870178,0.04634440690279007
1,0,32,18,0.5519667863845825,0.0849420502781868
1,0,32,19,0.4331570863723755,0.109956294298172
1,0,32,20,0.585809588432312,0.07091785222291946
1,0,32,21,0.5192055702209473,0.14190888404846191
1,0,32,22,0.5635145306587219,0.07926417887210846
1,0,32,23,0.4323325455188751,0.04589341953396797
1,0,32,24,0.44162553548812866,0.042254991829395294
1,0,32,25,0.6072177290916443,0.09562905877828598
1,0,32,26,0.38633161783218384,0.12315511703491211
1,0,32,27,0.5596018433570862,0.10016391426324844
1,0,32,28,0.2896876633167267,0.09325665235519409
1,0,32,29,0.5571625232696533,0.1001671776175499
1,0,32,30,0.6641246676445007,0.1100042536854744
1,0,32,31,0.46269291639328003,0.08680358529090881
1,1,32,0,0.32908421754837036,0.07925797253847122
1,1,32,1,0.4892326593399048,0.10342816263437271
1,1,32,2,0.4418291747570038,0.15138636529445648
1,1,32,3,0.44455620646476746,0.13232582807540894
1,1,32,4,0.6811040043830872,0.0890074297785759
1,1,32,5,0.5143944621086121,0.13368193805217743
1,1,32,6,0.4610314965248108,0.10884096473455429
1,1,32,7,0.6050918102264404,0.03471183404326439
1,1,32,8,0.5700175166130066,0.048308227211236954
1,1,32,9,0.5225429534912109,0.036229051649570465
1,1,32,10,0.617318332195282,0.09935034066438675
1,1,32,11,0.46429336071014404,0.06797266751527786
1,1,32,12,0.5082676410675049,0.11473530530929565
1,1,32,13,0.41442179679870605,0.08877862989902496
1,1,32,14,0.49654391407966614,0.15509869158267975
1,1,32,15,0.4481517970561981,0.14004170894622803
1,1,32,16,0.545083224773407,0.06092226877808571
1,1,32,17,0.3872496783733368,0.06140980124473572
1,1,32,18,0.6463443636894226,0.05001963675022125
1,1,32,19,0.7045623064041138,0.062137670814991
1,1,32,20,0.37651801109313965,0.0954030379652977
1,1,32,21,0.3358398377895355,0.08493458479642868
1,1,32,22,0.43473708629608154,0.1078541949391365
1,1,32,23,0.6315420866012573,0.038743939250707626
1,1,32,24,0.4738001823425293,0.1668923795223236
1,1,32,25,0.48679861426353455,0.09785513579845428
1,1,32,26,0.4906570613384247,0.12301044911146164
1,1,32,27,0.40188705921173096,0.09705614298582077
1,1,32,28,0.45640143752098083,0.13795211911201477
1,1,32,29,0.4934625029563904,0.03240728750824928
1,1,32,30,0.3337019085884094,0.06713291257619858
1,1,32,31,0.39061111211776733,0.09586741775274277
1,2,64,0,0.603101909160614,0.11536947637796402
1,2,64,1,0.6196559071540833,0.24717813730239868
1,2,64,2,0.5342903733253479,0.07439247518777847
1,2,64,3,0.5129208564758301,0.2848288118839264
1,2,64,4,0.4885666072368622,0.19066222012043
1,2,64,5,0.5033926963806152,0.18162181973457336
1,2,64,6,0.6094712615013123,0.27239611744880676
1,2,64,7,0.4654407799243927,0.121192067861557
1,2,64,8,0.6261436939239502,0.12122642993927002
1,2,64,9,0.48536181449890137,0.2206527590751648
1,2,64,10,0.49224287271499634,0.10980211198329926
1,2,64,11,0.4518445134162903,0.14657549560070038
1,2,64,12,0.5231923460960388,0.2303740382194519
1,2,64,13,0.5896575450897217,0.17128531634807587
1,2,64,14,0.24214230477809906,0.12389256060123444
1,2,64,15,0.3850769102573395,0.12435413897037506
1,2,64,16,0.5209834575653076,0.19692504405975342
1,2,64,17,0.6565291881561279,0.17375096678733826
1,2,64,18,0.6275570392608643,0.14737802743911743
1,2,64,19,0.49124932289123535,0.24122048914432526
1,2,64,20,0.4578248858451843,0.1124480813741684
1,2,64,21,0.50284743309021,0.18906733393669128
1,2,64,22,0.3857325315475464,0.14706449210643768
1,2,64,23,0.7123336791992188,0.09619758278131485
1,2,64,24,0.5808023810386658,0.1638953983783722
1,2,64,25,0.445218026638031,0.14600878953933716
1,2,64,26,0.47746580839157104,0.07048317790031433
1,2,64,27,0.41156333684921265,0.13227279484272003
1,2,64,28,0.3304070830345154,0.09954986721277237
1,2,64,29,0.6248478293418884,0.10525231063365936
1,2,64,30,0.5947988033294678,0.20828184485435486
1,2,64,31,0.5871520638465881,0.24365860223770142
1,2,64,32,0.7172617316246033,0.18910913169384003
1,2,64,33,0.45570603013038635,0.2824377119541168
1,2,64,34,0.41440996527671814,0.2465188354253769
1,2,64,35,0.518593430519104,0.12686195969581604
1,2,64,36,0.21704138815402985,0.08836592733860016
1,2,64,37,0.5896639823913574,0.2582956850528717
1,2,64,38,0.5727785229682922,0.2505433261394501
1,2,64,39,0.494856059551239,0.17443232238292694
1,2,64,40,0.5490863919258118,0.26959654688835144
1,2,64,41,0.6035475730895996,0.11169229447841644
1,2,64,42,0.493829607963562,0.2136470526456833
1,2,64,43,0.395991712808609,0.23254278302192688
1,2,64,44,0.6669771671295166,0.1506960541009903
1,2,64,45,0.4471505284309387,0.22742056846618652
1,2,64,46,0.569454550743103,0.0799194723367691
1,2,64,47,0.4838292598724365,0.10008864849805832
1,2,64,48,0.5341582894325256,0.1722661256790161
1,2,64,49,0.442435622215271,0.0758872702717781
1,2,64,50,0.465975821018219,0.07135103642940521
1,2,64,51,0.7100976705551147,0.1732499599456787
1,2,64,52,0.4093415141105652,0.17698192596435547
1,2,64,53,0.44796279072761536,0.07814452797174454
1,2,64,54,0.5196718573570251,0.27942562103271484
1,2,64,55,0.5744293928146362,0.14983972907066345
1,2,64,56,0.6192802786827087,0.09801676869392395
1,2,64,57,0.35171452164649963,0.12356676161289215
1,2,64,58,0.505016565322876,0.25230246782302856
1,2,64,59,0.5303704738616943,0.29687583446502686
1,2,64,60,0.4545446038246155,0.22361676394939423
1,2,64,61,0.44045355916023254,0.20413658022880554
1,2,64,62,0.4370288848876953,0.24168021976947784
1,2,64,63,0.5492244958877563,0.30157747864723206
1,3,64,0,0.5295796990394592,0.06584431976079941
1,3,64,1,0.5351613759994507,0.06692234426736832
1,3,64,2,0.5311554670333862,0.06664217263460159
1,3,64,3,0.4379786252975464,0.08598119020462036
1,3,64,4,0.517047107219696,0.06328262388706207
1,3,64,5,0.49729862809181213,0.06296758353710175
1,3,64,6,0.45929911732673645,0.10065947473049164
1,3,64,7,0.521323025226593,0.051609233021736145
1,3,64,8,0.3831685781478882,0.06121279299259186
1,3,64,9,0.5554916262626648,0.09437543898820877
1,3,64,10,0.3986642062664032,0.08179708570241928
1,3,64,11,0.6247639656066895,0.04722801595926285
1,3,64,12,0.49450817704200745,0.0778803750872612
1,3,64,13,0.42868727445602417,0.0725516825914383
1,3,64,14,0.42138636112213135,0.057577114552259445
1,3,64,15,0.5881569981575012,0.09437264502048492
1,3,64,16,0.488463819026947,0.055945463478565216
1,3,64,17,0.49375826120376587,0.08180562406778336
1,3,64,18,0.5567156076431274,0.08832742273807526
1,3,64,19,0.5310535430908203,0.07886994630098343
1,3,64,20,0.41983550786972046,0.0909813791513443
1,3,64,21,0.41546931862831116,0.06888918578624725
1,3,64,22,0.5767405033111572,0.06807242333889008
1,3,64,23,0.48286184668540955,0.07157135754823685
1,3,64,24,0.4748282730579376,0.057656947523355484
1,3,64,25,0.48689115047454834,0.09313513338565826
1,3,64,26,0.4992557764053345,0.05150650441646576
1,3,64,27,0.5863379240036011,0.05812723562121391
1,3,64,28,0.5515408515930176,0.1524658203125
1,3,64,29,0.49407458305358887,0.0655483528971672
1,3,64,30,0.528567373752594,0.04931268468499184
1,3,64,31,0.4425971508026123,0.06225743144750595
1,3,64,32,0.5454360842704773,0.06086191534996033
1,3,64,33,0.48297202587127686,0.09772025048732758
1,3,64,34,0.5701578855514526,0.04922778904438019
1,3,64,35,0.5528805255889893,0.0789690911769867
1,3,64,36,0.39991602301597595,0.07600298523902893
1,3,64,37,0.46449336409568787,0.1138981506228447
1,3,64,38,0.3959149718284607,0.0977066233754158
1,3,64,39,0.47684794664382935,0.09834758937358856
1,3,64,40,0.5304031372070312,0.11948397755622864
1,3,64,41,0.5271195769309998,0.06346043199300766
1,3,64,42,0.4417226016521454,0.0909973755478859
1,3,64,43,0.39969128370285034,0.061597924679517746
1,3,64,44,0.476533979177475,0.15836113691329956
1,3,64,45,0.4708939790725708,0.04277236759662628
1,3,64,46,0.5121844410896301,0.056419823318719864
1,3,64,47,0.4685877561569214,0.0740174725651741
1,3,64,48,0.5115236043930054,0.07008235156536102
1,3,64,49,0.5025642514228821,0.031870074570178986
1,3,64,50,0.45880192518234253,0.036821700632572174
1,3,64,51,0.3731768727302551,0.10196971893310547
1,3,64,52,0.43204760551452637,0.03797103092074394
1,3,64,53,0.41886821389198303,0.05940016359090805
1,3,64,54,0.5093168020248413,0.11589181423187256
1,3,64,55,0.3955809772014618,0.07948048412799835
1,3,64,56,0.4701453149318695,0.051578205078840256
1,3,64,57,0.4281363785266876,0.057740237563848495
1,3,64,58,0.422477126121521,0.04763929173350334
1,3,64,59,0.5687330961227417,0.1100076287984848
1,3,64,60,0.5641021132469177,0.08035103976726532
1,3,64,61,0.5316823124885559,0.05740152299404144
1,3,64,62,0.41737502813339233,0.08193205296993256
1,3,64,63,0.4458562135696411,0.09773708879947662
1,4,128,0,0.4024256467819214,0.09639263153076172
1,4,128,1,0.44328007102012634,0.05040822923183441
1,4,128,2,0.4457312226295471,0.05716252699494362
1,4,128,3,0.5511394739151001,0.19833815097808838
1,4,128,4,0.5957080721855164,0.07595093548297882
1,4,128,5,0.48144620656967163,0.08633393049240112
1,4,128,6,0.6119138598442078,0.07767787575721741
1,4,128,7,0.34181201457977295,0.10488522797822952
1,4,128,8,0.37372851371765137,0.08614521473646164
1,4,128,9,0.5325849652290344,0.11819956451654434
1,4,128,10,0.5475010275840759,0.1640835702419281
1,4,128,11,0.3956782817840576,0.07043857872486115
1,4,128,12,0.5997195839881897,0.09546039253473282
1,4,128,13,0.715738832950592,0.10968125611543655
1,4,128,14,0.5532940626144409,0.08324240893125534
1,4,128,15,0.5690121054649353,0.17780590057373047
1,4,128,16,0.6144891977310181,0.06576374918222427
1,4,128,17,0.49829861521720886,0.21389243006706238
1,4,128,18,0.5182482004165649,0.10812439024448395
1,4,128,19,0.4816799461841583,0.0825042575597763
1,4,128,20,0.5316471457481384,0.24586795270442963
1,4,128,21,0.40528446435928345,0.2954268157482147
1,4,128,22,0.7028733491897583,0.14521676301956177
1,4,128,23,0.5425111651420593,0.2357310652732849
1,4,128,24,0.5574955344200134,0.11370308697223663
1,4,128,25,0.2919865548610687,0.20607663691043854
1,4,128,26,0.45859259366989136,0.17866136133670807
1,4,128,27,0.5812214016914368,0.25187215209007263
1,4,128,28,0.5211790204048157,0.2634349763393402
1,4,128,29,0.6522892117500305,0.0905439630150795
1,4,128,30,0.5246832370758057,0.13382317125797272
1,4,128,31,0.6192324161529541,0.20838510990142822
1,4,128,32,0.7205212712287903,0.10078159719705582
1,4,128,33,0.5591834783554077,0.08366940170526505
1,4,128,34,0.6441311836242676,0.16917107999324799
1,4,128,35,0.5825954079627991,0.20582647621631622
1,4,128,36,0.4309098720550537,0.14679285883903503
1,4,128,37,0.4127640128135681,0.22251245379447937
1,4,128,38,0.7053418159484863,0.11006516218185425
1,4,128,39,0.47065114974975586,0.11451524496078491
1,4,128,40,0.6649642586708069,0.17595131695270538
1,4,128,41,0.6571373343467712,0.10417761653661728
1,4,128,42,0.5226050615310669,0.044096074998378754
1,4,128,43,0.4477824866771698,0.13309863209724426
1,4,128,44,0.75656658411026,0.10001029819250107
1,4,128,45,0.4316180348396301,0.2847687602043152
1,4,128,46,0.5569549202919006,0.06190711632370949
1,4,128,47,0.6231455206871033,0.284016489982605
1,4,128,48,0.5143139958381653,0.057853616774082184
1,4,128,49,0.7268364429473877,0.14932753145694733
1,4,128,50,0.48424139618873596,0.11585195362567902
1,4,128,51,0.4753775894641876,0.237455815076828
1,4,128,52,0.5485161542892456,0.23284903168678284
1,4,128,53,0.5826001763343811,0.15860790014266968
1,4,128,54,0.6213844418525696,0.19267943501472473
1,4,128,55,0.6732848882675171,0.05408460274338722
1,4,128,56,0.55577152967453,0.10765708982944489
1,4,128,57,0.5929008722305298,0.1834479421377182
1,4,128,58,0.5200963020324707,0.07135899364948273
1,4,128,59,0.3850627839565277,0.16540250182151794
1,4,128,60,0.6081913113594055,0.07753440737724304
1,4,128,61,0.4890003502368927,0.27793407440185547
1,4,128,62,0.6818745732307434,0.1063428670167923
1,4,128,63,0.5654945969581604,0.1272849440574646
1,4,128,64,0.6439977288246155,0.20537829399108887
1,4,128,65,0.6488941311836243,0.07799499481916428
1,4,128,66,0.6278207302093506,0.14594124257564545
1,4,128,67,0.7178857922554016,0.12244896590709686
1,4,128,68,0.469133585691452,0.15276458859443665
1,4,128,69,0.52751225233078,0.14612527191638947
1,4,128,70,0.685248076915741,0.2253940850496292
1,4,128,71,0.4513857662677765,0.35605189204216003
1,4,128,72,0.42429840564727783,0.06022294983267784
1,4,128,73,0.6158507466316223,0.22105172276496887
1,4,128,74,0.5585750341415405,0.13813629746437073
1,4,128,75,0.40238502621650696,0.1256645768880844
1,4,128,76,0.5927978754043579,0.061041589826345444
1,4,128,77,0.5880870223045349,0.1132095530629158
1,4,128,78,0.4073590338230133,0.12409711629152298
1,4,128,79,0.5257206559181213,0.11875919252634048
1,4,128,80,0.6189022064208984,0.18234005570411682
1,4,128,81,0.6145936250686646,0.19430765509605408
1,4,128,82,0.5569748282432556,0.1800197958946228
1,4,128,83,0.33645138144493103,0.143590047955513
1,4,128,84,0.5521126389503479,0.1610943228006363
1,4,128,85,0.5342599749565125,0.07332827895879745
1,4,128,86,0.545028030872345,0.18881583213806152
1,4,128,87,0.46342137455940247,0.09237100929021835
1,4,128,88,0.6037164330482483,0.2135591357946396
1,4,128,89,0.5750616788864136,0.05272222310304642
1,4,128,90,0.5179772973060608,0.11376433819532394
1,4,128,91,0.6818467378616333,0.12967327237129211
1,4,128,92,0.5114163756370544,0.20754434168338776
1,4,128,93,0.5615575909614563,0.2112436443567276
1,4,128,94,0.6732548475265503,0.06662088632583618
1,4,128,95,0.5316903591156006,0.15333272516727448
1,4,128,96,0.5013096332550049,0.1493033915758133
1,4,128,97,0.5790481567382812,0.22624586522579193
1,4,128,98,0.595665693283081,0.09778900444507599
1,4,128,99,0.4647476077079773,0.21124106645584106
1,4,128,100,0.6488699316978455,0.13435745239257812
1,4,128,101,0.5026291012763977,0.2003161907196045
1,4,128,102,0.41182154417037964,0.09747262299060822
1,4,128,103,0.5793579816818237,0.07591800391674042
1,4,128,104,0.4924355447292328,0.11909816414117813
1,4,128,105,0.742202877998352,0.11486388742923737
1,4,128,106,0.49884510040283203,0.24617020785808563
1,4,128,107,0.6110567450523376,0.2814302444458008
1,4,128,108,0.48948031663894653,0.3361353874206543
1,4,128,109,0.6195261478424072,0.2113550752401352
1,4,128,110,0.432433545589447,0.06878150999546051
1,4,128,111,0.6542901992797852,0.12101849168539047
1,4,128,112,0.3643491268157959,0.21502754092216492
1,4,128,113,0.5419905781745911,0.2016812562942505
1,4,128,114,0.7538716793060303,0.10685542970895767
1,4,128,115,0.667973518371582,0.2078317254781723
1,4,128,116,0.40679749846458435,0.13288070261478424
1,4,128,117,0.40984266996383667,0.09681274741888046
1,4,128,118,0.4523302912712097,0.05648175626993179
1,4,128,119,0.4592839777469635,0.09022489190101624
1,4,128,120,0.5311020016670227,0.3108499348163605
1,4,128,121,0.6253437399864197,0.06339642405509949
1,4,128,122,0.701457142829895,0.1462097465991974
1,4,128,123,0.40755996108055115,0.2220131903886795
1,4,128,124,0.40099090337753296,0.0825287401676178
1,4,128,125,0.5469046235084534,0.25463199615478516
1,4,128,126,0.7400931715965271,0.10516464710235596
1,4,128,127,0.5798311829566956,0.14820058643817902
1,5,128,0,0.6328669190406799,0.22238938510417938
1,5,128,1,0.6010069847106934,0.03604331240057945
1,5,128,2,0.5789768695831299,0.09660683572292328
1,5,128,3,0.5164668560028076,0.04128300026059151
1,5,128,4,0.6906464695930481,0.18268133699893951
1,5,128,5,0.5059776306152344,0.019098101183772087
1,5,128,6,0.5061080455780029,0.23425883054733276
1,5,128,7,0.3498894274234772,0.0690319612622261
1,5,128,8,0.4105614125728607,0.12117141485214233
1,5,128,9,0.7393215298652649,0.086782306432724
1,5,128,10,0.4452087879180908,0.06866893172264099
1,5,128,11,0.6173446178436279,0.05747431889176369
1,5,128,12,0.34095048904418945,0.13185285031795502
1,5,128,13,0.7019991278648376,0.15776406228542328
1,5,128,14,0.6383692026138306,0.11327938735485077
1,5,128,15,0.5868982672691345,0.0946836918592453
1,5,128,16,0.5013614296913147,0.2502429485321045
1,5,128,17,0.6501640677452087,0.07806997746229172
1,5,128,18,0.671758234500885,0.22071604430675507
1,5,128,19,0.6802114248275757,0.08337096124887466
1,5,128,20,0.39920756220817566,0.0931597501039505
1,5,128,21,0.5479368567466736,0.04087795689702034
1,5,128,22,0.5074399709701538,0.23359844088554382
1,5,128,23,0.43493351340293884,0.13914057612419128
1,5,128,24,0.716147243976593,0.11508766561746597
1,5,128,25,0.634168267250061,0.19377848505973816
1,5,128,26,0.46483486890792847,0.08248638361692429
1,5,128,27,0.5541127324104309,0.2424643188714981
1,5,128,28,0.7450082898139954,0.11784747987985611
1,5,128,29,0.6236545443534851,0.1633392870426178
1,5,128,30,0.5411269068717957,0.07011913508176804
1,5,128,31,0.6550281643867493,0.22092871367931366
1,5,128,32,0.5752341151237488,0.21274518966674805
1,5,128,33,0.351382851600647,0.11126452684402466
1,5,128,34,0.5478113293647766,0.27144965529441833
1,5,128,35,0.6786235570907593,0.1223982498049736
1,5,128,36,0.5597090125083923,0.12251510471105576
1,5,128,37,0.5003392696380615,0.24238520860671997
1,5,128,38,0.5392648577690125,0.06683394312858582
1,5,128,39,0.6433106064796448,0.1518847644329071
1,5,128,40,0.5436235666275024,0.12960059940814972
1,5,128,41,0.5509899258613586,0.07419820874929428
1,5,128,42,0.7988954186439514,0.12226276844739914
1,5,128,43,0.6140874624252319,0.07788033038377762
1,5,128,44,0.6209986209869385,0.06275956332683563
1,5,128,45,0.4139128625392914,0.08254952728748322
1,5,128,46,0.5287596583366394,0.1040358915925026
1,5,128,47,0.7010220289230347,0.08180513232946396
1,5,128,48,0.4550667703151703,0.057405173778533936
1,5,128,49,0.4981061518192291,0.05929948017001152
1,5,128,50,0.46774518489837646,0.12442545592784882
1,5,128,51,0.5965846180915833,0.04404943436384201
1,5,128,52,0.45469677448272705,0.09617538005113602
1,5,128,53,0.5394083857536316,0.14263705909252167
1,5,128,54,0.6506693363189697,0.1721687614917755
1,5,128,55,0.7671120166778564,0.11743336915969849
1,5,128,56,0.5555991530418396,0.17315874993801117
1,5,128,57,0.4512461721897125,0.08704948425292969
1,5,128,58,0.6662459373474121,0.14616870880126953
1,5,128,59,0.49943453073501587,0.23518741130828857
1,5,128,60,0.6219903230667114,0.24173814058303833
1,5,128,61,0.6289492249488831,0.06963157653808594
1,5,128,62,0.5364953875541687,0.11600454896688461
1,5,128,63,0.7147430181503296,0.1581762284040451
1,5,128,64,0.636907160282135,0.23690152168273926
1,5,128,65,0.6969785690307617,0.14920219779014587
1,5,128,66,0.7165842056274414,0.10948076844215393
1,5,128,67,0.6305530667304993,0.10896443575620651
1,5,128,68,0.576943576335907,0.10348642617464066
1,5,128,69,0.3670971393585205,0.07020507007837296
1,5,128,70,0.8096790909767151,0.10111890733242035
1,5,128,71,0.5682716965675354,0.05961214378476143
1,5,128,72,0.5242342948913574,0.15606461465358734
1,5,128,73,0.7512322068214417,0.10095497220754623
1,5,128,74,0.5889198184013367,0.11758307367563248
1,5,128,75,0.6251984238624573,0.08639834076166153
1,5,128,76,0.320840060710907,0.11622238159179688
1,5,128,77,0.5861800909042358,0.08807143568992615
1,5,128,78,0.49560967087745667,0.11588490009307861
1,5,128,79,0.44873034954071045,0.07529947906732559
1,5,128,80,0.6081855297088623,0.09991859644651413
1,5,128,81,0.7226836681365967,0.15216124057769775
1,5,128,82,0.6012822985649109,0.15492872893810272
1,5,128,83,0.7155210375785828,0.1013091430068016
1,5,128,84,0.7052954435348511,0.09383463114500046
1,5,128,85,0.6140405535697937,0.2645006477832794
1,5,128,86,0.5165947079658508,0.13222716748714447
1,5,128,87,0.6112839579582214,0.07672066986560822
1,5,128,88,0.7700234055519104,0.10594599694013596
1,5,128,89,0.5630782842636108,0.04842117801308632
1,5,128,90,0.4336743652820587,0.05898140370845795
1,5,128,91,0.7212206125259399,0.1017533540725708
1,5,128,92,0.4017970860004425,0.06328670680522919
1,5,128,93,0.6294155120849609,0.20481060445308685
1,5,128,94,0.6720926761627197,0.16840584576129913
1,5,128,95,0.5336030125617981,0.060334909707307816
1,5,128,96,0.7310341596603394,0.07874562591314316
1,5,128,97,0.5383408665657043,0.09896352887153625
1,5,128,98,0.5260487198829651,0.09946753084659576
1,5,128,99,0.28336766362190247,0.10390429943799973
1,5,128,100,0.6062812805175781,0.14406818151474
1,5,128,101,0.5488113760948181,0.09876677393913269
1,5,128,102,0.6152142286300659,0.06527985632419586
1,5,128,103,0.542334794998169,0.1272777020931244
1,5,128,104,0.6783772110939026,0.10475528240203857
1,5,128,105,0.7769857048988342,0.10447896271944046
1,5,128,106,0.6761490702629089,0.15038423240184784
1,5,128,107,0.7636855244636536,0.1028292253613472
1,5,128,108,0.38298529386520386,0.1433970332145691
1,5,128,109,0.6514396071434021,0.21823839843273163
1,5,128,110,0.5146996378898621,0.12915165722370148
1,5,128,111,0.7211952209472656,0.10002444684505463
1,5,128,112,0.28928640484809875,0.10538461804389954
1,5,128,113,0.6724319458007812,0.0930524691939354
1,5,128,114,0.6332355737686157,0.2827669084072113
1,5,128,115,0.48897281289100647,0.07382155954837799
1,5,128,116,0.5512745380401611,0.20374219119548798
1,5,128,117,0.5469151735305786,0.14691975712776184
1,5,128,118,0.5570958852767944,0.09739997982978821
1,5,128,119,0.4193025529384613,0.06146175041794777
1,5,128,120,0.6833073496818542,0.12394446134567261
1,5,128,121,0.6147487759590149,0.21110834181308746
1,5,128,122,0.5715031027793884,0.2185845524072647
1,5,128,123,0.5052492618560791,0.09184405952692032
1,5,128,124,0.6239105463027954,0.2125895470380783
1,5,128,125,0.6613022089004517,0.11042553931474686
1,5,128,126,0.667669951915741,0.10576249659061432
1,5,128,127,0.674670398235321,0.14180099964141846
2,0,32,0,0.5753922462463379,0.05286932736635208
2,0,32,1,0.4237842261791229,0.04284529387950897
2,0,32,2,0.3794851303100586,0.041009750217199326
2,0,32,3,0.5255095362663269,0.05594964325428009
2,0,32,4,0.47619348764419556,0.06701976805925369
2,0,32,5,0.5002532601356506,0.11043915897607803
2,0,32,6,0.35094261169433594,0.03281933441758156
2,0,32,7,0.4964887201786041,0.056891631335020065
2,0,32,8,0.4493497908115387,0.0998757928609848
2,0,32,9,0.366109699010849,0.10238849371671677
2,0,32,10,0.4387684464454651,0.07721006870269775
2,0,32,11,0.35422483086586,0.08246944099664688
2,0,32,12,0.5310215353965759,0.1333218663930893
2,0,32,13,0.48482125997543335,0.10174114257097244
2,0,32,14,0.3844146132469177,0.10451391339302063
2,0,32,15,0.5001533627510071,0.1121915802359581
2,0,32,16,0.5137317776679993,0.06121707707643509
2,0,32,17,0.3881224989891052,0.05013783276081085
2,0,32,18,0.7457934617996216,0.06650716811418533
2,0,32,19,0.48151689767837524,0.1147063598036766
2,0,32,20,0.6469806432723999,0.07228249311447144
2,0,32,21,0.5130892395973206,0.032787322998046875
2,0,32,22,0.4024406969547272,0.04879762604832649
2,0,32,23,0.40205255150794983,0.062396567314863205
2,0,32,24,0.4873841404914856,0.09391095489263535
2,0,32,25,0.3859873116016388,0.046216096729040146
2,0,32,26,0.49623793363571167,0.10773415863513947
2,0,32,27,0.5799056887626648,0.057805873453617096
2,0,32,28,0.5156543850898743,0.05860016494989395
2,0,32,29,0.4581250548362732,0.0915711373090744
2,0,32,30,0.43225333094596863,0.048324164003133774
2,0,32,31,0.4819934368133545,0.021572887897491455
2,1,32,0,0.6382752656936646,0.021318163722753525
2,1,32,1,0.34291985630989075,0.09295942634344101
2,1,32,2,0.3677225112915039,0.04311187192797661
2,1,32,3,0.45962196588516235,0.011872486211359501
2,1,32,4,0.4815589189529419,0.0147540969774127
2,1,32,5,0.6859334707260132,0.04625580087304115
2,1,32,6,0.4522120952606201,0.049350667744874954
2,1,32,7,0.46328258514404297,0.03151976689696312
2,1,32,8,0.49318060278892517,0.06232522428035736
2,1,32,9,0.4497041702270508,0.016345417127013206
2,1,32,10,0.3258270025253296,0.04741296172142029
2,1,32,11,0.5612699389457703,0.010331148281693459
2,1,32,12,0.6401392817497253,0.03734731301665306
2,1,32,13,0.5235464572906494,0.04598368704319
2,1,32,14,0.5776515007019043,0.09452711045742035
2,1,32,15,0.5877090096473694,0.05331456661224365
2,1,32,16,0.3958018720149994,0.022845007479190826
2,1,32,17,0.5957324504852295,0.01801527850329876
2,1,32,18,0.3327277898788452,0.03000824525952339
2,1,32,19,0.48302364349365234,0.046887993812561035
2,1,32,20,0.44751450419425964,0.019987421110272408
2,1,32,21,0.3935311734676361,0.014974622055888176
2,1,32,22,0.43422815203666687,0.02904593013226986
2,1,32,23,0.5093002319335938,0.035051845014095306
2,1,32,24,0.4017440974712372,0.04525594785809517
2,1,32,25,0.4972880482673645,0.04638261720538139
2,1,32,26,0.4988555908203125,0.058309875428676605
2,1,32,27,0.5544918775558472,0.012963920831680298
2,1,32,28,0.4759373664855957,0.03600187972187996
2,1,32,29,0.32603415846824646,0.0382111482322216
2,1,32,30,0.5919755697250366,0.02068980410695076
2,1,32,31,0.532105565071106,0.04836507886648178
2,2,64,0,0.44812247157096863,0.0653034895658493
2,2,64,1,0.5525209903717041,0.10543157160282135
2,2,64,2,0.5131832361221313,0.09408511221408844
2,2,64,3,0.4851803779602051,0.09221641719341278
2,2,64,4,0.5348026156425476,0.10520221292972565
2,2,64,5,0.45181968808174133,0.14749303460121155
2,2,64,6,0.37888655066490173,0.12689435482025146
2,2,64,7,0.37780922651290894,0.10513217747211456
2,2,64,8,0.45926433801651,0.07742470502853394
2,2,64,9,0.5964619517326355,0.07376699149608612
2,2,64,10,0.5536649823188782,0.10029827803373337
2,2,64,11,0.5142909288406372,0.11822288483381271
2,2,64,12,0.44599607586860657,0.08541209995746613
2,2,64,13,0.4917147755622864,0.12833432853221893
2,2,64,14,0.6286667585372925,0.11686538904905319
2,2,64,15,0.5567980408668518,0.09707099199295044
2,2,64,16,0.5202321410179138,0.08448854833841324
2,2,64,17,0.5039868950843811,0.1319851577281952
2,2,64,18,0.42816847562789917,0.12876395881175995
2,2,64,19,0.5155851244926453,0.1341482251882553
2,2,64,20,0.4562731981277466,0.07555810362100601
2,2,64,21,0.5392206311225891,0.11814231425523758
2,2,64,22,0.42356276512145996,0.09155186265707016
2,2,64,23,0.5100785493850708,0.05880080163478851
2,2,64,24,0.4903489947319031,0.0620301254093647
2,2,64,25,0.5410239100456238,0.06616076081991196
2,2,64,26,0.5819916129112244,0.07104701548814774
2,2,64,27,0.4472714960575104,0.07780492305755615
2,2,64,28,0.4756321310997009,0.14655175805091858
2,2,64,29,0.503266453742981,0.07355175167322159
2,2,64,30,0.5229247212409973,0.12752601504325867
2,2,64,31,0.517400860786438,0.08718551695346832
2,2,64,32,0.43881794810295105,0.059775665402412415
2,2,64,33,0.49093765020370483,0.12484234571456909
2,2,64,34,0.5002779364585876,0.10099435597658157
2,2,64,35,0.4837031066417694,0.09232570976018906
2,2,64,36,0.4520506262779236,0.06583081185817719
2,2,64,37,0.40484029054641724,0.06776289641857147
2,2,64,38,0.48998141288757324,0.10099907219409943
2,2,64,39,0.4434848725795746,0.12474968284368515
2,2,64,40,0.3731140196323395,0.08508911728858948
2,2,64,41,0.4692847728729248,0.0792536661028862
2,2,64,42,0.5329845547676086,0.11722538620233536
2,2,64,43,0.4998750686645508,0.09906959533691406
2,2,64,44,0.4454936683177948,0.0897979587316513
2,2,64,45,0.44890278577804565,0.10780961066484451
2,2,64,46,0.4419032335281372,0.08833316713571548
2,2,64,47,0.4683244526386261,0.15449529886245728
2,2,64,48,0.3847861588001251,0.06328212469816208
2,2,64,49,0.4051893651485443,0.1154116839170456
2,2,64,50,0.45356467366218567,0.12281562387943268
2,2,64,51,0.4780982434749603,0.08621276915073395
2,2,64,52,0.4924704432487488,0.1140206903219223
2,2,64,53,0.4112209975719452,0.050610143691301346
2,2,64,54,0.5018207430839539,0.08439042419195175
2,2,64,55,0.5447662472724915,0.09218337386846542
2,2,64,56,0.3754183351993561,0.08266833424568176
2,2,64,57,0.37063461542129517,0.09794747084379196
2,2,64,58,0.49567148089408875,0.07901772111654282
2,2,64,59,0.48243626952171326,0.10205710679292679
2,2,64,60,0.47472551465034485,0.16754817962646484
2,2,64,61,0.5123282670974731,0.10008836537599564
2,2,64,62,0.45381665229797363,0.10214333236217499
2,2,64,63,0.39975616335868835,0.08883561939001083
2,3,64,0,0.38954392075538635,0.09592415392398834
2,3,64,1,0.4630269706249237,0.06680737435817719
2,3,64,2,0.5038522481918335,0.11060097068548203
2,3,64,3,0.45032578706741333,0.2283790558576584
2,3,64,4,0.43931642174720764,0.21747678518295288
2,3,64,5,0.45071151852607727,0.21747221052646637
2,3,64,6,0.5210777521133423,0.20116502046585083
2,3,64,7,0.6068548560142517,0.16465984284877777
2,3,64,8,0.5130276679992676,0.1611863225698471
2,3,64,9,0.5324689149856567,0.12370698899030685
2,3,64,10,0.3537544310092926,0.09053478389978409
2,3,64,11,0.29066377878189087,0.13044720888137817
2,3,64,12,0.5086696743965149,0.2034522294998169
2,3,64,13,0.4406103789806366,0.0979844406247139
2,3,64,14,0.5881536602973938,0.254885196685791
2,3,64,15,0.5605832934379578,0.10249476879835129
2,3,64,16,0.6872338652610779,0.10082615911960602
2,3,64,17,0.5216420888900757,0.16825196146965027
2,3,64,18,0.5123633742332458,0.16983409225940704
2,3,64,19,0.3929482102394104,0.17713266611099243
2,3,64,20,0.5057224035263062,0.14094631373882294
2,3,64,21,0.4828532338142395,0.13308854401111603
2,3,64,22,0.46071916818618774,0.23474887013435364
2,3,64,23,0.49228695034980774,0.05886438116431236
2,3,64,24,0.506974458694458,0.19729338586330414
2,3,64,25,0.5489925146102905,0.10252346843481064
2,3,64,26,0.6541928052902222,0.20368656516075134
2,3,64,27,0.6617828607559204,0.09018727391958237
2,3,64,28,0.630422830581665,0.1376873105764389
2,3,64,29,0.4351779818534851,0.11079613864421844
2,3,64,30,0.4266454577445984,0.053123462945222855
2,3,64,31,0.5188845992088318,0.12361788004636765
2,3,64,32,0.46611878275871277,0.22920650243759155
2,3,64,33,0.6454203128814697,0.1398656815290451
2,3,64,34,0.4489363133907318,0.0652068629860878
2,3,64,35,0.4550592601299286,0.0626521110534668
2,3,64,36,0.3533659875392914,0.05133979767560959
2,3,64,37,0.5656099319458008,0.12124045193195343
2,3,64,38,0.38602444529533386,0.10241927951574326
2,3,64,39,0.4194081127643585,0.0739988312125206
2,3,64,40,0.31587594747543335,0.18791653215885162
2,3,64,41,0.3953908085823059,0.11879262328147888
2,3,64,42,0.4208107590675354,0.1482524573802948
2,3,64,43,0.3818590044975281,0.11388790607452393
2,3,64,44,0.46844595670700073,0.05302741378545761
2,3,64,45,0.35553178191185,0.16094183921813965
2,3,64,46,0.5060973167419434,0.20040073990821838
2,3,64,47,0.44455504417419434,0.08624710142612457
2,3,64,48,0.5638773441314697,0.07260069251060486
2,3,64,49,0.4840150475502014,0.189834326505661
2,3,64,50,0.6159431338310242,0.07579697668552399
2,3,64,51,0.4850303828716278,0.29141899943351746
2,3,64,52,0.396297425031662,0.08463104814291
2,3,64,53,0.6627089977264404,0.07590480148792267
2,3,64,54,0.465008407831192,0.2839396595954895
2,3,64,55,0.5468011498451233,0.14511263370513916
2,3,64,56,0.6064068078994751,0.15785625576972961
2,3,64,57,0.32729050517082214,0.14043359458446503
2,3,64,58,0.42420271039009094,0.11401538550853729
2,3,64,59,0.7053676247596741,0.09385255724191666
2,3,64,60,0.5227323174476624,0.0245369803160429
2,3,64,61,0.4368945062160492,0.13915063440799713
2,3,64,62,0.25987130403518677,0.08851557224988937
2,3,64,63,0.6062266230583191,0.0940629318356514
2,4,128,0,0.6259377002716064,0.12097058445215225
2,4,128,1,0.600172758102417,0.19242793321609497
2,4,128,2,0.7316665649414062,0.11710111796855927
2,4,128,3,0.4950287938117981,0.056456711143255234
2,4,128,4,0.5963277816772461,0.05213667079806328
2,4,128,5,0.4508737325668335,0.05925428867340088
2,4,128,6,0.3732350766658783,0.09682787209749222
2,4,128,7,0.6042463779449463,0.101830393075943
2,4,128,8,0.3110840320587158,0.10104840248823166
2,4,128,9,0.5133621096611023,0.10636866837739944
2,4,128,10,0.46945592761039734,0.10082320868968964
2,4,128,11,0.5533501505851746,0.1963498890399933
2,4,128,12,0.7032149434089661,0.13478831946849823
2,4,128,13,0.6346244812011719,0.10156948864459991
2,4,128,14,0.26493075489997864,0.1649618148803711
2,4,128,15,0.6720896363258362,0.1823369264602661
2,4,128,16,0.40979427099227905,0.15636204183101654
2,4,128,17,0.5032992362976074,0.10802209377288818
2,4,128,18,0.45000559091567993,0.1017075777053833
2,4,128,19,0.5083292126655579,0.08947169035673141
2,4,128,20,0.4394588768482208,0.059545569121837616
2,4,128,21,0.39285606145858765,0.11893574893474579
2,4,128,22,0.7459423542022705,0.1614469438791275
2,4,128,23,0.5672338008880615,0.15023547410964966
2,4,128,24,0.5975127816200256,0.05788614973425865
2,4,128,25,0.5638103485107422,0.17280010879039764
2,4,128,26,0.4481668770313263,0.03883080556988716
2,4,128,27,0.5282567739486694,0.05998101457953453
2,4,128,28,0.37515687942504883,0.11952591687440872
2,4,128,29,0.4066435992717743,0.0949765145778656
2,4,128,30,0.2639482319355011,0.18123392760753632
2,4,128,31,0.6253154873847961,0.10160611569881439
2,4,128,32,0.42115360498428345,0.08910868316888809
2,4,128,33,0.316317617893219,0.1371256709098816
2,4,128,34,0.2588423192501068,0.12845027446746826
2,4,128,35,0.7252240180969238,0.1645672470331192
2,4,128,36,0.4963185787200928,0.0697186142206192
2,4,128,37,0.4759175777435303,0.11842427402734756
2,4,128,38,0.6159821152687073,0.22029079496860504
2,4,128,39,0.6086754202842712,0.20306268334388733
2,4,128,40,0.7236336469650269,0.20274311304092407
2,4,128,41,0.5748680233955383,0.04547037556767464
2,4,128,42,0.7338919043540955,0.1530086100101471
2,4,128,43,0.4408104121685028,0.06223590672016144
2,4,128,44,0.31835100054740906,0.09298895299434662
2,4,128,45,0.4222452938556671,0.11133048683404922
2,4,128,46,0.3142673671245575,0.21389226615428925
2,4,128,47,0.7134511470794678,0.19369639456272125
2,4,128,48,0.5326390266418457,0.10347481071949005
2,4,128,49,0.6975193023681641,0.1538301259279251
2,4,128,50,0.5469242930412292,0.11498632282018661
2,4,128,51,0.7340283393859863,0.1757640391588211
2,4,128,52,0.592999279499054,0.15082022547721863
2,4,128,53,0.7155013084411621,0.23229524493217468
2,4,128,54,0.6560744047164917,0.14837341010570526
2,4,128,55,0.6494399309158325,0.19809040427207947
2,4,128,56,0.7358115315437317,0.20164544880390167
2,4,128,57,0.5089001655578613,0.05261056870222092
2,4,128,58,0.509793221950531,0.06616821885108948
2,4,128,59,0.6503234505653381,0.22321605682373047
2,4,128,60,0.7867153286933899,0.14086955785751343
2,4,128,61,0.63068026304245,0.11752820014953613
2,4,128,62,0.7515484690666199,0.1473238170146942
2,4,128,63,0.5978222489356995,0.1265157163143158
2,4,128,64,0.43813562393188477,0.09559367597103119
2,4,128,65,0.5550810694694519,0.036315497010946274
2,4,128,66,0.6371143460273743,0.19649769365787506
2,4,128,67,0.5220317840576172,0.09639528393745422
2,4,128,68,0.7240774631500244,0.1263829469680786
2,4,128,69,0.7603380680084229,0.1638556271791458
2,4,128,70,0.6579232811927795,0.2030690312385559
2,4,128,71,0.3788292109966278,0.06690813601016998
2,4,128,72,0.6112284064292908,0.12957949936389923
2,4,128,73,0.3608284890651703,0.07953748106956482
2,4,128,74,0.7495638728141785,0.17161835730075836
2,4,128,75,0.41644662618637085,0.08327712118625641
2,4,128,76,0.2816830277442932,0.12354040145874023
2,4,128,77,0.4316065311431885,0.1534987837076187
2,4,128,78,0.5257585048675537,0.0814402773976326
2,4,128,79,0.48702046275138855,0.05312943086028099
2,4,128,80,0.3850444555282593,0.0736866444349289
2,4,128,81,0.5269990563392639,0.14828179776668549
2,4,128,82,0.5101277828216553,0.08035565912723541
2,4,128,83,0.6463092565536499,0.08974603563547134
2,4,128,84,0.694377601146698,0.21334309875965118
2,4,128,85,0.2881719768047333,0.21270723640918732
2,4,128,86,0.45454084873199463,0.12402456253767014
2,4,128,87,0.6327622532844543,0.13955086469650269
2,4,128,88,0.30229413509368896,0.13686701655387878
2,4,128,89,0.6431164145469666,0.18459264934062958
2,4,128,90,0.6345452666282654,0.1066443994641304
2,4,128,91,0.2144915759563446,0.18055683374404907
2,4,128,92,0.7101946473121643,0.11062418669462204
2,4,128,93,0.6010921597480774,0.10288561135530472
2,4,128,94,0.4535672068595886,0.16912195086479187
2,4,128,95,0.40945813059806824,0.049363214522600174
2,4,128,96,0.5477398633956909,0.13635216653347015
2,4,128,97,0.41219955682754517,0.19645895063877106
2,4,128,98,0.551033616065979,0.060325633734464645
2,4,128,99,0.6781388521194458,0.13923461735248566
2,4,128,100,0.7097634673118591,0.1351146399974823
2,4,128,101,0.5697075128555298,0.16998445987701416
2,4,128,102,0.6125401258468628,0.20099389553070068
2,4,128,103,0.733240008354187,0.1566031277179718
2,4,128,104,0.6014958024024963,0.1966717541217804
2,4,128,105,0.7094966769218445,0.17486576735973358
2,4,128,106,0.7273722887039185,0.2219972163438797
2,4,128,107,0.569675087928772,0.13295970857143402
2,4,128,108,0.5296834111213684,0.1362244337797165
2,4,128,109,0.593760073184967,0.09011799097061157
2,4,128,110,0.65568608045578,0.18939566612243652
2,4,128,111,0.370887815952301,0.1503308117389679
2,4,128,112,0.324515163898468,0.17881393432617188
2,4,128,113,0.3215709626674652,0.13465768098831177
2,4,128,114,0.47868460416793823,0.07151666283607483
2,4,128,115,0.6635051965713501,0.1634284257888794
2,4,128,116,0.5756412148475647,0.09319329261779785
2,4,128,117,0.689232349395752,0.1730850785970688
2,4,128,118,0.7359930276870728,0.16187110543251038
2,4,128,119,0.2844584286212921,0.0921747088432312
2,4,128,120,0.6513496041297913,0.21635441482067108
2,4,128,121,0.3732515275478363,0.18998804688453674
2,4,128,122,0.6431827545166016,0.12748730182647705
2,4,128,123,0.6417765021324158,0.06134188547730446
2,4,128,124,0.49185845255851746,0.04645361751317978
2,4,128,125,0.6785939931869507,0.15945442020893097
2,4,128,126,0.5823131203651428,0.057830505073070526
2,4,128,127,0.5173026323318481,0.10240669548511505
2,5,128,0,0.35664984583854675,0.08960264921188354
2,5,128,1,0.6177712082862854,0.14767953753471375
2,5,128,2,0.7424420118331909,0.1364140659570694
2,5,128,3,0.3874460458755493,0.09803393483161926
2,5,128,4,0.3993704617023468,0.04109782725572586
2,5,128,5,0.34881046414375305,0.08975584805011749
2,5,128,6,0.3019132912158966,0.09328369796276093
2,5,128,7,0.6640674471855164,0.10802911967039108
2,5,128,8,0.6501438617706299,0.15427468717098236
2,5,128,9,0.6501641869544983,0.15769794583320618
2,5,128,10,0.6993972659111023,0.06494814157485962
2,5,128,11,0.6530359983444214,0.22999994456768036
2,5,128,12,0.7059957981109619,0.14963500201702118
2,5,128,13,0.7753881812095642,0.18487051129341125
2,5,128,14,0.7238184809684753,0.22948578000068665
2,5,128,15,0.32063713669776917,0.1930965632200241
2,5,128,16,0.3594570457935333,0.06334036588668823
2,5,128,17,0.4068927466869354,0.1081480085849762
2,5,128,18,0.6733599305152893,0.21602454781532288
2,5,128,19,0.7284203767776489,0.1965818703174591
2,5,128,20,0.4589753746986389,0.04089590162038803
2,5,128,21,0.5915168523788452,0.14328010380268097
2,5,128,22,0.38169747591018677,0.06123790144920349
2,5,128,23,0.7076624035835266,0.2576703429222107
2,5,128,24,0.7080807089805603,0.11961293965578079
2,5,128,25,0.6059456467628479,0.16283145546913147
2,5,128,26,0.43462827801704407,0.14712007343769073
2,5,128,27,0.46871355175971985,0.0662989541888237
2,5,128,28,0.42387211322784424,0.06428185105323792
2,5,128,29,0.39027392864227295,0.1904022991657257
2,5,128,30,0.5246661305427551,0.18510930240154266
2,5,128,31,0.7255949378013611,0.19609637558460236
2,5,128,32,0.760312020778656,0.2045794278383255
2,5,128,33,0.37902897596359253,0.10266385972499847
2,5,128,34,0.6404115557670593,0.23539070785045624
2,5,128,35,0.7616335153579712,0.23590382933616638
2,5,128,36,0.4770485460758209,0.029490338638424873
2,5,128,37,0.37149617075920105,0.13068942725658417
2,5,128,38,0.7592896223068237,0.17064858973026276
2,5,128,39,0.7035289406776428,0.1909836232662201
2,5,128,40,0.616576611995697,0.16607585549354553
2,5,128,41,0.6512047052383423,0.1371602565050125
2,5,128,42,0.7146629095077515,0.2021326869726181
2,5,128,43,0.5840336084365845,0.033633891493082047
2,5,128,44,0.6493019461631775,0.2647625505924225
2,5,128,45,0.3765665590763092,0.1462557315826416
2,5,128,46,0.6074206233024597,0.16475142538547516
2,5,128,47,0.731512725353241,0.22055253386497498
2,5,128,48,0.47717350721359253,0.049934402108192444
2,5,128,49,0.7366935014724731,0.22107605636119843
2,5,128,50,0.6176607608795166,0.24258233606815338
2,5,128,51,0.7079024314880371,0.197050079703331
2,5,128,52,0.683391809463501,0.20876149833202362
2,5,128,53,0.596605122089386,0.09684965014457703
2,5,128,54,0.7124099731445312,0.21421857178211212
2,5,128,55,0.6588214039802551,0.2011115550994873
2,5,128,56,0.5717706084251404,0.07390189915895462
2,5,128,57,0.6307024359703064,0.17322935163974762
2,5,128,58,0.6978495121002197,0.2747455835342407
2,5,128,59,0.6659947037696838,0.26670771837234497
2,5,128,60,0.7039889693260193,0.23425455391407013
2,5,128,61,0.7243780493736267,0.23938100039958954
2,5,128,62,0.7434191107749939,0.22524021565914154
2,5,128,63,0.6791768074035645,0.08471836894750595
2,5,128,64,0.5469819903373718,0.04783768951892853
2,5,128,65,0.5041406750679016,0.05528935790061951
2,5,128,66,0.689656674861908,0.19751571118831635
2,5,128,67,0.6908615827560425,0.21168936789035797
2,5,128,68,0.7049083709716797,0.17584580183029175
2,5,128,69,0.7907163500785828,0.16871561110019684
2,5,128,70,0.7065502405166626,0.23423485457897186
2,5,128,71,0.46144071221351624,0.01909753493964672
2,5,128,72,0.7350788116455078,0.18836894631385803
2,5,128,73,0.4114217460155487,0.1130441352725029
2,5,128,74,0.7141593098640442,0.2448817640542984
2,5,128,75,0.5694043040275574,0.046285104006528854
2,5,128,76,0.5900577902793884,0.1745682656764984
2,5,128,77,0.503204345703125,0.12157683074474335
2,5,128,78,0.2750243842601776,0.1211465373635292
2,5,128,79,0.4718531370162964,0.08778557181358337
2,5,128,80,0.518212080001831,0.17157328128814697
2,5,128,81,0.6610468626022339,0.2173582762479782
2,5,128,82,0.24107851088047028,0.16485466063022614
2,5,128,83,0.3182445466518402,0.06001440808176994
2,5,128,84,0.6988747119903564,0.2849736511707306
2,5,128,85,0.7132382392883301,0.21200957894325256
2,5,128,86,0.676842451095581,0.23803414404392242
2,5,128,87,0.7200351357460022,0.1995399445295334
2,5,128,88,0.5179109573364258,0.06910718977451324
2,5,128,89,0.7599759101867676,0.20057272911071777
2,5,128,90,0.6042389273643494,0.19586211442947388
2,5,128,91,0.632369339466095,0.11523184925317764
2,5,128,92,0.6590092778205872,0.10751591622829437
2,5,128,93,0.6701498031616211,0.0979568138718605
2,5,128,94,0.7946205735206604,0.16245299577713013
2,5,128,95,0.7317953705787659,0.17791838943958282
2,5,128,96,0.6301600337028503,0.13893046975135803
2,5,128,97,0.5389736294746399,0.13085201382637024
2,5,128,98,0.3228662610054016,0.06108398735523224
2,5,128,99,0.6610556244850159,0.22259074449539185
2,5,128,100,0.7510099411010742,0.18856973946094513
2,5,128,101,0.6995145082473755,0.2083769142627716
2,5,128,102,0.5151227116584778,0.14267447590827942
2,5,128,103,0.30117812752723694,0.17162813246250153
2,5,128,104,0.5941271781921387,0.15684905648231506
2,5,128,105,0.6431460976600647,0.2228931039571762
2,5,128,106,0.6761317849159241,0.22156085073947906
2,5,128,107,0.5115238428115845,0.21486587822437286
2,5,128,108,0.6638588905334473,0.22475866973400116
2,5,128,109,0.5807884931564331,0.04320535436272621
2,5,128,110,0.6191167235374451,0.13480709493160248
2,5,128,111,0.32979342341423035,0.2560109794139862
2,5,128,112,0.3069659471511841,0.13424524664878845
2,5,128,113,0.2742994427680969,0.22015275061130524
2,5,128,114,0.7399968504905701,0.21985091269016266
2,5,128,115,0.7413566708564758,0.2113601416349411
2,5,128,116,0.24852001667022705,0.19026796519756317
2,5,128,117,0.6546302437782288,0.17011578381061554
2,5,128,118,0.7246232628822327,0.2192634642124176
2,5,128,119,0.46474689245224,0.09180847555398941
2,5,128,120,0.7168521285057068,0.23679639399051666
2,5,128,121,0.7926132082939148,0.1308675855398178
2,5,128,122,0.5278852581977844,0.13644425570964813
2,5,128,123,0.7551514506340027,0.22037799656391144
2,5,128,124,0.6344180107116699,0.11929090321063995
2,5,128,125,0.5659813284873962,0.07483135163784027
2,5,128,126,0.5017688870429993,0.081673264503479
2,5,128,127,0.34645718336105347,0.09751071780920029
3,0,32,0,0.38680770993232727,0.04491608962416649
3,0,32,1,0.41529548168182373,0.06578795611858368
3,0,32,2,0.5721930265426636,0.06405025720596313
3,0,32,3,0.4220920205116272,0.06626804918050766
3,0,32,4,0.41776564717292786,0.08508682250976562
3,0,32,5,0.41337868571281433,0.07537684589624405
3,0,32,6,0.5737111568450928,0.09257697314023972
3,0,32,7,0.4035916030406952,0.08962693065404892
3,0,32,8,0.38568851351737976,0.03360762447118759
3,0,32,9,0.4640847146511078,0.08236964046955109
3,0,32,10,0.5056183934211731,0.045216403901576996
3,0,32,11,0.41978874802589417,0.08877749741077423
3,0,32,12,0.5809835195541382,0.05204036831855774
3,0,32,13,0.4550405740737915,0.04880887642502785
3,0,32,14,0.6390840411186218,0.06838654726743698
3,0,32,15,0.4377797842025757,0.06681795418262482
3,0,32,16,0.49783962965011597,0.09166628122329712
3,0,32,17,0.5223645567893982,0.07457178086042404
3,0,32,18,0.5097151398658752,0.10530579835176468
3,0,32,19,0.5070784091949463,0.027704741805791855
3,0,32,20,0.4684160053730011,0.07481714338064194
3,0,32,21,0.5628998279571533,0.052595242857933044
3,0,32,22,0.431560218334198,0.09660778194665909
3,0,32,23,0.3863843083381653,0.03141270950436592
3,0,32,24,0.44076281785964966,0.08040374517440796
3,0,32,25,0.4624696373939514,0.02473803609609604
3,0,32,26,0.5348039269447327,0.055269915610551834
3,0,32,27,0.41228964924812317,0.06892617791891098
3,0,32,28,0.44677621126174927,0.062230434268713
3,0,32,29,0.6106474995613098,0.04296279326081276
3,0,32,30,0.5520418286323547,0.04895297437906265
3,0,32,31,0.43479353189468384,0.045409783720970154
3,1,32,0,0.4370681345462799,0.024057257920503616
3,1,32,1,0.4992639720439911,0.031872864812612534
3,1,32,2,0.44602277874946594,0.04385747015476227
3,1,32,3,0.44763991236686707,0.01001102663576603
3,1,32,4,0.4310157299041748,0.03479569032788277
3,1,32,5,0.5447591543197632,0.05145560950040817
3,1,32,6,0.6109697222709656,0.013359514996409416
3,1,32,7,0.5212266445159912,0.047596074640750885
3,1,32,8,0.49751415848731995,0.06013263389468193
3,1,32,9,0.4441855549812317,0.05477598309516907
3,1,32,10,0.448005348443985,0.036844223737716675
3,1,32,11,0.6021078824996948,0.035483334213495255
3,1,32,12,0.402935653924942,0.019870826974511147
3,1,32,13,0.44709381461143494,0.034113988280296326
3,1,32,14,0.517055094242096,0.04485069587826729
3,1,32,15,0.36568883061408997,0.047022745013237
3,1,32,16,0.5252850651741028,0.0430305153131485
3,1,32,17,0.49355795979499817,0.015520120039582253
3,1,32,18,0.49164238572120667,0.021664580330252647
3,1,32,19,0.43132010102272034,0.014400724321603775
3,1,32,20,0.3856169879436493,0.026355769485235214
3,1,32,21,0.5621429681777954,0.028761696070432663
3,1,32,22,0.5310510993003845,0.035220157355070114
3,1,32,23,0.3741264343261719,0.018046624958515167
3,1,32,24,0.6159585118293762,0.005771638359874487
3,1,32,25,0.6493772864341736,0.032365310937166214
3,1,32,26,0.5475513339042664,0.008977489545941353
3,1,32,27,0.5294879674911499,0.033434513956308365
3,1,32,28,0.4164692163467407,0.04655206948518753
3,1,32,29,0.5217775106430054,0.0459650456905365
3,1,32,30,0.584902286529541,0.024860555306077003
3,1,32,31,0.5526849031448364,0.02791002206504345
3,2,64,0,0.4583892226219177,0.08283291012048721
3,2,64,1,0.45218172669410706,0.11570516973733902
3,2,64,2,0.562681257724762,0.10054942965507507
3,2,64,3,0.5713067650794983,0.11056677997112274
3,2,64,4,0.5460119843482971,0.09132861346006393
3,2,64,5,0.4359915852546692,0.12735553085803986
3,2,64,6,0.49797526001930237,0.07325722277164459
3,2,64,7,0.5577363967895508,0.07064224779605865
3,2,64,8,0.427537739276886,0.0810362920165062
3,2,64,9,0.6308048367500305,0.08870792388916016
3,2,64,10,0.5608726143836975,0.10858456045389175
3,2,64,11,0.5349991321563721,0.0698084682226181
3,2,64,12,0.5694210529327393,0.12933489680290222
3,2,64,13,0.5759047269821167,0.06411148607730865
3,2,64,14,0.5394442081451416,0.11575412005186081
3,2,64,15,0.5796842575073242,0.10227036476135254
3,2,64,16,0.5043686628341675,0.04452532157301903
3,2,64,17,0.42654553055763245,0.11546936631202698
3,2,64,18,0.5203975439071655,0.10445266962051392
3,2,64,19,0.5470684170722961,0.06324544548988342
3,2,64,20,0.541421115398407,0.069173164665699
3,2,64,21,0.46750742197036743,0.06633619964122772
3,2,64,22,0.46618518233299255,0.05864762142300606
3,2,64,23,0.46562761068344116,0.05443410202860832
3,2,64,24,0.6008720397949219,0.034183524549007416
3,2,64,25,0.46703702211380005,0.06781447678804398
3,2,64,26,0.3843715190887451,0.10383214056491852
3,2,64,27,0.6071850061416626,0.08360978960990906
3,2,64,28,0.5701228976249695,0.1369919329881668
3,2,64,29,0.4933122396469116,0.10337261110544205
3,2,64,30,0.4779273271560669,0.08963770419359207
3,2,64,31,0.3836953341960907,0.08015172183513641
3,2,64,32,0.4822651743888855,0.07788164913654327
3,2,64,33,0.508596658706665,0.11782506853342056
3,2,64,34,0.4270666241645813,0.05114257335662842
3,2,64,35,0.5214589834213257,0.08175589889287949
3,2,64,36,0.5526984930038452,0.06272309273481369
3,2,64,37,0.48386910557746887,0.12113834172487259
3,2,64,38,0.4726783037185669,0.0583064891397953
3,2,64,39,0.42813852429389954,0.11892260611057281
3,2,64,40,0.39406800270080566,0.08381422609090805
3,2,64,41,0.5740565061569214,0.07567117363214493
3,2,64,42,0.39781245589256287,0.0694817304611206
3,2,64,43,0.49798583984375,0.06512858718633652
3,2,64,44,0.4829159677028656,0.09300941228866577
3,2,64,45,0.4768904745578766,0.07459510862827301
3,2,64,46,0.44115573167800903,0.07835864275693893
3,2,64,47,0.41346827149391174,0.09467296302318573
3,2,64,48,0.5140886902809143,0.12051352113485336
3,2,64,49,0.41645294427871704,0.08010862022638321
3,2,64,50,0.40159091353416443,0.07815038412809372
3,2,64,51,0.416094571352005,0.1089233011007309
3,2,64,52,0.44088682532310486,0.11296994239091873
3,2,64,53,0.6252647042274475,0.0861651748418808
3,2,64,54,0.5182403326034546,0.12980112433433533
3,2,64,55,0.5238382816314697,0.09079615771770477
3,2,64,56,0.3494254946708679,0.10121338069438934
3,2,64,57,0.42536190152168274,0.039802007377147675
3,2,64,58,0.4992244243621826,0.1046210378408432
3,2,64,59,0.5254437327384949,0.11222793906927109
3,2,64,60,0.5263763666152954,0.037726547569036484
3,2,64,61,0.4618510603904724,0.07304111868143082
3,2,64,62,0.50373774766922,0.07483741641044617
3,2,64,63,0.494562566280365,0.0641072615981102
3,3,64,0,0.5606440901756287,0.08480026572942734
3,3,64,1,0.5109753608703613,0.05638379231095314
3,3,64,2,0.5852285027503967,0.05403541773557663
3,3,64,3,0.6110824346542358,0.09752793610095978
3,3,64,4,0.5630465149879456,0.05062548816204071
3,3,64,5,0.5464373826980591,0.14673607051372528
3,3,64,6,0.5915393829345703,0.063416987657547
3,3,64,7,0.6765170693397522,0.08863367885351181
3,3,64,8,0.5709556937217712,0.0332791842520237
3,3,64,9,0.33869123458862305,0.042449045926332474
3,3,64,10,0.5307152271270752,0.14369390904903412
3,3,64,11,0.5981587171554565,0.08412349969148636
3,3,64,12,0.6300029158592224,0.09510741382837296
3,3,64,13,0.3896251618862152,0.1431412696838379
3,3,64,14,0.4638071656227112,0.16039377450942993
3,3,64,15,0.5118047595024109,0.06693075597286224
3,3,64,16,0.5975212454795837,0.17299620807170868
3,3,64,17,0.45310258865356445,0.04988200217485428
3,3,64,18,0.5991976261138916,0.03750699386000633
3,3,64,19,0.5644883513450623,0.08626005798578262
3,3,64,20,0.5774317383766174,0.12168239802122116
3,3,64,21,0.43095895648002625,0.11053705960512161
3,3,64,22,0.4814627170562744,0.05949683114886284
3,3,64,23,0.5208219289779663,0.08861745148897171
3,3,64,24,0.4291408956050873,0.061566080898046494
3,3,64,25,0.45848438143730164,0.07091497629880905
3,3,64,26,0.6963474750518799,0.056458938866853714
3,3,64,27,0.6024088859558105,0.12019499391317368
3,3,64,28,0.5959906578063965,0.06611678004264832
3,3,64,29,0.41946688294410706,0.0927630141377449
3,3,64,30,0.502640962600708,0.0531795471906662
3,3,64,31,0.6353780031204224,0.08238169550895691
3,3,64,32,0.609459638595581,0.061530888080596924
3,3,64,33,0.6256991624832153,0.055222686380147934
3,3,64,34,0.5025842189788818,0.07969672977924347
3,3,64,35,0.5210952758789062,0.04134071245789528
3,3,64,36,0.3961688280105591,0.06327994912862778
3,3,64,37,0.46454617381095886,0.04295151308178902
3,3,64,38,0.3623962998390198,0.06340031325817108
3,3,64,39,0.5396935343742371,0.23538948595523834
3,3,64,40,0.44222062826156616,0.046951815485954285
3,3,64,41,0.5096356272697449,0.11428573727607727
3,3,64,42,0.6146369576454163,0.14084799587726593
3,3,64,43,0.4269505739212036,0.06091621145606041
3,3,64,44,0.5657516121864319,0.08733256161212921
3,3,64,45,0.3494071364402771,0.06592831015586853
3,3,64,46,0.5658186674118042,0.08057314902544022
3,3,64,47,0.46928298473358154,0.053274210542440414
3,3,64,48,0.5709339380264282,0.11522074043750763
3,3,64,49,0.4251934587955475,0.04707156866788864
3,3,64,50,0.537768542766571,0.047717541456222534
3,3,64,51,0.39102834463119507,0.09204599261283875
3,3,64,52,0.42631974816322327,0.15958678722381592
3,3,64,53,0.7237806916236877,0.0631677582859993
3,3,64,54,0.5119525790214539,0.05740481987595558
3,3,64,55,0.4185023307800293,0.13419920206069946
3,3,64,56,0.4246777296066284,0.03770378604531288
3,3,64,57,0.5002678632736206,0.04304691404104233
3,3,64,58,0.5203551650047302,0.13665874302387238
3,3,64,59,0.48926347494125366,0.05124211683869362
3,3,64,60,0.4605570435523987,0.09828007966279984
3,3,64,61,0.5647356510162354,0.12449385970830917
3,3,64,62,0.47183695435523987,0.08711063861846924
3,3,64,63,0.5892830491065979,0.0653848722577095
3,4,128,0,0.6468223333358765,0.26074284315109253
3,4,128,1,0.7493611574172974,0.18477697670459747
3,4,128,2,0.560322642326355,0.07503034919500351
3,4,128,3,0.35828015208244324,0.16932633519172668
3,4,128,4,0.7325586080551147,0.1969221830368042
3,4,128,5,0.601298451423645,0.238538458943367
3,4,128,6,0.6596097946166992,0.30695584416389465
3,4,128,7,0.7324562072753906,0.19609613716602325
3,4,128,8,0.6772950291633606,0.07675986737012863
3,4,128,9,0.37409332394599915,0.15971389412879944
3,4,128,10,0.5982003211975098,0.10255410522222519
3,4,128,11,0.28928253054618835,0.07886594533920288
3,4,128,12,0.6703688502311707,0.1137937530875206
3,4,128,13,0.533778190612793,0.09042826294898987
3,4,128,14,0.5135389566421509,0.20847319066524506
3,4,128,15,0.5740845203399658,0.0960710272192955
3,4,128,16,0.7202255129814148,0.2369326651096344
3,4,128,17,0.6440412998199463,0.31968575716018677
3,4,128,18,0.6586638689041138,0.1365317404270172
3,4,128,19,0.3933151960372925,0.058631833642721176
3,4,128,20,0.43716198205947876,0.12388283759355545
3,4,128,21,0.5835316181182861,0.07048202306032181
3,4,128,22,0.658438503742218,0.2141994833946228
3,4,128,23,0.4163374602794647,0.03846925124526024
3,4,128,24,0.566050112247467,0.10198599845170975
3,4,128,25,0.6489790678024292,0.2250855714082718
3,4,128,26,0.45929068326950073,0.05558409541845322
3,4,128,27,0.6638412475585938,0.17699061334133148
3,4,128,28,0.5017601847648621,0.13586489856243134
3,4,128,29,0.7319270968437195,0.21997512876987457
3,4,128,30,0.35714685916900635,0.16225281357765198
3,4,128,31,0.3371647000312805,0.05866187810897827
3,4,128,32,0.6836398839950562,0.23443308472633362
3,4,128,33,0.564882755279541,0.2574161887168884
3,4,128,34,0.4643644690513611,0.03332721069455147
3,4,128,35,0.35090652108192444,0.10585426539182663
3,4,128,36,0.7426891922950745,0.21982312202453613
3,4,128,37,0.5775370597839355,0.2004970908164978
3,4,128,38,0.22552929818630219,0.20153753459453583
3,4,128,39,0.6889230608940125,0.07621199637651443
3,4,128,40,0.5401135087013245,0.18738456070423126
3,4,128,41,0.7691322565078735,0.13028337061405182
3,4,128,42,0.5606628656387329,0.08118682354688644
3,4,128,43,0.6361411809921265,0.22977736592292786
3,4,128,44,0.629364013671875,0.26795634627342224
3,4,128,45,0.681609570980072,0.2662513554096222
3,4,128,46,0.5505217909812927,0.045259833335876465
3,4,128,47,0.6836228370666504,0.3060548007488251
3,4,128,48,0.8167091608047485,0.12597700953483582
3,4,128,49,0.7147181034088135,0.13559289276599884
3,4,128,50,0.8053860068321228,0.13239926099777222
3,4,128,51,0.712070643901825,0.08358277380466461
3,4,128,52,0.4304892420768738,0.12960989773273468
3,4,128,53,0.5832521319389343,0.17180192470550537
3,4,128,54,0.767737627029419,0.20728987455368042
3,4,128,55,0.6165981292724609,0.0940823182463646
3,4,128,56,0.6712446808815002,0.29093414545059204
3,4,128,57,0.603053867816925,0.2234637290239334
3,4,128,58,0.30314311385154724,0.08503969013690948
3,4,128,59,0.7322437167167664,0.18168166279792786
3,4,128,60,0.7400242686271667,0.11192479729652405
3,4,128,61,0.49286577105522156,0.08714776486158371
3,4,128,62,0.31617313623428345,0.17877306044101715
3,4,128,63,0.6665506362915039,0.09204237908124924
3,4,128,64,0.4770559072494507,0.09138762950897217
3,4,128,65,0.6893701553344727,0.21985843777656555
3,4,128,66,0.3246386647224426,0.10646476596593857
3,4,128,67,0.33847296237945557,0.1966823935508728
3,4,128,68,0.806388795375824,0.08912976831197739
3,4,128,69,0.45374974608421326,0.16250017285346985
3,4,128,70,0.16313119232654572,0.10264403373003006
3,4,128,71,0.7769215703010559,0.12734279036521912
3,4,128,72,0.4143126308917999,0.24481207132339478
3,4,128,73,0.42080479860305786,0.053287606686353683
3,4,128,74,0.5038331151008606,0.197228342294693
3,4,128,75,0.38471099734306335,0.09225879609584808
3,4,128,76,0.3775111734867096,0.17834030091762543
3,4,128,77,0.5818085670471191,0.18829746544361115
3,4,128,78,0.4437083601951599,0.05669581890106201
3,4,128,79,0.6211085319519043,0.2825554311275482
3,4,128,80,0.2973114550113678,0.2264234721660614
3,4,128,81,0.697327196598053,0.3097911775112152
3,4,128,82,0.6774890422821045,0.09032270312309265
3,4,128,83,0.7764736413955688,0.13823223114013672
3,4,128,84,0.7306535243988037,0.2345774620771408
3,4,128,85,0.36849716305732727,0.17315582931041718
3,4,128,86,0.45596322417259216,0.09697508811950684
3,4,128,87,0.4098868668079376,0.04182624816894531
3,4,128,88,0.3048052191734314,0.1086631789803505
3,4,128,89,0.4979289770126343,0.09592635184526443
3,4,128,90,0.6691639423370361,0.19363455474376678
3,4,128,91,0.6010931134223938,0.23165935277938843
3,4,128,92,0.6449665427207947,0.05072151869535446
3,4,128,93,0.6980946063995361,0.20556218922138214
3,4,128,94,0.6917480230331421,0.1409827172756195
3,4,128,95,0.6395424604415894,0.21528959274291992
3,4,128,96,0.6444255113601685,0.2275470644235611
3,4,128,97,0.6924014687538147,0.06235114857554436
3,4,128,98,0.6767809391021729,0.1084447056055069
3,4,128,99,0.7272830009460449,0.21059632301330566
3,4,128,100,0.6806790232658386,0.23344048857688904
3,4,128,101,0.49456119537353516,0.08129575103521347
3,4,128,102,0.7855481505393982,0.19030120968818665
3,4,128,103,0.5381876230239868,0.1724313497543335
3,4,128,104,0.44311657547950745,0.17192630469799042
3,4,128,105,0.52556312084198,0.13270428776741028
3,4,128,106,0.7430711984634399,0.11322373896837234
3,4,128,107,0.29493483901023865,0.07309433817863464
3,4,128,108,0.6835113167762756,0.2633102238178253
3,4,128,109,0.7920230627059937,0.15737639367580414
3,4,128,110,0.4917800724506378,0.05933569744229317
3,4,128,111,0.22934630513191223,0.11017344892024994
3,4,128,112,0.356425404548645,0.1952771693468094
3,4,128,113,0.30983567237854004,0.05834493041038513
3,4,128,114,0.6058805584907532,0.2653456926345825
3,4,128,115,0.5292856693267822,0.05544884130358696
3,4,128,116,0.7573155164718628,0.15866883099079132
3,4,128,117,0.7500429749488831,0.15640972554683685
3,4,128,118,0.6152151226997375,0.07797208428382874
3,4,128,119,0.5916730165481567,0.15160536766052246
3,4,128,120,0.7045705914497375,0.0662400871515274
3,4,128,121,0.439691960811615,0.17238640785217285
3,4,128,122,0.7340599894523621,0.10804683715105057
3,4,128,123,0.3528050482273102,0.0635829046368599
3,4,128,124,0.7022783160209656,0.22085987031459808
3,4,128,125,0.6695586442947388,0.14514851570129395
3,4,128,126,0.7110462784767151,0.22243010997772217
3,4,128,127,0.40104615688323975,0.17389890551567078
3,5,128,0,0.5591378808021545,0.1446303427219391
3,5,128,1,0.6147699356079102,0.06256915628910065
3,5,128,2,0.4584417939186096,0.05204372480511665
3,5,128,3,0.4605932831764221,0.10874512791633606
3,5,128,4,0.7309702634811401,0.10533269494771957
3,5,128,5,0.5398541688919067,0.05650701746344566
3,5,128,6,0.3102397918701172,0.09742312878370285
3,5,128,7,0.6129855513572693,0.0694974735379219
3,5,128,8,0.6450947523117065,0.15245796740055084
3,5,128,9,0.6974421739578247,0.08552324771881104
3,5,128,10,0.5577697157859802,0.07409743219614029
3,5,128,11,0.4852284789085388,0.046609386801719666
3,5,128,12,0.5478737950325012,0.09905698150396347
3,5,128,13,0.6462796926498413,0.0936349406838417
3,5,128,14,0.6288093328475952,0.1427765190601349
3,5,128,15,0.539409339427948,0.04053112864494324
3,5,128,16,0.52543044090271,0.12350013107061386
3,5,128,17,0.5781277418136597,0.1272766888141632
3,5,128,18,0.5302800536155701,0.07296614348888397
3,5,128,19,0.5863037705421448,0.06881344318389893
3,5,128,20,0.4018968939781189,0.11084721237421036
3,5,128,21,0.47789233922958374,0.0740383192896843
3,5,128,22,0.3551952838897705,0.04878656193614006
3,5,128,23,0.6755923628807068,0.11201497167348862
3,5,128,24,0.7022361755371094,0.14169326424598694
3,5,128,25,0.7429778575897217,0.1588980108499527
3,5,128,26,0.6492167711257935,0.1256134957075119
3,5,128,27,0.5677525401115417,0.037675485014915466
3,5,128,28,0.5407169461250305,0.03268019109964371
3,5,128,29,0.5787593126296997,0.07251757383346558
3,5,128,30,0.5262226462364197,0.10020407289266586
3,5,128,31,0.6501805782318115,0.07479652017354965
3,5,128,32,0.747590959072113,0.1634441465139389
3,5,128,33,0.39701735973358154,0.04893451929092407
3,5,128,34,0.6518139243125916,0.21296952664852142
3,5,128,35,0.583271324634552,0.09395080804824829
3,5,128,36,0.6862779259681702,0.117955781519413
3,5,128,37,0.6605276465415955,0.04251175373792648
3,5,128,38,0.7117372751235962,0.10308536887168884
3,5,128,39,0.5779204964637756,0.10535899549722672
3,5,128,40,0.5645942091941833,0.20799964666366577
3,5,128,41,0.6529818773269653,0.154752716422081
3,5,128,42,0.4300765097141266,0.07069839537143707
3,5,128,43,0.6787596940994263,0.12504558265209198
3,5,128,44,0.640256404876709,0.17783448100090027
3,5,128,45,0.542959451675415,0.14970164000988007
3,5,128,46,0.4673722982406616,0.10967313498258591
3,5,128,47,0.5663905739784241,0.03697992116212845
3,5,128,48,0.6358988285064697,0.14958684146404266
3,5,128,49,0.5795912146568298,0.11647025495767593
3,5,128,50,0.5349981784820557,0.05927450954914093
3,5,128,51,0.6571037769317627,0.04532603174448013
3,5,128,52,0.6620640158653259,0.20391879975795746
3,5,128,53,0.5134509205818176,0.10728760808706284
3,5,128,54,0.6568217277526855,0.14676733314990997
3,5,128,55,0.5902743935585022,0.03476380556821823
3,5,128,56,0.6137209534645081,0.07778514176607132
3,5,128,57,0.5090959668159485,0.04117694869637489
3,5,128,58,0.5315116047859192,0.0583706796169281
3,5,128,59,0.364376425743103,0.04915013909339905
3,5,128,60,0.7202669382095337,0.19652697443962097
3,5,128,61,0.6343563795089722,0.08371199667453766
3,5,128,62,0.6190731525421143,0.061855122447013855
3,5,128,63,0.7717767357826233,0.10489312559366226
3,5,128,64,0.3855881989002228,0.030680621042847633
3,5,128,65,0.6452850103378296,0.12947525084018707
3,5,128,66,0.7063184976577759,0.07874135673046112
3,5,128,67,0.41967758536338806,0.022785790264606476
3,5,128,68,0.7170678973197937,0.1641368418931961
3,5,128,69,0.5620705485343933,0.08962085843086243
3,5,128,70,0.5044080018997192,0.07627835869789124
3,5,128,71,0.49538466334342957,0.06332042068243027
3,5,128,72,0.5243889093399048,0.02560793235898018
3,5,128,73,0.6326478123664856,0.050029803067445755
3,5,128,74,0.483865350484848,0.10011380165815353
3,5,128,75,0.5742881894111633,0.11837880313396454
3,5,128,76,0.34121400117874146,0.10545174777507782
3,5,128,77,0.5278826951980591,0.06419654190540314
3,5,128,78,0.6371166706085205,0.2617838382720947
3,5,128,79,0.5179234743118286,0.0793861597776413
3,5,128,80,0.3202415704727173,0.07786170393228531
3,5,128,81,0.5118730068206787,0.10207531601190567
3,5,128,82,0.42675885558128357,0.12179362028837204
3,5,128,83,0.5910682082176208,0.12680697441101074
3,5,128,84,0.644859790802002,0.0475345216691494
3,5,128,85,0.33754903078079224,0.0875975638628006
3,5,128,86,0.5185437798500061,0.06186402961611748
3,5,128,87,0.7067046761512756,0.1508963257074356
3,5,128,88,0.7081874012947083,0.12651051580905914
3,5,128,89,0.6646910309791565,0.0676950141787529
3,5,128,90,0.5006629824638367,0.04091744124889374
3,5,128,91,0.6048367023468018,0.04597547650337219
3,5,128,92,0.4990482032299042,0.02048402652144432
3,5,128,93,0.5604647994041443,0.08320918679237366
3,5,128,94,0.7342739105224609,0.0946476086974144
3,5,128,95,0.6314612030982971,0.18320156633853912
3,5,128,96,0.6679102182388306,0.11989568173885345
3,5,128,97,0.3740391135215759,0.1032726988196373
3,5,128,98,0.5653560757637024,0.24168814718723297
3,5,128,99,0.6557297110557556,0.18704508244991302
3,5,128,100,0.6036050319671631,0.0606161504983902
3,5,128,101,0.5024988651275635,0.08908692747354507
3,5,128,102,0.5830283164978027,0.204367533326149
3,5,128,103,0.49054381251335144,0.057903535664081573
3,5,128,104,0.5541413426399231,0.08186367154121399
3,5,128,105,0.3760025203227997,0.0692279040813446
3,5,128,106,0.44390755891799927,0.0959615483880043
3,5,128,107,0.488456130027771,0.0949430763721466
3,5,128,108,0.6509401202201843,0.16127179563045502
3,5,128,109,0.7106842994689941,0.1223883256316185
3,5,128,110,0.6001227498054504,0.039999768137931824
3,5,128,111,0.4101446270942688,0.12624886631965637
3,5,128,112,0.5895953178405762,0.08529773354530334
3,5,128,113,0.41085192561149597,0.1548178493976593
3,5,128,114,0.4324837028980255,0.03347175195813179
3,5,128,115,0.7088941931724548,0.09189972281455994
3,5,128,116,0.5909870862960815,0.0765593945980072
3,5,128,117,0.6555176377296448,0.13723550736904144
3,5,128,118,0.43325164914131165,0.04489587992429733
3,5,128,119,0.5079680681228638,0.07487227022647858
3,5,128,120,0.558454692363739,0.07604746520519257
3,5,128,121,0.6706672310829163,0.18720485270023346
3,5,128,122,0.5430176854133606,0.04885946959257126
3,5,128,123,0.5854318737983704,0.04499185085296631
3,5,128,124,0.4000113904476166,0.13490964472293854
3,5,128,125,0.4671987295150757,0.142172709107399
3,5,128,126,0.6541541218757629,0.15787535905838013
3,5,128,127,0.5878230333328247,0.14277367293834686
4,0,32,0,0.5692340135574341,0.054406896233558655
4,0,32,1,0.43674173951148987,0.05694101005792618
4,0,32,2,0.45518043637275696,0.053613919764757156
4,0,32,3,0.6444104909896851,0.09449843317270279
4,0,32,4,0.5396387577056885,0.032040707767009735
4,0,32,5,0.4871268570423126,0.06553182005882263
4,0,32,6,0.6173250675201416,0.08279023319482803
4,0,32,7,0.674902081489563,0.05383044853806496
4,0,32,8,0.583643913269043,0.1030828133225441
4,0,32,9,0.40998220443725586,0.030852997675538063
4,0,32,10,0.5105029344558716,0.042144156992435455
4,0,32,11,0.5545989274978638,0.05867067724466324
4,0,32,12,0.5424324870109558,0.0398578979074955
4,0,32,13,0.4821684658527374,0.042648933827877045
4,0,32,14,0.38926467299461365,0.03005276992917061
4,0,32,15,0.5986527800559998,0.07067561149597168
4,0,32,16,0.56427001953125,0.03249005973339081
4,0,32,17,0.5562127232551575,0.07165858894586563
4,0,32,18,0.4653572142124176,0.0320747010409832
4,0,32,19,0.5199172496795654,0.04255238547921181
4,0,32,20,0.3563701808452606,0.047608401626348495
4,0,32,21,0.4272106885910034,0.08306907117366791
4,0,32,22,0.36547723412513733,0.06101152300834656
4,0,32,23,0.5019174218177795,0.054571472108364105
4,0,32,24,0.5307469367980957,0.0737035870552063
4,0,32,25,0.6103559136390686,0.048192232847213745
4,0,32,26,0.4227875769138336,0.04760231077671051
4,0,32,27,0.5478817820549011,0.08186674118041992
4,0,32,28,0.41185131669044495,0.06358516216278076
4,0,32,29,0.6118021011352539,0.064325712621212
4,0,32,30,0.6570684313774109,0.05524928495287895
4,0,32,31,0.6279241442680359,0.07151336222887039
4,1,32,0,0.3980180025100708,0.08966493606567383
4,1,32,1,0.49892914295196533,0.04292406141757965
4,1,32,2,0.40484389662742615,0.04724757745862007
4,1,32,3,0.5843923091888428,0.0960579589009285
4,1,32,4,0.523048996925354,0.053796008229255676
4,1,32,5,0.38965481519699097,0.07598718255758286
4,1,32,6,0.46716269850730896,0.07183188945055008
4,1,32,7,0.46102240681648254,0.011289170011878014
4,1,32,8,0.5858070254325867,0.02796519361436367
4,1,32,9,0.3590584993362427,0.05717646703124046
4,1,32,10,0.4453943073749542,0.09300815314054489
4,1,32,11,0.39415478706359863,0.06899938732385635
4,1,32,12,0.6204535365104675,0.045268166810274124
4,1,32,13,0.4743342101573944,0.09388238191604614
4,1,32,14,0.3310968279838562,0.08993520587682724
4,1,32,15,0.4837208390235901,0.03549209609627724
4,1,32,16,0.37967976927757263,0.018802346661686897
4,1,32,17,0.639710545539856,0.07739174365997314
4,1,32,18,0.4588281810283661,0.07517466694116592
4,1,32,19,0.3974131643772125,0.05164863169193268
4,1,32,20,0.6557390689849854,0.06758517026901245
4,1,32,21,0.6034346222877502,0.05459041893482208
4,1,32,22,0.40671107172966003,0.10608935356140137
4,1,32,23,0.4645397961139679,0.05186274275183678
4,1,32,24,0.4924756586551666,0.04214021936058998
4,1,32,25,0.5188663005828857,0.036366600543260574
4,1,32,26,0.6640635132789612,0.07214614748954773
4,1,32,27,0.6414098143577576,0.08958705514669418
4,1,32,28,0.46356701850891113,0.0674264207482338
4,1,32,29,0.5189412236213684,0.03326106816530228
4,1,32,30,0.44893765449523926,0.04883107170462608
4,1,32,31,0.49738597869873047,0.02713632583618164
4,2,64,0,0.4192858338356018,0.04374207183718681
4,2,64,1,0.44476547837257385,0.0419468954205513
4,2,64,2,0.41437098383903503,0.09454174339771271
4,2,64,3,0.44911906123161316,0.12766966223716736
4,2,64,4,0.6428211331367493,0.1322992593050003
4,2,64,5,0.46885186433792114,0.07507146894931793
4,2,64,6,0.41663840413093567,0.17055854201316833
4,2,64,7,0.44891026616096497,0.09230197221040726
4,2,64,8,0.6165673732757568,0.18926256895065308
4,2,64,9,0.5467318892478943,0.0882125273346901
4,2,64,10,0.48842400312423706,0.07717268913984299
4,2,64,11,0.5499266386032104,0.1738957017660141
4,2,64,12,0.4327143728733063,0.10029895603656769
4,2,64,13,0.4458133578300476,0.05792415142059326
4,2,64,14,0.40917882323265076,0.16812878847122192
4,2,64,15,0.284736692905426,0.17179971933364868
4,2,64,16,0.6389877796173096,0.10746694356203079
4,2,64,17,0.6110541820526123,0.04307913780212402
4,2,64,18,0.3727627098560333,0.06265956163406372
4,2,64,19,0.5284772515296936,0.08364111930131912
4,2,64,20,0.5702298879623413,0.1877385973930359
4,2,64,21,0.465465784072876,0.044265780597925186
4,2,64,22,0.6307869553565979,0.18414872884750366
4,2,64,23,0.40807947516441345,0.10895571112632751
4,2,64,24,0.5777165293693542,0.0891602486371994
4,2,64,25,0.5121954083442688,0.04813019558787346
4,2,64,26,0.600125789642334,0.08488800376653671
4,2,64,27,0.5742502808570862,0.12801463901996613
4,2,64,28,0.49311214685440063,0.028658989816904068
4,2,64,29,0.5477508902549744,0.07940830290317535
4,2,64,30,0.3799118399620056,0.11113165318965912
4,2,64,31,0.4069119393825531,0.04826197400689125
4,2,64,32,0.6039981245994568,0.08404400199651718
4,2,64,33,0.3442673981189728,0.18750882148742676
4,2,64,34,0.6894139051437378,0.1643839329481125
4,2,64,35,0.538791298866272,0.028925955295562744
4,2,64,36,0.3195838928222656,0.15766224265098572
4,2,64,37,0.5389837622642517,0.10689736902713776
4,2,64,38,0.5578218102455139,0.06027337163686752
4,2,64,39,0.3454728126525879,0.13147032260894775
4,2,64,40,0.5827938318252563,0.02699541300535202
4,2,64,41,0.5707564949989319,0.025210581719875336
4,2,64,42,0.3946612477302551,0.1037793755531311
4,2,64,43,0.46794435381889343,0.03963712975382805
4,2,64,44,0.3837313950061798,0.1438964605331421
4,2,64,45,0.5921787023544312,0.12265356630086899
4,2,64,46,0.31910350918769836,0.1645672470331192
4,2,64,47,0.4940670132637024,0.07566922158002853
4,2,64,48,0.4380929470062256,0.05924415960907936
4,2,64,49,0.3823772668838501,0.1788603961467743
4,2,64,50,0.4644649624824524,0.02528580091893673
4,2,64,51,0.39453980326652527,0.16045153141021729
4,2,64,52,0.5444666147232056,0.038916636258363724
4,2,64,53,0.32752469182014465,0.15807288885116577
4,2,64,54,0.5091809034347534,0.07254409044981003
4,2,64,55,0.401613712310791,0.05842500180006027
4,2,64,56,0.32171860337257385,0.1966344267129898
4,2,64,57,0.6885505318641663,0.15424001216888428
4,2,64,58,0.4936279058456421,0.06322100758552551
4,2,64,59,0.3719015121459961,0.15758197009563446
4,2,64,60,0.600209653377533,0.15990988910198212
4,2,64,61,0.7048236727714539,0.17488078773021698
4,2,64,62,0.3764791190624237,0.18599645793437958
4,2,64,63,0.5302273035049438,0.058058448135852814
4,3,64,0,0.5554230213165283,0.1594240516424179
4,3,64,1,0.43215394020080566,0.1061994656920433
4,3,64,2,0.6369009613990784,0.13879072666168213
4,3,64,3,0.6278673410415649,0.11358897387981415
4,3,64,4,0.6032891273498535,0.09265953302383423
4,3,64,5,0.4384211301803589,0.06833998113870621
4,3,64,6,0.3308315575122833,0.11292432248592377
4,3,64,7,0.5842306017875671,0.08748458325862885
4,3,64,8,0.6066811680793762,0.1499241143465042
4,3,64,9,0.6146595478057861,0.12836848199367523
4,3,64,10,0.4239480495452881,0.16965645551681519
4,3,64,11,0.5446490049362183,0.19171012938022614
4,3,64,12,0.5769767761230469,0.1315843015909195
4,3,64,13,0.565631628036499,0.06396076083183289
4,3,64,14,0.6596165299415588,0.09033042192459106
4,3,64,15,0.49591735005378723,0.18302154541015625
4,3,64,16,0.39691686630249023,0.11280044913291931
4,3,64,17,0.5619534850120544,0.25437211990356445
4,3,64,18,0.5180913805961609,0.19165882468223572
4,3,64,19,0.43680769205093384,0.09967474639415741
4,3,64,20,0.534669816493988,0.2748609781265259
4,3,64,21,0.5455915331840515,0.10146229714155197
4,3,64,22,0.615855872631073,0.08235973119735718
4,3,64,23,0.5089017748832703,0.2313244342803955
4,3,64,24,0.48521894216537476,0.18178527057170868
4,3,64,25,0.5569594502449036,0.08938485383987427
4,3,64,26,0.586603581905365,0.16406798362731934
4,3,64,27,0.4739800989627838,0.18671441078186035
4,3,64,28,0.5209313035011292,0.11312504857778549
4,3,64,29,0.4555278718471527,0.1314193159341812
4,3,64,30,0.6539243459701538,0.12276699393987656
4,3,64,31,0.4229786694049835,0.09083854407072067
4,3,64,32,0.5439228415489197,0.11577949672937393
4,3,64,33,0.7587729692459106,0.08762456476688385
4,3,64,34,0.42378944158554077,0.09978348016738892
4,3,64,35,0.5179759860038757,0.13164807856082916
4,3,64,36,0.44626957178115845,0.15021321177482605
4,3,64,37,0.47604069113731384,0.14691753685474396
4,3,64,38,0.4426136016845703,0.19350622594356537
4,3,64,39,0.5345178842544556,0.1954190880060196
4,3,64,40,0.5211517810821533,0.09431617707014084
4,3,64,41,0.6068163514137268,0.12258290499448776
4,3,64,42,0.5886586904525757,0.14855532348155975
4,3,64,43,0.3765253722667694,0.11242891103029251
4,3,64,44,0.3758775591850281,0.12046000361442566
4,3,64,45,0.47995999455451965,0.1532902866601944
4,3,64,46,0.34714004397392273,0.150076761841774
4,3,64,47,0.5002596378326416,0.1409628838300705
4,3,64,48,0.5722683668136597,0.2404719889163971
4,3,64,49,0.6207778453826904,0.20957565307617188
4,3,64,50,0.49464812874794006,0.23546046018600464
4,3,64,51,0.4577431380748749,0.24352571368217468
4,3,64,52,0.2657960057258606,0.11598078161478043
4,3,64,53,0.4939207434654236,0.0797811895608902
4,3,64,54,0.49641692638397217,0.15070392191410065
4,3,64,55,0.4848047196865082,0.1884946972131729
4,3,64,56,0.500663697719574,0.10638178139925003
4,3,64,57,0.5667209625244141,0.14245356619358063
4,3,64,58,0.3536968529224396,0.08612222969532013
4,3,64,59,0.6306918859481812,0.21676500141620636
4,3,64,60,0.7298782467842102,0.12548238039016724
4,3,64,61,0.5292752385139465,0.14415119588375092
4,3,64,62,0.5983930826187134,0.159165620803833
4,3,64,63,0.40309587121009827,0.15558329224586487
4,4,128,0,0.6626785397529602,0.12174885720014572
4,4,128,1,0.4086048901081085,0.02781577780842781
4,4,128,2,0.6091706156730652,0.09436173737049103
4,4,128,3,0.7488172054290771,0.18354704976081848
4,4,128,4,0.5724471211433411,0.08900591731071472
4,4,128,5,0.7515300512313843,0.1358833760023117
4,4,128,6,0.6204802989959717,0.04450760781764984
4,4,128,7,0.6808512210845947,0.10480675846338272
4,4,128,8,0.4637715816497803,0.02580062486231327
4,4,128,9,0.676500141620636,0.2460366189479828
4,4,128,10,0.6966524124145508,0.17855757474899292
4,4,128,11,0.48835375905036926,0.11214315891265869
4,4,128,12,0.7221263647079468,0.18146024644374847
4,4,128,13,0.5970837473869324,0.17497406899929047
4,4,128,14,0.43022653460502625,0.20209765434265137
4,4,128,15,0.46729564666748047,0.16877655684947968
4,4,128,16,0.3866042494773865,0.07763688266277313
4,4,128,17,0.44823259115219116,0.06539806723594666
4,4,128,18,0.5194223523139954,0.0927514135837555
4,4,128,19,0.45701274275779724,0.04350396618247032
4,4,128,20,0.5410100817680359,0.1987336277961731
4,4,128,21,0.7191644310951233,0.17234693467617035
4,4,128,22,0.38882914185523987,0.1626926064491272
4,4,128,23,0.4549695551395416,0.19205859303474426
4,4,128,24,0.6308847069740295,0.04451443627476692
4,4,128,25,0.5348930954933167,0.04771355912089348
4,4,128,26,0.688318133354187,0.18990595638751984
4,4,128,27,0.6852237582206726,0.19708721339702606
4,4,128,28,0.5343868732452393,0.11720302700996399
4,4,128,29,0.4246847331523895,0.0828225240111351
4,4,128,30,0.6351930499076843,0.08072983473539352
4,4,128,31,0.7143672704696655,0.18841883540153503
4,4,128,32,0.6902139186859131,0.1917489767074585
4,4,128,33,0.6121233105659485,0.2462165206670761
4,4,128,34,0.3614655137062073,0.061913665384054184
4,4,128,35,0.5214530825614929,0.0367605984210968
4,4,128,36,0.38314539194107056,0.06864050030708313
4,4,128,37,0.22788508236408234,0.1349535435438156
4,4,128,38,0.6618653535842896,0.1206427738070488
4,4,128,39,0.6178238987922668,0.06306210160255432
4,4,128,40,0.7757113575935364,0.12055322527885437
4,4,128,41,0.4420900344848633,0.17669905722141266
4,4,128,42,0.3427093029022217,0.1571582853794098
4,4,128,43,0.6094134449958801,0.04456503689289093
4,4,128,44,0.683958888053894,0.18725614249706268
4,4,128,45,0.44763118028640747,0.20071743428707123
4,4,128,46,0.6402052044868469,0.19636552035808563
4,4,128,47,0.5250245928764343,0.08131877332925797
4,4,128,48,0.48701295256614685,0.10487168282270432
4,4,128,49,0.45921188592910767,0.05198865011334419
4,4,128,50,0.4398873448371887,0.22084461152553558
4,4,128,51,0.6556967496871948,0.16593600809574127
4,4,128,52,0.6558460593223572,0.150645911693573
4,4,128,53,0.5456753969192505,0.09299592673778534
4,4,128,54,0.6711922883987427,0.0479029044508934
4,4,128,55,0.5491137504577637,0.09591425210237503
4,4,128,56,0.3781108856201172,0.05245327949523926
4,4,128,57,0.37103602290153503,0.2365570366382599
4,4,128,58,0.44910284876823425,0.10870032757520676
4,4,128,59,0.606722354888916,0.23446445167064667
4,4,128,60,0.6037594079971313,0.15241499245166779
4,4,128,61,0.7499920725822449,0.0799439549446106
4,4,128,62,0.48840945959091187,0.09137790650129318
4,4,128,63,0.7812701463699341,0.132747083902359
4,4,128,64,0.35752859711647034,0.1603614240884781
4,4,128,65,0.5739072561264038,0.1091095581650734
4,4,128,66,0.41744714975357056,0.07671777158975601
4,4,128,67,0.4592649042606354,0.06156153231859207
4,4,128,68,0.5626670718193054,0.20370875298976898
4,4,128,69,0.6182938814163208,0.07283180207014084
4,4,128,70,0.7345885634422302,0.13648125529289246
4,4,128,71,0.7106150388717651,0.1574227511882782
4,4,128,72,0.5519035458564758,0.09227119386196136
4,4,128,73,0.5624738931655884,0.26340073347091675
4,4,128,74,0.481880247592926,0.10728630423545837
4,4,128,75,0.6049482226371765,0.032488252967596054
4,4,128,76,0.37400808930397034,0.05847633630037308
4,4,128,77,0.4867153465747833,0.05842713639140129
4,4,128,78,0.390338659286499,0.19350914657115936
4,4,128,79,0.5988599061965942,0.06499801576137543
4,4,128,80,0.6185413002967834,0.190576434135437
4,4,128,81,0.633969247341156,0.06853023916482925
4,4,128,82,0.27050837874412537,0.14211520552635193
4,4,128,83,0.6449602246284485,0.18297411501407623
4,4,128,84,0.537679135799408,0.10318895429372787
4,4,128,85,0.4837552011013031,0.14950159192085266
4,4,128,86,0.6618085503578186,0.05246618017554283
4,4,128,87,0.6364384889602661,0.1592881828546524
4,4,128,88,0.4727564752101898,0.11810828000307083
4,4,128,89,0.5094722509384155,0.0634787455201149
4,4,128,90,0.7001516819000244,0.14197209477424622
4,4,128,91,0.6189769506454468,0.08004596829414368
4,4,128,92,0.5097396373748779,0.08898868411779404
4,4,128,93,0.5764632225036621,0.10512349009513855
4,4,128,94,0.4365982115268707,0.10514665395021439
4,4,128,95,0.8014242649078369,0.128769189119339
4,4,128,96,0.4732934534549713,0.07183796167373657
4,4,128,97,0.7140364646911621,0.13355079293251038
4,4,128,98,0.5449968576431274,0.14201873540878296
4,4,128,99,0.5870210528373718,0.1168103814125061
4,4,128,100,0.7020922899246216,0.091021828353405
4,4,128,101,0.7586422562599182,0.16081106662750244
4,4,128,102,0.7525783777236938,0.14578188955783844
4,4,128,103,0.6040117144584656,0.1633908450603485
4,4,128,104,0.3573894798755646,0.20296210050582886
4,4,128,105,0.6581062078475952,0.1480906754732132
4,4,128,106,0.6775504350662231,0.2428285777568817
4,4,128,107,0.6575115323066711,0.17999982833862305
4,4,128,108,0.6158254146575928,0.07111157476902008
4,4,128,109,0.7458500862121582,0.1365399956703186
4,4,128,110,0.7419260740280151,0.20470616221427917
4,4,128,111,0.37079140543937683,0.09683460742235184
4,4,128,112,0.5978744626045227,0.05889468267560005
4,4,128,113,0.7159010171890259,0.10330972075462341
4,4,128,114,0.7192648649215698,0.12787893414497375
4,4,128,115,0.35797667503356934,0.103448785841465
4,4,128,116,0.4049009680747986,0.14746734499931335
4,4,128,117,0.47362107038497925,0.06760464608669281
4,4,128,118,0.5207716226577759,0.09506753087043762
4,4,128,119,0.5732772350311279,0.16848649084568024
4,4,128,120,0.6471417546272278,0.11224013566970825
4,4,128,121,0.3157973885536194,0.07144840061664581
4,4,128,122,0.5448881983757019,0.05203251913189888
4,4,128,123,0.37460073828697205,0.0841720774769783
4,4,128,124,0.3827773928642273,0.0930839255452156
4,4,128,125,0.5340440273284912,0.08624492585659027
4,4,128,126,0.64674311876297,0.06812439858913422
4,4,128,127,0.581562876701355,0.05464937165379524
4,5,128,0,0.5793452262878418,0.11144279688596725
4,5,128,1,0.5694245100021362,0.0685877650976181
4,5,128,2,0.4940192699432373,0.10955800116062164
4,5,128,3,0.660578191280365,0.2044685035943985
4,5,128,4,0.5569418668746948,0.1074284091591835
4,5,128,5,0.5957972407341003,0.09846094250679016
4,5,128,6,0.5914207696914673,0.06150662899017334
4,5,128,7,0.5917357802391052,0.167079359292984
4,5,128,8,0.540647566318512,0.07950123399496078
4,5,128,9,0.5309246778488159,0.05501638352870941
4,5,128,10,0.6150933504104614,0.0567377433180809
4,5,128,11,0.5528022050857544,0.0826534777879715
4,5,128,12,0.6640492081642151,0.2377883791923523
4,5,128,13,0.6959627866744995,0.10431376844644547
4,5,128,14,0.6978387236595154,0.128703773021698
4,5,128,15,0.3850702941417694,0.12846656143665314
4,5,128,16,0.692732572555542,0.09474331885576248
4,5,128,17,0.7207521796226501,0.14952106773853302
4,5,128,18,0.49424830079078674,0.11744652688503265
4,5,128,19,0.42597347497940063,0.09643178433179855
4,5,128,20,0.5533316731452942,0.16366609930992126
4,5,128,21,0.6399347186088562,0.20407499372959137
4,5,128,22,0.5862818956375122,0.13606306910514832
4,5,128,23,0.44884708523750305,0.047190964221954346
4,5,128,24,0.6284765005111694,0.15847592055797577
4,5,128,25,0.5223670601844788,0.14105325937271118
4,5,128,26,0.667594313621521,0.14628517627716064
4,5,128,27,0.6908836960792542,0.07395564019680023
4,5,128,28,0.5053786635398865,0.09850672632455826
4,5,128,29,0.6083658933639526,0.09619011729955673
4,5,128,30,0.6095424890518188,0.08685006946325302
4,5,128,31,0.7227692008018494,0.1777171492576599
4,5,128,32,0.6456794142723083,0.1258910745382309
4,5,128,33,0.6253990530967712,0.23792628943920135
4,5,128,34,0.5076392889022827,0.12439911812543869
4,5,128,35,0.7904438376426697,0.09952760487794876
4,5,128,36,0.5458665490150452,0.08751225471496582
4,5,128,37,0.546413779258728,0.16167663037776947
4,5,128,38,0.6771111488342285,0.09585008025169373
4,5,128,39,0.5041946768760681,0.11821115761995316
4,5,128,40,0.7019178867340088,0.14494740962982178
4,5,128,41,0.6892815232276917,0.15420247614383698
4,5,128,42,0.5246191024780273,0.08844158798456192
4,5,128,43,0.5372382402420044,0.15642400085926056
4,5,128,44,0.6557613015174866,0.20156307518482208
4,5,128,45,0.4274703562259674,0.13541929423809052
4,5,128,46,0.6424945592880249,0.1264301985502243
4,5,128,47,0.5507945418357849,0.04253208637237549
4,5,128,48,0.49901530146598816,0.10024639219045639
4,5,128,49,0.611521303653717,0.16671724617481232
4,5,128,50,0.6357259750366211,0.12826964259147644
4,5,128,51,0.486484169960022,0.1423393189907074
4,5,128,52,0.530741274356842,0.040204379707574844
4,5,128,53,0.57597815990448,0.19847369194030762
4,5,128,54,0.4758901298046112,0.12193088233470917
4,5,128,55,0.7939856648445129,0.12067077308893204
4,5,128,56,0.42635709047317505,0.03646792843937874
4,5,128,57,0.637479841709137,0.08550690859556198
4,5,128,58,0.5393324494361877,0.023474952206015587
4,5,128,59,0.47753357887268066,0.06100829318165779
4,5,128,60,0.5299595594406128,0.035360731184482574
4,5,128,61,0.7137782573699951,0.17128565907478333
4,5,128,62,0.6314617991447449,0.12351441383361816
4,5,128,63,0.5528547763824463,0.11617196351289749
4,5,128,64,0.4262722134590149,0.03989972919225693
4,5,128,65,0.6133426427841187,0.1738298237323761
4,5,128,66,0.5605282187461853,0.03541072458028793
4,5,128,67,0.7195770144462585,0.12330020219087601
4,5,128,68,0.5123184323310852,0.10804353654384613
4,5,128,69,0.5866924524307251,0.08645244687795639
4,5,128,70,0.70708829164505,0.10190282016992569
4,5,128,71,0.6993286609649658,0.1590126007795334
4,5,128,72,0.7277964949607849,0.12127138674259186
4,5,128,73,0.6019104719161987,0.22004307806491852
4,5,128,74,0.5609378218650818,0.03175993263721466
4,5,128,75,0.48402079939842224,0.06679274141788483
4,5,128,76,0.6909439563751221,0.17321547865867615
4,5,128,77,0.5236883759498596,0.031091874465346336
4,5,128,78,0.5459606051445007,0.07655376940965652
4,5,128,79,0.6765637397766113,0.13478748500347137
4,5,128,80,0.6831925511360168,0.19932515919208527
4,5,128,81,0.6137328743934631,0.09468173235654831
4,5,128,82,0.47244992852211,0.04064085707068443
4,5,128,83,0.6304743885993958,0.13607890903949738
4,5,128,84,0.4299308657646179,0.13810878992080688
4,5,128,85,0.3705666661262512,0.21713127195835114
4,5,128,86,0.6528515815734863,0.08329268544912338
4,5,128,87,0.5675252676010132,0.20927706360816956
4,5,128,88,0.5755614638328552,0.07134699076414108
4,5,128,89,0.4532395601272583,0.08533123135566711
4,5,128,90,0.715603768825531,0.18007738888263702
4,5,128,91,0.6743020415306091,0.09325902909040451
4,5,128,92,0.7296963930130005,0.20742559432983398
4,5,128,93,0.5059758424758911,0.08713527768850327
4,5,128,94,0.6123794913291931,0.058204635977745056
4,5,128,95,0.6641574501991272,0.08256033807992935
4,5,128,96,0.6276264786720276,0.04887755960226059
4,5,128,97,0.667424738407135,0.1925671398639679
4,5,128,98,0.6868427991867065,0.08978722244501114
4,5,128,99,0.6096236705780029,0.22205804288387299
4,5,128,100,0.5018970966339111,0.055227454751729965
4,5,128,101,0.5760033130645752,0.0957198441028595
4,5,128,102,0.7401325106620789,0.13057255744934082
4,5,128,103,0.5575000047683716,0.15910717844963074
4,5,128,104,0.7372925281524658,0.11405306309461594
4,5,128,105,0.6080251932144165,0.17291180789470673
4,5,128,106,0.5478116273880005,0.17943331599235535
4,5,128,107,0.6208016276359558,0.14106912910938263
4,5,128,108,0.6506040692329407,0.1421332210302353
4,5,128,109,0.6665769815444946,0.10114718228578568
4,5,128,110,0.6956773400306702,0.25224125385284424
4,5,128,111,0.5605325698852539,0.06640757620334625
4,5,128,112,0.47416895627975464,0.07868178933858871
4,5,128,113,0.5300007462501526,0.04430662468075752
4,5,128,114,0.379903107881546,0.10375431925058365
4,5,128,115,0.6075596809387207,0.06101592630147934
4,5,128,116,0.3280693590641022,0.1667548418045044
4,5,128,117,0.799407958984375,0.12557406723499298
4,5,128,118,0.6660343408584595,0.17846734821796417
4,5,128,119,0.41148748993873596,0.08065662533044815
4,5,128,120,0.7177387475967407,0.09011851996183395
4,5,128,121,0.5794309377670288,0.2633192837238312
4,5,128,122,0.5602032542228699,0.12848882377147675
4,5,128,123,0.6555796265602112,0.1103963553905487
4,5,128,124,0.47901198267936707,0.046961575746536255
4,5,128,125,0.42625588178634644,0.14416953921318054
4,5,128,126,0.5387569665908813,0.03547284007072449
4,5,128,127,0.5061827898025513,0.09155332297086716
5,0,32,0,0.6107019782066345,0.025668341666460037
5,0,32,1,0.587438702583313,0.05628611147403717
5,0,32,2,0.5229241251945496,0.03657044097781181
5,0,32,3,0.501009464263916,0.019238963723182678
5,0,32,4,0.4992426633834839,0.057640738785266876
5,0,32,5,0.54100501537323,0.021685047075152397
5,0,32,6,0.5629141926765442,0.02852821908891201
5,0,32,7,0.5378776788711548,0.038768891245126724
5,0,32,8,0.542227566242218,0.01961410604417324
5,0,32,9,0.47286343574523926,0.02828792855143547
5,0,32,10,0.6053037047386169,0.023555969819426537
5,0,32,11,0.4885123670101166,0.062385816127061844
5,0,32,12,0.42439886927604675,0.027664629742503166
5,0,32,13,0.515086829662323,0.02762874774634838
5,0,32,14,0.5618606209754944,0.07651980221271515
5,0,32,15,0.46349650621414185,0.03994743525981903
5,0,32,16,0.47600147128105164,0.031996939331293106
5,0,32,17,0.4361764192581177,0.029881758615374565
5,0,32,18,0.5015349388122559,0.027208596467971802
5,0,32,19,0.6000592708587646,0.052286986261606216
5,0,32,20,0.4724176824092865,0.047921307384967804
5,0,32,21,0.5041316747665405,0.027970286086201668
5,0,32,22,0.5010207295417786,0.028647521510720253
5,0,32,23,0.5274931192398071,0.023375142365694046
5,0,32,24,0.5989511609077454,0.06566661596298218
5,0,32,25,0.4535355269908905,0.036337465047836304
5,0,32,26,0.4546489417552948,0.03313596919178963
5,0,32,27,0.48205259442329407,0.04137851297855377
5,0,32,28,0.48669955134391785,0.017452148720622063
5,0,32,29,0.40495532751083374,0.03781720995903015
5,0,32,30,0.4385705590248108,0.03624996542930603
5,0,32,31,0.40050631761550903,0.036339908838272095
5,1,32,0,0.43716558814048767,0.039198413491249084
5,1,32,1,0.5619235038757324,0.017037125304341316
5,1,32,2,0.6235225796699524,0.03576657921075821
5,1,32,3,0.541074275970459,0.046212438493967056
5,1,32,4,0.4678267538547516,0.037227313965559006
5,1,32,5,0.48266860842704773,0.014607605524361134
5,1,32,6,0.5314804315567017,0.03143811970949173
5,1,32,7,0.4269165098667145,0.04786110669374466
5,1,32,8,0.4948062300682068,0.033130381256341934
5,1,32,9,0.4144207835197449,0.04797826334834099
5,1,32,10,0.41416776180267334,0.023871932178735733
5,1,32,11,0.5910170674324036,0.03451092913746834
5,1,32,12,0.47959059476852417,0.05140217766165733
5,1,32,13,0.5744994282722473,0.020618721842765808
5,1,32,14,0.4930855631828308,0.06140706688165665
5,1,32,15,0.4059165418148041,0.04656325653195381
5,1,32,16,0.5695303082466125,0.04717336967587471
5,1,32,17,0.5497593879699707,0.03796860948204994
5,1,32,18,0.46080607175827026,0.04541819542646408
5,1,32,19,0.4173548221588135,0.04015958681702614
5,1,32,20,0.5412247776985168,0.04411407932639122
5,1,32,21,0.44058674573898315,0.03778431564569473
5,1,32,22,0.38458994030952454,0.036914851516485214
5,1,32,23,0.5488633513450623,0.037876907736063004
5,1,32,24,0.5960639119148254,0.014330558478832245
5,1,32,25,0.5102584958076477,0.04450371488928795
5,1,32,26,0.43195873498916626,0.012093731202185154
5,1,32,27,0.4475291669368744,0.016787275671958923
5,1,32,28,0.49265190958976746,0.0335732065141201
5,1,32,29,0.6297389268875122,0.02500009909272194
5,1,32,30,0.44177600741386414,0.040020350366830826
5,1,32,31,0.546868085861206,0.03407280892133713
5,2,64,0,0.511380672454834,0.09541165828704834
5,2,64,1,0.531680166721344,0.0737907737493515
5,2,64,2,0.5461517572402954,0.057610247284173965
5,2,64,3,0.44041556119918823,0.037789106369018555
5,2,64,4,0.5214285254478455,0.04630541056394577
5,2,64,5,0.528132975101471,0.08728141337633133
5,2,64,6,0.4912450611591339,0.03596669062972069
5,2,64,7,0.44694337248802185,0.0698123350739479
5,2,64,8,0.569194495677948,0.0723799467086792
5,2,64,9,0.44904306530952454,0.07066017389297485
5,2,64,10,0.5742164850234985,0.056739844381809235
5,2,64,11,0.5014935731887817,0.061863064765930176
5,2,64,12,0.4089048206806183,0.030968884006142616
5,2,64,13,0.4735265076160431,0.04884301871061325
5,2,64,14,0.5650711059570312,0.04698265343904495
5,2,64,15,0.40565288066864014,0.07507922500371933
5,2,64,16,0.6237269043922424,0.05461433157324791
5,2,64,17,0.6215723156929016,0.06481236964464188
5,2,64,18,0.4661586284637451,0.09087705612182617
5,2,64,19,0.5189865231513977,0.07738179713487625
5,2,64,20,0.4668213725090027,0.07799553871154785
5,2,64,21,0.44842422008514404,0.03985442966222763
5,2,64,22,0.46891406178474426,0.07629593461751938
5,2,64,23,0.42081594467163086,0.05939183011651039
5,2,64,24,0.48658788204193115,0.031143316999077797
5,2,64,25,0.5050400495529175,0.052921704947948456
5,2,64,26,0.4736930727958679,0.09380429983139038
5,2,64,27,0.5152803063392639,0.04649775102734566
5,2,64,28,0.5566629767417908,0.04161260277032852
5,2,64,29,0.445298433303833,0.04714103788137436
5,2,64,30,0.412689208984375,0.06016180291771889
5,2,64,31,0.48405852913856506,0.10904788970947266
5,2,64,32,0.5065937042236328,0.10213581472635269
5,2,64,33,0.5355048179626465,0.0505574494600296
5,2,64,34,0.5859897136688232,0.054711561650037766
5,2,64,35,0.47308534383773804,0.035116203129291534
5,2,64,36,0.42620572447776794,0.07847246527671814
5,2,64,37,0.5564358830451965,0.0826343521475792
5,2,64,38,0.512243390083313,0.04471782594919205
5,2,64,39,0.5602835416793823,0.07743574678897858
5,2,64,40,0.5032627582550049,0.02968475967645645
5,2,64,41,0.5439874529838562,0.03882743418216705
5,2,64,42,0.4938914477825165,0.0616118423640728
5,2,64,43,0.505355954170227,0.06263072788715363
5,2,64,44,0.4703049659729004,0.05322348326444626
5,2,64,45,0.5355448126792908,0.06275781244039536
5,2,64,46,0.43155622482299805,0.06741275638341904
5,2,64,47,0.5463957190513611,0.08816956728696823
5,2,64,48,0.4764179289340973,0.030132625252008438
5,2,64,49,0.581308901309967,0.04481937363743782
5,2,64,50,0.4957541227340698,0.05515045300126076
5,2,64,51,0.502581775188446,0.06609202921390533
5,2,64,52,0.455180287361145,0.06965930759906769
5,2,64,53,0.42957714200019836,0.10381484031677246
5,2,64,54,0.5560030937194824,0.045295488089323044
5,2,64,55,0.4695359170436859,0.05212555453181267
5,2,64,56,0.4207209050655365,0.0433063767850399
5,2,64,57,0.598483681678772,0.025349264964461327
5,2,64,58,0.6116244792938232,0.06120187044143677
5,2,64,59,0.4923439621925354,0.09178540110588074
5,2,64,60,0.39428916573524475,0.07412417232990265
5,2,64,61,0.4028308391571045,0.037022195756435394
5,2,64,62,0.48785266280174255,0.07136797159910202
5,2,64,63,0.445963591337204,0.044037386775016785
5,3,64,0,0.5341748595237732,0.09250062704086304
5,3,64,1,0.597669243812561,0.12270843237638474
5,3,64,2,0.46456998586654663,0.03691026568412781
5,3,64,3,0.28698816895484924,0.09506082534790039
5,3,64,4,0.6387957334518433,0.03664412349462509
5,3,64,5,0.6364898085594177,0.16425937414169312
5,3,64,6,0.6486890316009521,0.12424483895301819
5,3,64,7,0.6350367665290833,0.06296360492706299
5,3,64,8,0.48006314039230347,0.02640138380229473
5,3,64,9,0.47595861554145813,0.14339391887187958
5,3,64,10,0.45243558287620544,0.06548965722322464
5,3,64,11,0.5213278532028198,0.02758074551820755
5,3,64,12,0.454891175031662,0.062012914568185806
5,3,64,13,0.36000585556030273,0.028790725395083427
5,3,64,14,0.36395424604415894,0.049521055072546005
5,3,64,15,0.29993441700935364,0.0702965036034584
5,3,64,16,0.535642147064209,0.07612182199954987
5,3,64,17,0.6221421957015991,0.060813773423433304
5,3,64,18,0.5155932903289795,0.040460892021656036
5,3,64,19,0.6569859385490417,0.11497624218463898
5,3,64,20,0.35355398058891296,0.06750553101301193
5,3,64,21,0.537186861038208,0.0332501195371151
5,3,64,22,0.6824966073036194,0.1636611968278885
5,3,64,23,0.44423744082450867,0.08601965755224228
5,3,64,24,0.5794322490692139,0.11596763134002686
5,3,64,25,0.5226848721504211,0.07606955617666245
5,3,64,26,0.4083044230937958,0.0839681327342987
5,3,64,27,0.549591600894928,0.09419866651296616
5,3,64,28,0.3419189155101776,0.07393688708543777
5,3,64,29,0.581066906452179,0.06342583894729614
5,3,64,30,0.7477719783782959,0.15089526772499084
5,3,64,31,0.41972672939300537,0.07105080783367157
5,3,64,32,0.5065620541572571,0.08048402518033981
5,3,64,33,0.5178192257881165,0.0419013574719429
5,3,64,34,0.5418792963027954,0.062278855592012405
5,3,64,35,0.43173807859420776,0.05950995534658432
5,3,64,36,0.6907786726951599,0.07635171711444855
5,3,64,37,0.5842015147209167,0.058543261140584946
5,3,64,38,0.6586460471153259,0.1599264293909073
5,3,64,39,0.6045739650726318,0.18900951743125916
5,3,64,40,0.4493729770183563,0.15276280045509338
5,3,64,41,0.5822357535362244,0.11146716773509979
5,3,64,42,0.423922061920166,0.0857127383351326
5,3,64,43,0.2886808514595032,0.08868208527565002
5,3,64,44,0.48495009541511536,0.017941255122423172
5,3,64,45,0.4225446581840515,0.05362715572118759
5,3,64,46,0.5313788652420044,0.05433545634150505
5,3,64,47,0.41713282465934753,0.11261285096406937
5,3,64,48,0.6072940230369568,0.06944435089826584
5,3,64,49,0.5166398286819458,0.08382688462734222
5,3,64,50,0.5574553608894348,0.06314515322446823
5,3,64,51,0.39228472113609314,0.10242049396038055
5,3,64,52,0.6974433660507202,0.11754041165113449
5,3,64,53,0.37306568026542664,0.13216257095336914
5,3,64,54,0.5840849280357361,0.08297734707593918
5,3,64,55,0.37153083086013794,0.12016162276268005
5,3,64,56,0.7126821875572205,0.08209498226642609
5,3,64,57,0.7150897979736328,0.19290010631084442
5,3,64,58,0.5536128878593445,0.053363244980573654
5,3,64,59,0.6340949535369873,0.05540242791175842
5,3,64,60,0.3374019265174866,0.053249627351760864
5,3,64,61,0.5890356302261353,0.08599980175495148
5,3,64,62,0.6966288685798645,0.10394415259361267
5,3,64,63,0.5407077670097351,0.013656221330165863
5,4,128,0,0.6905481219291687,0.14655546844005585
5,4,128,1,0.6034325361251831,0.055054426193237305
5,4,128,2,0.5940021276473999,0.12142918258905411
5,4,128,3,0.5871527194976807,0.055847443640232086
5,4,128,4,0.6152679920196533,0.14646710455417633
5,4,128,5,0.5538769364356995,0.035715386271476746
5,4,128,6,0.5879827737808228,0.1013571098446846
5,4,128,7,0.6070820093154907,0.06745174527168274
5,4,128,8,0.6294906735420227,0.11618851870298386
5,4,128,9,0.5558982491493225,0.04471614956855774
5,4,128,10,0.4926035702228546,0.07840596139431
5,4,128,11,0.5669063925743103,0.07290337979793549
5,4,128,12,0.6240159273147583,0.0861821249127388
5,4,128,13,0.5621206164360046,0.12136619538068771
5,4,128,14,0.7533629536628723,0.14986170828342438
5,4,128,15,0.4710938632488251,0.04555223882198334
5,4,128,16,0.572847843170166,0.08852989971637726
5,4,128,17,0.49929723143577576,0.08952851593494415
5,4,128,18,0.6189118027687073,0.0734877660870552
5,4,128,19,0.44780221581459045,0.04283406585454941
5,4,128,20,0.4099135398864746,0.08810769021511078
5,4,128,21,0.3993399143218994,0.08908693492412567
5,4,128,22,0.6094396114349365,0.1433233618736267
5,4,128,23,0.4353235960006714,0.03451158106327057
5,4,128,24,0.6438987255096436,0.10860179364681244
5,4,128,25,0.3234088718891144,0.07944581657648087
5,4,128,26,0.644438624382019,0.039502356201410294
5,4,128,27,0.5808788537979126,0.08516722917556763
5,4,128,28,0.3813930153846741,0.1511252373456955
5,4,128,29,0.45555412769317627,0.03744872659444809
5,4,128,30,0.5672787427902222,0.07553257048130035
5,4,128,31,0.41344696283340454,0.11968586593866348
5,4,128,32,0.34142449498176575,0.08253150433301926
5,4,128,33,0.4910964071750641,0.07703491300344467
5,4,128,34,0.4813081622123718,0.041917331516742706
5,4,128,35,0.49867329001426697,0.10770834982395172
5,4,128,36,0.3253479301929474,0.0625368058681488
5,4,128,37,0.554407000541687,0.09533729404211044
5,4,128,38,0.6408950090408325,0.053242702037096024
5,4,128,39,0.6015698909759521,0.09384313225746155
5,4,128,40,0.4302423298358917,0.04471921548247337
5,4,128,41,0.4771629869937897,0.07211640477180481
5,4,128,42,0.4274349808692932,0.032552145421504974
5,4,128,43,0.5277110934257507,0.06539561599493027
5,4,128,44,0.4781526029109955,0.06824080646038055
5,4,128,45,0.4874015748500824,0.04204936698079109
5,4,128,46,0.539831280708313,0.05577733740210533
5,4,128,47,0.5549739003181458,0.11620777100324631
5,4,128,48,0.48004674911499023,0.03398409113287926
5,4,128,49,0.6054317951202393,0.126856729388237
5,4,128,50,0.6251665353775024,0.07516428083181381
5,4,128,51,0.5438440442085266,0.06338099390268326
5,4,128,52,0.5240647196769714,0.07097844779491425
5,4,128,53,0.4763835370540619,0.0420953668653965
5,4,128,54,0.41651615500450134,0.04750080034136772
5,4,128,55,0.45169344544410706,0.059979185461997986
5,4,128,56,0.6877731084823608,0.10261481255292892
5,4,128,57,0.4794689118862152,0.03739995136857033
5,4,128,58,0.5555582046508789,0.15491291880607605
5,4,128,59,0.6541219353675842,0.15917998552322388
5,4,128,60,0.5931904911994934,0.07394217699766159
5,4,128,61,0.6747733950614929,0.16540992259979248
5,4,128,62,0.5828834772109985,0.07834502309560776
5,4,128,63,0.6091791391372681,0.08444501459598541
5,4,128,64,0.4262799322605133,0.079922616481781
5,4,128,65,0.5369573831558228,0.07553845643997192
5,4,128,66,0.6460920572280884,0.13358069956302643
5,4,128,67,0.5672020316123962,0.12424815446138382
5,4,128,68,0.5456182360649109,0.10222207009792328
5,4,128,69,0.4061412513256073,0.11037605255842209
5,4,128,70,0.6560593247413635,0.07743024826049805
5,4,128,71,0.7185227274894714,0.10667247325181961
5,4,128,72,0.4838801622390747,0.0595133975148201
5,4,128,73,0.7262343764305115,0.1236533373594284
5,4,128,74,0.4993264675140381,0.08305397629737854
5,4,128,75,0.48007452487945557,0.11541471630334854
5,4,128,76,0.6161287426948547,0.11057592928409576
5,4,128,77,0.5871635675430298,0.1296302080154419
5,4,128,78,0.5823410749435425,0.04253391548991203
5,4,128,79,0.6448736190795898,0.1617828607559204
5,4,128,80,0.5559824109077454,0.10965549200773239
5,4,128,81,0.6316604018211365,0.13008995354175568
5,4,128,82,0.3433069586753845,0.12401092797517776
5,4,128,83,0.613131046295166,0.16928532719612122
5,4,128,84,0.6723489761352539,0.09265061467885971
5,4,128,85,0.6090566515922546,0.05880885571241379
5,4,128,86,0.498026579618454,0.062156882137060165
5,4,128,87,0.39775994420051575,0.03104599192738533
5,4,128,88,0.3684953451156616,0.05917809531092644
5,4,128,89,0.3938634395599365,0.10260163247585297
5,4,128,90,0.5987339615821838,0.060071785002946854
5,4,128,91,0.5640723705291748,0.13160309195518494
5,4,128,92,0.46806207299232483,0.06785981357097626
5,4,128,93,0.4152333736419678,0.04201192036271095
5,4,128,94,0.5053807497024536,0.05026949942111969
5,4,128,95,0.4824371039867401,0.036835409700870514
5,4,128,96,0.4899972975254059,0.04428481683135033
5,4,128,97,0.42593100666999817,0.06075113266706467
5,4,128,98,0.46591612696647644,0.09014637768268585
5,4,128,99,0.5681976079940796,0.043064847588539124
5,4,128,100,0.42501670122146606,0.10893088579177856
5,4,128,101,0.5645055174827576,0.06171556934714317
5,4,128,102,0.6424591541290283,0.07744254171848297
5,4,128,103,0.6701419353485107,0.1198718398809433
5,4,128,104,0.6747027635574341,0.11613129824399948
5,4,128,105,0.584679365158081,0.0734393522143364
5,4,128,106,0.49828335642814636,0.11944269388914108
5,4,128,107,0.4710894525051117,0.16280637681484222
5,4,128,108,0.6667011976242065,0.13951221108436584
5,4,128,109,0.486812561750412,0.06848341971635818
5,4,128,110,0.49464231729507446,0.07723316550254822
5,4,128,111,0.7137221097946167,0.09705280512571335
5,4,128,112,0.3877815306186676,0.051742035895586014
5,4,128,113,0.4420335292816162,0.030687203630805016
5,4,128,114,0.6461175680160522,0.07247883081436157
5,4,128,115,0.45878514647483826,0.0976780503988266
5,4,128,116,0.40278083086013794,0.1342771351337433
5,4,128,117,0.584880530834198,0.09681397676467896
5,4,128,118,0.6743893027305603,0.09182129055261612
5,4,128,119,0.5753639936447144,0.06548292934894562
5,4,128,120,0.5552605986595154,0.1382424533367157
5,4,128,121,0.6570215821266174,0.1114506796002388
5,4,128,122,0.6754685640335083,0.1074293851852417
5,4,128,123,0.4040983319282532,0.11645112186670303
5,4,128,124,0.6911348104476929,0.11604434996843338
5,4,128,125,0.43172457814216614,0.04077984765172005
5,4,128,126,0.6535560488700867,0.1125197559595108
5,4,128,127,0.42512959241867065,0.06295140832662582
5,5,128,0,0.49883580207824707,0.05293957144021988
5,5,128,1,0.5050503611564636,0.08062475174665451
5,5,128,2,0.5020102262496948,0.06494332104921341
5,5,128,3,0.5308897495269775,0.03424951806664467
5,5,128,4,0.4042800962924957,0.0854954719543457
5,5,128,5,0.6212016940116882,0.16686610877513885
5,5,128,6,0.6046690344810486,0.059821609407663345
5,5,128,7,0.6964355111122131,0.23206132650375366
5,5,128,8,0.5280613303184509,0.13043959438800812
5,5,128,9,0.6281312704086304,0.1947227418422699
5,5,128,10,0.580808162689209,0.21830634772777557
5,5,128,11,0.5671529769897461,0.06393025815486908
5,5,128,12,0.6413693428039551,0.20704810321331024
5,5,128,13,0.49854087829589844,0.1117999255657196
5,5,128,14,0.6232703924179077,0.1384410858154297
5,5,128,15,0.6259132027626038,0.11293724179267883
5,5,128,16,0.6647412180900574,0.07274072617292404
5,5,128,17,0.5069594979286194,0.1147594153881073
5,5,128,18,0.3427225351333618,0.10066301375627518
5,5,128,19,0.5849079489707947,0.1936967670917511
5,5,128,20,0.6037002801895142,0.1267973929643631
5,5,128,21,0.6079342365264893,0.05883423238992691
5,5,128,22,0.5140926837921143,0.06662032008171082
5,5,128,23,0.5917069315910339,0.032225046306848526
5,5,128,24,0.39426538348197937,0.05830562487244606
5,5,128,25,0.6656129360198975,0.055432870984077454
5,5,128,26,0.6370905637741089,0.058074284344911575
5,5,128,27,0.6234058737754822,0.21044999361038208
5,5,128,28,0.5658615827560425,0.10607050359249115
5,5,128,29,0.5148554444313049,0.08701848238706589
5,5,128,30,0.5853327512741089,0.02901359647512436
5,5,128,31,0.5932770371437073,0.1541709005832672
5,5,128,32,0.45508381724357605,0.05111710727214813
5,5,128,33,0.6439924836158752,0.0641951858997345
5,5,128,34,0.7866119742393494,0.09366799890995026
5,5,128,35,0.3465370237827301,0.0358961820602417
5,5,128,36,0.4710615873336792,0.10944400727748871
5,5,128,37,0.6654133200645447,0.15457256138324738
5,5,128,38,0.6486918330192566,0.1171770840883255
5,5,128,39,0.6224254965782166,0.07227662205696106
5,5,128,40,0.5723522901535034,0.07186916470527649
5,5,128,41,0.5155078172683716,0.04113834723830223
5,5,128,42,0.5062245726585388,0.1229362040758133
5,5,128,43,0.6128713488578796,0.05516333878040314
5,5,128,44,0.3743681311607361,0.056925296783447266
5,5,128,45,0.556599497795105,0.05624602735042572
5,5,128,46,0.6682370901107788,0.11559973657131195
5,5,128,47,0.39489254355430603,0.08222334086894989
5,5,128,48,0.4943057894706726,0.09418045729398727
5,5,128,49,0.5080676078796387,0.03196832910180092
5,5,128,50,0.5101127028465271,0.027542773634195328
5,5,128,51,0.4165233075618744,0.04460575804114342
5,5,128,52,0.516853928565979,0.08822395652532578
5,5,128,53,0.5343469977378845,0.06576857715845108
5,5,128,54,0.3527020514011383,0.14351575076580048
5,5,128,55,0.5036291480064392,0.13232024013996124
5,5,128,56,0.6671424508094788,0.1092376783490181
5,5,128,57,0.46686479449272156,0.10154534876346588
5,5,128,58,0.5774874687194824,0.1727525144815445
5,5,128,59,0.670769453048706,0.19038616120815277
5,5,128,60,0.622559130191803,0.059704624116420746
5,5,128,61,0.43325933814048767,0.07302152365446091
5,5,128,62,0.6940754055976868,0.13105930387973785
5,5,128,63,0.5945467352867126,0.16466008126735687
5,5,128,64,0.6291676759719849,0.1949445605278015
5,5,128,65,0.7790606617927551,0.169280007481575
5,5,128,66,0.5762622952461243,0.1250918060541153
5,5,128,67,0.5553315877914429,0.048595529049634933
5,5,128,68,0.6856536865234375,0.20395255088806152
5,5,128,69,0.5681976675987244,0.16495132446289062
5,5,128,70,0.6500899791717529,0.12258162349462509
5,5,128,71,0.578088104724884,0.09872349351644516
5,5,128,72,0.678225040435791,0.07053685933351517
5,5,128,73,0.6973568797111511,0.2191089689731598
5,5,128,74,0.6894625425338745,0.08073912560939789
5,5,128,75,0.687427818775177,0.19664891064167023
5,5,128,76,0.4572809934616089,0.06117820367217064
5,5,128,77,0.6562296748161316,0.21182838082313538
5,5,128,78,0.5302597880363464,0.061728790402412415
5,5,128,79,0.5265292525291443,0.12393251061439514
5,5,128,80,0.6232362985610962,0.13812145590782166
5,5,128,81,0.6189842820167542,0.04400458186864853
5,5,128,82,0.4952232539653778,0.09988988190889359
5,5,128,83,0.4628654420375824,0.07646571844816208
5,5,128,84,0.5578988790512085,0.05744319409132004
5,5,128,85,0.5251635313034058,0.07644882798194885
5,5,128,86,0.5725202560424805,0.04482207074761391
5,5,128,87,0.5380891561508179,0.10427677631378174
5,5,128,88,0.5287797451019287,0.03524233028292656
5,5,128,89,0.7088601589202881,0.14471662044525146
5,5,128,90,0.6883364915847778,0.1904551386833191
5,5,128,91,0.7117138504981995,0.13262435793876648
5,5,128,92,0.607864260673523,0.12730534374713898
5,5,128,93,0.7551351189613342,0.12303813546895981
5,5,128,94,0.30079516768455505,0.19088959693908691
5,5,128,95,0.6227931380271912,0.18448661267757416
5,5,128,96,0.734478771686554,0.12652648985385895
5,5,128,97,0.3831973373889923,0.11986111849546432
5,5,128,98,0.6750187277793884,0.14646542072296143
5,5,128,99,0.5107746720314026,0.02330540493130684
5,5,128,100,0.42827191948890686,0.034411411732435226
5,5,128,101,0.5153326988220215,0.17066851258277893
5,5,128,102,0.4076251983642578,0.0890713632106781
5,5,128,103,0.5256339311599731,0.14921288192272186
5,5,128,104,0.4158194065093994,0.10528723895549774
5,5,128,105,0.5439030528068542,0.03574427589774132
5,5,128,106,0.48331964015960693,0.042088303714990616
5,5,128,107,0.30083245038986206,0.06798557192087173
5,5,128,108,0.6698696613311768,0.17387373745441437
5,5,128,109,0.4815365672111511,0.06715745478868484
5,5,128,110,0.5017314553260803,0.049375515431165695
5,5,128,111,0.490487277507782,0.1335494965314865
5,5,128,112,0.45449426770210266,0.10493142157793045
5,5,128,113,0.6639147400856018,0.18688970804214478
5,5,128,114,0.5163800120353699,0.029581015929579735
5,5,128,115,0.5845821499824524,0.08450604975223541
5,5,128,116,0.5500163435935974,0.08647516369819641
5,5,128,117,0.6987154483795166,0.18175537884235382
5,5,128,118,0.6396440267562866,0.0800524428486824
5,5,128,119,0.5984418988227844,0.042075060307979584
5,5,128,120,0.30014780163764954,0.08557189255952835
5,5,128,121,0.6899589896202087,0.08862172067165375
5,5,128,122,0.5209081768989563,0.019567253068089485
5,5,128,123,0.6733983755111694,0.10744181275367737
5,5,128,124,0.7536068558692932,0.14668792486190796
5,5,128,125,0.6176238656044006,0.06629069149494171
5,5,128,126,0.4329661428928375,0.05337829142808914
5,5,128,127,0.5373630523681641,0.04192635044455528
6,0,32,0,0.5178271532058716,0.0976557582616806
6,0,32,1,0.5123438239097595,0.08043383061885834
6,0,32,2,0.5168552994728088,0.10258392244577408
6,0,32,3,0.4275118112564087,0.035541679710149765
6,0,32,4,0.6859683394432068,0.07683929055929184
6,0,32,5,0.43287917971611023,0.08068294078111649
6,0,32,6,0.4518681764602661,0.16610008478164673
6,0,32,7,0.5059921145439148,0.07013288885354996
6,0,32,8,0.5005407333374023,0.10672073066234589
6,0,32,9,0.5788812041282654,0.011009251698851585
6,0,32,10,0.4815651774406433,0.11217750608921051
6,0,32,11,0.6215938329696655,0.1036413162946701
6,0,32,12,0.6374377012252808,0.11755291372537613
6,0,32,13,0.6444314122200012,0.09204670786857605
6,0,32,14,0.48127952218055725,0.0785984918475151
6,0,32,15,0.6334677934646606,0.07585158199071884
6,0,32,16,0.5514540076255798,0.13550226390361786
6,0,32,17,0.5220162272453308,0.06849335134029388
6,0,32,18,0.505936861038208,0.11647164821624756
6,0,32,19,0.4327043294906616,0.027758575975894928
6,0,32,20,0.4809904396533966,0.08078238368034363
6,0,32,21,0.5884609818458557,0.11489377915859222
6,0,32,22,0.5429171919822693,0.11170780658721924
6,0,32,23,0.5637394785881042,0.012766556814312935
6,0,32,24,0.49116864800453186,0.08206038922071457
6,0,32,25,0.47790491580963135,0.12017054110765457
6,0,32,26,0.48006489872932434,0.02497561275959015
6,0,32,27,0.3650703728199005,0.04375085234642029
6,0,32,28,0.478254109621048,0.05953972414135933
6,0,32,29,0.5790537595748901,0.1313602477312088
6,0,32,30,0.4227176308631897,0.07721138000488281
6,0,32,31,0.5063026547431946,0.05643433332443237
6,1,32,0,0.6868215203285217,0.09372679144144058
6,1,32,1,0.4880003035068512,0.09063613414764404
6,1,32,2,0.48891541361808777,0.061942439526319504
6,1,32,3,0.4577498435974121,0.07513163238763809
6,1,32,4,0.37831032276153564,0.07582063227891922
6,1,32,5,0.3951182961463928,0.03596173971891403
6,1,32,6,0.4769125282764435,0.09095406532287598
6,1,32,7,0.4682752788066864,0.1452784687280655
6,1,32,8,0.5339131951332092,0.10125121474266052
6,1,32,9,0.5379410982131958,0.0575716458261013
6,1,32,10,0.4170156419277191,0.07497863471508026
6,1,32,11,0.4761779010295868,0.05389300733804703
6,1,32,12,0.4685719609260559,0.11162456125020981
6,1,32,13,0.37892135977745056,0.07566916197538376
6,1,32,14,0.5610154867172241,0.10021901875734329
6,1,32,15,0.38194528222084045,0.06262519210577011
6,1,32,16,0.5607183575630188,0.09246854484081268
6,1,32,17,0.3954847753047943,0.09341508150100708
6,1,32,18,0.3949691951274872,0.04687904566526413
6,1,32,19,0.46010833978652954,0.15733638405799866
6,1,32,20,0.3725033104419708,0.051185332238674164
6,1,32,21,0.5196260213851929,0.04019525647163391
6,1,32,22,0.5453191995620728,0.06663724035024643
6,1,32,23,0.46876832842826843,0.10706888139247894
6,1,32,24,0.4837275445461273,0.09556801617145538
6,1,32,25,0.4297311007976532,0.04981036111712456
6,1,32,26,0.622074544429779,0.10006368160247803
6,1,32,27,0.34428760409355164,0.11392764747142792
6,1,32,28,0.49800431728363037,0.05091075971722603
6,1,32,29,0.47580018639564514,0.11784832924604416
6,1,32,30,0.6649549603462219,0.0719795823097229
6,1,32,31,0.5520060658454895,0.10281679779291153
6,2,64,0,0.48256900906562805,0.026025474071502686
6,2,64,1,0.5095760226249695,0.07946739345788956
6,2,64,2,0.46227604150772095,0.08553704619407654
6,2,64,3,0.5104086399078369,0.14468827843666077
6,2,64,4,0.49753251671791077,0.08053737878799438
6,2,64,5,0.512850284576416,0.10030163079500198
6,2,64,6,0.4757228195667267,0.07262353599071503
6,2,64,7,0.5799868106842041,0.08685533702373505
6,2,64,8,0.44125130772590637,0.07519293576478958
6,2,64,9,0.45612069964408875,0.1097559779882431
6,2,64,10,0.5011948347091675,0.17632655799388885
6,2,64,11,0.4712543189525604,0.12297752499580383
6,2,64,12,0.4387010335922241,0.10303466022014618
6,2,64,13,0.583090603351593,0.11680485308170319
6,2,64,14,0.35900238156318665,0.10983951389789581
6,2,64,15,0.4758177697658539,0.09266924858093262
6,2,64,16,0.4071166217327118,0.12491101771593094
6,2,64,17,0.38098692893981934,0.06452982127666473
6,2,64,18,0.5284608006477356,0.11578651517629623
6,2,64,19,0.5518690943717957,0.11302396655082703
6,2,64,20,0.4997175931930542,0.029933419078588486
6,2,64,21,0.5918445587158203,0.11592502892017365
6,2,64,22,0.5696950554847717,0.11632994562387466
6,2,64,23,0.47875693440437317,0.12860585749149323
6,2,64,24,0.5511037111282349,0.1699465960264206
6,2,64,25,0.535246729850769,0.07667593657970428
6,2,64,26,0.3244900107383728,0.10355796664953232
6,2,64,27,0.44497066736221313,0.09891580045223236
6,2,64,28,0.38830888271331787,0.0863267183303833
6,2,64,29,0.4455682635307312,0.13547533750534058
6,2,64,30,0.40130025148391724,0.09985984861850739
6,2,64,31,0.5323112607002258,0.04324427247047424
6,2,64,32,0.488569974899292,0.15708787739276886
6,2,64,33,0.48969945311546326,0.11098557710647583
6,2,64,34,0.5495570302009583,0.08171355724334717
6,2,64,35,0.4821561574935913,0.13743460178375244
6,2,64,36,0.463253915309906,0.14000938832759857
6,2,64,37,0.6445033550262451,0.09524191915988922
6,2,64,38,0.36436858773231506,0.15853190422058105
6,2,64,39,0.4890347123146057,0.147498220205307
6,2,64,40,0.464733362197876,0.12243980914354324
6,2,64,41,0.48517003655433655,0.09028937667608261
6,2,64,42,0.5305870175361633,0.1258847713470459
6,2,64,43,0.41552284359931946,0.10580071061849594
6,2,64,44,0.5432924628257751,0.1710030734539032
6,2,64,45,0.47671735286712646,0.15458202362060547
6,2,64,46,0.42155978083610535,0.1424674093723297
6,2,64,47,0.48388442397117615,0.10819472372531891
6,2,64,48,0.3919369876384735,0.10600187629461288
6,2,64,49,0.3730500638484955,0.1592809557914734
6,2,64,50,0.5769115686416626,0.07837754487991333
6,2,64,51,0.5114195942878723,0.1540118157863617
6,2,64,52,0.5806211829185486,0.0796380415558815
6,2,64,53,0.40210846066474915,0.08884690701961517
6,2,64,54,0.44234511256217957,0.14714492857456207
6,2,64,55,0.4153394103050232,0.12768356502056122
6,2,64,56,0.4429331123828888,0.1631290763616562
6,2,64,57,0.491098016500473,0.06230036914348602
6,2,64,58,0.5030069947242737,0.07593508809804916
6,2,64,59,0.4557916522026062,0.10196337103843689
6,2,64,60,0.4653526544570923,0.13046574592590332
6,2,64,61,0.44922271370887756,0.0761466696858406
6,2,64,62,0.583591639995575,0.10391256958246231
6,2,64,63,0.6178566813468933,0.0717453584074974
6,3,64,0,0.5513599514961243,0.04567183926701546
6,3,64,1,0.5762678980827332,0.10369225591421127
6,3,64,2,0.6309111714363098,0.08947474509477615
6,3,64,3,0.4380228519439697,0.06671036034822464
6,3,64,4,0.4735003709793091,0.08975233137607574
6,3,64,5,0.48228639364242554,0.14374962449073792
6,3,64,6,0.6061792969703674,0.05436477065086365
6,3,64,7,0.4048921763896942,0.09408367425203323
6,3,64,8,0.4604962170124054,0.12686069309711456
6,3,64,9,0.469159334897995,0.10787822306156158
6,3,64,10,0.5354498624801636,0.09578341990709305
6,3,64,11,0.6712858080863953,0.10453899204730988
6,3,64,12,0.49625927209854126,0.13607780635356903
6,3,64,13,0.6163925528526306,0.07762505114078522
6,3,64,14,0.44202151894569397,0.03377339616417885
6,3,64,15,0.5504199862480164,0.08998961001634598
6,3,64,16,0.589819610118866,0.12069801241159439
6,3,64,17,0.4647606909275055,0.07431318610906601
6,3,64,18,0.33906134963035583,0.09041835367679596
6,3,64,19,0.5481569766998291,0.04781900346279144
6,3,64,20,0.5581918954849243,0.03781865909695625
6,3,64,21,0.5075692534446716,0.1086401641368866
6,3,64,22,0.41706955432891846,0.05176682397723198
6,3,64,23,0.5191574096679688,0.09803441166877747
6,3,64,24,0.42888396978378296,0.08244450390338898
6,3,64,25,0.4720030725002289,0.11008936166763306
6,3,64,26,0.5445860624313354,0.05786094814538956
6,3,64,27,0.4077009856700897,0.07012582570314407
6,3,64,28,0.515555739402771,0.05024603009223938
6,3,64,29,0.5547465085983276,0.15372636914253235
6,3,64,30,0.5214897394180298,0.0656958743929863
6,3,64,31,0.4915127754211426,0.022233273833990097
6,3,64,32,0.6010542511940002,0.16640271246433258
6,3,64,33,0.5432852506637573,0.10831274092197418
6,3,64,34,0.5160762071609497,0.14379148185253143
6,3,64,35,0.672200620174408,0.08735837787389755
6,3,64,36,0.6013761758804321,0.10544397681951523
6,3,64,37,0.5677899718284607,0.11628877371549606
6,3,64,38,0.3611704111099243,0.11607657372951508
6,3,64,39,0.5866310000419617,0.09123563766479492
6,3,64,40,0.5606244206428528,0.05281323939561844
6,3,64,41,0.5409334301948547,0.13295961916446686
6,3,64,42,0.4827544689178467,0.15799130499362946
6,3,64,43,0.380181223154068,0.07067673653364182
6,3,64,44,0.5282381772994995,0.1116596907377243
6,3,64,45,0.29094627499580383,0.08126173913478851
6,3,64,46,0.5986774563789368,0.07483044266700745
6,3,64,47,0.38756823539733887,0.07883884012699127
6,3,64,48,0.5426304936408997,0.13635994493961334
6,3,64,49,0.47293347120285034,0.03230637311935425
6,3,64,50,0.5540482401847839,0.05991007760167122
6,3,64,51,0.546211838722229,0.07678379118442535
6,3,64,52,0.45292168855667114,0.03885728120803833
6,3,64,53,0.4756852388381958,0.0777786374092102
6,3,64,54,0.34508419036865234,0.14450880885124207
