subject,channel,f1_full,f1_occluded,drop_pp
1,0,0.6909336573209994,0.691511673591237,-0.05780162702375691
1,1,0.6909336573209994,0.68059454546829,1.0339111852709415
1,2,0.6909336573209994,0.7107084286759846,-1.9774771354985177
1,3,0.6909336573209994,0.6741080156402737,1.6825641680725756
1,4,0.6909336573209994,0.7152556737391533,-2.4322016418153902
1,5,0.6909336573209994,0.6095770019434658,8.135665537753367
1,6,0.6909336573209994,0.7311271581426387,-4.01935008216393
1,7,0.6909336573209994,0.6896758945008639,0.12577628201355662
1,8,0.6909336573209994,0.6802207015187056,1.071295580229381
2,0,0.8145444470136104,0.829201463930125,-1.4657016916514554
2,1,0.8145444470136104,0.7732933062313238,4.125114078228664
2,2,0.8145444470136104,0.76953129696502,4.501315004859041
2,3,0.8145444470136104,0.7785338084571203,3.6010638556490115
2,4,0.8145444470136104,0.8406224358774854,-2.6077988863875023
2,5,0.8145444470136104,0.8096208471473959,0.492359986621449
2,6,0.8145444470136104,0.7576488547623069,5.689559225130347
2,7,0.8145444470136104,0.7072495029031076,10.729494411050277
2,8,0.8145444470136104,0.8404485562433994,-2.590410922978903
3,0,0.9053481925799522,0.9148695498170738,-0.9521357237121553
3,1,0.9053481925799522,0.8710315373563939,3.431665522355831
3,2,0.9053481925799522,0.8874392767714391,1.790891580851317
3,3,0.9053481925799522,0.8238411648772634,8.15070277026888
3,4,0.9053481925799522,0.8999954405874563,0.5352751992495963
3,5,0.9053481925799522,0.9170365047427422,-1.1688312162789982
3,6,0.9053481925799522,0.9184758302897745,-1.3127637709822282
3,7,0.9053481925799522,0.8872654218178899,1.8082770762062328
3,8,0.9053481925799522,0.8937863737356481,1.1561818844304184
4,0,0.9056397661141194,0.8970142658230059,0.862550029111353
4,1,0.9056397661141194,0.8532032856320422,5.243648048207728
4,2,0.9056397661141194,0.8472566166228137,5.838314949130574
4,3,0.9056397661141194,0.8932927614600839,1.2347004654035598
4,4,0.9056397661141194,0.875955035070592,2.9684731043527424
4,5,0.9056397661141194,0.8865293794056395,1.9110386708479976
4,6,0.9056397661141194,0.9131034525424169,-0.7463686428297422
4,7,0.9056397661141194,0.8948157315731573,1.0824034540962146
4,8,0.9056397661141194,0.8837976410719499,2.1842125042169536
5,0,0.6760466126893133,0.6533183860901293,2.2728226599184054
5,1,0.6760466126893133,0.6867147559332238,-1.0668143243910522
5,2,0.6760466126893133,0.6940601841097213,-1.8013571420407937
5,3,0.6760466126893133,0.7054892663256591,-2.9442653636345795
5,4,0.6760466126893133,0.6589371796777717,1.7109433011541664
5,5,0.6760466126893133,0.6317291447202109,4.431746796910241
5,6,0.6760466126893133,0.686463012731712,-1.0416400042398632
5,7,0.6760466126893133,0.6775064323068027,-0.14598196174894218
5,8,0.6760466126893133,0.6413118834273119,3.4734729262001385
6,0,0.8272348309988798,0.8180545916828803,0.9180239315999539
6,1,0.8272348309988798,0.8021183503872231,2.511648061165672
6,2,0.8272348309988798,0.7986632918951837,2.857153910369614
6,3,0.8272348309988798,0.8471801233672804,-1.9945292368400591
6,4,0.8272348309988798,0.8082484126149414,1.8986418383938442
6,5,0.8272348309988798,0.8011723845262632,2.6062446472616685
6,6,0.8272348309988798,0.803765988924829,2.3468842074050866
6,7,0.8272348309988798,0.7502341004624757,7.700073053640411
6,8,0.8272348309988798,0.7484949467362518,7.873988426262802
7,0,0.7956171983292379,0.7802647041769686,1.5352494152269358
7,1,0.7956171983292379,0.771520301889485,2.409689643975299
7,2,0.7956171983292379,0.7637663553192886,3.1850843009949337
7,3,0.7956171983292379,0.8175042900709084,-2.1887091741670472
7,4,0.7956171983292379,0.7799002290607447,1.5716969268493197
7,5,0.7956171983292379,0.8162825792372806,-2.0665380908042708
7,6,0.7956171983292379,0.755992755297863,3.962444303137491
7,7,0.7956171983292379,0.7784974345783091,1.711976375092883
7,8,0.7956171983292379,0.7492756079477079,4.634159038153007
8,0,0.8762626849837637,0.8830303368415289,-0.6767651857765178
8,1,0.8762626849837637,0.8735372340425531,0.2725450941210572
8,2,0.8762626849837637,0.8698979274427202,0.6364757541043486
8,3,0.8762626849837637,0.8379024978276253,3.8360187156138426
8,4,0.8762626849837637,0.8475392071642887,2.872347781947504
8,5,0.8762626849837637,0.8679085352704372,0.8354149713326486
8,6,0.8762626849837637,0.8609823645251218,1.5280320458641916
8,7,0.8762626849837637,0.8155769385053921,6.0685746478371545
8,8,0.8762626849837637,0.8458289127647673,3.0433772218996347
9,0,0.8089478363306252,0.8177476737821565,-0.8799837451531345
9,1,0.8089478363306252,0.773621326533948,3.5326509796677175
9,2,0.8089478363306252,0.7907219156095295,1.8225920721095634
9,3,0.8089478363306252,0.7915241774006391,1.7423658929986097
9,4,0.8089478363306252,0.800738984586657,0.8208851743968126
9,5,0.8089478363306252,0.8007524348727681,0.8195401457857021
9,6,0.8089478363306252,0.8364890864408664,-2.754125011024122
9,7,0.8089478363306252,0.7897719070467929,1.9175929283832271
9,8,0.8089478363306252,0.823856616783607,-1.490878045298183
10,0,0.7793923220302229,0.7568062495738485,2.258607245637445
10,1,0.7793923220302229,0.7594551935918517,1.9937128438371254
10,2,0.7793923220302229,0.7656115209544483,1.3780801075774618
10,3,0.7793923220302229,0.7600660386897216,1.932628334050135
10,4,0.7793923220302229,0.7539703217268522,2.5422000303370718
10,5,0.7793923220302229,0.7607605807088219,1.8631741321400996
10,6,0.7793923220302229,0.8377872453576679,-5.8394923327445
10,7,0.7793923220302229,0.7562559847986116,2.313633723161135
10,8,0.7793923220302229,0.7926030167317875,-1.3210694701564552
11,0,0.9442912246582267,0.943104060033066,0.11871646251606638
11,1,0.9442912246582267,0.912145439466386,3.2145785191840637
11,2,0.9442912246582267,0.9089405695299986,3.5350655128228103
11,3,0.9442912246582267,0.9300429446802116,1.4248279978015033
11,4,0.9442912246582267,0.9334414572672112,1.0849767391015508
11,5,0.9442912246582267,0.9451169305171179,-0.08257058588911903
11,6,0.9442912246582267,0.94331080504861,0.09804196096167006
11,7,0.9442912246582267,0.9432197415209753,0.10714831372513611
11,8,0.9442912246582267,0.9433926099194611,0.0898614738765624
12,0,0.9035714862255957,0.8806239271394172,2.2947559086178515
12,1,0.9035714862255957,0.8740014981584594,2.956998806713629
12,2,0.9035714862255957,0.8647574726268761,3.881401359871961
12,3,0.9035714862255957,0.8388968406600041,6.467464556559155
12,4,0.9035714862255957,0.9018962611382475,0.16752250873481866
12,5,0.9035714862255957,0.8864297191806682,1.7141767044927536
12,6,0.9035714862255957,0.8979352666887997,0.5636219536795939
12,7,0.9035714862255957,0.9236403054194201,-2.0068819193824416
12,8,0.9035714862255957,0.8895435264676559,1.40279597579398
13,0,0.9044942766171111,0.9017048381090613,0.2789438508049802
13,1,0.9044942766171111,0.8924543780874198,1.203989852969134
13,2,0.9044942766171111,0.8574742895273982,4.7019987089712885
13,3,0.9044942766171111,0.8720760203848439,3.241825623226724
13,4,0.9044942766171111,0.8913129390765488,1.3181337540562277
13,5,0.9044942766171111,0.8744118111132768,3.008246550383431
13,6,0.9044942766171111,0.8832086963225658,2.1285580294545303
13,7,0.9044942766171111,0.8695543371254952,3.493993949161589
13,8,0.9044942766171111,0.8739478268842839,3.0546449732827274
14,0,0.8542429601125451,0.851272995197046,0.2969964915499057
14,1,0.8542429601125451,0.8243934542639874,2.9849505848557722
14,2,0.8542429601125451,0.8685267330285626,-1.4283772916017567
14,3,0.8542429601125451,0.7961890558579414,5.8053904254603665
14,4,0.8542429601125451,0.8705078670231117,-1.626490691056659
14,5,0.8542429601125451,0.8405698793758142,1.3673080736730903
14,6,0.8542429601125451,0.8444023424866962,0.9840617625848869
14,7,0.8542429601125451,0.7956930247112279,5.854993540131714
14,8,0.8542429601125451,0.798357666735606,5.588529337693904
15,0,0.922462129963242,0.8767218731410442,4.574025682219773
15,1,0.922462129963242,0.9223878678424379,0.007426212080408057
15,2,0.922462129963242,0.8785744122210287,4.388771774221323
15,3,0.922462129963242,0.9215931990328433,0.0868930930398637
15,4,0.922462129963242,0.9158583980834893,0.6603731879752606
15,5,0.922462129963242,0.9223565941527607,0.010553581048122762
15,6,0.922462129963242,0.9047027110424696,1.7759418920772374
15,7,0.922462129963242,0.9191004872279351,0.33616427353068135
15,8,0.922462129963242,0.9052797041267755,1.7182425836466453
16,0,0.8694124237145147,0.8521579790875203,1.7254444626994325
16,1,0.8694124237145147,0.8696051978913937,-0.01927741768790181
16,2,0.8694124237145147,0.8268424171180474,4.257000659646726
16,3,0.8694124237145147,0.868846573638884,0.05658500756307028
16,4,0.8694124237145147,0.8655394054647786,0.3873018249736071
16,5,0.8694124237145147,0.8452269602483595,2.4185463466155133
16,6,0.8694124237145147,0.8851561358683522,-1.574371215383752
16,7,0.8694124237145147,0.8192013216585631,5.021110205595159
16,8,0.8694124237145147,0.8546034348465974,1.480898886791726
17,0,0.8541987826949612,0.8374346479350466,1.6764134759914562
17,1,0.8541987826949612,0.8610112421714335,-0.6812459476472355
17,2,0.8541987826949612,0.8633693303502372,-0.9170547655276029
17,3,0.8541987826949612,0.852079269419952,0.2119513275009144
17,4,0.8541987826949612,0.8509920489178046,0.3206733777156634
17,5,0.8541987826949612,0.8474258452411836,0.6772937453777605
17,6,0.8541987826949612,0.8639240837850405,-0.9725301090079297
17,7,0.8541987826949612,0.8208704600008145,3.332832269414665
17,8,0.8541987826949612,0.831821117364792,2.237766533016916
18,0,0.9140710167432783,0.885168010085587,2.89030066576913
18,1,0.9140710167432783,0.9062960162552937,0.7775000487984629
18,2,0.9140710167432783,0.9129588691245963,0.11121476186819468
18,3,0.9140710167432783,0.7992593505814308,11.481166616184746
18,4,0.9140710167432783,0.910769364359225,0.3301652384053333
18,5,0.9140710167432783,0.9094275642889088,0.4643452454369479
18,6,0.9140710167432783,0.9197991720030702,-0.5728155259791867
18,7,0.9140710167432783,0.8800855219595612,3.398549478371704
18,8,0.9140710167432783,0.8972274846286648,1.6843532114613535
19,0,0.8605862164868808,0.8644094405315705,-0.38232240446897103
19,1,0.8605862164868808,0.8572842577235467,0.33019587633341674
19,2,0.8605862164868808,0.8564607096155682,0.4125506871312634
19,3,0.8605862164868808,0.8289670042964484,3.16192121904324
19,4,0.8605862164868808,0.8576797312251099,0.29064852617709525
19,5,0.8605862164868808,0.8519953878500173,0.8590828636863557
19,6,0.8605862164868808,0.8882209388597474,-2.763472237286657
19,7,0.8605862164868808,0.8468400986423817,1.3746117844499084
19,8,0.8605862164868808,0.8585608465398433,0.2025369947037503
20,0,0.8444342234314508,0.8550092548257846,-1.05750313943338
20,1,0.8444342234314508,0.7930515398543095,5.138268357714127
20,2,0.8444342234314508,0.7967568225143169,4.7677400917133905
20,3,0.8444342234314508,0.811455348852198,3.297887457925275
20,4,0.8444342234314508,0.8508869563963742,-0.6452732964923436
20,5,0.8444342234314508,0.8522018369389047,-0.7767613507453919
20,6,0.8444342234314508,0.8475822611977881,-0.31480377663373194
20,7,0.8444342234314508,0.8506456769047714,-0.6211453473320638
20,8,0.8444342234314508,0.8064452621535259,3.798896127792495
21,0,0.8122260104649175,0.8012793781336273,1.094663233129023
21,1,0.8122260104649175,0.8181471912247185,-0.592118075980097
21,2,0.8122260104649175,0.8160862360731198,-0.3860225608202317
21,3,0.8122260104649175,0.8052376182236185,0.6988392241298991
21,4,0.8122260104649175,0.8179111875906142,-0.5685177125696717
21,5,0.8122260104649175,0.8299871131287653,-1.7761102663847783
21,6,0.8122260104649175,0.8159378784194672,-0.3711867954549697
21,7,0.8122260104649175,0.7961413688453961,1.608464161952139
21,8,0.8122260104649175,0.7940870625654624,1.8138947899455138
22,0,0.815371393642176,0.8342756435801927,-1.8904249938016648
22,1,0.815371393642176,0.8430097008734792,-2.7638307231303116
22,2,0.815371393642176,0.8102855837338356,0.50858099083404
22,3,0.815371393642176,0.7939647415540664,2.1406652088109657
22,4,0.815371393642176,0.8080715519025676,0.7299841739608404
22,5,0.815371393642176,0.808296890749749,0.7074502892427059
22,6,0.815371393642176,0.8019819211659122,1.3389472476263875
22,7,0.815371393642176,0.7650624399441854,5.03089536979906
22,8,0.815371393642176,0.7922629993902313,2.3108394251944775
23,0,0.8511120497916272,0.7949773699998155,5.613467979181175
23,1,0.8511120497916272,0.8470365122327475,0.4075537558879794
23,2,0.8511120497916272,0.8530125341746764,-0.1900484383049128
23,3,0.8511120497916272,0.8055050776693664,4.560697212226083
23,4,0.8511120497916272,0.8391245568422062,1.198749294942103
23,5,0.8511120497916272,0.8494606973995272,0.1651352392100014
23,6,0.8511120497916272,0.8187888532408538,3.2323196550773425
23,7,0.8511120497916272,0.8251053903966687,2.60066593949585
23,8,0.8511120497916272,0.8354315442323202,1.5680505559307
24,0,0.7625541763013767,0.7286734455788781,3.388073072249853
24,1,0.7625541763013767,0.7737870490796948,-1.1232872778318082
24,2,0.7625541763013767,0.7248467285218565,3.7707447779520176
24,3,0.7625541763013767,0.7997243860230377,-3.7170209721661074
24,4,0.7625541763013767,0.7073747806896776,5.5179395611699045
24,5,0.7625541763013767,0.7314275634552194,3.1126612846157253
24,6,0.7625541763013767,0.7304640627870271,3.209011351434954
24,7,0.7625541763013767,0.691337012713644,7.121716358773266
24,8,0.7625541763013767,0.7246153561021231,3.7938820199253542
25,0,0.8980465523559958,0.8974367832988561,0.06097690571397196
25,1,0.8980465523559958,0.9042884253278665,-0.6241872971870621
25,2,0.8980465523559958,0.8958775309252104,0.2169021430785456
25,3,0.8980465523559958,0.8746305204703425,2.3416031885653332
25,4,0.8980465523559958,0.8765572481932002,2.1489304162795597
25,5,0.8980465523559958,0.8998498290577499,-0.1803276701754064
25,6,0.8980465523559958,0.9260349040586552,-2.798835170265934
25,7,0.8980465523559958,0.8469993754587969,5.104717689719895
25,8,0.8980465523559958,0.8935100464593259,0.45365058966699845
26,0,0.7768227302624119,0.789432686436043,-1.2609956173631143
26,1,0.7768227302624119,0.7823189366046108,-0.5496206342198939
26,2,0.7768227302624119,0.7377161732152738,3.9106557047138057
26,3,0.7768227302624119,0.7597595737307462,1.706315653166568
26,4,0.7768227302624119,0.7485367930291167,2.82859372332952
26,5,0.7768227302624119,0.7468535391985841,2.9969191063827783
26,6,0.7768227302624119,0.7741126146863595,0.27101155760523854
26,7,0.7768227302624119,0.7584424534967561,1.838027676565579
26,8,0.7768227302624119,0.7470134622835831,2.980926797882877
27,0,0.8493612867495879,0.839646130694564,0.9715156055023932
27,1,0.8493612867495879,0.8274797209933271,2.188156575626077
27,2,0.8493612867495879,0.8342799837988333,1.5081302950754605
27,3,0.8493612867495879,0.8349471562769919,1.4414130472595987
27,4,0.8493612867495879,0.8093099955672901,4.005129118229778
27,5,0.8493612867495879,0.8426939340839994,0.6667352665588488
27,6,0.8493612867495879,0.8479799089109332,0.13813778386546627
27,7,0.8493612867495879,0.8308786085790408,1.848267817054705
27,8,0.8493612867495879,0.8407675796513,0.8593707098287884
28,0,0.8046366585326029,0.8152281553217811,-1.0591496789178145
28,1,0.8046366585326029,0.7901915674591522,1.444509107345071
28,2,0.8046366585326029,0.7828736674829953,2.176299104960766
28,3,0.8046366585326029,0.7620109791826367,4.2625679349966195
28,4,0.8046366585326029,0.8183287550792797,-1.3692096546676802
28,5,0.8046366585326029,0.6856728491824662,11.896380935013672
28,6,0.8046366585326029,0.798299543818836,0.6337114713766856
28,7,0.8046366585326029,0.7629002702379996,4.1736388294603355
28,8,0.8046366585326029,0.8178179790242002,-1.318132049159726
29,0,0.7916665045294459,0.7928435923526989,-0.11770878232529869
29,1,0.7916665045294459,0.8023328534603238,-1.0666348930877922
29,2,0.7916665045294459,0.7951867551909246,-0.3520250661478763
29,3,0.7916665045294459,0.7884607945219302,0.3205710007515683
29,4,0.7916665045294459,0.7343015515035174,5.736495302592848
29,5,0.7916665045294459,0.7376763491745898,5.399015535485607
29,6,0.7916665045294459,0.801246432329817,-0.9579927800371091
29,7,0.7916665045294459,0.7713559860604127,2.03105184690332
29,8,0.7916665045294459,0.7839481739466441,0.7718330582801802
30,0,0.8852667995814747,0.8745921375818531,1.0674661999621637
30,1,0.8852667995814747,0.8414558558029904,4.381094377848427
30,2,0.8852667995814747,0.9051691659677794,-1.9902366386304715
30,3,0.8852667995814747,0.8580034327652768,2.72633668161979
30,4,0.8852667995814747,0.8719708849754185,1.329591460605617
30,5,0.8852667995814747,0.8581725589913549,2.709424059011978
30,6,0.8852667995814747,0.884711971407004,0.055482817447072286
30,7,0.8852667995814747,0.8658447508160348,1.9422048765439848
30,8,0.8852667995814747,0.8603655154925404,2.490128408893433
31,0,0.8271134723766171,0.7939039495470198,3.3209522829597327
31,1,0.8271134723766171,0.8369114315916641,-0.9797959215047003
31,2,0.8271134723766171,0.8239376371420144,0.3175835234602742
31,3,0.8271134723766171,0.7987338715083636,2.837960086825353
31,4,0.8271134723766171,0.8044285740426476,2.2684898333969583
31,5,0.8271134723766171,0.8190697598836488,0.8043712492968313
31,6,0.8271134723766171,0.8073664254093653,1.9747046967251825
31,7,0.8271134723766171,0.8129477854537276,1.4165686922889553
31,8,0.8271134723766171,0.7888167635644784,3.8296708812138758
32,0,0.839989609261887,0.8322969969545783,0.7692612307308777
32,1,0.839989609261887,0.8434530253121347,-0.3463416050247692
32,2,0.839989609261887,0.8293361034824144,1.065350577947266
32,3,0.839989609261887,0.8175318528307285,2.245775643115855
32,4,0.839989609261887,0.8416454568499211,-0.1655847588034054
32,5,0.839989609261887,0.8362003114673514,0.3789297794535629
32,6,0.839989609261887,0.8425999775984483,-0.2610368336561253
32,7,0.839989609261887,0.8157322963860889,2.425731287579813
32,8,0.839989609261887,0.8620057027757698,-2.2016093513882784
33,0,0.89289131969057,0.8922784783274558,0.0612841363114236
33,1,0.89289131969057,0.8899554057154896,0.29359139750804175
33,2,0.89289131969057,0.8686819417338874,2.4209377956682654
33,3,0.89289131969057,0.8610054627641937,3.1885856926376355
33,4,0.89289131969057,0.908745982704224,-1.5854663013654013
33,5,0.89289131969057,0.8843308799064221,0.8560439784147889
33,6,0.89289131969057,0.8868938830531077,0.5997436637462328
33,7,0.89289131969057,0.8666609112259647,2.6230408464605337
33,8,0.89289131969057,0.8701156281473118,2.2775691543258203
34,0,0.888955089966668,0.8775984350701194,1.135665489654869
34,1,0.888955089966668,0.8911201794535288,-0.21650894868607828
34,2,0.888955089966668,0.895801793193832,-0.6846703227163964
34,3,0.888955089966668,0.8534170342690611,3.553805569760693
34,4,0.888955089966668,0.8702739685539815,1.8681121412686519
34,5,0.888955089966668,0.8636604148955156,2.529467507115246
34,6,0.888955089966668,0.8912693857727342,-0.23142958060661245
34,7,0.888955089966668,0.8539211605824459,3.5033929384222118
34,8,0.888955089966668,0.8766543559862348,1.2300733980433298
35,0,0.722692051331809,0.6831071362818434,3.958491504996564
35,1,0.722692051331809,0.7095225158091926,1.316953552261646
35,2,0.722692051331809,0.7166846062289988,0.600744510281026
35,3,0.722692051331809,0.6976924076502709,2.4999643681538175
35,4,0.722692051331809,0.7281696644843543,-0.5477613152545246
35,5,0.722692051331809,0.7187129289716386,0.3979122360170395
35,6,0.722692051331809,0.7264432337315373,-0.375118239972827
35,7,0.722692051331809,0.7122083442361999,1.0483707095609085
35,8,0.722692051331809,0.7217482431521399,0.09438081796691034
36,0,0.7968001741175039,0.7529077014986131,4.389247261889084
36,1,0.7968001741175039,0.7428922313507651,5.390794276673883
36,2,0.7968001741175039,0.7315868009542001,6.521337316330378
36,3,0.7968001741175039,0.7250732513410958,7.172692277640813
36,4,0.7968001741175039,0.7724892666921699,2.431090742533404
36,5,0.7968001741175039,0.7936344381458567,0.31657359716472655
36,6,0.7968001741175039,0.7633598989052084,3.3440275212295534
36,7,0.7968001741175039,0.6997494353072042,9.705073881029968
36,8,0.7968001741175039,0.730270947309838,6.6529226807665935
37,0,0.8546644326043518,0.8278432808766814,2.682115172767041
37,1,0.8546644326043518,0.8230760140685078,3.158841853584393
37,2,0.8546644326043518,0.8347620163559559,1.9902416248395838
37,3,0.8546644326043518,0.8495693678055104,0.5095064798841364
37,4,0.8546644326043518,0.8567088616144548,-0.20444290101030438
37,5,0.8546644326043518,0.8595317312688742,-0.48672986645224015
37,6,0.8546644326043518,0.844255232940385,1.0409199663966806
37,7,0.8546644326043518,0.8075704716197243,4.709396098462748
37,8,0.8546644326043518,0.8362531106531231,1.8411321951228632
38,0,0.8942870412568371,0.8517038137093196,4.258322754751753
38,1,0.8942870412568371,0.8476321352321565,4.665490602468059
38,2,0.8942870412568371,0.8485627570625939,4.572428419424323
38,3,0.8942870412568371,0.8851523903293383,0.9134650927498766
38,4,0.8942870412568371,0.8812598913896451,1.3027149867192
38,5,0.8942870412568371,0.871985233480311,2.230180777652613
38,6,0.8942870412568371,0.8890662949425645,0.5220746314272606
38,7,0.8942870412568371,0.8593803706590618,3.4906670597775302
38,8,0.8942870412568371,0.8937573558835298,0.052968537330733145
39,0,0.8504969478483444,0.7964444599132413,5.405248793510308
39,1,0.8504969478483444,0.8342357608915232,1.6261186956821216
39,2,0.8504969478483444,0.8634902536996639,-1.2993305851319525
39,3,0.8504969478483444,0.795156803361291,5.534014448705338
39,4,0.8504969478483444,0.7864267830535381,6.407016479480632
39,5,0.8504969478483444,0.8257511606275358,2.4745787220808557
39,6,0.8504969478483444,0.8360760964927632,1.4420851355581243
39,7,0.8504969478483444,0.8361675131398132,1.4329434708531208
39,8,0.8504969478483444,0.856189859468548,-0.5692911620203578
40,0,0.8859527993008025,0.836615142623732,4.933765667707046
40,1,0.8859527993008025,0.8403892949874012,4.556350431340128
40,2,0.8859527993008025,0.8723397417903268,1.3613057510475701
40,3,0.8859527993008025,0.8622056795392851,2.3747119761517443
40,4,0.8859527993008025,0.8588492427790939,2.7103556521708594
40,5,0.8859527993008025,0.8770757125767844,0.8877086724018102
40,6,0.8859527993008025,0.8687831995688732,1.716959973192933
40,7,0.8859527993008025,0.8445869453930936,4.136585390770886
40,8,0.8859527993008025,0.8895925842625272,-0.3639784961724679
