subject,channel,r,f1_drop_mean,f1_drop_sd
1,0,5,0.09503069545628154,0.01518344177488342
1,1,5,0.09300736101341603,0.009457186713037838
1,2,5,0.05231631725119821,0.012853780937316664
1,3,5,0.021799433156493374,0.006475896355372128
1,4,5,0.03627637784553883,0.012609550188512121
1,5,5,0.1012255755078896,0.017512792439044324
1,6,5,0.018930961776777555,0.008308086431560141
1,7,5,0.11530940160594531,0.00982736237343078
1,8,5,0.09083877179707527,0.012201823463185702
2,0,5,0.10189796866605368,0.012893904323857917
2,1,5,0.08156308187667949,0.008200935485177427
2,2,5,0.07226397904736823,0.013647369931567862
2,3,5,0.06412085352310762,0.02538312427813156
2,4,5,0.15645160071740097,0.016820043235040053
2,5,5,0.13329416979060343,0.007943252629644269
2,6,5,0.09139467049678496,0.008901710255814196
2,7,5,0.15253174105887707,0.00801749277761792
2,8,5,0.0596067976718585,0.01518836674904612
3,0,5,0.07244541499915302,0.017493021438660713
3,1,5,0.08166277190451772,0.014551676280549306
3,2,5,0.12993939405252936,0.013634466399029307
3,3,5,0.08269752979728213,0.007077767771543438
3,4,5,0.10610377884410467,0.009466622871512434
3,5,5,0.04917680274610199,0.0031827135072307797
3,6,5,0.016647820268770364,0.011371870713827276
3,7,5,0.09691646932152165,0.013723872683223521
3,8,5,0.0672826092035121,0.008031940060785817
4,0,5,0.1193452657711088,0.016913050433303902
4,1,5,0.12791502149110479,0.013003138682509907
4,2,5,0.09130726489407621,0.0069087380299599575
4,3,5,0.05080913551203412,0.011113254325903106
4,4,5,0.1725812758888581,0.01756873251163973
4,5,5,0.09690084333992519,0.012165908299161565
4,6,5,0.04084567464901234,0.011732526187491907
4,7,5,0.08938052038719771,0.009717808177992837
4,8,5,0.0707743060464425,0.008247274759831103
5,0,5,0.05299116885115853,0.010688348508635592
5,1,5,0.035007513905464124,0.012130782051981518
5,2,5,0.0381847048706981,0.01359472897994564
5,3,5,0.021730991607658966,0.00840369485914656
5,4,5,0.0697067797607193,0.007947808676043574
5,5,5,0.06841622598271709,0.0035958773715681074
5,6,5,0.027142268866824117,0.007686396101353891
5,7,5,0.05491225819995702,0.015735507019641184
5,8,5,0.09057802609194507,0.006754565872385628
6,0,5,0.1061156133136637,0.011133525985556296
6,1,5,0.10502359737368312,0.008754028392104547
6,2,5,0.0754903583929957,0.00920992858855315
6,3,5,0.028245394676649882,0.012590413696937822
6,4,5,0.08984956100478894,0.010721971121212839
6,5,5,0.07247817015221773,0.013326518014797183
6,6,5,0.06738177863010712,0.0149931025700252
6,7,5,0.10939350339474593,0.006786060319704161
6,8,5,0.09523059112614321,0.012310314269789136
7,0,5,0.06057237561676141,0.008943562939091269
7,1,5,0.092133457153932,0.0057691960084032354
7,2,5,0.10833514071805687,0.00759117059619611
7,3,5,0.03086526749326326,0.0051970677786070205
7,4,5,0.11916421197644127,0.013998636371855696
7,5,5,0.07661772607387136,0.005670934172960436
7,6,5,0.05667346267675151,0.01288193500714612
7,7,5,0.12176713839841469,0.018937499038159427
7,8,5,0.10147871519851386,0.010807665225291436
8,0,5,0.04603825594881317,0.007021802171506577
8,1,5,0.061440773768988065,0.005414340582596151
8,2,5,0.05703772668336029,0.011586401138255348
8,3,5,0.08572514113671963,0.012709525514502103
8,4,5,0.08304071179356212,0.009661460763625201
8,5,5,0.1390290376379242,0.0049873175920593545
8,6,5,0.03509238763670943,0.005106207301213807
8,7,5,0.16016788861361894,0.02712360297115567
8,8,5,0.09428698427736659,0.022924474655230537
9,0,5,0.04439186805463953,0.009021258751580052
9,1,5,0.10374546510581543,0.014567485507652321
9,2,5,0.08637120050861917,0.005115426707872722
9,3,5,0.0423231765067704,0.010715714842391338
9,4,5,0.05306368848142855,0.019025116182387048
9,5,5,0.08100918537370991,0.0069758864397535605
9,6,5,0.014706766414278127,0.011825412906400976
9,7,5,0.10097142562672494,0.01193942781848819
9,8,5,0.06810667006835522,0.027435066820138413
10,0,5,0.02344188026159817,0.012656354206554647
10,1,5,0.058662829167243344,0.008816975232471262
10,2,5,0.05211433182353822,0.015961757459656178
10,3,5,0.06286655375314823,0.024490440013063306
10,4,5,0.08678097557318812,0.01092452028788318
10,5,5,0.09531199236820531,0.01317478393727444
10,6,5,-0.009343903698983858,0.006371132460987921
10,7,5,0.10332292756453273,0.01116359423927593
10,8,5,0.05478706596825174,0.015698918621805932
11,0,5,0.0594696271612698,0.007343657129653351
11,1,5,0.09566882121621438,0.01716739117200747
11,2,5,0.09822384943490552,0.012149735377972593
11,3,5,0.07242216613706512,0.015232877884754904
11,4,5,0.1473899175624366,0.007590578564285195
11,5,5,0.06907773651918556,0.013261970187404484
11,6,5,0.034217418013352804,0.01433891622830082
11,7,5,0.14046712537843148,0.017286404333437085
11,8,5,0.0854331577890672,0.006446044565426946
12,0,5,0.05032685851305907,0.008268898122083694
12,1,5,0.09011241990585717,0.015956184257259514
12,2,5,0.12810730867688722,0.016238591227382655
12,3,5,0.11975260187618735,0.02519561136020403
12,4,5,0.0790535281495165,0.009979047837709736
12,5,5,0.060322056702989776,0.006495358229621244
12,6,5,0.04276625601800761,0.006919462109532207
12,7,5,0.12711374347281074,0.01508713365007683
12,8,5,0.07107965210424368,0.009951016343694663
13,0,5,0.11613322408165243,0.012239046666334668
13,1,5,0.07233656852570747,0.013572850155963259
13,2,5,0.1009434353865313,0.013011466215776743
13,3,5,0.07996656375635136,0.006676959820089656
13,4,5,0.1369075208233666,0.009762757789067456
13,5,5,0.11208549962847938,0.012565107931986732
13,6,5,0.07627105812104829,0.006441584359991521
13,7,5,0.09383546544623693,0.009540198675974896
13,8,5,0.07082209410695006,0.010472959497352996
14,0,5,0.07278818205036988,0.015356165833830543
14,1,5,0.07850039970476941,0.011238314102074211
14,2,5,0.054889684254819306,0.007316887781778881
14,3,5,0.09384092337065839,0.008668023639065348
14,4,5,0.057533943649926166,0.009072564376817735
14,5,5,0.1155280792072153,0.018032838190327298
14,6,5,0.023799977851145515,0.0069735656188714724
14,7,5,0.12230190883582523,0.007860070087008916
14,8,5,0.0877706966602676,0.016212977706741283
15,0,5,0.1123717423839909,0.008867620991249162
15,1,5,0.08516450936102242,0.011905664910849103
15,2,5,0.10287661154582262,0.01579679542805905
15,3,5,0.026917351075081843,0.011226577832780502
15,4,5,0.14293283423690323,0.017508526368300584
15,5,5,0.0490467313266111,0.010787648796681943
15,6,5,0.05693530831705942,0.007897315454570035
15,7,5,0.07452249708438444,0.006751760216848268
15,8,5,0.09593984399372676,0.013143584215021854
16,0,5,0.09275085832213734,0.00810095442941488
16,1,5,0.0775065580925423,0.013994955106039554
16,2,5,0.09556092843096542,0.009084288973603947
16,3,5,0.05229752800245324,0.003426271378934099
16,4,5,0.09264679857809059,0.011650898136439273
16,5,5,0.09876720876453586,0.011542961006692592
16,6,5,0.008460778920438483,0.006517817998228965
16,7,5,0.14444232545864938,0.013638521279437798
16,8,5,0.1114936145265302,0.020169916610101944
17,0,5,0.09624479869862923,0.0061301613683529595
17,1,5,0.0670015159422905,0.014120346523281127
17,2,5,0.08788271026538645,0.012543911207589842
17,3,5,0.05200029591997692,0.010002919695433477
17,4,5,0.10353305754349904,0.009809349738918333
17,5,5,0.07085040089996812,0.012431565461267655
17,6,5,0.07271940012701035,0.006169572372830711
17,7,5,0.10990946941012616,0.014190106654680472
17,8,5,0.088894497796331,0.011462770805360024
18,0,5,0.07756448235703897,0.005526134847838849
18,1,5,0.06868838502747854,0.006205765903316828
18,2,5,0.08056270086259465,0.007227179805930206
18,3,5,0.14223764782052664,0.01748400845920921
18,4,5,0.07575103030501851,0.010080692756567911
18,5,5,0.1091827672128732,0.010284459942622502
18,6,5,0.060963291103680414,0.008378693801096428
18,7,5,0.12106489519228618,0.011739940246491476
18,8,5,0.06945164449218962,0.0032461150806064702
19,0,5,0.06651262452338462,0.01014592335969598
19,1,5,0.09102385388315429,0.012953009210446483
19,2,5,0.07132509353931644,0.005378436129921145
19,3,5,0.0799241021009623,0.009918552945757438
19,4,5,0.07254881617211986,0.008759519692617427
19,5,5,0.059479587969135085,0.007723138318919522
19,6,5,0.02469183602657419,0.010033875508107562
19,7,5,0.12585414434425796,0.005606690505228856
19,8,5,0.08189085230847981,0.005594581626163683
20,0,5,0.037752944059655215,0.012746485814439278
20,1,5,0.09303559138688233,0.007719563385203796
20,2,5,0.07896189372819946,0.019580482819459507
20,3,5,0.02472164651726001,0.01446542958921975
20,4,5,0.07410241346572037,0.013580277991922629
20,5,5,0.09444234024160843,0.00955512690101228
20,6,5,0.042472735235006984,0.009159148509434032
20,7,5,0.07193996281312261,0.009829391142173304
20,8,5,0.12839862946544875,0.02535016849338973
21,0,5,0.08849678082378239,0.013483522691243541
21,1,5,0.03315406648411119,0.018969026556405887
21,2,5,0.06007825564992932,0.010353111921269658
21,3,5,0.04480653612539163,0.009093594246409983
21,4,5,0.09116917102199798,0.019256933049329808
21,5,5,0.0945292457303242,0.014899853903821973
21,6,5,0.03332668199044604,0.008858572825441134
21,7,5,0.07947446847354304,0.011322475743155688
21,8,5,0.08079683137245748,0.006422650949468891
22,0,5,0.07575581494340033,0.004388387745101844
22,1,5,0.04628554101392368,0.00998455789623188
22,2,5,0.057476755442433046,0.010068850528798653
22,3,5,0.042159568813976846,0.00990458328750975
22,4,5,0.09027679095265066,0.014345050415721339
22,5,5,0.061898867446977014,0.008129327677185015
22,6,5,0.036447509891398534,0.006870290261714813
22,7,5,0.14243726818925237,0.019018313608297942
22,8,5,0.10258007317563607,0.013613922692261651
23,0,5,0.1647774893071094,0.01656237718104683
23,1,5,0.09684567959338009,0.008174210899593436
23,2,5,0.0807744454701802,0.012273265024857887
23,3,5,0.07893600998676938,0.006963632936758019
23,4,5,0.06988095708664151,0.00962497234431481
23,5,5,0.14383340743594236,0.021777774164261576
23,6,5,0.10217207537072732,0.020146595851846576
23,7,5,0.11541638197523836,0.011012487059972173
23,8,5,0.11428412579389566,0.01623981498992517
24,0,5,0.06908483845008502,0.00932622496491969
24,1,5,0.07185702420892481,0.00835455950371169
24,2,5,0.11011144021176218,0.015123646493451947
24,3,5,0.026545148270489594,0.008142109456278138
24,4,5,0.10523495012273283,0.007460889798874182
24,5,5,0.07285968344112179,0.011928629756561327
24,6,5,0.05109316226501215,0.008147702929480966
24,7,5,0.154575020894877,0.005164524297561745
24,8,5,0.08796762859333215,0.005297798496339768
25,0,5,0.07268725195394565,0.009121689236484232
25,1,5,0.058942904672715214,0.011058277908077709
25,2,5,0.0524142971416355,0.006212290434017765
25,3,5,0.0836334335653011,0.010205687071325069
25,4,5,0.14141918588590266,0.022344364130159233
25,5,5,0.05529328825781692,0.0029152792611974667
25,6,5,0.01850792860569104,0.006573958853437776
25,7,5,0.10909289720978402,0.017342024326771448
25,8,5,0.06960785428235247,0.007928807291395232
26,0,5,0.06827359008328808,0.013998607283307912
26,1,5,0.07458264688501433,0.00729929622628035
26,2,5,0.0973158959473912,0.012410273132000167
26,3,5,0.05249290734964811,0.00943880814567577
26,4,5,0.08161229201315459,0.013672219826885426
26,5,5,0.10379397511283366,0.014847058537673836
26,6,5,0.0693975956931296,0.006480225701525619
26,7,5,0.13977562641038668,0.006338867162343415
26,8,5,0.09566545158928845,0.008073900692829225
27,0,5,0.05422345634629002,0.0078044636101746254
27,1,5,0.05118724646923654,0.008025550757107685
27,2,5,0.08033922739020224,0.012687290713388812
27,3,5,0.050825239795284194,0.005079978582257053
27,4,5,0.20330939309633397,0.0077807670984480085
27,5,5,0.06669169442952314,0.007990265013840052
27,6,5,0.06980998841295871,0.004920147566180079
27,7,5,0.12129566944166019,0.011239238336689487
27,8,5,0.10782464242267005,0.005619275405351036
28,0,5,0.06611657754384818,0.0173427771127959
28,1,5,0.06308953530365251,0.01304686738505604
28,2,5,0.05018906226298612,0.012938507488152909
28,3,5,0.099013282187709,0.013268560614397905
28,4,5,0.12185243463131734,0.012683408487353533
28,5,5,0.1945953231076451,0.009827410926432344
28,6,5,0.04942732755276798,0.011817143278049122
28,7,5,0.08419573902522148,0.012272184187569377
28,8,5,0.05806765680795092,0.010768145634088679
29,0,5,0.11704251253578712,0.010622479395487525
29,1,5,0.05296200591007285,0.01321513692737003
29,2,5,0.0589414304243854,0.018764575100644068
29,3,5,0.042793865636887474,0.005784881833841584
29,4,5,0.1739593616468683,0.018615331817871714
29,5,5,0.09816428162543234,0.01751198870051528
29,6,5,0.04630247900190754,0.009562287599513998
29,7,5,0.1073330398290683,0.012537679454601876
29,8,5,0.120287170415178,0.005797275132249644
30,0,5,0.09279170547050752,0.01438336124758543
30,1,5,0.050760122160026275,0.006841793277935156
30,2,5,0.02967636667776328,0.005158196665319612
30,3,5,0.06770171446134629,0.015335345356320385
30,4,5,0.05203221349955196,0.013168947033871321
30,5,5,0.17889259757331927,0.015080479691146094
30,6,5,0.003453932600762988,0.005905797016235726
30,7,5,0.09056645592802563,0.007653504345964815
30,8,5,0.07566365666522416,0.01304394332003121
31,0,5,0.06459668313297051,0.006668310248351411
31,1,5,0.0890265688291872,0.013598454157369136
31,2,5,0.08459196355662035,0.008868033802946583
31,3,5,0.05275806706784385,0.0038724229153909696
31,4,5,0.09495126497578905,0.014307791599376438
31,5,5,0.08169793638010643,0.012296348610788365
31,6,5,0.060969278971946594,0.010811504100412034
31,7,5,0.10002922386024468,0.01246181264267295
31,8,5,0.07228329401759381,0.0070319867067094475
32,0,5,0.09195869441591435,0.016469975901179705
32,1,5,0.06505077913346691,0.01292519266942656
32,2,5,0.07138479172804565,0.013489714512026142
32,3,5,0.026088640718304145,0.006944834671454955
32,4,5,0.1583380275046061,0.012123674984235578
32,5,5,0.09514522107525758,0.01023587917806966
32,6,5,0.03329423405489618,0.0120149913171314
32,7,5,0.10124664198388633,0.008590542478964342
32,8,5,0.06526222264496417,0.0090794989507117
33,0,5,0.0712811353705551,0.014333932421343634
33,1,5,0.06845731675903872,0.01390458735975274
33,2,5,0.061306513769208745,0.008286160798185081
33,3,5,0.0663429641043319,0.012229878332622268
33,4,5,0.061079357218031594,0.019567534963108597
33,5,5,0.05050573623192034,0.006447207694589752
33,6,5,0.04484481778358627,0.009674547918188576
33,7,5,0.09305814238056034,0.003544114036662107
33,8,5,0.08361964242363526,0.009425157476868598
34,0,5,0.10495901125127842,0.00703304296337437
34,1,5,0.0635590321146684,0.0068194644810368995
34,2,5,0.059548646735292254,0.007135207692576479
34,3,5,0.07112673409226966,0.006954327314518928
34,4,5,0.1095413288015202,0.01010956843416113
34,5,5,0.08520511183564321,0.013798660187809673
34,6,5,0.04259710066908462,0.0050852864453294795
34,7,5,0.150407132229532,0.009639202283695317
34,8,5,0.09670139090735289,0.011171474770213527
35,0,5,0.08508832287249865,0.007905266666063782
35,1,5,0.0632935542534642,0.008010040471186605
35,2,5,0.0325444472620751,0.010700878505737647
35,3,5,0.04102362898043317,0.008613012049963422
35,4,5,0.060230592808796744,0.0055255094607166
35,5,5,0.10194054420217535,0.009566198310320961
35,6,5,0.024186504310633006,0.006010799972534872
35,7,5,0.09814324163927554,0.011879323582614943
35,8,5,0.051461238282962896,0.007719674012332905
36,0,5,0.025991475002134102,0.013259170610394494
36,1,5,0.07102980272631224,0.011269673894277129
36,2,5,0.07507325241485577,0.013815673653081095
36,3,5,0.10879471590738679,0.015184283244150852
36,4,5,0.1282372977825344,0.013598474864530129
36,5,5,0.09085041642360296,0.017181047481733613
36,6,5,0.08089059145301407,0.007073355541557683
36,7,5,0.16596607124010807,0.019264109357521843
36,8,5,0.11912329542997735,0.011546112343154615
37,0,5,0.0667615181316544,0.007611187438067959
37,1,5,0.07409519609666719,0.01416214856965808
37,2,5,0.0837133151844746,0.014970364868383497
37,3,5,0.021869165507843215,0.008720608275601711
37,4,5,0.0872665136530995,0.011593045386171943
37,5,5,0.10708784923806274,0.010731977320597465
37,6,5,0.036021393852070684,0.008250239175907151
37,7,5,0.11473978504932499,0.013139124039457252
37,8,5,0.07724569829893939,0.009746306762589186
38,0,5,0.0772204318510898,0.017765953089556304
38,1,5,0.08201953766918128,0.008866595858237392
38,2,5,0.06550582865793826,0.012657581776722574
38,3,5,0.07005376670580225,0.0103690079282648
38,4,5,0.140796082720352,0.01784418696287265
38,5,5,0.08093538252801546,0.01566462888106879
38,6,5,0.05710032603197568,0.004838362411429396
38,7,5,0.09879359054589891,0.011030037323754224
38,8,5,0.0509248690822595,0.008478095936650987
39,0,5,0.07020960906026241,0.012745960259567871
39,1,5,0.06186452331570991,0.00928569825470467
39,2,5,0.0690395739936682,0.01029158432413487
39,3,5,0.057706309426024796,0.006938057231313762
39,4,5,0.09702019541761138,0.020160083817752954
39,5,5,0.13495417757503433,0.009495678588495666
39,6,5,0.05452425970561596,0.005798459600989523
39,7,5,0.11666254920144876,0.009086799562573614
39,8,5,0.04988315580269438,0.009027533117342524
40,0,5,0.10920980698799994,0.01975191769356635
40,1,5,0.1014891146872329,0.01736024154674074
40,2,5,0.05254027364659144,0.012205559896547917
40,3,5,0.04615773106283092,0.007956038361321423
40,4,5,0.08651349743863654,0.010205705088559737
40,5,5,0.1086492578938365,0.009967172210812933
40,6,5,0.07022005763951655,0.004263334800355739
40,7,5,0.12674166871171974,0.007426159137582695
40,8,5,0.0647280854471094,0.006722684576463009
