subject,block,block_width,feature_channel,gate_mean,gate_sd
1,0,32,0,0.511284351348877,0.12135238945484161
1,0,32,1,0.4145359992980957,0.10798514634370804
1,0,32,2,0.4581272304058075,0.12624500691890717
1,0,32,3,0.5684320330619812,0.1205591931939125
1,0,32,4,0.4018970727920532,0.11471598595380783
1,0,32,5,0.38371580839157104,0.03048785775899887
1,0,32,6,0.4275779724121094,0.09579510241746902
1,0,32,7,0.3889620006084442,0.0694814994931221
1,0,32,8,0.5403952598571777,0.08836298435926437
1,0,32,9,0.5941509008407593,0.08877477794885635
1,0,32,10,0.4398871064186096,0.14816589653491974
1,0,32,11,0.47666439414024353,0.11373677849769592
1,0,32,12,0.5926539897918701,0.16220776736736298
1,0,32,13,0.4345356822013855,0.0755091980099678
1,0,32,14,0.44927895069122314,0.0651678815484047
1,0,32,15,0.4420924484729767,0.088401660323143
1,0,32,16,0.5251529216766357,0.058478038758039474
1,0,32,17,0.462897390127182,0.06408079713582993
1,0,32,18,0.5383161902427673,0.07332172244787216
1,0,32,19,0.41692304611206055,0.08893159031867981
1,0,32,20,0.5634672045707703,0.04436829686164856
1,0,32,21,0.5047950744628906,0.1162138283252716
1,0,32,22,0.5524244904518127,0.08204226940870285
1,0,32,23,0.44696468114852905,0.0450933612883091
1,0,32,24,0.4497045576572418,0.04416896775364876
1,0,32,25,0.5682201981544495,0.039840228855609894
1,0,32,26,0.3919143080711365,0.10853397846221924
1,0,32,27,0.5497791767120361,0.08032374083995819
1,0,32,28,0.3251374065876007,0.08231307566165924
1,0,32,29,0.5247321128845215,0.11518996208906174
1,0,32,30,0.6426112651824951,0.10346410423517227
1,0,32,31,0.4269551634788513,0.06057273596525192
1,1,32,0,0.3490265905857086,0.07057837396860123
1,1,32,1,0.49591273069381714,0.07537688314914703
1,1,32,2,0.48667672276496887,0.15479250252246857
1,1,32,3,0.3907661437988281,0.10478691756725311
1,1,32,4,0.6621603965759277,0.08109831064939499
1,1,32,5,0.49406397342681885,0.17347104847431183
1,1,32,6,0.5182259678840637,0.12192321568727493
1,1,32,7,0.6040980815887451,0.0431724488735199
1,1,32,8,0.5843163132667542,0.03501538187265396
1,1,32,9,0.5347424745559692,0.06948148459196091
1,1,32,10,0.6007493734359741,0.06657259166240692
1,1,32,11,0.48411864042282104,0.05364037677645683
1,1,32,12,0.541948139667511,0.1459009349346161
1,1,32,13,0.41976287961006165,0.07193709909915924
1,1,32,14,0.5236313343048096,0.1258099228143692
1,1,32,15,0.41768312454223633,0.15483570098876953
1,1,32,16,0.5529157519340515,0.025876305997371674
1,1,32,17,0.3744564354419708,0.039328742772340775
1,1,32,18,0.6584502458572388,0.05117972940206528
1,1,32,19,0.6921881437301636,0.06176253780722618
1,1,32,20,0.38987332582473755,0.08862028270959854
1,1,32,21,0.3521854281425476,0.0734049528837204
1,1,32,22,0.40559065341949463,0.13665518164634705
1,1,32,23,0.628655731678009,0.03943426162004471
1,1,32,24,0.5298999547958374,0.18456441164016724
1,1,32,25,0.49654170870780945,0.08579546213150024
1,1,32,26,0.52618408203125,0.1119295060634613
1,1,32,27,0.4610751271247864,0.0516691729426384
1,1,32,28,0.4264766573905945,0.1571064293384552
1,1,32,29,0.5038737058639526,0.08494068682193756
1,1,32,30,0.3752480447292328,0.08049345016479492
1,1,32,31,0.388981431722641,0.08474351465702057
1,2,64,0,0.7022576928138733,0.165078803896904
1,2,64,1,0.6232430934906006,0.25660240650177
1,2,64,2,0.5816661715507507,0.143914595246315
1,2,64,3,0.5416975617408752,0.2973996698856354
1,2,64,4,0.5595591068267822,0.22434329986572266
1,2,64,5,0.5310271978378296,0.2758663296699524
1,2,64,6,0.5914208889007568,0.2134670466184616
1,2,64,7,0.5361018776893616,0.2413186877965927
1,2,64,8,0.5264291167259216,0.2410362809896469
1,2,64,9,0.5385900139808655,0.15475504100322723
1,2,64,10,0.36264246702194214,0.2345610111951828
1,2,64,11,0.40867534279823303,0.19324754178524017
1,2,64,12,0.5540304183959961,0.2308642715215683
1,2,64,13,0.6217935085296631,0.12913565337657928
1,2,64,14,0.222986102104187,0.10424762219190598
1,2,64,15,0.3735320270061493,0.13702178001403809
1,2,64,16,0.5750019550323486,0.27872171998023987
1,2,64,17,0.6723102927207947,0.2040937840938568
1,2,64,18,0.5635599493980408,0.2534027695655823
1,2,64,19,0.4382852613925934,0.22417795658111572
1,2,64,20,0.6144843101501465,0.1980309933423996
1,2,64,21,0.43725723028182983,0.20847569406032562
1,2,64,22,0.5551780462265015,0.2441844642162323
1,2,64,23,0.6842289566993713,0.19222217798233032
1,2,64,24,0.5205344557762146,0.18212860822677612
1,2,64,25,0.5436310768127441,0.1696375608444214
1,2,64,26,0.4391648769378662,0.15517638623714447
1,2,64,27,0.40534496307373047,0.16205888986587524
1,2,64,28,0.37508726119995117,0.13459931313991547
1,2,64,29,0.4238485097885132,0.15739449858665466
1,2,64,30,0.6313477158546448,0.24742646515369415
1,2,64,31,0.465838760137558,0.15048931539058685
1,2,64,32,0.769196093082428,0.18115399777889252
1,2,64,33,0.41892823576927185,0.27467015385627747
1,2,64,34,0.3583129346370697,0.24231740832328796
1,2,64,35,0.5240066647529602,0.24062077701091766
1,2,64,36,0.16353727877140045,0.078516885638237
1,2,64,37,0.6644548177719116,0.32066023349761963
1,2,64,38,0.6211302876472473,0.3059021830558777
1,2,64,39,0.35117509961128235,0.169785737991333
1,2,64,40,0.6104776263237,0.2668316066265106
1,2,64,41,0.5095560550689697,0.2137935310602188
1,2,64,42,0.4933079779148102,0.25295937061309814
1,2,64,43,0.374504029750824,0.3070524036884308
1,2,64,44,0.7240085005760193,0.13213299214839935
1,2,64,45,0.5545233488082886,0.10087144374847412
1,2,64,46,0.5898176431655884,0.1328422725200653
1,2,64,47,0.43612974882125854,0.2504390478134155
1,2,64,48,0.48086264729499817,0.20293468236923218
1,2,64,49,0.3686146140098572,0.10534892231225967
1,2,64,50,0.6338631510734558,0.10594365745782852
1,2,64,51,0.7112287878990173,0.19006752967834473
1,2,64,52,0.4938463866710663,0.16500777006149292
1,2,64,53,0.6083760857582092,0.10124368965625763
1,2,64,54,0.5487584471702576,0.30834949016571045
1,2,64,55,0.5960544943809509,0.2494916468858719
1,2,64,56,0.6378142237663269,0.15321502089500427
1,2,64,57,0.35663777589797974,0.1415836662054062
1,2,64,58,0.5342379212379456,0.2834663987159729
1,2,64,59,0.5656170845031738,0.29193204641342163
1,2,64,60,0.4169739782810211,0.1949368268251419
1,2,64,61,0.44020941853523254,0.26848503947257996
1,2,64,62,0.47605201601982117,0.24503259360790253
1,2,64,63,0.5414280891418457,0.27376171946525574
1,3,64,0,0.5264053344726562,0.18262739479541779
1,3,64,1,0.494109183549881,0.049469541758298874
1,3,64,2,0.6359540224075317,0.09798183292150497
1,3,64,3,0.3892955780029297,0.0891493558883667
1,3,64,4,0.5671647191047668,0.07615767419338226
1,3,64,5,0.5333278775215149,0.24668902158737183
1,3,64,6,0.49094489216804504,0.05007561296224594
1,3,64,7,0.6027750968933105,0.08482255041599274
1,3,64,8,0.4472764730453491,0.1567789614200592
1,3,64,9,0.45192191004753113,0.2352941930294037
1,3,64,10,0.3891046941280365,0.1629280000925064
1,3,64,11,0.6615702509880066,0.20134565234184265
1,3,64,12,0.5874665975570679,0.17241206765174866
1,3,64,13,0.470967173576355,0.20083087682724
1,3,64,14,0.35192689299583435,0.05941059812903404
1,3,64,15,0.5647439360618591,0.15650954842567444
1,3,64,16,0.5359453558921814,0.2155531346797943
1,3,64,17,0.49163195490837097,0.10202662646770477
1,3,64,18,0.5442122220993042,0.1982772946357727
1,3,64,19,0.5437020063400269,0.13906656205654144
1,3,64,20,0.5345502495765686,0.15190476179122925
1,3,64,21,0.4325423836708069,0.12376328557729721
1,3,64,22,0.678128719329834,0.19416677951812744
1,3,64,23,0.523823618888855,0.19107134640216827
1,3,64,24,0.5162909626960754,0.07690730690956116
1,3,64,25,0.3965817093849182,0.23433691263198853
1,3,64,26,0.4720120131969452,0.14935635030269623
1,3,64,27,0.6118059754371643,0.10211266577243805
1,3,64,28,0.6490739583969116,0.11723167449235916
1,3,64,29,0.4670311212539673,0.2826942205429077
1,3,64,30,0.5974085927009583,0.1286778450012207
1,3,64,31,0.6136407256126404,0.1130552589893341
1,3,64,32,0.6701489686965942,0.1312638819217682
1,3,64,33,0.46274569630622864,0.2132396548986435
1,3,64,34,0.6382061243057251,0.059706754982471466
1,3,64,35,0.6006717085838318,0.11971152573823929
1,3,64,36,0.36302781105041504,0.26376447081565857
1,3,64,37,0.5065138936042786,0.23100915551185608
1,3,64,38,0.5417678356170654,0.1842738837003708
1,3,64,39,0.4887674152851105,0.22976648807525635
1,3,64,40,0.5903399586677551,0.2707785964012146
1,3,64,41,0.5329980850219727,0.058271486312150955
1,3,64,42,0.4486500918865204,0.2660331428050995
1,3,64,43,0.33511853218078613,0.1653272956609726
1,3,64,44,0.5035359859466553,0.3097698390483856
1,3,64,45,0.49696001410484314,0.1682721972465515
1,3,64,46,0.5884950757026672,0.10670404136180878
1,3,64,47,0.400185763835907,0.2377648800611496
1,3,64,48,0.5614455342292786,0.04785154014825821
1,3,64,49,0.42916420102119446,0.11038417369127274
1,3,64,50,0.4648008942604065,0.24780194461345673
1,3,64,51,0.4065251350402832,0.15650929510593414
1,3,64,52,0.3811448812484741,0.03613215684890747
1,3,64,53,0.48352131247520447,0.12366025149822235
1,3,64,54,0.5523006319999695,0.2911030352115631
1,3,64,55,0.4583190381526947,0.18352021276950836
1,3,64,56,0.4452069401741028,0.06029986962676048
1,3,64,57,0.485282838344574,0.2240012288093567
1,3,64,58,0.40991419553756714,0.14241357147693634
1,3,64,59,0.613885223865509,0.13032537698745728
1,3,64,60,0.6831496357917786,0.11892960220575333
1,3,64,61,0.6098906397819519,0.15912385284900665
1,3,64,62,0.410763144493103,0.1205776035785675
1,3,64,63,0.4685942232608795,0.19542226195335388
1,4,128,0,0.28440162539482117,0.11467842012643814
1,4,128,1,0.4236960709095001,0.17712825536727905
1,4,128,2,0.5720686912536621,0.1149975061416626
1,4,128,3,0.6516541242599487,0.11877347528934479
1,4,128,4,0.6125415563583374,0.08391344547271729
1,4,128,5,0.6980771422386169,0.15286368131637573
1,4,128,6,0.5574999451637268,0.16656751930713654
1,4,128,7,0.6360507011413574,0.2672784924507141
1,4,128,8,0.4004985988140106,0.2038871943950653
1,4,128,9,0.45081380009651184,0.15618810057640076
1,4,128,10,0.5683725476264954,0.3124399483203888
1,4,128,11,0.5550913214683533,0.0871582105755806
1,4,128,12,0.5722485780715942,0.07228294759988785
1,4,128,13,0.7247653007507324,0.08469823747873306
1,4,128,14,0.5504997968673706,0.06891386210918427
1,4,128,15,0.6194168925285339,0.1853352189064026
1,4,128,16,0.5573819875717163,0.14808860421180725
1,4,128,17,0.5798526406288147,0.3357374668121338
1,4,128,18,0.607671856880188,0.07326043397188187
1,4,128,19,0.5351397395133972,0.19426994025707245
1,4,128,20,0.628672182559967,0.32114240527153015
1,4,128,21,0.45016226172447205,0.27495133876800537
1,4,128,22,0.581609308719635,0.22865737974643707
1,4,128,23,0.41539275646209717,0.30770739912986755
1,4,128,24,0.46816888451576233,0.24681590497493744
1,4,128,25,0.23420989513397217,0.1430792659521103
1,4,128,26,0.5788552761077881,0.2851061522960663
1,4,128,27,0.6093917489051819,0.3362863063812256
1,4,128,28,0.4663088619709015,0.33110687136650085
1,4,128,29,0.671150267124176,0.08790986984968185
1,4,128,30,0.29671671986579895,0.15128931403160095
1,4,128,31,0.6936032772064209,0.10010461509227753
1,4,128,32,0.7044932842254639,0.11816040426492691
1,4,128,33,0.4613720774650574,0.20650111138820648
1,4,128,34,0.6272971630096436,0.1358814686536789
1,4,128,35,0.6369419693946838,0.17376868426799774
1,4,128,36,0.40119534730911255,0.1760576367378235
1,4,128,37,0.4627464711666107,0.2685805857181549
1,4,128,38,0.599342942237854,0.16632080078125
1,4,128,39,0.5554320216178894,0.12059445679187775
1,4,128,40,0.674653947353363,0.12995226681232452
1,4,128,41,0.5196692943572998,0.24166448414325714
1,4,128,42,0.46266666054725647,0.16174328327178955
1,4,128,43,0.32380911707878113,0.167555034160614
1,4,128,44,0.6815646290779114,0.17102041840553284
1,4,128,45,0.5527975559234619,0.17101986706256866
1,4,128,46,0.6082540154457092,0.12941507995128632
1,4,128,47,0.6590026617050171,0.27140387892723083
1,4,128,48,0.4255032241344452,0.170218825340271
1,4,128,49,0.6610268950462341,0.23700305819511414
1,4,128,50,0.6269028782844543,0.1570124328136444
1,4,128,51,0.40167737007141113,0.15927201509475708
1,4,128,52,0.5779901742935181,0.14136771857738495
1,4,128,53,0.4045293927192688,0.17344164848327637
1,4,128,54,0.6141678690910339,0.2511802613735199
1,4,128,55,0.7080768346786499,0.13902322947978973
1,4,128,56,0.36178284883499146,0.12435419857501984
1,4,128,57,0.648710310459137,0.23691384494304657
1,4,128,58,0.6232133507728577,0.16874289512634277
1,4,128,59,0.4575794041156769,0.2524826228618622
1,4,128,60,0.6617445945739746,0.1400320678949356
1,4,128,61,0.4548901915550232,0.29347723722457886
1,4,128,62,0.637904942035675,0.2363213449716568
1,4,128,63,0.5513479709625244,0.15843309462070465
1,4,128,64,0.5873698592185974,0.19305481016635895
1,4,128,65,0.45695531368255615,0.32169923186302185
1,4,128,66,0.5568044185638428,0.09741074591875076
1,4,128,67,0.742347240447998,0.10673793405294418
1,4,128,68,0.5326735377311707,0.1727939397096634
1,4,128,69,0.46705710887908936,0.23355551064014435
1,4,128,70,0.641963005065918,0.22687594592571259
1,4,128,71,0.495055615901947,0.2404596209526062
1,4,128,72,0.6241118311882019,0.23923799395561218
1,4,128,73,0.7273808717727661,0.09881311655044556
1,4,128,74,0.5475798845291138,0.22469869256019592
1,4,128,75,0.4637047350406647,0.27306103706359863
1,4,128,76,0.49851661920547485,0.14104707539081573
1,4,128,77,0.6285097002983093,0.1377655565738678
1,4,128,78,0.5111777782440186,0.22369356453418732
1,4,128,79,0.40570947527885437,0.27301815152168274
1,4,128,80,0.6104087233543396,0.26006627082824707
1,4,128,81,0.47897958755493164,0.34373950958251953
1,4,128,82,0.6392451524734497,0.08169570565223694
1,4,128,83,0.48492157459259033,0.08652841299772263
1,4,128,84,0.7574477195739746,0.08063430339097977
1,4,128,85,0.6591137051582336,0.18988098204135895
1,4,128,86,0.7340800166130066,0.07141577452421188
1,4,128,87,0.4607711136341095,0.14180591702461243
1,4,128,88,0.5751578211784363,0.22692233324050903
1,4,128,89,0.6607282757759094,0.06713999807834625
1,4,128,90,0.46212348341941833,0.19417625665664673
1,4,128,91,0.7102387547492981,0.1769324392080307
1,4,128,92,0.4654598534107208,0.2719980478286743
1,4,128,93,0.5974670648574829,0.08730462938547134
1,4,128,94,0.45712050795555115,0.3209400475025177
1,4,128,95,0.42810943722724915,0.054807648062705994
1,4,128,96,0.6725833415985107,0.23342587053775787
1,4,128,97,0.6286597847938538,0.17329804599285126
1,4,128,98,0.6647540330886841,0.10650727897882462
1,4,128,99,0.5845351815223694,0.29219570755958557
1,4,128,100,0.6393085718154907,0.12279421836137772
1,4,128,101,0.5268399119377136,0.21534761786460876
1,4,128,102,0.3907257616519928,0.09913889318704605
1,4,128,103,0.3624802827835083,0.12350241094827652
1,4,128,104,0.6018105745315552,0.2758685350418091
1,4,128,105,0.7602010369300842,0.1129467561841011
1,4,128,106,0.4797687828540802,0.23886172473430634
1,4,128,107,0.5635597109794617,0.2756389379501343
1,4,128,108,0.44376516342163086,0.34876328706741333
1,4,128,109,0.5578196048736572,0.26886996626853943
1,4,128,110,0.481992244720459,0.15201303362846375
1,4,128,111,0.5162339806556702,0.3020381033420563
1,4,128,112,0.5832296013832092,0.24024343490600586
1,4,128,113,0.6035446524620056,0.221230611205101
1,4,128,114,0.7396793365478516,0.08906145393848419
1,4,128,115,0.6511468291282654,0.1495918333530426
1,4,128,116,0.5468889474868774,0.06857629865407944
1,4,128,117,0.525301992893219,0.1788351982831955
1,4,128,118,0.6234952807426453,0.13943882286548615
1,4,128,119,0.36256974935531616,0.23589427769184113
1,4,128,120,0.5148876309394836,0.28312772512435913
1,4,128,121,0.5463414192199707,0.044904567301273346
1,4,128,122,0.6434839963912964,0.2803170084953308
1,4,128,123,0.37679576873779297,0.1600264459848404
1,4,128,124,0.36752742528915405,0.09337924420833588
1,4,128,125,0.6613411903381348,0.19665920734405518
1,4,128,126,0.5269514322280884,0.22882366180419922
1,4,128,127,0.59115070104599,0.15231625735759735
1,5,128,0,0.6204823851585388,0.25434696674346924
1,5,128,1,0.673372745513916,0.13563008606433868
1,5,128,2,0.5853369235992432,0.059107862412929535
1,5,128,3,0.5638155937194824,0.16395416855812073
1,5,128,4,0.7391452193260193,0.17954230308532715
1,5,128,5,0.5620473027229309,0.10710932314395905
1,5,128,6,0.6602820754051208,0.2452433705329895
1,5,128,7,0.5421549677848816,0.16750359535217285
1,5,128,8,0.4376163184642792,0.10015802830457687
1,5,128,9,0.806555986404419,0.1063876524567604
1,5,128,10,0.5121703147888184,0.16533662378787994
1,5,128,11,0.6180367469787598,0.06721463054418564
1,5,128,12,0.3103243410587311,0.09806946665048599
1,5,128,13,0.6897080540657043,0.09058450162410736
1,5,128,14,0.5936233997344971,0.093210369348526
1,5,128,15,0.7409636378288269,0.090205118060112
1,5,128,16,0.7267141342163086,0.11897258460521698
1,5,128,17,0.7178278565406799,0.18220187723636627
1,5,128,18,0.719960629940033,0.16300348937511444
1,5,128,19,0.7077933549880981,0.18726442754268646
1,5,128,20,0.5155364871025085,0.22727927565574646
1,5,128,21,0.6672516465187073,0.15651263296604156
1,5,128,22,0.5799570083618164,0.18417252600193024
1,5,128,23,0.5698460936546326,0.053950708359479904
1,5,128,24,0.7716974020004272,0.10558082908391953
1,5,128,25,0.6620549559593201,0.0970931202173233
1,5,128,26,0.695689857006073,0.17020206153392792
1,5,128,27,0.6536649465560913,0.22146709263324738
1,5,128,28,0.7652759552001953,0.10672399401664734
1,5,128,29,0.686972439289093,0.10684847831726074
1,5,128,30,0.5636289715766907,0.13882789015769958
1,5,128,31,0.7447044253349304,0.08979364484548569
1,5,128,32,0.5628376603126526,0.07919876277446747
1,5,128,33,0.377292275428772,0.11263220012187958
1,5,128,34,0.48129189014434814,0.1628449708223343
1,5,128,35,0.682722270488739,0.1250913143157959
1,5,128,36,0.5901899933815002,0.09785734117031097
1,5,128,37,0.5834454298019409,0.16201801598072052
1,5,128,38,0.5395691990852356,0.12121600657701492
1,5,128,39,0.6459965109825134,0.1360124796628952
1,5,128,40,0.695256769657135,0.09036346524953842
1,5,128,41,0.48572689294815063,0.24800518155097961
1,5,128,42,0.8125738501548767,0.11546552926301956
1,5,128,43,0.6014915108680725,0.08914610743522644
1,5,128,44,0.7675185203552246,0.17284561693668365
1,5,128,45,0.4529508352279663,0.06856545060873032
1,5,128,46,0.6738054156303406,0.1352977454662323
1,5,128,47,0.8177385926246643,0.12342210114002228
1,5,128,48,0.7055143713951111,0.14130093157291412
1,5,128,49,0.7409857511520386,0.1677483469247818
1,5,128,50,0.4113134443759918,0.07510837912559509
1,5,128,51,0.750942587852478,0.10572529584169388
1,5,128,52,0.5941348671913147,0.1823866069316864
1,5,128,53,0.703819215297699,0.16722242534160614
1,5,128,54,0.7262166142463684,0.10598525404930115
1,5,128,55,0.8117889761924744,0.11253347992897034
1,5,128,56,0.5494821071624756,0.058237019926309586
1,5,128,57,0.6600297689437866,0.16834352910518646
1,5,128,58,0.6337839365005493,0.2399195283651352
1,5,128,59,0.55084627866745,0.13511288166046143
1,5,128,60,0.6404524445533752,0.2499668449163437
1,5,128,61,0.7694287896156311,0.10271675884723663
1,5,128,62,0.7949938774108887,0.11007678508758545
1,5,128,63,0.6618879437446594,0.25354811549186707
1,5,128,64,0.6070953607559204,0.20247821509838104
1,5,128,65,0.7507506608963013,0.09652864933013916
1,5,128,66,0.7230744957923889,0.12330003827810287
1,5,128,67,0.7718952298164368,0.1428924947977066
1,5,128,68,0.4959357976913452,0.11181452870368958
1,5,128,69,0.3394656479358673,0.08753126859664917
1,5,128,70,0.8185365796089172,0.1035991907119751
1,5,128,71,0.4699976444244385,0.0676763579249382
1,5,128,72,0.7318181395530701,0.17227040231227875
1,5,128,73,0.7700662612915039,0.09222952276468277
1,5,128,74,0.7231841683387756,0.11526118963956833
1,5,128,75,0.7454310059547424,0.10149838775396347
1,5,128,76,0.622926652431488,0.19805406033992767
1,5,128,77,0.7822657227516174,0.10573968291282654
1,5,128,78,0.5380210280418396,0.05380673334002495
1,5,128,79,0.5000641942024231,0.04649145528674126
1,5,128,80,0.7960504293441772,0.12695127725601196
1,5,128,81,0.726614773273468,0.1314685046672821
1,5,128,82,0.7908043265342712,0.10455337911844254
1,5,128,83,0.748906672000885,0.10758206993341446
1,5,128,84,0.7130774855613708,0.08394152671098709
1,5,128,85,0.6623073220252991,0.20542049407958984
1,5,128,86,0.5771565437316895,0.04307292401790619
1,5,128,87,0.6631062626838684,0.0908127948641777
1,5,128,88,0.7748433351516724,0.11371681839227676
1,5,128,89,0.5985446572303772,0.10938506573438644
1,5,128,90,0.44975635409355164,0.12242425978183746
1,5,128,91,0.7885276675224304,0.11789608001708984
1,5,128,92,0.40640050172805786,0.09887485206127167
1,5,128,93,0.6416492462158203,0.2255827933549881
1,5,128,94,0.7491541504859924,0.12276561558246613
1,5,128,95,0.5922028422355652,0.104963518679142
1,5,128,96,0.5670363903045654,0.17800115048885345
1,5,128,97,0.6259631514549255,0.10662837326526642
1,5,128,98,0.7005489468574524,0.11273346841335297
1,5,128,99,0.5582641363143921,0.1537918597459793
1,5,128,100,0.6416414380073547,0.20054438710212708
1,5,128,101,0.6911260485649109,0.10727635771036148
1,5,128,102,0.6081726551055908,0.12458056956529617
1,5,128,103,0.5236997008323669,0.15242326259613037
1,5,128,104,0.7581227421760559,0.12158193439245224
1,5,128,105,0.786358654499054,0.11557517200708389
1,5,128,106,0.7533810138702393,0.10371775925159454
1,5,128,107,0.8128942251205444,0.10443167388439178
1,5,128,108,0.5666934847831726,0.1404135674238205
1,5,128,109,0.6527577042579651,0.1721908301115036
1,5,128,110,0.7164615988731384,0.10258257389068604
1,5,128,111,0.6548484563827515,0.13038092851638794
1,5,128,112,0.6431736350059509,0.23669633269309998
1,5,128,113,0.7551935315132141,0.11782276630401611
1,5,128,114,0.7633211612701416,0.10525969415903091
1,5,128,115,0.6285308599472046,0.18080927431583405
1,5,128,116,0.6387552618980408,0.10111846774816513
1,5,128,117,0.6269749999046326,0.06564126163721085
1,5,128,118,0.4797816574573517,0.13572679460048676
1,5,128,119,0.5952897071838379,0.09481646865606308
1,5,128,120,0.6422005891799927,0.1327585130929947
1,5,128,121,0.65095454454422,0.20488423109054565
1,5,128,122,0.6646668910980225,0.2187412977218628
1,5,128,123,0.5167593359947205,0.06279060244560242
1,5,128,124,0.534568727016449,0.09879866987466812
1,5,128,125,0.6743355989456177,0.08434741199016571
1,5,128,126,0.7650110125541687,0.12063673883676529
1,5,128,127,0.782932460308075,0.1025829091668129
2,0,32,0,0.5268694162368774,0.10705766081809998
2,0,32,1,0.4907068908214569,0.023646056652069092
2,0,32,2,0.3962555527687073,0.03566091135144234
2,0,32,3,0.37594977021217346,0.06984774768352509
2,0,32,4,0.5926689505577087,0.04599108546972275
2,0,32,5,0.49068892002105713,0.11606085300445557
2,0,32,6,0.33407580852508545,0.10888700932264328
2,0,32,7,0.4128877520561218,0.138564333319664
2,0,32,8,0.436560720205307,0.11846592277288437
2,0,32,9,0.515530526638031,0.0700763687491417
2,0,32,10,0.5199495553970337,0.12098164856433868
2,0,32,11,0.4241839647293091,0.02371884509921074
2,0,32,12,0.4351986348628998,0.10488114506006241
2,0,32,13,0.48273739218711853,0.1286260336637497
2,0,32,14,0.6061321496963501,0.028013285249471664
2,0,32,15,0.38475286960601807,0.104978047311306
2,0,32,16,0.42557913064956665,0.13704483211040497
2,0,32,17,0.40378427505493164,0.08682696521282196
2,0,32,18,0.4911043047904968,0.0828569307923317
2,0,32,19,0.4325798749923706,0.08254829794168472
2,0,32,20,0.3762998580932617,0.08459507673978806
2,0,32,21,0.46787866950035095,0.08137405663728714
2,0,32,22,0.5737460851669312,0.09788710623979568
2,0,32,23,0.41277191042900085,0.00673074321821332
2,0,32,24,0.5124209523200989,0.06809467077255249
2,0,32,25,0.47290539741516113,0.12719210982322693
2,0,32,26,0.4271332919597626,0.12482713162899017
2,0,32,27,0.38177207112312317,0.11320051550865173
2,0,32,28,0.6068406701087952,0.09675946831703186
2,0,32,29,0.4171038866043091,0.09725947678089142
2,0,32,30,0.6254206299781799,0.033761922270059586
2,0,32,31,0.429013192653656,0.11492365598678589
2,1,32,0,0.47827717661857605,0.07915390282869339
2,1,32,1,0.38341304659843445,0.09968792647123337
2,1,32,2,0.4402675926685333,0.12185990065336227
2,1,32,3,0.3508269488811493,0.056569524109363556
2,1,32,4,0.5266720056533813,0.15299366414546967
2,1,32,5,0.46638721227645874,0.1363353133201599
2,1,32,6,0.4976387023925781,0.10698428750038147
2,1,32,7,0.5422468185424805,0.12374741584062576
2,1,32,8,0.43929940462112427,0.12692536413669586
2,1,32,9,0.4638901948928833,0.1278195083141327
2,1,32,10,0.45136919617652893,0.11028697341680527
2,1,32,11,0.4867245852947235,0.1304894983768463
2,1,32,12,0.6588634848594666,0.16501055657863617
2,1,32,13,0.4433477818965912,0.11662715673446655
2,1,32,14,0.5152219533920288,0.16353486478328705
2,1,32,15,0.4482661485671997,0.07371972501277924
2,1,32,16,0.4702557921409607,0.0618109256029129
2,1,32,17,0.5825321674346924,0.13299591839313507
2,1,32,18,0.5427310466766357,0.10461828857660294
2,1,32,19,0.4591946601867676,0.05708543583750725
2,1,32,20,0.4360574781894684,0.11928972601890564
2,1,32,21,0.503758430480957,0.07437486946582794
2,1,32,22,0.45825034379959106,0.09344062954187393
2,1,32,23,0.6173601746559143,0.08225081861019135
2,1,32,24,0.5629246830940247,0.13653628528118134
2,1,32,25,0.5590152740478516,0.1770024597644806
2,1,32,26,0.609426736831665,0.0818534791469574
2,1,32,27,0.4079137444496155,0.24812106788158417
2,1,32,28,0.37717205286026,0.06436712294816971
2,1,32,29,0.6741591095924377,0.075381800532341
2,1,32,30,0.5065034031867981,0.03335046023130417
2,1,32,31,0.4409183859825134,0.06291133165359497
2,2,64,0,0.6142101883888245,0.20910321176052094
2,2,64,1,0.5059323906898499,0.17353910207748413
2,2,64,2,0.5851624608039856,0.11343102902173996
2,2,64,3,0.581982433795929,0.09464497119188309
2,2,64,4,0.47593367099761963,0.21868681907653809
2,2,64,5,0.3436362147331238,0.11480563133955002
2,2,64,6,0.38966959714889526,0.11343276500701904
2,2,64,7,0.5203555226325989,0.1362823247909546
2,2,64,8,0.4315553605556488,0.1357678323984146
2,2,64,9,0.6738077402114868,0.09846934676170349
2,2,64,10,0.40736961364746094,0.12951509654521942
2,2,64,11,0.47385692596435547,0.07288742810487747
2,2,64,12,0.4739798903465271,0.07063167542219162
2,2,64,13,0.3206008970737457,0.11097464710474014
2,2,64,14,0.4834901690483093,0.10752207040786743
2,2,64,15,0.5676136612892151,0.13925769925117493
2,2,64,16,0.5472661852836609,0.22924639284610748
2,2,64,17,0.49669331312179565,0.23323343694210052
2,2,64,18,0.5334205031394958,0.050116609781980515
2,2,64,19,0.43348023295402527,0.14050701260566711
2,2,64,20,0.40188390016555786,0.12947386503219604
2,2,64,21,0.4539107084274292,0.0957600474357605
2,2,64,22,0.4089370369911194,0.09809253364801407
2,2,64,23,0.5073317289352417,0.0905105248093605
2,2,64,24,0.40409427881240845,0.1521937996149063
2,2,64,25,0.6377158761024475,0.1589384377002716
2,2,64,26,0.3326815962791443,0.10128536075353622
2,2,64,27,0.491810142993927,0.12431076169013977
2,2,64,28,0.4442695081233978,0.12380263954401016
2,2,64,29,0.47539156675338745,0.07724547386169434
2,2,64,30,0.5110622644424438,0.15877607464790344
2,2,64,31,0.45989733934402466,0.1343817263841629
2,2,64,32,0.3689623177051544,0.14675912261009216
2,2,64,33,0.3796021640300751,0.13413555920124054
2,2,64,34,0.4749727249145508,0.16846215724945068
2,2,64,35,0.45185962319374084,0.1354680061340332
2,2,64,36,0.39466723799705505,0.15548861026763916
2,2,64,37,0.4702358841896057,0.1411696970462799
2,2,64,38,0.46901267766952515,0.08060816675424576
2,2,64,39,0.44559404253959656,0.09499163925647736
2,2,64,40,0.5206905603408813,0.08624468743801117
2,2,64,41,0.5832324028015137,0.07405760139226913
2,2,64,42,0.3486109673976898,0.1668434590101242
2,2,64,43,0.3384181559085846,0.0853271335363388
2,2,64,44,0.31552931666374207,0.09025812149047852
2,2,64,45,0.4279767572879791,0.17315714061260223
2,2,64,46,0.5582759976387024,0.1686289757490158
2,2,64,47,0.5062800049781799,0.15936866402626038
2,2,64,48,0.532597005367279,0.21513250470161438
2,2,64,49,0.4927130341529846,0.14801697432994843
2,2,64,50,0.4519646167755127,0.17051690816879272
2,2,64,51,0.3874742388725281,0.0819450244307518
2,2,64,52,0.6147462725639343,0.1533588320016861
2,2,64,53,0.5041195154190063,0.04028190299868584
2,2,64,54,0.5961369276046753,0.11299166828393936
2,2,64,55,0.4621222913265228,0.11889193952083588
2,2,64,56,0.31170961260795593,0.11320897936820984
2,2,64,57,0.4003782272338867,0.09461550414562225
2,2,64,58,0.5197040438652039,0.2528446912765503
2,2,64,59,0.5676586627960205,0.20169813930988312
2,2,64,60,0.6210678815841675,0.08307206630706787
2,2,64,61,0.5604827404022217,0.21224085986614227
2,2,64,62,0.5314960479736328,0.1803157776594162
2,2,64,63,0.42102524638175964,0.123077392578125
2,3,64,0,0.2739913761615753,0.12078350782394409
2,3,64,1,0.5966079235076904,0.2602333426475525
2,3,64,2,0.5590022206306458,0.15376470983028412
2,3,64,3,0.41509002447128296,0.2271430343389511
2,3,64,4,0.4982370138168335,0.27438822388648987
2,3,64,5,0.4488433003425598,0.0995006337761879
2,3,64,6,0.47765931487083435,0.0685831606388092
2,3,64,7,0.6067052483558655,0.09597616642713547
2,3,64,8,0.5236895680427551,0.21070148050785065
2,3,64,9,0.5212954878807068,0.26581448316574097
2,3,64,10,0.5398604869842529,0.061260122805833817
2,3,64,11,0.619231641292572,0.27922284603118896
2,3,64,12,0.3711577355861664,0.25738245248794556
2,3,64,13,0.6968246698379517,0.09988930076360703
2,3,64,14,0.49016571044921875,0.21040597558021545
2,3,64,15,0.5839534401893616,0.13534921407699585
2,3,64,16,0.5611446499824524,0.2774565517902374
2,3,64,17,0.4450567066669464,0.13866320252418518
2,3,64,18,0.5028504133224487,0.1339898705482483
2,3,64,19,0.5179775953292847,0.12041782587766647
2,3,64,20,0.6510089039802551,0.10861530154943466
2,3,64,21,0.5171356201171875,0.1403447389602661
2,3,64,22,0.5817655920982361,0.17103102803230286
2,3,64,23,0.5114931464195251,0.3012866675853729
2,3,64,24,0.4662831723690033,0.17334198951721191
2,3,64,25,0.47229140996932983,0.2752167284488678
2,3,64,26,0.5527552962303162,0.13268347084522247
2,3,64,27,0.3142757713794708,0.14135223627090454
2,3,64,28,0.4285358786582947,0.13117097318172455
2,3,64,29,0.49400758743286133,0.10707160085439682
2,3,64,30,0.4065915048122406,0.15573181211948395
2,3,64,31,0.35341325402259827,0.17690670490264893
2,3,64,32,0.546347975730896,0.20278465747833252
2,3,64,33,0.45380520820617676,0.13028253614902496
2,3,64,34,0.38832396268844604,0.21359507739543915
2,3,64,35,0.43498510122299194,0.2384651154279709
2,3,64,36,0.42673033475875854,0.15371552109718323
2,3,64,37,0.37496641278266907,0.2809062898159027
2,3,64,38,0.4629247784614563,0.1460896134376526
2,3,64,39,0.40635156631469727,0.18101416528224945
2,3,64,40,0.7946363687515259,0.09881150722503662
2,3,64,41,0.5294464230537415,0.2111167013645172
2,3,64,42,0.4933672249317169,0.16109442710876465
2,3,64,43,0.4611198604106903,0.11718227714300156
2,3,64,44,0.3860045075416565,0.23181232810020447
2,3,64,45,0.4932540953159332,0.2033775895833969
2,3,64,46,0.45865771174430847,0.253359317779541
2,3,64,47,0.3292391300201416,0.18757149577140808
2,3,64,48,0.5375277996063232,0.19321505725383759
2,3,64,49,0.44853225350379944,0.09054561704397202
2,3,64,50,0.5979134440422058,0.22521764039993286
2,3,64,51,0.38390159606933594,0.08539557456970215
2,3,64,52,0.5904448628425598,0.22098933160305023
2,3,64,53,0.6067764759063721,0.12850980460643768
2,3,64,54,0.522530198097229,0.07463285326957703
2,3,64,55,0.6312947869300842,0.2618820071220398
2,3,64,56,0.4754174053668976,0.23169967532157898
2,3,64,57,0.5030574798583984,0.1889013797044754
2,3,64,58,0.40357518196105957,0.230466827750206
2,3,64,59,0.6514644026756287,0.12388969957828522
2,3,64,60,0.30354413390159607,0.17427414655685425
2,3,64,61,0.38861945271492004,0.1691911220550537
2,3,64,62,0.4652853012084961,0.19447214901447296
2,3,64,63,0.38950151205062866,0.12249834090471268
2,4,128,0,0.7094399333000183,0.08306418359279633
2,4,128,1,0.38999730348587036,0.06688340753316879
2,4,128,2,0.7032661437988281,0.2050422728061676
2,4,128,3,0.3662981390953064,0.23569491505622864
2,4,128,4,0.3971293270587921,0.16269050538539886
2,4,128,5,0.40725618600845337,0.22630596160888672
2,4,128,6,0.7666816115379333,0.09183000028133392
2,4,128,7,0.2996986508369446,0.08020057529211044
2,4,128,8,0.5108877420425415,0.042320847511291504
2,4,128,9,0.31118839979171753,0.2209497094154358
2,4,128,10,0.48655837774276733,0.24270164966583252
2,4,128,11,0.2560777962207794,0.0851811021566391
2,4,128,12,0.6374695897102356,0.29634472727775574
2,4,128,13,0.38935890793800354,0.11207237094640732
2,4,128,14,0.6409257054328918,0.11697018891572952
2,4,128,15,0.6059136986732483,0.08256429433822632
2,4,128,16,0.6997366547584534,0.07331888377666473
2,4,128,17,0.6343082785606384,0.3757966160774231
2,4,128,18,0.6217057108879089,0.08257406204938889
2,4,128,19,0.3869720995426178,0.17226877808570862
2,4,128,20,0.6120606064796448,0.053050946444272995
2,4,128,21,0.41759273409843445,0.19928589463233948
2,4,128,22,0.2359767109155655,0.15170884132385254
2,4,128,23,0.6203243136405945,0.09863267838954926
2,4,128,24,0.3200750946998596,0.07635268568992615
2,4,128,25,0.6160060167312622,0.25806912779808044
2,4,128,26,0.5461927652359009,0.29604652523994446
2,4,128,27,0.29608452320098877,0.22256329655647278
2,4,128,28,0.5929594039916992,0.31754249334335327
2,4,128,29,0.2865716516971588,0.21517856419086456
2,4,128,30,0.6517238616943359,0.3317466378211975
2,4,128,31,0.3401106595993042,0.2394120842218399
2,4,128,32,0.4848611056804657,0.23190699517726898
2,4,128,33,0.5457596182823181,0.2134483903646469
2,4,128,34,0.5966460704803467,0.09610068798065186
2,4,128,35,0.7414951324462891,0.08361116051673889
2,4,128,36,0.6121543049812317,0.33426234126091003
2,4,128,37,0.5796446204185486,0.2333613932132721
2,4,128,38,0.5594214797019958,0.1790834218263626
2,4,128,39,0.6655181050300598,0.32503366470336914
2,4,128,40,0.5351862907409668,0.25936397910118103
2,4,128,41,0.37389251589775085,0.331637442111969
2,4,128,42,0.8097647428512573,0.09869933873414993
2,4,128,43,0.6286924481391907,0.30459824204444885
2,4,128,44,0.7068005800247192,0.20432184636592865
2,4,128,45,0.30836373567581177,0.07788414508104324
2,4,128,46,0.455034464597702,0.06207619979977608
2,4,128,47,0.4798632264137268,0.23090581595897675
2,4,128,48,0.5679814219474792,0.1084049716591835
2,4,128,49,0.6521730422973633,0.09522908926010132
2,4,128,50,0.563717782497406,0.11544085294008255
2,4,128,51,0.39822784066200256,0.2349826842546463
2,4,128,52,0.5435118675231934,0.26242998242378235
2,4,128,53,0.8173326849937439,0.10473626852035522
2,4,128,54,0.36009150743484497,0.05755665898323059
2,4,128,55,0.7782028913497925,0.09875527769327164
2,4,128,56,0.3905078172683716,0.25421372056007385
2,4,128,57,0.7505615949630737,0.10650067776441574
2,4,128,58,0.7037257552146912,0.1214224100112915
2,4,128,59,0.38656699657440186,0.21459081768989563
2,4,128,60,0.36757612228393555,0.14363710582256317
2,4,128,61,0.6882216930389404,0.1076391339302063
2,4,128,62,0.82314532995224,0.10074534267187119
2,4,128,63,0.5207487940788269,0.05364033952355385
2,4,128,64,0.2736852467060089,0.08268880099058151
2,4,128,65,0.7841131091117859,0.10869598388671875
2,4,128,66,0.6036587953567505,0.30290716886520386
2,4,128,67,0.4319319725036621,0.19292095303535461
2,4,128,68,0.5022448897361755,0.09292598813772202
2,4,128,69,0.4912678599357605,0.24613836407661438
2,4,128,70,0.49243399500846863,0.12045394629240036
2,4,128,71,0.4499266445636749,0.262407124042511
2,4,128,72,0.6192504167556763,0.21250954270362854
2,4,128,73,0.47325074672698975,0.11949682980775833
2,4,128,74,0.5657400488853455,0.25903138518333435
2,4,128,75,0.5852293968200684,0.24254651367664337
2,4,128,76,0.7177999019622803,0.13022907078266144
2,4,128,77,0.6776930093765259,0.11384793370962143
2,4,128,78,0.32400354743003845,0.08076966553926468
2,4,128,79,0.4550122320652008,0.26711729168891907
2,4,128,80,0.6136446595191956,0.344894677400589
2,4,128,81,0.6309154033660889,0.38071954250335693
2,4,128,82,0.3357122838497162,0.06952559947967529
2,4,128,83,0.6882777810096741,0.09486817568540573
2,4,128,84,0.6492254734039307,0.07706894725561142
2,4,128,85,0.7236089706420898,0.12480100244283676
2,4,128,86,0.7732053399085999,0.1687532663345337
2,4,128,87,0.5636892914772034,0.23182131350040436
2,4,128,88,0.346853643655777,0.19470615684986115
2,4,128,89,0.3896220624446869,0.22787396609783173
2,4,128,90,0.44908422231674194,0.28593021631240845
2,4,128,91,0.6864452958106995,0.31247183680534363
2,4,128,92,0.7804232239723206,0.21290715038776398
2,4,128,93,0.4803889989852905,0.14173588156700134
2,4,128,94,0.4891832768917084,0.2828657031059265
2,4,128,95,0.6736631989479065,0.2369745969772339
2,4,128,96,0.6557215452194214,0.07199840247631073
2,4,128,97,0.5858138203620911,0.25834721326828003
2,4,128,98,0.3126591742038727,0.19771821796894073
2,4,128,99,0.6814441680908203,0.1219741627573967
2,4,128,100,0.6093440651893616,0.15802645683288574
2,4,128,101,0.30065619945526123,0.11887180060148239
2,4,128,102,0.6334670186042786,0.12020359933376312
2,4,128,103,0.7634469866752625,0.10964149236679077
2,4,128,104,0.6422870755195618,0.05066904053092003
2,4,128,105,0.30790218710899353,0.1515636146068573
2,4,128,106,0.3658381998538971,0.12021248042583466
2,4,128,107,0.6466689109802246,0.22328424453735352
2,4,128,108,0.3587947487831116,0.180387943983078
2,4,128,109,0.7961163520812988,0.10227648168802261
2,4,128,110,0.690032422542572,0.09703481942415237
2,4,128,111,0.5025320649147034,0.041978903114795685
2,4,128,112,0.6634827852249146,0.32670116424560547
2,4,128,113,0.6245314478874207,0.09838270395994186
2,4,128,114,0.7928032279014587,0.09869103133678436
2,4,128,115,0.6035957932472229,0.28983789682388306
2,4,128,116,0.7508087158203125,0.1403101682662964
2,4,128,117,0.4790962338447571,0.20104765892028809
2,4,128,118,0.5675904750823975,0.12066498398780823
2,4,128,119,0.7022842764854431,0.15938329696655273
2,4,128,120,0.787401556968689,0.09039495140314102
2,4,128,121,0.3086857497692108,0.09222310036420822
2,4,128,122,0.7581692337989807,0.11088312417268753
2,4,128,123,0.5019068121910095,0.05910668522119522
2,4,128,124,0.5724711418151855,0.11654182523488998
2,4,128,125,0.4217655062675476,0.12718023359775543
2,4,128,126,0.48384860157966614,0.2203715741634369
2,4,128,127,0.5429708957672119,0.12689439952373505
2,5,128,0,0.3109915256500244,0.14066055417060852
2,5,128,1,0.32765716314315796,0.16153879463672638
2,5,128,2,0.7026788592338562,0.29164421558380127
2,5,128,3,0.7647088170051575,0.15147805213928223
2,5,128,4,0.6867784261703491,0.2792803645133972
2,5,128,5,0.7266285419464111,0.22074466943740845
2,5,128,6,0.728621780872345,0.19709104299545288
2,5,128,7,0.8056877255439758,0.17897433042526245
2,5,128,8,0.6056036949157715,0.08361701667308807
2,5,128,9,0.5442017316818237,0.15031184256076813
2,5,128,10,0.7285068035125732,0.22932222485542297
2,5,128,11,0.6229901313781738,0.09881382435560226
2,5,128,12,0.3765033781528473,0.09229394048452377
2,5,128,13,0.6899377107620239,0.15012004971504211
2,5,128,14,0.26315534114837646,0.20381656289100647
2,5,128,15,0.6885890960693359,0.2051210254430771
2,5,128,16,0.6743053197860718,0.2232324481010437
2,5,128,17,0.7658536434173584,0.21787983179092407
2,5,128,18,0.7412217855453491,0.21784724295139313
2,5,128,19,0.6314481496810913,0.14176791906356812
2,5,128,20,0.6964337825775146,0.24147449433803558
2,5,128,21,0.3282981216907501,0.14383596181869507
2,5,128,22,0.6956634521484375,0.09320858865976334
2,5,128,23,0.29779136180877686,0.10431092232465744
2,5,128,24,0.7095555067062378,0.2370471954345703
2,5,128,25,0.7517140507698059,0.20849424600601196
2,5,128,26,0.7784459590911865,0.15962308645248413
2,5,128,27,0.7304871678352356,0.20513159036636353
2,5,128,28,0.7216411232948303,0.14922569692134857
2,5,128,29,0.7322323322296143,0.2330249547958374
2,5,128,30,0.7630593180656433,0.21060863137245178
2,5,128,31,0.5515373349189758,0.0527442991733551
2,5,128,32,0.7262226343154907,0.13808998465538025
2,5,128,33,0.29345816373825073,0.2494248002767563
2,5,128,34,0.7656798362731934,0.2371247410774231
2,5,128,35,0.7255100607872009,0.1883554905653
2,5,128,36,0.5466253161430359,0.1772838681936264
2,5,128,37,0.7327163815498352,0.20604708790779114
2,5,128,38,0.7472566366195679,0.17978107929229736
2,5,128,39,0.7025272250175476,0.2139918953180313
2,5,128,40,0.7081384062767029,0.20228265225887299
2,5,128,41,0.4683156907558441,0.0733911469578743
2,5,128,42,0.7478439807891846,0.21314044296741486
2,5,128,43,0.6724120378494263,0.21135708689689636
2,5,128,44,0.7424731254577637,0.21199843287467957
2,5,128,45,0.30265140533447266,0.2085704505443573
2,5,128,46,0.6620331406593323,0.16080690920352936
2,5,128,47,0.676288902759552,0.23491090536117554
2,5,128,48,0.7247865200042725,0.17875199019908905
2,5,128,49,0.7116198539733887,0.1420726627111435
2,5,128,50,0.5079547166824341,0.026623567566275597
2,5,128,51,0.3724069893360138,0.2099194973707199
2,5,128,52,0.7311762571334839,0.20824220776557922
2,5,128,53,0.6937202215194702,0.2711678147315979
2,5,128,54,0.7409994602203369,0.19847679138183594
2,5,128,55,0.7257431149482727,0.20391662418842316
2,5,128,56,0.7073466777801514,0.16267944872379303
2,5,128,57,0.6921929121017456,0.07101624459028244
2,5,128,58,0.6166086196899414,0.0970768928527832
2,5,128,59,0.31970691680908203,0.2325633019208908
2,5,128,60,0.4546450078487396,0.052065569907426834
2,5,128,61,0.7007466554641724,0.1571166217327118
2,5,128,62,0.7609785795211792,0.18266919255256653
2,5,128,63,0.5547807812690735,0.08330409228801727
2,5,128,64,0.6683492064476013,0.1927921324968338
2,5,128,65,0.7292260527610779,0.2107171267271042
2,5,128,66,0.7734385132789612,0.2023581862449646
2,5,128,67,0.7594622373580933,0.24321162700653076
2,5,128,68,0.6598480939865112,0.20673337578773499
2,5,128,69,0.7342411279678345,0.2668835520744324
2,5,128,70,0.47254207730293274,0.020246095955371857
2,5,128,71,0.577075719833374,0.13194143772125244
2,5,128,72,0.7380064129829407,0.13839003443717957
2,5,128,73,0.5970701575279236,0.10161659866571426
2,5,128,74,0.29422783851623535,0.21434272825717926
2,5,128,75,0.320095032453537,0.2530801296234131
2,5,128,76,0.5006827712059021,0.05761733278632164
2,5,128,77,0.599236786365509,0.12711821496486664
2,5,128,78,0.5522361397743225,0.020321562886238098
2,5,128,79,0.255428671836853,0.1337304711341858
2,5,128,80,0.7658196687698364,0.23100830614566803
2,5,128,81,0.7777581214904785,0.1933571994304657
2,5,128,82,0.5041660666465759,0.060333769768476486
2,5,128,83,0.7070047855377197,0.26668986678123474
2,5,128,84,0.6986174583435059,0.26040101051330566
2,5,128,85,0.73734050989151,0.19760914146900177
2,5,128,86,0.7372331023216248,0.2534600794315338
2,5,128,87,0.7343279719352722,0.23332622647285461
2,5,128,88,0.3036867678165436,0.230409175157547
2,5,128,89,0.690478503704071,0.29569870233535767
2,5,128,90,0.6355053782463074,0.08387518674135208
2,5,128,91,0.630391538143158,0.26001274585723877
2,5,128,92,0.7649489045143127,0.21378104388713837
2,5,128,93,0.6275090575218201,0.09543168544769287
2,5,128,94,0.32278692722320557,0.2110164910554886
2,5,128,95,0.6616376638412476,0.30719059705734253
2,5,128,96,0.6817836761474609,0.2871659994125366
2,5,128,97,0.6041898727416992,0.0900208055973053
2,5,128,98,0.7665278315544128,0.17039674520492554
2,5,128,99,0.28128165006637573,0.10113879293203354
2,5,128,100,0.30303889513015747,0.09837466478347778
2,5,128,101,0.681622326374054,0.25964391231536865
2,5,128,102,0.6847862601280212,0.13381609320640564
2,5,128,103,0.6583752036094666,0.20478171110153198
2,5,128,104,0.6877447962760925,0.13021312654018402
2,5,128,105,0.5246560573577881,0.02467278018593788
2,5,128,106,0.2844761312007904,0.12317623198032379
2,5,128,107,0.6902484893798828,0.27249056100845337
2,5,128,108,0.7057685256004333,0.23143461346626282
2,5,128,109,0.7210073471069336,0.1564488261938095
2,5,128,110,0.64177405834198,0.08915843814611435
2,5,128,111,0.31029680371284485,0.12417571991682053
2,5,128,112,0.6723683476448059,0.28799107670783997
2,5,128,113,0.32209664583206177,0.2726972997188568
2,5,128,114,0.7263947129249573,0.16046090424060822
2,5,128,115,0.7303693890571594,0.17837318778038025
2,5,128,116,0.7505388855934143,0.18602126836776733
2,5,128,117,0.25258758664131165,0.21101045608520508
2,5,128,118,0.6675147414207458,0.26795539259910583
2,5,128,119,0.580600917339325,0.1627293974161148
2,5,128,120,0.7723804116249084,0.16595251858234406
2,5,128,121,0.6953767538070679,0.2462952882051468
2,5,128,122,0.7166364192962646,0.21580183506011963
2,5,128,123,0.7472071647644043,0.10957130044698715
2,5,128,124,0.2349133938550949,0.19930659234523773
2,5,128,125,0.7230091094970703,0.1770302802324295
2,5,128,126,0.6437973976135254,0.246196910738945
2,5,128,127,0.44389185309410095,0.08306961506605148
3,0,32,0,0.3857114911079407,0.1250096708536148
3,0,32,1,0.3598500192165375,0.09290984272956848
3,0,32,2,0.6034715175628662,0.12189581245183945
3,0,32,3,0.5034189820289612,0.11376433819532394
3,0,32,4,0.43224048614501953,0.1545494794845581
3,0,32,5,0.44040369987487793,0.19674189388751984
3,0,32,6,0.5709917545318604,0.16634158790111542
3,0,32,7,0.3699047863483429,0.09489278495311737
3,0,32,8,0.35999739170074463,0.10313104838132858
3,0,32,9,0.47475719451904297,0.19868460297584534
3,0,32,10,0.5280341506004333,0.13097400963306427
3,0,32,11,0.4323952794075012,0.16036055982112885
3,0,32,12,0.48045846819877625,0.18229931592941284
3,0,32,13,0.45043596625328064,0.06263666599988937
3,0,32,14,0.6082152724266052,0.09741050004959106
3,0,32,15,0.4459722638130188,0.17338447272777557
3,0,32,16,0.4649522602558136,0.18397857248783112
3,0,32,17,0.5684149861335754,0.1163749098777771
3,0,32,18,0.5551439523696899,0.11152827739715576
3,0,32,19,0.5002561211585999,0.09955476969480515
3,0,32,20,0.4383378028869629,0.09893787652254105
3,0,32,21,0.49818506836891174,0.11184176057577133
3,0,32,22,0.41472381353378296,0.18185679614543915
3,0,32,23,0.39179328083992004,0.1207202598452568
3,0,32,24,0.457282692193985,0.20687997341156006
3,0,32,25,0.43683749437332153,0.039351776242256165
3,0,32,26,0.5593279600143433,0.07177048176527023
3,0,32,27,0.4402428865432739,0.1444108635187149
3,0,32,28,0.46364620327949524,0.17131458222866058
3,0,32,29,0.5810925960540771,0.05900713801383972
3,0,32,30,0.5295678377151489,0.052809860557317734
3,0,32,31,0.38845095038414,0.12979499995708466
3,1,32,0,0.45942065119743347,0.04222027212381363
3,1,32,1,0.4241786301136017,0.12986542284488678
3,1,32,2,0.40920642018318176,0.09953968226909637
3,1,32,3,0.4594091475009918,0.020353175699710846
3,1,32,4,0.441342294216156,0.05723775550723076
3,1,32,5,0.5836981534957886,0.11539326608181
3,1,32,6,0.5620375871658325,0.06662356108427048
3,1,32,7,0.5176125764846802,0.036093708127737045
3,1,32,8,0.5348612666130066,0.11100472509860992
3,1,32,9,0.3914950489997864,0.12983547151088715
3,1,32,10,0.42377427220344543,0.04157458618283272
3,1,32,11,0.5998781323432922,0.07111304253339767
3,1,32,12,0.4241168200969696,0.06421904265880585
3,1,32,13,0.4808015525341034,0.06047423556447029
3,1,32,14,0.5550886392593384,0.11866114288568497
3,1,32,15,0.341731458902359,0.08741692453622818
3,1,32,16,0.5320270657539368,0.04643213376402855
3,1,32,17,0.48243704438209534,0.06900280714035034
3,1,32,18,0.5357826352119446,0.07745657116174698
3,1,32,19,0.40078678727149963,0.08625836670398712
3,1,32,20,0.43242359161376953,0.08955280482769012
3,1,32,21,0.5808128118515015,0.07430096715688705
3,1,32,22,0.47205987572669983,0.1479334533214569
3,1,32,23,0.3648342788219452,0.057354845106601715
3,1,32,24,0.5756015181541443,0.05012229457497597
3,1,32,25,0.6556587815284729,0.07975772023200989
3,1,32,26,0.5660823583602905,0.03473220020532608
3,1,32,27,0.4730702042579651,0.15026895701885223
3,1,32,28,0.3858204782009125,0.05425240099430084
3,1,32,29,0.4806026220321655,0.08871880918741226
3,1,32,30,0.5524945259094238,0.08229366689920425
3,1,32,31,0.5184547305107117,0.07643522322177887
3,2,64,0,0.4563930630683899,0.06628291308879852
3,2,64,1,0.5201636552810669,0.1077275425195694
3,2,64,2,0.5099650025367737,0.08247226476669312
3,2,64,3,0.5602025389671326,0.08281081169843674
3,2,64,4,0.5689094662666321,0.1736602783203125
3,2,64,5,0.43103042244911194,0.15283064544200897
3,2,64,6,0.5534153580665588,0.11432967334985733
3,2,64,7,0.5741787552833557,0.2006666213274002
3,2,64,8,0.3727637529373169,0.1230301707983017
3,2,64,9,0.6823512315750122,0.04386427253484726
3,2,64,10,0.5614511370658875,0.07103709876537323
3,2,64,11,0.47427234053611755,0.07075178623199463
3,2,64,12,0.5979210138320923,0.10560113936662674
3,2,64,13,0.6556441187858582,0.08648914098739624
3,2,64,14,0.6005447506904602,0.10971192270517349
3,2,64,15,0.5417883992195129,0.1676030158996582
3,2,64,16,0.4940553307533264,0.07540867477655411
3,2,64,17,0.38602399826049805,0.11995062977075577
3,2,64,18,0.5589900016784668,0.1798781007528305
3,2,64,19,0.5527790784835815,0.07004830986261368
3,2,64,20,0.5586949586868286,0.062902070581913
3,2,64,21,0.4504867196083069,0.10518351197242737
3,2,64,22,0.541641354560852,0.13973194360733032
3,2,64,23,0.5180323719978333,0.1322358101606369
3,2,64,24,0.5823029279708862,0.0907890647649765
3,2,64,25,0.5142988562583923,0.12727075815200806
3,2,64,26,0.46350324153900146,0.15918280184268951
3,2,64,27,0.6131947040557861,0.04729367047548294
3,2,64,28,0.6018183827400208,0.08926478028297424
3,2,64,29,0.43943965435028076,0.07382532209157944
3,2,64,30,0.49799662828445435,0.16769804060459137
3,2,64,31,0.4889940321445465,0.19442099332809448
3,2,64,32,0.5045186877250671,0.04626491665840149
3,2,64,33,0.4952675700187683,0.13399851322174072
3,2,64,34,0.5020421147346497,0.169193834066391
3,2,64,35,0.4484722912311554,0.12777309119701385
3,2,64,36,0.5032359957695007,0.1085815355181694
3,2,64,37,0.4501509368419647,0.08588045835494995
3,2,64,38,0.4944341480731964,0.12006071954965591
3,2,64,39,0.3217903673648834,0.11636140197515488
3,2,64,40,0.4182557761669159,0.05969514697790146
3,2,64,41,0.5427901148796082,0.06310351938009262
3,2,64,42,0.3607785105705261,0.040857478976249695
3,2,64,43,0.5234493017196655,0.1186196431517601
3,2,64,44,0.47135478258132935,0.09125097841024399
3,2,64,45,0.5339499711990356,0.06375592201948166
3,2,64,46,0.5168289542198181,0.04318593069911003
3,2,64,47,0.3984348773956299,0.12469806522130966
3,2,64,48,0.5371479988098145,0.12243197113275528
3,2,64,49,0.4414740800857544,0.11411730200052261
3,2,64,50,0.5084685683250427,0.1908884048461914
3,2,64,51,0.45980408787727356,0.13348576426506042
3,2,64,52,0.49495622515678406,0.1511439085006714
3,2,64,53,0.5975548028945923,0.09778795391321182
3,2,64,54,0.5929242372512817,0.13204464316368103
3,2,64,55,0.518454909324646,0.15667374432086945
3,2,64,56,0.33760884404182434,0.09263142198324203
3,2,64,57,0.42674556374549866,0.12661324441432953
3,2,64,58,0.4629489481449127,0.08331182599067688
3,2,64,59,0.5169859528541565,0.1265067607164383
3,2,64,60,0.49633321166038513,0.03425579145550728
3,2,64,61,0.4740798771381378,0.1739042103290558
3,2,64,62,0.6375101208686829,0.15288488566875458
3,2,64,63,0.522338330745697,0.11386508494615555
3,3,64,0,0.563062846660614,0.019500315189361572
3,3,64,1,0.5477703809738159,0.08801718056201935
3,3,64,2,0.6260537505149841,0.08232591301202774
3,3,64,3,0.4564790427684784,0.23178796470165253
3,3,64,4,0.5753934979438782,0.1620272994041443
3,3,64,5,0.6260537505149841,0.1813499927520752
3,3,64,6,0.6934924125671387,0.07504457980394363
3,3,64,7,0.7498424053192139,0.10155780613422394
3,3,64,8,0.5784189105033875,0.16180852055549622
3,3,64,9,0.4831317961215973,0.17940206825733185
3,3,64,10,0.6031637191772461,0.28937774896621704
3,3,64,11,0.5146961808204651,0.05346814915537834
3,3,64,12,0.5901461243629456,0.18620093166828156
3,3,64,13,0.4040243327617645,0.12423478811979294
3,3,64,14,0.5559083819389343,0.11293855309486389
3,3,64,15,0.34577301144599915,0.11069571226835251
3,3,64,16,0.5805919170379639,0.2931845486164093
3,3,64,17,0.5200875401496887,0.2538353204727173
3,3,64,18,0.6667191982269287,0.1055818647146225
3,3,64,19,0.6271429657936096,0.16344481706619263
3,3,64,20,0.6478990912437439,0.1518375426530838
3,3,64,21,0.36429667472839355,0.10553119331598282
3,3,64,22,0.4143734276294708,0.06601649522781372
3,3,64,23,0.6581429839134216,0.13741658627986908
3,3,64,24,0.3735111355781555,0.06811589002609253
3,3,64,25,0.5499480962753296,0.201903834939003
3,3,64,26,0.7600387334823608,0.0756433829665184
3,3,64,27,0.5998897552490234,0.26213353872299194
3,3,64,28,0.6047186255455017,0.1832074522972107
3,3,64,29,0.2979539930820465,0.11164583265781403
3,3,64,30,0.6162368655204773,0.11375238001346588
3,3,64,31,0.6466931700706482,0.14758634567260742
3,3,64,32,0.5460430383682251,0.24550148844718933
3,3,64,33,0.6929089426994324,0.14763443171977997
3,3,64,34,0.5399128198623657,0.0410478413105011
3,3,64,35,0.5685991644859314,0.08148464560508728
3,3,64,36,0.3185375928878784,0.09564270079135895
3,3,64,37,0.44381436705589294,0.1509382277727127
3,3,64,38,0.3841613531112671,0.2011444866657257
3,3,64,39,0.48881828784942627,0.28028446435928345
3,3,64,40,0.3749156892299652,0.049761343747377396
3,3,64,41,0.5615482330322266,0.18790122866630554
3,3,64,42,0.5362864136695862,0.07332699000835419
3,3,64,43,0.5351859331130981,0.12472217530012131
3,3,64,44,0.5729632377624512,0.2809293270111084
3,3,64,45,0.27069467306137085,0.11598853021860123
3,3,64,46,0.652365505695343,0.08614388108253479
3,3,64,47,0.5098037719726562,0.1379716545343399
3,3,64,48,0.5120820999145508,0.29248103499412537
3,3,64,49,0.32157209515571594,0.05912315845489502
3,3,64,50,0.5823274254798889,0.15721645951271057
3,3,64,51,0.48126843571662903,0.2244836390018463
3,3,64,52,0.4117112457752228,0.12585465610027313
3,3,64,53,0.7617064714431763,0.09480893611907959
3,3,64,54,0.4253541827201843,0.16622628271579742
3,3,64,55,0.5062519311904907,0.18937723338603973
3,3,64,56,0.44977104663848877,0.12512700259685516
3,3,64,57,0.49278515577316284,0.20669376850128174
3,3,64,58,0.37975195050239563,0.1281619518995285
3,3,64,59,0.5244612693786621,0.15129904448986053
3,3,64,60,0.4591764211654663,0.12315024435520172
3,3,64,61,0.4560900330543518,0.22893249988555908
3,3,64,62,0.6045294404029846,0.08024565875530243
3,3,64,63,0.6129822134971619,0.059541501104831696
3,4,128,0,0.5963021516799927,0.1781969666481018
3,4,128,1,0.6684516668319702,0.25404515862464905
3,4,128,2,0.43326669931411743,0.2375151813030243
3,4,128,3,0.40476712584495544,0.16756024956703186
3,4,128,4,0.7366405725479126,0.10456918925046921
3,4,128,5,0.7374362945556641,0.2884186804294586
3,4,128,6,0.7286619544029236,0.26993852853775024
3,4,128,7,0.6710198521614075,0.27300339937210083
3,4,128,8,0.5541912317276001,0.2173999547958374
3,4,128,9,0.3810398578643799,0.21221953630447388
3,4,128,10,0.4336310029029846,0.2920700013637543
3,4,128,11,0.2650572657585144,0.16276326775550842
3,4,128,12,0.5246167182922363,0.06520239263772964
3,4,128,13,0.4273407459259033,0.3012165129184723
3,4,128,14,0.6065291166305542,0.2810925543308258
3,4,128,15,0.5546817183494568,0.14050179719924927
3,4,128,16,0.7098901271820068,0.2524197995662689
3,4,128,17,0.647622287273407,0.3443560004234314
3,4,128,18,0.7327515482902527,0.22841334342956543
3,4,128,19,0.6236706972122192,0.2445913404226303
3,4,128,20,0.3568446636199951,0.1927165389060974
3,4,128,21,0.5907977223396301,0.0950772762298584
3,4,128,22,0.7022386193275452,0.27284151315689087
3,4,128,23,0.45537492632865906,0.10131295770406723
3,4,128,24,0.40425992012023926,0.2814897894859314
3,4,128,25,0.6929605603218079,0.23109391331672668
3,4,128,26,0.626059889793396,0.25827381014823914
3,4,128,27,0.4741111695766449,0.2534025311470032
3,4,128,28,0.4155389666557312,0.08894781768321991
3,4,128,29,0.6654586791992188,0.3197368085384369
3,4,128,30,0.4313529133796692,0.0908978059887886
3,4,128,31,0.3915257751941681,0.18438801169395447
3,4,128,32,0.6812931895256042,0.29348236322402954
3,4,128,33,0.6758145689964294,0.30201396346092224
3,4,128,34,0.7034366726875305,0.2315983921289444
3,4,128,35,0.4748663008213043,0.21290040016174316
3,4,128,36,0.647528886795044,0.2824029326438904
3,4,128,37,0.6740151643753052,0.1973307579755783
3,4,128,38,0.2532477080821991,0.18323107063770294
3,4,128,39,0.6472935080528259,0.1512850821018219
3,4,128,40,0.5531850457191467,0.28445500135421753
3,4,128,41,0.6450732350349426,0.1389969438314438
3,4,128,42,0.5056390166282654,0.1710261106491089
3,4,128,43,0.619361937046051,0.16514652967453003
3,4,128,44,0.5192045569419861,0.12441100180149078
3,4,128,45,0.6802480220794678,0.25565415620803833
3,4,128,46,0.40663376450538635,0.1691388189792633
3,4,128,47,0.6330493688583374,0.279668927192688
3,4,128,48,0.7548295855522156,0.14919942617416382
3,4,128,49,0.6595467925071716,0.23892493546009064
3,4,128,50,0.7613394260406494,0.15397076308727264
3,4,128,51,0.6097584366798401,0.07209189236164093
3,4,128,52,0.6296098232269287,0.26323893666267395
3,4,128,53,0.4181019067764282,0.09522507339715958
3,4,128,54,0.7105857133865356,0.23289096355438232
3,4,128,55,0.663531482219696,0.21903152763843536
3,4,128,56,0.6186141967773438,0.2578742504119873
3,4,128,57,0.6408175826072693,0.28320062160491943
3,4,128,58,0.29280728101730347,0.21952760219573975
3,4,128,59,0.6888336539268494,0.233226478099823
3,4,128,60,0.7710297107696533,0.10707078129053116
3,4,128,61,0.4383300244808197,0.24386830627918243
3,4,128,62,0.348156213760376,0.28212952613830566
3,4,128,63,0.7057746648788452,0.17083656787872314
3,4,128,64,0.6973435878753662,0.16501684486865997
3,4,128,65,0.6221985220909119,0.2656765878200531
3,4,128,66,0.596666693687439,0.2829820215702057
3,4,128,67,0.3315185010433197,0.18535944819450378
3,4,128,68,0.8304173350334167,0.12371791154146194
3,4,128,69,0.7361571192741394,0.11346981674432755
3,4,128,70,0.32318922877311707,0.1966390311717987
3,4,128,71,0.702688992023468,0.11191388964653015
3,4,128,72,0.3454611599445343,0.23637785017490387
3,4,128,73,0.5765170454978943,0.09740331768989563
3,4,128,74,0.3743949234485626,0.3032383322715759
3,4,128,75,0.33349451422691345,0.13752183318138123
3,4,128,76,0.3351147174835205,0.27097389101982117
3,4,128,77,0.3314177691936493,0.22023321688175201
3,4,128,78,0.7127403616905212,0.2322123944759369
3,4,128,79,0.6429781317710876,0.2905789613723755
3,4,128,80,0.3606937825679779,0.1632956862449646
3,4,128,81,0.7044094204902649,0.30520355701446533
3,4,128,82,0.639255702495575,0.0907195657491684
3,4,128,83,0.7296441793441772,0.2144833654165268
3,4,128,84,0.7288562655448914,0.15791787207126617
3,4,128,85,0.47232121229171753,0.2594758868217468
3,4,128,86,0.6320311427116394,0.0984908789396286
3,4,128,87,0.3889099657535553,0.15928895771503448
3,4,128,88,0.5600573420524597,0.2342849224805832
3,4,128,89,0.45759981870651245,0.14812548458576202
3,4,128,90,0.7046085596084595,0.2757861912250519
3,4,128,91,0.6309544444084167,0.29351404309272766
3,4,128,92,0.6272108554840088,0.08520914614200592
3,4,128,93,0.6306002736091614,0.16114278137683868
3,4,128,94,0.40929850935935974,0.18402394652366638
3,4,128,95,0.6193637251853943,0.18951018154621124
3,4,128,96,0.6607587933540344,0.18611373007297516
3,4,128,97,0.5085175633430481,0.21142730116844177
3,4,128,98,0.7153843641281128,0.11745651066303253
3,4,128,99,0.6702387928962708,0.1598641723394394
3,4,128,100,0.6520867943763733,0.1361919641494751
3,4,128,101,0.5934468507766724,0.18439054489135742
3,4,128,102,0.7286422252655029,0.0986684262752533
3,4,128,103,0.4235624670982361,0.1981056183576584
3,4,128,104,0.6143427491188049,0.28398987650871277
3,4,128,105,0.45293399691581726,0.23710356652736664
3,4,128,106,0.5558915734291077,0.23137980699539185
3,4,128,107,0.4999349117279053,0.21948586404323578
3,4,128,108,0.6241955757141113,0.24600040912628174
3,4,128,109,0.7723751664161682,0.15704086422920227
3,4,128,110,0.45671138167381287,0.13557983934879303
3,4,128,111,0.2744161784648895,0.15206807851791382
3,4,128,112,0.4204545319080353,0.30879294872283936
3,4,128,113,0.2522777020931244,0.1781996786594391
3,4,128,114,0.7073225975036621,0.27522024512290955
3,4,128,115,0.6097888946533203,0.13564588129520416
3,4,128,116,0.713805615901947,0.12251482158899307
3,4,128,117,0.709902286529541,0.19593429565429688
3,4,128,118,0.409810334444046,0.274795800447464
3,4,128,119,0.6954387426376343,0.21333427727222443
3,4,128,120,0.5010029077529907,0.12432394921779633
3,4,128,121,0.4116407632827759,0.1392030268907547
3,4,128,122,0.4617905616760254,0.3083529472351074
3,4,128,123,0.3699987530708313,0.13811342418193817
3,4,128,124,0.6921112537384033,0.2620615065097809
3,4,128,125,0.375044584274292,0.23556692898273468
3,4,128,126,0.65259850025177,0.2087450623512268
3,4,128,127,0.4568912386894226,0.20216256380081177
3,5,128,0,0.46715179085731506,0.2013310045003891
3,5,128,1,0.8485293388366699,0.08984493464231491
3,5,128,2,0.4551573097705841,0.387956827878952
3,5,128,3,0.4946022033691406,0.33813488483428955
3,5,128,4,0.8813740611076355,0.06302159279584885
3,5,128,5,0.8814966678619385,0.10418237000703812
3,5,128,6,0.362964928150177,0.36420488357543945
3,5,128,7,0.8808451890945435,0.08573239296674728
3,5,128,8,0.8812880516052246,0.07151997834444046
3,5,128,9,0.8704381585121155,0.11069601029157639
3,5,128,10,0.5949267148971558,0.2702598571777344
3,5,128,11,0.6816468834877014,0.10037306696176529
3,5,128,12,0.7710462808609009,0.1267555058002472
3,5,128,13,0.9175212383270264,0.05831480026245117
3,5,128,14,0.8210429549217224,0.16039931774139404
3,5,128,15,0.9122726321220398,0.05898360162973404
3,5,128,16,0.7941756844520569,0.21104466915130615
3,5,128,17,0.8992577791213989,0.10804256051778793
3,5,128,18,0.6489871144294739,0.2059403359889984
3,5,128,19,0.9015021920204163,0.09568226337432861
3,5,128,20,0.35506579279899597,0.3786596357822418
3,5,128,21,0.48836174607276917,0.36615216732025146
3,5,128,22,0.6745074987411499,0.3485070765018463
3,5,128,23,0.8412157297134399,0.1257217973470688
3,5,128,24,0.7682997584342957,0.21646465361118317
3,5,128,25,0.9392659068107605,0.0664924904704094
3,5,128,26,0.9220545887947083,0.06298539787530899
3,5,128,27,0.4449828267097473,0.2357168048620224
3,5,128,28,0.6813998818397522,0.10651008784770966
3,5,128,29,0.8728630542755127,0.1559949368238449
3,5,128,30,0.696039080619812,0.1508510857820511
3,5,128,31,0.5337411761283875,0.3203374147415161
3,5,128,32,0.9266985058784485,0.09782563149929047
3,5,128,33,0.8658162355422974,0.10478270053863525
3,5,128,34,0.7297018766403198,0.30356359481811523
3,5,128,35,0.8872998356819153,0.07436247915029526
3,5,128,36,0.7504674792289734,0.27506405115127563
3,5,128,37,0.9274004101753235,0.07002469152212143
3,5,128,38,0.9018128514289856,0.0803811252117157
3,5,128,39,0.7515717148780823,0.11310146749019623
3,5,128,40,0.8141430616378784,0.14304102957248688
3,5,128,41,0.884315550327301,0.09691415727138519
3,5,128,42,0.6663042306900024,0.11162453889846802
3,5,128,43,0.8991608619689941,0.061692651361227036
3,5,128,44,0.8584697842597961,0.16893669962882996
3,5,128,45,0.7118305563926697,0.25516876578330994
3,5,128,46,0.7015174031257629,0.339942067861557
3,5,128,47,0.7294102311134338,0.2021557241678238
3,5,128,48,0.9274858236312866,0.04981160908937454
3,5,128,49,0.7420879602432251,0.2875303626060486
3,5,128,50,0.8974542617797852,0.0630984827876091
3,5,128,51,0.8821485042572021,0.13871727883815765
3,5,128,52,0.7214619517326355,0.3137442171573639
3,5,128,53,0.6868314743041992,0.26523274183273315
3,5,128,54,0.9116076231002808,0.056560974568128586
3,5,128,55,0.6463731527328491,0.22327126562595367
3,5,128,56,0.8039843440055847,0.13052892684936523
3,5,128,57,0.865120530128479,0.12297014147043228
3,5,128,58,0.8189948201179504,0.10074301809072495
3,5,128,59,0.7811529040336609,0.16498583555221558
3,5,128,60,0.9142338037490845,0.07396646589040756
3,5,128,61,0.8510458469390869,0.07682005316019058
3,5,128,62,0.5351533889770508,0.26045912504196167
3,5,128,63,0.9250759482383728,0.05869895592331886
3,5,128,64,0.6524335741996765,0.10544135421514511
3,5,128,65,0.8783509731292725,0.08012814819812775
3,5,128,66,0.9196587204933167,0.062232088297605515
3,5,128,67,0.7736769914627075,0.19306756556034088
3,5,128,68,0.9356683492660522,0.07098471373319626
3,5,128,69,0.7090395092964172,0.2065984457731247
3,5,128,70,0.44997480511665344,0.40054893493652344
3,5,128,71,0.8511962890625,0.06588537245988846
3,5,128,72,0.5935069918632507,0.20612168312072754
3,5,128,73,0.5408630967140198,0.3134976029396057
3,5,128,74,0.8595683574676514,0.13253271579742432
3,5,128,75,0.8620114326477051,0.09758282452821732
3,5,128,76,0.7515295147895813,0.2251768857240677
3,5,128,77,0.3179478347301483,0.26295873522758484
3,5,128,78,0.6551119089126587,0.39764609932899475
3,5,128,79,0.8335239291191101,0.17158888280391693
3,5,128,80,0.2838106155395508,0.18780623376369476
3,5,128,81,0.7873228788375854,0.23885846138000488
3,5,128,82,0.6383975744247437,0.20224741101264954
3,5,128,83,0.5755322575569153,0.14073947072029114
3,5,128,84,0.9159337282180786,0.10221946239471436
3,5,128,85,0.47992148995399475,0.3131803870201111
3,5,128,86,0.6780228018760681,0.18347632884979248
3,5,128,87,0.8910149335861206,0.10527033358812332
3,5,128,88,0.9122855067253113,0.05239609628915787
3,5,128,89,0.890618622303009,0.07129035145044327
3,5,128,90,0.8575562834739685,0.064452163875103
3,5,128,91,0.888386607170105,0.07946883887052536
3,5,128,92,0.5448590517044067,0.263923704624176
3,5,128,93,0.8849517107009888,0.07748082280158997
3,5,128,94,0.9297856092453003,0.06815661489963531
3,5,128,95,0.9253443479537964,0.05567269027233124
3,5,128,96,0.8159794211387634,0.12870177626609802
3,5,128,97,0.3898313343524933,0.11261361092329025
3,5,128,98,0.6801166534423828,0.38485854864120483
3,5,128,99,0.8991702198982239,0.09455633908510208
3,5,128,100,0.5984050035476685,0.41236433386802673
3,5,128,101,0.8068490624427795,0.2055019587278366
3,5,128,102,0.8841066956520081,0.11196264624595642
3,5,128,103,0.8421474099159241,0.12621808052062988
3,5,128,104,0.833764374256134,0.1902967095375061
3,5,128,105,0.35816827416419983,0.2516602873802185
3,5,128,106,0.7256069183349609,0.25877583026885986
3,5,128,107,0.6473874449729919,0.13828139007091522
3,5,128,108,0.9070647358894348,0.07146243751049042
3,5,128,109,0.9394886493682861,0.05074743553996086
3,5,128,110,0.6682480573654175,0.14407634735107422
3,5,128,111,0.38676291704177856,0.42389795184135437
3,5,128,112,0.8601019382476807,0.0698949322104454
3,5,128,113,0.4105972349643707,0.3991275131702423
3,5,128,114,0.6713885068893433,0.13993322849273682
3,5,128,115,0.6336764693260193,0.26057761907577515
3,5,128,116,0.5642699599266052,0.14272035658359528
3,5,128,117,0.8996535539627075,0.059758733958005905
3,5,128,118,0.8649327754974365,0.06681641191244125
3,5,128,119,0.6625147461891174,0.14910481870174408
3,5,128,120,0.7153332233428955,0.1607339084148407
3,5,128,121,0.8177804350852966,0.1992460936307907
3,5,128,122,0.8369579315185547,0.09386799484491348
3,5,128,123,0.6008912920951843,0.226936936378479
3,5,128,124,0.5257096290588379,0.28506991267204285
3,5,128,125,0.5294907689094543,0.2741359770298004
3,5,128,126,0.6545903086662292,0.3938351273536682
3,5,128,127,0.8118038773536682,0.18854059278964996
4,0,32,0,0.5447749495506287,0.11419116705656052
4,0,32,1,0.5755883455276489,0.14817658066749573
4,0,32,2,0.5014007091522217,0.146410271525383
4,0,32,3,0.6039827466011047,0.09721729159355164
4,0,32,4,0.44980132579803467,0.11855081468820572
4,0,32,5,0.49457237124443054,0.10567858815193176
4,0,32,6,0.5609249472618103,0.08380316197872162
4,0,32,7,0.43052005767822266,0.09911604970693588
4,0,32,8,0.5411882400512695,0.12566649913787842
4,0,32,9,0.42861148715019226,0.12374617904424667
4,0,32,10,0.41589459776878357,0.1669987291097641
4,0,32,11,0.3737642765045166,0.1540592908859253
4,0,32,12,0.323673814535141,0.12151305377483368
4,0,32,13,0.5030913352966309,0.15165352821350098
4,0,32,14,0.4233062267303467,0.09545174241065979
4,0,32,15,0.3491803705692291,0.05978123098611832
4,0,32,16,0.35465478897094727,0.10525883734226227
4,0,32,17,0.3107403516769409,0.12482617050409317
4,0,32,18,0.5152931213378906,0.10953257977962494
4,0,32,19,0.4562886953353882,0.1904345601797104
4,0,32,20,0.38267791271209717,0.1828271597623825
4,0,32,21,0.2870275676250458,0.08898338675498962
4,0,32,22,0.696386456489563,0.10270494967699051
4,0,32,23,0.4892711639404297,0.15718944370746613
4,0,32,24,0.3526725769042969,0.12153640389442444
4,0,32,25,0.5021424889564514,0.12644179165363312
4,0,32,26,0.44578126072883606,0.16172465682029724
4,0,32,27,0.5515691041946411,0.09514328092336655
4,0,32,28,0.5648111701011658,0.13227535784244537
4,0,32,29,0.29182952642440796,0.13544940948486328
4,0,32,30,0.467433899641037,0.16513316333293915
4,0,32,31,0.49124476313591003,0.17369970679283142
4,1,32,0,0.5855017900466919,0.08849076181650162
4,1,32,1,0.3329240679740906,0.0857672244310379
4,1,32,2,0.4712730646133423,0.0802341103553772
4,1,32,3,0.42207297682762146,0.019143451005220413
4,1,32,4,0.5272068381309509,0.07789435237646103
4,1,32,5,0.5040208697319031,0.04310612007975578
4,1,32,6,0.5545176863670349,0.05488927289843559
4,1,32,7,0.48122143745422363,0.06561034172773361
4,1,32,8,0.4983934462070465,0.03873787447810173
4,1,32,9,0.5059522390365601,0.06355602294206619
4,1,32,10,0.3947203457355499,0.03673262149095535
4,1,32,11,0.44315946102142334,0.08573341369628906
4,1,32,12,0.5664145350456238,0.08757419884204865
4,1,32,13,0.3889800012111664,0.09508565813302994
4,1,32,14,0.4030175507068634,0.058208875358104706
4,1,32,15,0.5400448441505432,0.012803490273654461
4,1,32,16,0.4408332109451294,0.04909437894821167
4,1,32,17,0.5676952600479126,0.07156231254339218
4,1,32,18,0.5032587647438049,0.033839233219623566
4,1,32,19,0.40194690227508545,0.04109374061226845
4,1,32,20,0.49731433391571045,0.052709657698869705
4,1,32,21,0.3986473083496094,0.04177256301045418
4,1,32,22,0.5217970609664917,0.12022165209054947
4,1,32,23,0.4803774058818817,0.09698924422264099
4,1,32,24,0.3986343741416931,0.06726700067520142
4,1,32,25,0.6102527379989624,0.06472807377576828
4,1,32,26,0.3504868745803833,0.07728700339794159
4,1,32,27,0.5861889719963074,0.03288113698363304
4,1,32,28,0.4954732358455658,0.03958505764603615
4,1,32,29,0.5472182035446167,0.057846371084451675
4,1,32,30,0.5190309286117554,0.11386948823928833
4,1,32,31,0.3936644494533539,0.08798384666442871
4,2,64,0,0.5035334229469299,0.13416512310504913
4,2,64,1,0.48007214069366455,0.12106095999479294
4,2,64,2,0.43353185057640076,0.09558163583278656
4,2,64,3,0.6327010989189148,0.14542655646800995
4,2,64,4,0.47738900780677795,0.13891403377056122
4,2,64,5,0.6874111294746399,0.10984951257705688
4,2,64,6,0.30872663855552673,0.13953225314617157
4,2,64,7,0.4680134654045105,0.2366286963224411
4,2,64,8,0.4222031533718109,0.21655020117759705
4,2,64,9,0.47238004207611084,0.16110984981060028
4,2,64,10,0.4902265667915344,0.15410254895687103
4,2,64,11,0.4704890549182892,0.15245749056339264
4,2,64,12,0.4470188617706299,0.07209216058254242
4,2,64,13,0.5880496501922607,0.1459754854440689
4,2,64,14,0.5158281326293945,0.08404456824064255
4,2,64,15,0.6628425717353821,0.09312096983194351
4,2,64,16,0.5124328136444092,0.17737682163715363
4,2,64,17,0.5155922174453735,0.19988548755645752
4,2,64,18,0.5604122877120972,0.17664140462875366
4,2,64,19,0.3318801522254944,0.1570887714624405
4,2,64,20,0.5630849599838257,0.21045221388339996
4,2,64,21,0.46075746417045593,0.07263749092817307
4,2,64,22,0.36546751856803894,0.2021440863609314
4,2,64,23,0.37963899970054626,0.13180005550384521
4,2,64,24,0.3901059329509735,0.07350889593362808
4,2,64,25,0.515583872795105,0.20723003149032593
4,2,64,26,0.3889927566051483,0.16617272794246674
4,2,64,27,0.47483667731285095,0.1696222871541977
4,2,64,28,0.35594719648361206,0.16241572797298431
4,2,64,29,0.5031158924102783,0.19767329096794128
4,2,64,30,0.47949790954589844,0.09448116272687912
4,2,64,31,0.38236406445503235,0.14656583964824677
4,2,64,32,0.3070296347141266,0.16278089582920074
4,2,64,33,0.3836612105369568,0.1417253315448761
4,2,64,34,0.4776477813720703,0.055247001349925995
4,2,64,35,0.4607138931751251,0.1283734142780304
4,2,64,36,0.3583727180957794,0.20285512506961823
4,2,64,37,0.4219306409358978,0.1162271574139595
4,2,64,38,0.38197237253189087,0.17484501004219055
4,2,64,39,0.3823709487915039,0.1292201727628708
4,2,64,40,0.5581884980201721,0.17243990302085876
4,2,64,41,0.42918720841407776,0.1014208123087883
4,2,64,42,0.5639779567718506,0.1001710593700409
4,2,64,43,0.5579797029495239,0.1486125886440277
4,2,64,44,0.6595515608787537,0.16973236203193665
4,2,64,45,0.34950074553489685,0.2158999890089035
4,2,64,46,0.3994891047477722,0.19549869000911713
4,2,64,47,0.43789568543434143,0.11059675365686417
4,2,64,48,0.43307891488075256,0.21563556790351868
4,2,64,49,0.40750548243522644,0.12120231240987778
4,2,64,50,0.3780573010444641,0.13649441301822662
4,2,64,51,0.558373749256134,0.10945480316877365
4,2,64,52,0.4256914556026459,0.22768884897232056
4,2,64,53,0.3828464448451996,0.16262699663639069
4,2,64,54,0.7084172368049622,0.15926232933998108
4,2,64,55,0.6109273433685303,0.21338964998722076
4,2,64,56,0.5546890497207642,0.10537764430046082
4,2,64,57,0.48449552059173584,0.20419737696647644
4,2,64,58,0.4891464412212372,0.15783342719078064
4,2,64,59,0.4474390149116516,0.21453675627708435
4,2,64,60,0.44233548641204834,0.15393203496932983
4,2,64,61,0.3623802065849304,0.0915072038769722
4,2,64,62,0.5576441287994385,0.16420970857143402
4,2,64,63,0.595587432384491,0.18981271982192993
4,3,64,0,0.752861738204956,0.10379612445831299
4,3,64,1,0.2950136661529541,0.1992848664522171
4,3,64,2,0.47094330191612244,0.15940876305103302
4,3,64,3,0.6297208666801453,0.09914351999759674
4,3,64,4,0.6231023073196411,0.28068169951438904
4,3,64,5,0.6417896747589111,0.1617121398448944
4,3,64,6,0.6721548438072205,0.20796842873096466
4,3,64,7,0.5226109623908997,0.13996657729148865
4,3,64,8,0.6939582824707031,0.10808757692575455
4,3,64,9,0.7137184739112854,0.2183247059583664
4,3,64,10,0.630821168422699,0.08821387588977814
4,3,64,11,0.37998396158218384,0.2360878884792328
4,3,64,12,0.5617902278900146,0.06067109480500221
4,3,64,13,0.629762589931488,0.08813527226448059
4,3,64,14,0.3262943625450134,0.25699734687805176
4,3,64,15,0.6516791582107544,0.09912410378456116
4,3,64,16,0.7102956771850586,0.15784293413162231
4,3,64,17,0.37815895676612854,0.26094451546669006
4,3,64,18,0.4631204903125763,0.08705465495586395
4,3,64,19,0.5130712389945984,0.0796944722533226
4,3,64,20,0.4707474708557129,0.10506018251180649
4,3,64,21,0.37572363018989563,0.10886003822088242
4,3,64,22,0.4667471945285797,0.1912403106689453
4,3,64,23,0.5286687612533569,0.08837708085775375
4,3,64,24,0.578689455986023,0.18075662851333618
4,3,64,25,0.5816403031349182,0.09011175483465195
4,3,64,26,0.4202979803085327,0.12822915613651276
4,3,64,27,0.5593864321708679,0.06911146640777588
4,3,64,28,0.40501144528388977,0.13068684935569763
4,3,64,29,0.2567952573299408,0.12003639340400696
4,3,64,30,0.5922868847846985,0.18135955929756165
4,3,64,31,0.5055091977119446,0.1822315901517868
4,3,64,32,0.5720718502998352,0.17698734998703003
4,3,64,33,0.35747694969177246,0.18048083782196045
4,3,64,34,0.5878410339355469,0.13057942688465118
4,3,64,35,0.38971439003944397,0.06385040283203125
4,3,64,36,0.3758068084716797,0.2358136773109436
4,3,64,37,0.5373216271400452,0.08413495123386383
4,3,64,38,0.6353594064712524,0.08333002775907516
4,3,64,39,0.33207279443740845,0.13695871829986572
4,3,64,40,0.6928451657295227,0.1786421835422516
4,3,64,41,0.24609968066215515,0.17660288512706757
4,3,64,42,0.7339279055595398,0.15952648222446442
4,3,64,43,0.6443648934364319,0.12149984389543533
4,3,64,44,0.4968171715736389,0.05910659581422806
4,3,64,45,0.6285413503646851,0.32965540885925293
4,3,64,46,0.497554212808609,0.07460339367389679
4,3,64,47,0.3442028760910034,0.10118319094181061
4,3,64,48,0.7149738669395447,0.1613176167011261
4,3,64,49,0.274079829454422,0.14481289684772491
4,3,64,50,0.5686601400375366,0.1407429724931717
4,3,64,51,0.29146063327789307,0.1362377107143402
4,3,64,52,0.3851730525493622,0.2424875795841217
4,3,64,53,0.32164573669433594,0.09760227799415588
4,3,64,54,0.6519320011138916,0.21387168765068054
4,3,64,55,0.6226320862770081,0.09561192244291306
4,3,64,56,0.6307699680328369,0.22066204249858856
4,3,64,57,0.5059946179389954,0.16539928317070007
4,3,64,58,0.33450865745544434,0.09689538925886154
4,3,64,59,0.4355636537075043,0.1388247311115265
4,3,64,60,0.3584928512573242,0.1256447583436966
4,3,64,61,0.6392461061477661,0.12658986449241638
4,3,64,62,0.5774299502372742,0.18965278565883636
4,3,64,63,0.5338271260261536,0.1714978963136673
4,4,128,0,0.6026351451873779,0.09792624413967133
4,4,128,1,0.36070919036865234,0.17545835673809052
4,4,128,2,0.4054735004901886,0.18409819900989532
4,4,128,3,0.5792140960693359,0.18927894532680511
4,4,128,4,0.4836627244949341,0.2078161984682083
4,4,128,5,0.5399667024612427,0.26226434111595154
4,4,128,6,0.5141080617904663,0.2311592549085617
4,4,128,7,0.6425155401229858,0.07203976809978485
4,4,128,8,0.3814576268196106,0.1585949957370758
4,4,128,9,0.4414442181587219,0.07703198492527008
4,4,128,10,0.6462035775184631,0.19990360736846924
4,4,128,11,0.7211989164352417,0.0938815325498581
4,4,128,12,0.36934155225753784,0.07212290167808533
4,4,128,13,0.6452858448028564,0.17322857677936554
4,4,128,14,0.31157755851745605,0.06637506186962128
4,4,128,15,0.6178913712501526,0.1765729784965515
4,4,128,16,0.5622619390487671,0.22983655333518982
4,4,128,17,0.4280133843421936,0.1466311663389206
4,4,128,18,0.48347336053848267,0.19967389106750488
4,4,128,19,0.5751105546951294,0.15244120359420776
4,4,128,20,0.5781689882278442,0.3504300117492676
4,4,128,21,0.5410028696060181,0.23021772503852844
4,4,128,22,0.3590069115161896,0.25885558128356934
4,4,128,23,0.3779418170452118,0.11716632544994354
4,4,128,24,0.6043793559074402,0.05968562513589859
4,4,128,25,0.697801411151886,0.08082754164934158
4,4,128,26,0.5205703377723694,0.23325565457344055
4,4,128,27,0.4599321186542511,0.13253489136695862
4,4,128,28,0.35358014702796936,0.1754341870546341
4,4,128,29,0.36626923084259033,0.12458798289299011
4,4,128,30,0.49491438269615173,0.12525862455368042
4,4,128,31,0.6853572130203247,0.1166020855307579
4,4,128,32,0.265838086605072,0.12343300133943558
4,4,128,33,0.538575291633606,0.29330453276634216
4,4,128,34,0.46775609254837036,0.07214000076055527
4,4,128,35,0.46824732422828674,0.2281220257282257
4,4,128,36,0.6693756580352783,0.06907358020544052
4,4,128,37,0.4284728169441223,0.23118558526039124
4,4,128,38,0.6564348340034485,0.20710818469524384
4,4,128,39,0.4271296262741089,0.1368078887462616
4,4,128,40,0.5792679190635681,0.1319524198770523
4,4,128,41,0.40796780586242676,0.22046372294425964
4,4,128,42,0.6230297684669495,0.28616225719451904
4,4,128,43,0.614115297794342,0.1648617535829544
4,4,128,44,0.6086623668670654,0.33381766080856323
4,4,128,45,0.7864989042282104,0.07130520045757294
4,4,128,46,0.41224420070648193,0.2833418548107147
4,4,128,47,0.465031236410141,0.2506718933582306
4,4,128,48,0.643004834651947,0.1163448691368103
4,4,128,49,0.5940055847167969,0.1304842233657837
4,4,128,50,0.6226231455802917,0.09931400418281555
4,4,128,51,0.4756443500518799,0.2283949851989746
4,4,128,52,0.6953253746032715,0.2295467108488083
4,4,128,53,0.6603655219078064,0.11076929420232773
4,4,128,54,0.8114907741546631,0.11378579586744308
4,4,128,55,0.5987613201141357,0.2278001755475998
4,4,128,56,0.6471874713897705,0.09615572541952133
4,4,128,57,0.6319084763526917,0.26200541853904724
4,4,128,58,0.3910083770751953,0.16051852703094482
4,4,128,59,0.5961921215057373,0.21913674473762512
4,4,128,60,0.6567986011505127,0.1419922262430191
4,4,128,61,0.4434135854244232,0.2997387647628784
4,4,128,62,0.5699718594551086,0.24680902063846588
4,4,128,63,0.7260450720787048,0.12084795534610748
4,4,128,64,0.42992112040519714,0.1552506387233734
4,4,128,65,0.41449928283691406,0.18567314743995667
4,4,128,66,0.6931107640266418,0.2451661229133606
4,4,128,67,0.6790318489074707,0.11952918767929077
4,4,128,68,0.5817534923553467,0.3057560324668884
4,4,128,69,0.570541262626648,0.16336217522621155
4,4,128,70,0.3901549279689789,0.23880286514759064
4,4,128,71,0.6536070704460144,0.14208120107650757
4,4,128,72,0.572966992855072,0.1886681765317917
4,4,128,73,0.5855463147163391,0.1690901219844818
4,4,128,74,0.41692325472831726,0.25320154428482056
4,4,128,75,0.6352072358131409,0.10322194546461105
4,4,128,76,0.6912450194358826,0.11501484364271164
4,4,128,77,0.639701247215271,0.15703263878822327
4,4,128,78,0.6680482625961304,0.09558326750993729
4,4,128,79,0.3720097541809082,0.2275567352771759
4,4,128,80,0.6850403547286987,0.0934862345457077
4,4,128,81,0.4484766125679016,0.08542021363973618
4,4,128,82,0.6845777034759521,0.1285943239927292
4,4,128,83,0.44411590695381165,0.15833932161331177
4,4,128,84,0.6154441833496094,0.09048673510551453
4,4,128,85,0.502170205116272,0.18608428537845612
4,4,128,86,0.5781987309455872,0.17590464651584625
4,4,128,87,0.6470028758049011,0.34899312257766724
4,4,128,88,0.47825050354003906,0.1300961673259735
4,4,128,89,0.3252503275871277,0.12164649367332458
4,4,128,90,0.590656042098999,0.31683433055877686
4,4,128,91,0.5836941003799438,0.20033550262451172
4,4,128,92,0.5562356114387512,0.20072734355926514
4,4,128,93,0.6675686240196228,0.08931174129247665
4,4,128,94,0.5950173139572144,0.36505529284477234
4,4,128,95,0.7024350762367249,0.09261158108711243
4,4,128,96,0.5238147377967834,0.0691254585981369
4,4,128,97,0.5932349562644958,0.1713046431541443
4,4,128,98,0.6238989233970642,0.2896336317062378
4,4,128,99,0.59609454870224,0.174285888671875
4,4,128,100,0.4787459373474121,0.2454240471124649
4,4,128,101,0.4140932857990265,0.225355327129364
4,4,128,102,0.5425239205360413,0.3736961781978607
4,4,128,103,0.7871734499931335,0.0808749869465828
4,4,128,104,0.642779529094696,0.33942005038261414
4,4,128,105,0.8191843628883362,0.06585657596588135
4,4,128,106,0.3122810125350952,0.12806271016597748
4,4,128,107,0.39989185333251953,0.23972821235656738
4,4,128,108,0.5418153405189514,0.08404377847909927
4,4,128,109,0.5064957141876221,0.08130661398172379
4,4,128,110,0.6775634288787842,0.14984031021595
4,4,128,111,0.6666572690010071,0.1962222158908844
4,4,128,112,0.4706633985042572,0.3028363883495331
4,4,128,113,0.5795789957046509,0.21688035130500793
4,4,128,114,0.3764254152774811,0.22566527128219604
4,4,128,115,0.6255573034286499,0.19885453581809998
4,4,128,116,0.7402939200401306,0.10169955343008041
4,4,128,117,0.715429961681366,0.08057216554880142
4,4,128,118,0.42985984683036804,0.17998196184635162
4,4,128,119,0.4867374897003174,0.10481169819831848
4,4,128,120,0.6319599747657776,0.1063251942396164
4,4,128,121,0.7108269929885864,0.24520821869373322
4,4,128,122,0.5478730797767639,0.279517263174057
4,4,128,123,0.5664198398590088,0.2644084095954895
4,4,128,124,0.5261878371238708,0.09930191934108734
4,4,128,125,0.6740788221359253,0.12244564294815063
4,4,128,126,0.6142707467079163,0.11811144649982452
4,4,128,127,0.464851438999176,0.14180850982666016
4,5,128,0,0.7973272204399109,0.17642703652381897
4,5,128,1,0.21857650578022003,0.20020362734794617
4,5,128,2,0.563459575176239,0.09963801503181458
4,5,128,3,0.670569658279419,0.2990165948867798
4,5,128,4,0.7786688208580017,0.0835556760430336
4,5,128,5,0.6943062543869019,0.21369414031505585
4,5,128,6,0.3897586166858673,0.23801091313362122
4,5,128,7,0.7944667339324951,0.19548076391220093
4,5,128,8,0.5655922293663025,0.15327447652816772
4,5,128,9,0.7525231838226318,0.0860699787735939
4,5,128,10,0.7334573864936829,0.1936151534318924
4,5,128,11,0.6968613266944885,0.1559707224369049
4,5,128,12,0.686713457107544,0.2086416631937027
4,5,128,13,0.3912215232849121,0.27416878938674927
4,5,128,14,0.7303349375724792,0.25871115922927856
4,5,128,15,0.7310366630554199,0.20520788431167603
4,5,128,16,0.6234089732170105,0.16729602217674255
4,5,128,17,0.6540794372558594,0.3028128147125244
4,5,128,18,0.7983848452568054,0.13592475652694702
4,5,128,19,0.7649915218353271,0.11051853746175766
4,5,128,20,0.7803187370300293,0.2238483428955078
4,5,128,21,0.8426217436790466,0.11200162768363953
4,5,128,22,0.6696457862854004,0.18353290855884552
4,5,128,23,0.6741807460784912,0.10627932846546173
4,5,128,24,0.6929801106452942,0.1858973652124405
4,5,128,25,0.7850125432014465,0.09227301925420761
4,5,128,26,0.8051455020904541,0.06704198569059372
4,5,128,27,0.4608410596847534,0.22543077170848846
4,5,128,28,0.42534253001213074,0.06215415149927139
4,5,128,29,0.8194148540496826,0.08094540983438492
4,5,128,30,0.7374975085258484,0.17240086197853088
4,5,128,31,0.5214657783508301,0.05784047767519951
4,5,128,32,0.7787997126579285,0.11831088364124298
4,5,128,33,0.8010112047195435,0.13650740683078766
4,5,128,34,0.4059467315673828,0.30718547105789185
4,5,128,35,0.6935349106788635,0.20911291241645813
4,5,128,36,0.5410263538360596,0.10869958996772766
4,5,128,37,0.5058738589286804,0.15226490795612335
4,5,128,38,0.7863735556602478,0.1648947149515152
4,5,128,39,0.44708022475242615,0.24992936849594116
4,5,128,40,0.4230416417121887,0.11030547320842743
4,5,128,41,0.7384240627288818,0.09479917585849762
4,5,128,42,0.6006698608398438,0.06513452529907227
4,5,128,43,0.7226641178131104,0.20388849079608917
4,5,128,44,0.6723915338516235,0.13668334484100342
4,5,128,45,0.8015112280845642,0.12647566199302673
4,5,128,46,0.38656193017959595,0.1509670466184616
4,5,128,47,0.7254592776298523,0.2078746259212494
4,5,128,48,0.7502482533454895,0.23196327686309814
4,5,128,49,0.3453855812549591,0.2111922800540924
4,5,128,50,0.7404277324676514,0.20366033911705017
4,5,128,51,0.626392662525177,0.16203555464744568
4,5,128,52,0.8168473243713379,0.11308346688747406
4,5,128,53,0.8043582439422607,0.1231272891163826
4,5,128,54,0.48319682478904724,0.1532881259918213
4,5,128,55,0.8399337530136108,0.07787007093429565
4,5,128,56,0.7134485840797424,0.21255536377429962
4,5,128,57,0.7918367981910706,0.231123685836792
4,5,128,58,0.7303090691566467,0.2415333241224289
4,5,128,59,0.2672807574272156,0.13986703753471375
4,5,128,60,0.7576349973678589,0.09821237623691559
4,5,128,61,0.7671369314193726,0.20408625900745392
4,5,128,62,0.6460824012756348,0.3062884509563446
4,5,128,63,0.7663556933403015,0.06464055925607681
4,5,128,64,0.6225566267967224,0.1400667130947113
4,5,128,65,0.7880250215530396,0.07952866703271866
4,5,128,66,0.8122846484184265,0.1516151875257492
4,5,128,67,0.7948958873748779,0.1484384387731552
4,5,128,68,0.8136698007583618,0.15940527617931366
4,5,128,69,0.4467238187789917,0.19047661125659943
4,5,128,70,0.6944478154182434,0.17102423310279846
4,5,128,71,0.689321756362915,0.18578727543354034
4,5,128,72,0.6835386753082275,0.30272796750068665
4,5,128,73,0.6672787666320801,0.1183546707034111
4,5,128,74,0.7806661128997803,0.11678475886583328
4,5,128,75,0.40965476632118225,0.25409629940986633
4,5,128,76,0.5489123463630676,0.1130206510424614
4,5,128,77,0.22045961022377014,0.12143030017614365
4,5,128,78,0.413946270942688,0.14101676642894745
4,5,128,79,0.6288097500801086,0.0972605049610138
4,5,128,80,0.7570460438728333,0.12709665298461914
4,5,128,81,0.7500969171524048,0.1965968906879425
4,5,128,82,0.834438681602478,0.11060385406017303
4,5,128,83,0.8232668042182922,0.137381449341774
4,5,128,84,0.8051586747169495,0.1263117641210556
4,5,128,85,0.7668319940567017,0.21122996509075165
4,5,128,86,0.8099257946014404,0.1046297624707222
4,5,128,87,0.6867955327033997,0.1916225403547287
4,5,128,88,0.7354385852813721,0.1966172605752945
4,5,128,89,0.6858982443809509,0.2518020570278168
4,5,128,90,0.7393853068351746,0.21656407415866852
4,5,128,91,0.7683621048927307,0.2585209012031555
4,5,128,92,0.4402385950088501,0.23435881733894348
4,5,128,93,0.6084167957305908,0.04788973927497864
4,5,128,94,0.7799508571624756,0.17659126222133636
4,5,128,95,0.43385806679725647,0.12151067703962326
4,5,128,96,0.5318003296852112,0.21934004127979279
4,5,128,97,0.44629859924316406,0.1499147266149521
4,5,128,98,0.7910638451576233,0.20680342614650726
4,5,128,99,0.7578276991844177,0.12049231678247452
4,5,128,100,0.3625144362449646,0.13797113299369812
4,5,128,101,0.6446743011474609,0.32560744881629944
4,5,128,102,0.7696520686149597,0.18700535595417023
4,5,128,103,0.7671224474906921,0.06555105745792389
4,5,128,104,0.755334734916687,0.25659382343292236
4,5,128,105,0.769668698310852,0.11244763433933258
4,5,128,106,0.3503168821334839,0.20961596071720123
4,5,128,107,0.40014511346817017,0.17745113372802734
4,5,128,108,0.7529177069664001,0.07185077667236328
4,5,128,109,0.7076621055603027,0.2635822296142578
4,5,128,110,0.7539802193641663,0.2635776102542877
4,5,128,111,0.6010996103286743,0.10602141916751862
4,5,128,112,0.4138456881046295,0.2890900671482086
4,5,128,113,0.5262652039527893,0.23093707859516144
4,5,128,114,0.7667767405509949,0.117552749812603
4,5,128,115,0.7778277397155762,0.1100858598947525
4,5,128,116,0.7922528982162476,0.0830039456486702
4,5,128,117,0.752353310585022,0.09928770363330841
4,5,128,118,0.3563782870769501,0.18199686706066132
4,5,128,119,0.3579258322715759,0.0860195979475975
4,5,128,120,0.2968190014362335,0.11685769259929657
4,5,128,121,0.7455055117607117,0.14682266116142273
4,5,128,122,0.7896050214767456,0.10378780961036682
4,5,128,123,0.6973711848258972,0.22123202681541443
4,5,128,124,0.4338208734989166,0.17788781225681305
4,5,128,125,0.6437683701515198,0.21235287189483643
4,5,128,126,0.784512996673584,0.09206631779670715
4,5,128,127,0.6167557835578918,0.12018511444330215
5,0,32,0,0.4087267518043518,0.05587678775191307
5,0,32,1,0.6367138028144836,0.02964865416288376
5,0,32,2,0.6063937544822693,0.179499551653862
5,0,32,3,0.2972734272480011,0.07572602480649948
5,0,32,4,0.3699570894241333,0.085194893181324
5,0,32,5,0.4887502193450928,0.05519178882241249
5,0,32,6,0.3683738112449646,0.03546153008937836
5,0,32,7,0.5395399928092957,0.0610622838139534
5,0,32,8,0.6593794226646423,0.08744942396879196
5,0,32,9,0.5138745307922363,0.08563036471605301
5,0,32,10,0.5173131823539734,0.10809789597988129
5,0,32,11,0.5381456613540649,0.06184883415699005
5,0,32,12,0.6150786876678467,0.06978873163461685
5,0,32,13,0.49977344274520874,0.0669359564781189
5,0,32,14,0.47272732853889465,0.07906340807676315
5,0,32,15,0.5440433025360107,0.08009101450443268
5,0,32,16,0.5657491683959961,0.08626925200223923
5,0,32,17,0.4482104778289795,0.06589342653751373
5,0,32,18,0.3675120770931244,0.07088078558444977
5,0,32,19,0.42702263593673706,0.027689877897500992
5,0,32,20,0.51930832862854,0.022786062210798264
5,0,32,21,0.5924345850944519,0.0753653347492218
5,0,32,22,0.3660694360733032,0.08293355256319046
5,0,32,23,0.4374472498893738,0.12730127573013306
5,0,32,24,0.45282742381095886,0.18236415088176727
5,0,32,25,0.5418034195899963,0.08908294141292572
5,0,32,26,0.6010923385620117,0.13035187125205994
5,0,32,27,0.3892548978328705,0.042929455637931824
5,0,32,28,0.47472506761550903,0.0791202187538147
5,0,32,29,0.484866738319397,0.13033950328826904
5,0,32,30,0.4822880029678345,0.0351279191672802
5,0,32,31,0.49311700463294983,0.07968400418758392
5,1,32,0,0.3401288390159607,0.12467588484287262
5,1,32,1,0.5841280221939087,0.03299202024936676
5,1,32,2,0.5362945199012756,0.12543587386608124
5,1,32,3,0.5928205847740173,0.03878876194357872
5,1,32,4,0.519228994846344,0.07362376153469086
5,1,32,5,0.6090807914733887,0.1518554538488388
5,1,32,6,0.4383918344974518,0.1460413932800293
5,1,32,7,0.6039327383041382,0.0265433918684721
5,1,32,8,0.43187499046325684,0.04413248226046562
5,1,32,9,0.613622784614563,0.040386877954006195
5,1,32,10,0.36932218074798584,0.058498602360486984
5,1,32,11,0.3966115415096283,0.03173312172293663
5,1,32,12,0.6377637386322021,0.05524573475122452
5,1,32,13,0.39184337854385376,0.13849622011184692
5,1,32,14,0.5571202039718628,0.051627304404973984
5,1,32,15,0.42246171832084656,0.027361275628209114
5,1,32,16,0.6123723983764648,0.11173449456691742
5,1,32,17,0.39148154854774475,0.025071654468774796
5,1,32,18,0.36158886551856995,0.09852541983127594
5,1,32,19,0.5767087936401367,0.08163605630397797
5,1,32,20,0.3436504006385803,0.09619197249412537
5,1,32,21,0.4750881791114807,0.05297752469778061
5,1,32,22,0.5521447062492371,0.0528414361178875
5,1,32,23,0.40390583872795105,0.1247628778219223
5,1,32,24,0.5827061533927917,0.042921923100948334
5,1,32,25,0.4569072723388672,0.13017237186431885
5,1,32,26,0.28587591648101807,0.11577960848808289
5,1,32,27,0.5250672101974487,0.04887650907039642
5,1,32,28,0.4351711869239807,0.0878688246011734
5,1,32,29,0.6042203307151794,0.10413667559623718
5,1,32,30,0.4957186281681061,0.028166182339191437
5,1,32,31,0.4634125828742981,0.08655961602926254
5,2,64,0,0.550794780254364,0.17766495048999786
5,2,64,1,0.5480833053588867,0.2809794545173645
5,2,64,2,0.37956702709198,0.20744448900222778
5,2,64,3,0.450460284948349,0.08749648183584213
5,2,64,4,0.3639914393424988,0.08438064157962799
5,2,64,5,0.6289514899253845,0.10098634660243988
5,2,64,6,0.412824809551239,0.08599122613668442
5,2,64,7,0.5143309235572815,0.061336860060691833
5,2,64,8,0.6442705392837524,0.13176357746124268
5,2,64,9,0.6208173036575317,0.1918875277042389
5,2,64,10,0.45854508876800537,0.13842085003852844
5,2,64,11,0.5795220732688904,0.1472092568874359
5,2,64,12,0.3864380717277527,0.18302175402641296
5,2,64,13,0.36607879400253296,0.1472839117050171
5,2,64,14,0.5153622627258301,0.1978669911623001
5,2,64,15,0.5410324931144714,0.18187013268470764
5,2,64,16,0.5847445726394653,0.19906796514987946
5,2,64,17,0.4730812609195709,0.23623669147491455
5,2,64,18,0.5302312970161438,0.15324567258358002
5,2,64,19,0.4805552661418915,0.2063496857881546
5,2,64,20,0.40140873193740845,0.13222986459732056
5,2,64,21,0.4129868447780609,0.13154567778110504
5,2,64,22,0.4647965133190155,0.20424167811870575
5,2,64,23,0.629019558429718,0.10114805400371552
5,2,64,24,0.6285080313682556,0.15644608438014984
5,2,64,25,0.35686996579170227,0.2060304880142212
5,2,64,26,0.5930094718933105,0.2018810510635376
5,2,64,27,0.5738921165466309,0.13303568959236145
5,2,64,28,0.4554946720600128,0.27230146527290344
5,2,64,29,0.39535772800445557,0.1948370337486267
5,2,64,30,0.46227380633354187,0.10049962252378464
5,2,64,31,0.4525713622570038,0.15641072392463684
5,2,64,32,0.4289664924144745,0.14444971084594727
5,2,64,33,0.5046387314796448,0.21314848959445953
5,2,64,34,0.3638063073158264,0.14987890422344208
5,2,64,35,0.43169352412223816,0.19917841255664825
5,2,64,36,0.45503681898117065,0.12790094316005707
5,2,64,37,0.5818556547164917,0.19262373447418213
5,2,64,38,0.46668532490730286,0.2194424718618393
5,2,64,39,0.4592796266078949,0.15923157334327698
5,2,64,40,0.5343176126480103,0.06903377175331116
5,2,64,41,0.41701775789260864,0.08927872776985168
5,2,64,42,0.37338969111442566,0.20065148174762726
5,2,64,43,0.4460430145263672,0.20632342994213104
5,2,64,44,0.3847717046737671,0.15870660543441772
5,2,64,45,0.4297226667404175,0.2222907543182373
5,2,64,46,0.5570775270462036,0.1440841555595398
5,2,64,47,0.3683791160583496,0.15445993840694427
5,2,64,48,0.5771648287773132,0.10854409635066986
5,2,64,49,0.4742850661277771,0.20778939127922058
5,2,64,50,0.4070507287979126,0.1357559710741043
5,2,64,51,0.4229016602039337,0.2359571009874344
5,2,64,52,0.42409998178482056,0.11348246037960052
5,2,64,53,0.5953934192657471,0.2107761651277542
5,2,64,54,0.44447973370552063,0.20235499739646912
5,2,64,55,0.49822768568992615,0.1682211309671402
5,2,64,56,0.5109792351722717,0.16127705574035645
5,2,64,57,0.5722557306289673,0.19363714754581451
5,2,64,58,0.4347452223300934,0.1959577351808548
5,2,64,59,0.49024778604507446,0.1146196573972702
5,2,64,60,0.42202186584472656,0.055415522307157516
5,2,64,61,0.6365838050842285,0.19793885946273804
5,2,64,62,0.5686195492744446,0.20956549048423767
5,2,64,63,0.5523507595062256,0.05296549201011658
5,3,64,0,0.4678356349468231,0.24124692380428314
5,3,64,1,0.45020344853401184,0.23859064280986786
5,3,64,2,0.6467997431755066,0.11998677253723145
5,3,64,3,0.41229432821273804,0.15974628925323486
5,3,64,4,0.4472358822822571,0.22237469255924225
5,3,64,5,0.3686816692352295,0.19423817098140717
5,3,64,6,0.6113705039024353,0.16721510887145996
5,3,64,7,0.3107050657272339,0.1799248605966568
5,3,64,8,0.5064805150032043,0.14698803424835205
5,3,64,9,0.5382084250450134,0.1890842616558075
5,3,64,10,0.6188430190086365,0.1397421509027481
5,3,64,11,0.5336489677429199,0.15707693994045258
5,3,64,12,0.4014231264591217,0.13459675014019012
5,3,64,13,0.4691474735736847,0.1006431132555008
5,3,64,14,0.4265573024749756,0.1794789880514145
5,3,64,15,0.5319377183914185,0.20649920403957367
5,3,64,16,0.5721308588981628,0.19110408425331116
5,3,64,17,0.5152269601821899,0.21565142273902893
5,3,64,18,0.5802258849143982,0.1573670357465744
5,3,64,19,0.5700297951698303,0.18626169860363007
5,3,64,20,0.2853304445743561,0.15387603640556335
5,3,64,21,0.7385755777359009,0.09359262138605118
5,3,64,22,0.6256897449493408,0.2507263720035553
5,3,64,23,0.6124816536903381,0.14928825199604034
5,3,64,24,0.3869360387325287,0.1237700954079628
5,3,64,25,0.5448243618011475,0.14072126150131226
5,3,64,26,0.6252768039703369,0.13270249962806702
5,3,64,27,0.43210160732269287,0.17539644241333008
5,3,64,28,0.5916259288787842,0.15221481025218964
5,3,64,29,0.5285796523094177,0.13122029602527618
5,3,64,30,0.5271399021148682,0.12252140790224075
5,3,64,31,0.5930693745613098,0.19530169665813446
5,3,64,32,0.32224157452583313,0.22180204093456268
5,3,64,33,0.4137074649333954,0.19071488082408905
5,3,64,34,0.5237569212913513,0.1824924498796463
5,3,64,35,0.309866338968277,0.19903028011322021
5,3,64,36,0.3950479328632355,0.17309170961380005
5,3,64,37,0.37769559025764465,0.19191521406173706
5,3,64,38,0.531728208065033,0.1440800577402115
5,3,64,39,0.39614707231521606,0.2029859572649002
5,3,64,40,0.4250684082508087,0.22497548162937164
5,3,64,41,0.5265436768531799,0.25668099522590637
5,3,64,42,0.40783408284187317,0.102297343313694
5,3,64,43,0.49612897634506226,0.2530885636806488
5,3,64,44,0.5340973734855652,0.16601692140102386
5,3,64,45,0.44554534554481506,0.2390623688697815
5,3,64,46,0.5003619194030762,0.22709596157073975
5,3,64,47,0.3260542154312134,0.07982975989580154
5,3,64,48,0.7599958181381226,0.09420328587293625
5,3,64,49,0.5105358958244324,0.2456149011850357
5,3,64,50,0.5927174091339111,0.14139507710933685
5,3,64,51,0.5913252234458923,0.14742034673690796
5,3,64,52,0.31025049090385437,0.1631178855895996
5,3,64,53,0.42627978324890137,0.1881980448961258
5,3,64,54,0.5722126960754395,0.13401752710342407
5,3,64,55,0.3745201528072357,0.20305313169956207
5,3,64,56,0.48573821783065796,0.23021675646305084
5,3,64,57,0.4072774648666382,0.18717671930789948
5,3,64,58,0.5960270166397095,0.2797086238861084
5,3,64,59,0.32642969489097595,0.1443411260843277
5,3,64,60,0.7240204811096191,0.10496625304222107
5,3,64,61,0.5287948250770569,0.172298863530159
5,3,64,62,0.5809217691421509,0.25925278663635254
5,3,64,63,0.5546773076057434,0.1945744752883911
5,4,128,0,0.6580173373222351,0.24144263565540314
5,4,128,1,0.44097357988357544,0.034560468047857285
5,4,128,2,0.5292022228240967,0.0729803517460823
5,4,128,3,0.5613306760787964,0.14345937967300415
5,4,128,4,0.45789971947669983,0.03135290741920471
5,4,128,5,0.4702366888523102,0.1898510903120041
5,4,128,6,0.4951041340827942,0.11763764172792435
5,4,128,7,0.6346282362937927,0.19040347635746002
5,4,128,8,0.6877054572105408,0.18631047010421753
5,4,128,9,0.5810790657997131,0.2882271707057953
5,4,128,10,0.6220172047615051,0.08224737644195557
5,4,128,11,0.3552376627922058,0.09656528383493423
5,4,128,12,0.5884016752243042,0.21537010371685028
5,4,128,13,0.39862242341041565,0.1622287631034851
5,4,128,14,0.6503291726112366,0.2049059420824051
5,4,128,15,0.7405557632446289,0.22316141426563263
5,4,128,16,0.5756782293319702,0.1450175791978836
5,4,128,17,0.35901880264282227,0.07611790299415588
5,4,128,18,0.7222754955291748,0.09026744961738586
5,4,128,19,0.4466775059700012,0.2837589979171753
5,4,128,20,0.714345395565033,0.10723225772380829
5,4,128,21,0.6768605709075928,0.30068984627723694
5,4,128,22,0.6112120747566223,0.11838964372873306
5,4,128,23,0.6545159220695496,0.24184530973434448
5,4,128,24,0.6482686400413513,0.17017924785614014
5,4,128,25,0.327241450548172,0.20923618972301483
5,4,128,26,0.37504053115844727,0.23228755593299866
5,4,128,27,0.4933541417121887,0.09247419238090515
5,4,128,28,0.45297789573669434,0.21336282789707184
5,4,128,29,0.4807940125465393,0.12979069352149963
5,4,128,30,0.32190656661987305,0.21282172203063965
5,4,128,31,0.5908220410346985,0.3015003502368927
5,4,128,32,0.6111143231391907,0.1456320881843567
5,4,128,33,0.22597455978393555,0.10965850949287415
5,4,128,34,0.44680073857307434,0.2829289138317108
5,4,128,35,0.2206079661846161,0.10285467654466629
5,4,128,36,0.4179399609565735,0.1089295819401741
5,4,128,37,0.49575451016426086,0.05239062383770943
5,4,128,38,0.42135658860206604,0.21987228095531464
5,4,128,39,0.4193764925003052,0.14686553180217743
5,4,128,40,0.6246612071990967,0.193113312125206
5,4,128,41,0.4042895436286926,0.3493902087211609
5,4,128,42,0.5448199510574341,0.23965603113174438
5,4,128,43,0.6251576542854309,0.12826375663280487
5,4,128,44,0.35510140657424927,0.18276560306549072
5,4,128,45,0.6580470204353333,0.13948437571525574
5,4,128,46,0.4500831067562103,0.21399442851543427
5,4,128,47,0.5203392505645752,0.2130165994167328
5,4,128,48,0.7142356634140015,0.08491401374340057
5,4,128,49,0.5223093628883362,0.1503126472234726
5,4,128,50,0.5826324224472046,0.26001936197280884
5,4,128,51,0.6063103079795837,0.2262541800737381
5,4,128,52,0.5960015058517456,0.08120720833539963
5,4,128,53,0.6068245768547058,0.23265600204467773
5,4,128,54,0.5205917954444885,0.06139250844717026
5,4,128,55,0.6345288157463074,0.18186593055725098
5,4,128,56,0.4200664162635803,0.13069672882556915
5,4,128,57,0.7422705888748169,0.12044218182563782
5,4,128,58,0.6585656404495239,0.1977584958076477
5,4,128,59,0.6726959347724915,0.2221667766571045
5,4,128,60,0.42014649510383606,0.08953744918107986
5,4,128,61,0.3973674476146698,0.31010982394218445
5,4,128,62,0.7070609927177429,0.21560949087142944
5,4,128,63,0.6242222189903259,0.2512851655483246
5,4,128,64,0.5728709101676941,0.2541925609111786
5,4,128,65,0.3797650635242462,0.10112685710191727
5,4,128,66,0.7472689151763916,0.09972045570611954
5,4,128,67,0.697270393371582,0.24649903178215027
5,4,128,68,0.6360846757888794,0.3202967047691345
5,4,128,69,0.7676489949226379,0.1037834882736206
5,4,128,70,0.34227320551872253,0.26016926765441895
5,4,128,71,0.6469554305076599,0.09976187348365784
5,4,128,72,0.6808285713195801,0.23324884474277496
5,4,128,73,0.6454793810844421,0.09856744855642319
5,4,128,74,0.5124760270118713,0.2556736171245575
5,4,128,75,0.630039632320404,0.13766705989837646
5,4,128,76,0.4032525420188904,0.30245667695999146
5,4,128,77,0.30263033509254456,0.08531026542186737
5,4,128,78,0.5596921443939209,0.17643533647060394
5,4,128,79,0.4509102404117584,0.1151050552725792
5,4,128,80,0.655083417892456,0.12406143546104431
5,4,128,81,0.5776187181472778,0.18187616765499115
5,4,128,82,0.3863711953163147,0.32823771238327026
5,4,128,83,0.6126829981803894,0.10165540874004364
5,4,128,84,0.4061558246612549,0.1988704800605774
5,4,128,85,0.3537055552005768,0.28695759177207947
5,4,128,86,0.6563045978546143,0.18679523468017578
5,4,128,87,0.5844287872314453,0.23915427923202515
5,4,128,88,0.6267510056495667,0.10988419502973557
5,4,128,89,0.41641920804977417,0.277553915977478
5,4,128,90,0.5527002215385437,0.13299281895160675
5,4,128,91,0.6340904831886292,0.21281377971172333
5,4,128,92,0.6530526280403137,0.30357825756073
5,4,128,93,0.44207221269607544,0.32502973079681396
5,4,128,94,0.3930826187133789,0.2792780101299286
5,4,128,95,0.4865258038043976,0.2210765928030014
5,4,128,96,0.6653581857681274,0.21649104356765747
5,4,128,97,0.3290433883666992,0.25060683488845825
5,4,128,98,0.6584106087684631,0.26238158345222473
5,4,128,99,0.389912486076355,0.24978511035442352
5,4,128,100,0.7488499283790588,0.07916378974914551
5,4,128,101,0.6719530820846558,0.10765746980905533
5,4,128,102,0.6462744474411011,0.2796023488044739
5,4,128,103,0.6742683053016663,0.11161568015813828
5,4,128,104,0.6975938081741333,0.09584812074899673
5,4,128,105,0.4632013738155365,0.0557669997215271
5,4,128,106,0.6382275819778442,0.19569887220859528
5,4,128,107,0.4828207492828369,0.21964791417121887
5,4,128,108,0.5713890194892883,0.16886074841022491
5,4,128,109,0.353842169046402,0.20278818905353546
5,4,128,110,0.6066672205924988,0.26116126775741577
5,4,128,111,0.4340221881866455,0.17144528031349182
5,4,128,112,0.4062747061252594,0.13488012552261353
5,4,128,113,0.6808998584747314,0.1287042200565338
5,4,128,114,0.7408615350723267,0.08284558355808258
5,4,128,115,0.7567991018295288,0.10430658608675003
5,4,128,116,0.6003825068473816,0.2522117793560028
5,4,128,117,0.5926050543785095,0.13554584980010986
5,4,128,118,0.5517122149467468,0.06962461769580841
5,4,128,119,0.5587127804756165,0.08816372603178024
5,4,128,120,0.6385525465011597,0.1691504567861557
5,4,128,121,0.567152738571167,0.2872459590435028
5,4,128,122,0.49829620122909546,0.1304703652858734
5,4,128,123,0.42799055576324463,0.29095545411109924
5,4,128,124,0.7596306204795837,0.12741325795650482
5,4,128,125,0.44392117857933044,0.07687333971261978
5,4,128,126,0.4772019386291504,0.11450570821762085
5,4,128,127,0.5552639365196228,0.20349439978599548
5,5,128,0,0.8287853598594666,0.0988793820142746
5,5,128,1,0.6901824474334717,0.11998993158340454
5,5,128,2,0.7551997900009155,0.23559148609638214
5,5,128,3,0.6145107746124268,0.09561455249786377
5,5,128,4,0.4731115996837616,0.040455546230077744
5,5,128,5,0.806650698184967,0.1522502899169922
5,5,128,6,0.627650797367096,0.1691085547208786
5,5,128,7,0.8073010444641113,0.112337127327919
5,5,128,8,0.8303170800209045,0.15386521816253662
5,5,128,9,0.6538432240486145,0.3026409447193146
5,5,128,10,0.7537147998809814,0.15330906212329865
5,5,128,11,0.7328718900680542,0.2588520348072052
5,5,128,12,0.8367000222206116,0.09330063313245773
5,5,128,13,0.8145356178283691,0.1725243628025055
5,5,128,14,0.7743454575538635,0.10062862187623978
5,5,128,15,0.7525938153266907,0.21403968334197998
5,5,128,16,0.8001407980918884,0.17248497903347015
5,5,128,17,0.7669443488121033,0.2049301713705063
5,5,128,18,0.7808836102485657,0.13500124216079712
5,5,128,19,0.7110549211502075,0.08116941899061203
5,5,128,20,0.7532384991645813,0.21260231733322144
5,5,128,21,0.8861872553825378,0.07528340816497803
5,5,128,22,0.4957220256328583,0.2579914629459381
5,5,128,23,0.6904158592224121,0.1331336796283722
5,5,128,24,0.7742015719413757,0.14784319698810577
5,5,128,25,0.875990092754364,0.08115435391664505
5,5,128,26,0.6918228268623352,0.09957209974527359
5,5,128,27,0.7988881468772888,0.12997488677501678
5,5,128,28,0.6075829267501831,0.08590821921825409
5,5,128,29,0.8166942000389099,0.1260240077972412
5,5,128,30,0.8479711413383484,0.08969598263502121
5,5,128,31,0.35188931226730347,0.30405086278915405
5,5,128,32,0.8578439354896545,0.08635390549898148
5,5,128,33,0.584541916847229,0.1864330917596817
5,5,128,34,0.40102267265319824,0.24190784990787506
5,5,128,35,0.6057656407356262,0.10694657266139984
5,5,128,36,0.8817958235740662,0.09329965710639954
5,5,128,37,0.4503490626811981,0.24395182728767395
5,5,128,38,0.5649269223213196,0.24061203002929688
5,5,128,39,0.6183074116706848,0.07951188087463379
5,5,128,40,0.31959497928619385,0.11447440832853317
5,5,128,41,0.6612529158592224,0.1549592763185501
5,5,128,42,0.6807712316513062,0.2858160138130188
5,5,128,43,0.7411966323852539,0.21432043612003326
5,5,128,44,0.42779213190078735,0.1313946545124054
5,5,128,45,0.8093112707138062,0.16560393571853638
5,5,128,46,0.47304344177246094,0.314720094203949
5,5,128,47,0.7668940424919128,0.19992028176784515
5,5,128,48,0.8698121905326843,0.1188194528222084
5,5,128,49,0.6463315486907959,0.14780013263225555
5,5,128,50,0.40283000469207764,0.24773168563842773
5,5,128,51,0.6756058931350708,0.2864867150783539
5,5,128,52,0.6899427175521851,0.1926889419555664
5,5,128,53,0.4146629869937897,0.3268032670021057
5,5,128,54,0.7406998872756958,0.1471765637397766
5,5,128,55,0.7163195610046387,0.23364697396755219
5,5,128,56,0.6090569496154785,0.17299604415893555
5,5,128,57,0.6990544199943542,0.2111104428768158
5,5,128,58,0.7411212921142578,0.21708768606185913
5,5,128,59,0.7766720056533813,0.16800180077552795
5,5,128,60,0.6986945867538452,0.26516860723495483
5,5,128,61,0.7743194103240967,0.1636553704738617
5,5,128,62,0.7154307961463928,0.2742404639720917
5,5,128,63,0.76566481590271,0.20732741057872772
5,5,128,64,0.7971631288528442,0.1283162534236908
5,5,128,65,0.6734704375267029,0.29454800486564636
5,5,128,66,0.8623444437980652,0.10524076968431473
5,5,128,67,0.8217020034790039,0.09104983508586884
5,5,128,68,0.9017770290374756,0.08118512481451035
5,5,128,69,0.8304356932640076,0.12271337956190109
5,5,128,70,0.8640546202659607,0.07838240265846252
5,5,128,71,0.8364725708961487,0.10507194697856903
5,5,128,72,0.6386441588401794,0.22421522438526154
5,5,128,73,0.8728662729263306,0.09093984961509705
5,5,128,74,0.4179852604866028,0.22660893201828003
5,5,128,75,0.5461817979812622,0.16548526287078857
5,5,128,76,0.753191351890564,0.0731125995516777
5,5,128,77,0.376434326171875,0.29963418841362
5,5,128,78,0.6861588954925537,0.18098163604736328
5,5,128,79,0.4875293970108032,0.11117319762706757
5,5,128,80,0.35302966833114624,0.1926746666431427
5,5,128,81,0.7561991214752197,0.20844094455242157
5,5,128,82,0.4276426136493683,0.3060314655303955
5,5,128,83,0.5316749811172485,0.10115596652030945
5,5,128,84,0.6154291033744812,0.13294586539268494
5,5,128,85,0.6382095217704773,0.11099830269813538
5,5,128,86,0.8146265149116516,0.1366443932056427
5,5,128,87,0.5012205243110657,0.24175618588924408
5,5,128,88,0.4579850137233734,0.2743177115917206
5,5,128,89,0.8321850299835205,0.08857567608356476
5,5,128,90,0.7356350421905518,0.07641762495040894
5,5,128,91,0.6928518414497375,0.29539188742637634
5,5,128,92,0.8634688258171082,0.08297983556985855
5,5,128,93,0.5775271058082581,0.1595371663570404
5,5,128,94,0.44466981291770935,0.10812650620937347
5,5,128,95,0.3641853630542755,0.27811676263809204
5,5,128,96,0.8149662613868713,0.13260827958583832
5,5,128,97,0.645403265953064,0.3323732018470764
5,5,128,98,0.818750262260437,0.12594597041606903
5,5,128,99,0.6862571239471436,0.2216750681400299
5,5,128,100,0.7813255190849304,0.17719759047031403
5,5,128,101,0.7949577569961548,0.14688526093959808
5,5,128,102,0.7015380263328552,0.23997367918491364
5,5,128,103,0.795885443687439,0.09184139966964722
5,5,128,104,0.8215686082839966,0.1245078518986702
5,5,128,105,0.7942010164260864,0.10280882567167282
5,5,128,106,0.7947344779968262,0.16353395581245422
5,5,128,107,0.3222866952419281,0.24405811727046967
5,5,128,108,0.7576690316200256,0.10845670849084854
5,5,128,109,0.8814193606376648,0.0806296169757843
5,5,128,110,0.7535361647605896,0.19255664944648743
5,5,128,111,0.6394856572151184,0.20136937499046326
5,5,128,112,0.640751838684082,0.22008319199085236
5,5,128,113,0.8476067781448364,0.11327172070741653
5,5,128,114,0.7819943428039551,0.0905480682849884
5,5,128,115,0.8333966135978699,0.12672671675682068
5,5,128,116,0.5748649835586548,0.0452067106962204
5,5,128,117,0.6718746423721313,0.102623350918293
5,5,128,118,0.7936994433403015,0.12227151542901993
5,5,128,119,0.8382854461669922,0.11400879919528961
5,5,128,120,0.7491134405136108,0.19870539009571075
5,5,128,121,0.7861123085021973,0.1460980772972107
5,5,128,122,0.8247273564338684,0.10999216884374619
5,5,128,123,0.3886284828186035,0.2342124730348587
5,5,128,124,0.8242747187614441,0.07206080108880997
5,5,128,125,0.7520111203193665,0.09203138947486877
5,5,128,126,0.4977671205997467,0.13759464025497437
5,5,128,127,0.8111644387245178,0.14067062735557556
6,0,32,0,0.5857242345809937,0.0868171900510788
6,0,32,1,0.5310730934143066,0.10631658136844635
6,0,32,2,0.5249091386795044,0.08195661008358002
6,0,32,3,0.48976242542266846,0.12616293132305145
6,0,32,4,0.4099559187889099,0.28137555718421936
6,0,32,5,0.3795357048511505,0.08928981423377991
6,0,32,6,0.6016274094581604,0.08344399929046631
6,0,32,7,0.3942900598049164,0.04482080414891243
6,0,32,8,0.577858567237854,0.10908777266740799
6,0,32,9,0.5862347483634949,0.1401456594467163
6,0,32,10,0.42421290278434753,0.0651794970035553
6,0,32,11,0.43373143672943115,0.09809771925210953
6,0,32,12,0.5257602334022522,0.033908478915691376
6,0,32,13,0.3854694366455078,0.12940563261508942
6,0,32,14,0.3934381306171417,0.08547760546207428
6,0,32,15,0.47539862990379333,0.11486027389764786
6,0,32,16,0.2387181520462036,0.11456377804279327
6,0,32,17,0.5521665811538696,0.11098311096429825
6,0,32,18,0.5191498398780823,0.15185192227363586
6,0,32,19,0.34339967370033264,0.1784033626317978
6,0,32,20,0.33226022124290466,0.1332075297832489
6,0,32,21,0.45593559741973877,0.19074827432632446
6,0,32,22,0.4634620249271393,0.19578859210014343
6,0,32,23,0.483303427696228,0.1971091628074646
6,0,32,24,0.267008513212204,0.09932500123977661
6,0,32,25,0.688456118106842,0.13583551347255707
6,0,32,26,0.4322388470172882,0.11764887720346451
6,0,32,27,0.3760095536708832,0.061973489820957184
6,0,32,28,0.4594014585018158,0.08223671466112137
6,0,32,29,0.3416438698768616,0.21497048437595367
6,0,32,30,0.4877519905567169,0.03735719621181488
6,0,32,31,0.49331942200660706,0.12022433429956436
6,1,32,0,0.4698132574558258,0.03415009006857872
6,1,32,1,0.5395681858062744,0.10450847446918488
6,1,32,2,0.642991304397583,0.037086933851242065
6,1,32,3,0.6274641752243042,0.05608699470758438
6,1,32,4,0.35740384459495544,0.07428473234176636
6,1,32,5,0.6000897288322449,0.1304522454738617
6,1,32,6,0.40842241048812866,0.020356453955173492
6,1,32,7,0.6011509895324707,0.0619945228099823
6,1,32,8,0.5356565713882446,0.07965788245201111
6,1,32,9,0.5969544053077698,0.113079734146595
6,1,32,10,0.4200069308280945,0.06769147515296936
6,1,32,11,0.45917993783950806,0.07321362942457199
6,1,32,12,0.6092442274093628,0.15779060125350952
6,1,32,13,0.4091486632823944,0.07310030609369278
6,1,32,14,0.32528769969940186,0.04928993433713913
6,1,32,15,0.4915641248226166,0.1546497642993927
6,1,32,16,0.3955637812614441,0.03446768969297409
6,1,32,17,0.31122925877571106,0.08303603529930115
6,1,32,18,0.4862663149833679,0.06833130121231079
6,1,32,19,0.4491015374660492,0.09196272492408752
6,1,32,20,0.6891292333602905,0.06401529163122177
6,1,32,21,0.589287281036377,0.09394508600234985
6,1,32,22,0.4008673131465912,0.12536631524562836
6,1,32,23,0.4804832935333252,0.0783984363079071
6,1,32,24,0.5775470733642578,0.10703077167272568
6,1,32,25,0.3989444077014923,0.1039198786020279
6,1,32,26,0.49884429574012756,0.1022694781422615
6,1,32,27,0.4309599697589874,0.10712159425020218
6,1,32,28,0.4588671326637268,0.12860603630542755
6,1,32,29,0.48685669898986816,0.07847554236650467
6,1,32,30,0.4679991602897644,0.05523883178830147
6,1,32,31,0.5306214690208435,0.05297449231147766
6,2,64,0,0.6875606775283813,0.15528987348079681
6,2,64,1,0.6843940019607544,0.15324994921684265
6,2,64,2,0.41282880306243896,0.1970909684896469
6,2,64,3,0.5881860852241516,0.10974156111478806
6,2,64,4,0.5053784251213074,0.11848705261945724
6,2,64,5,0.5207115411758423,0.21890541911125183
6,2,64,6,0.4931957423686981,0.2142174392938614
6,2,64,7,0.5887649655342102,0.1769169420003891
6,2,64,8,0.32728493213653564,0.12989643216133118
6,2,64,9,0.5204579830169678,0.20863881707191467
6,2,64,10,0.40732407569885254,0.18302084505558014
6,2,64,11,0.6634311676025391,0.25592151284217834
6,2,64,12,0.3492512106895447,0.12337669730186462
6,2,64,13,0.5450941324234009,0.15930978953838348
6,2,64,14,0.33150482177734375,0.10388287901878357
6,2,64,15,0.5923293828964233,0.13391642272472382
6,2,64,16,0.5210742354393005,0.12142737954854965
6,2,64,17,0.4490306079387665,0.06977084279060364
6,2,64,18,0.5920975208282471,0.16794179379940033
6,2,64,19,0.6300595998764038,0.1643175333738327
6,2,64,20,0.32479149103164673,0.10682675242424011
6,2,64,21,0.6478868722915649,0.2403564453125
6,2,64,22,0.5880910158157349,0.16884872317314148
6,2,64,23,0.5102516412734985,0.1943299025297165
6,2,64,24,0.3987674117088318,0.2671751081943512
6,2,64,25,0.5531551837921143,0.2436629980802536
6,2,64,26,0.48389241099357605,0.17810504138469696
6,2,64,27,0.5613706111907959,0.21776321530342102
6,2,64,28,0.354808509349823,0.14131078124046326
6,2,64,29,0.4421525001525879,0.23550951480865479
6,2,64,30,0.4699242115020752,0.20541229844093323
6,2,64,31,0.387836217880249,0.16738297045230865
6,2,64,32,0.5360326766967773,0.1088457927107811
6,2,64,33,0.38385966420173645,0.041032131761312485
6,2,64,34,0.49706098437309265,0.16120973229408264
6,2,64,35,0.536236584186554,0.2864604890346527
6,2,64,36,0.40887925028800964,0.12687301635742188
6,2,64,37,0.4812633991241455,0.21024276316165924
6,2,64,38,0.36433058977127075,0.26095589995384216
6,2,64,39,0.6667030453681946,0.1535775065422058
6,2,64,40,0.3891981542110443,0.2301727831363678
6,2,64,41,0.4151201844215393,0.19803541898727417
6,2,64,42,0.46275007724761963,0.0938417986035347
6,2,64,43,0.42707234621047974,0.19776804745197296
6,2,64,44,0.5134005546569824,0.20401631295681
6,2,64,45,0.45404529571533203,0.2937160134315491
6,2,64,46,0.38763856887817383,0.07696852087974548
6,2,64,47,0.29702991247177124,0.05908654257655144
6,2,64,48,0.4896833896636963,0.19481875002384186
6,2,64,49,0.462697297334671,0.2038024365901947
6,2,64,50,0.42628422379493713,0.13812589645385742
6,2,64,51,0.4467887580394745,0.13844828307628632
6,2,64,52,0.45916759967803955,0.214222252368927
6,2,64,53,0.464617520570755,0.18561983108520508
6,2,64,54,0.5210579633712769,0.10967663675546646
6,2,64,55,0.5444222688674927,0.19663779437541962
6,2,64,56,0.7118807435035706,0.16131219267845154
6,2,64,57,0.5534559488296509,0.10527187585830688
6,2,64,58,0.5719497203826904,0.13473853468894958
6,2,64,59,0.4316999018192291,0.26097673177719116
6,2,64,60,0.44947728514671326,0.18252328038215637
6,2,64,61,0.5134981274604797,0.17997804284095764
6,2,64,62,0.4264431595802307,0.1717812567949295
6,2,64,63,0.4585288166999817,0.18916405737400055
6,3,64,0,0.3355988562107086,0.1506604701280594
6,3,64,1,0.5647144913673401,0.16606101393699646
6,3,64,2,0.3796866834163666,0.13538135588169098
6,3,64,3,0.5367025136947632,0.10176761448383331
6,3,64,4,0.5214839577674866,0.21820993721485138
6,3,64,5,0.6110597252845764,0.05467092990875244
6,3,64,6,0.5503005981445312,0.07416703552007675
6,3,64,7,0.6012510061264038,0.1414671540260315
6,3,64,8,0.4770500361919403,0.09459080547094345
6,3,64,9,0.6829882860183716,0.08125916123390198
6,3,64,10,0.46636471152305603,0.1027073785662651
6,3,64,11,0.5575369596481323,0.09619824588298798
6,3,64,12,0.4446435272693634,0.1611703485250473
6,3,64,13,0.3669406771659851,0.07746855169534683
6,3,64,14,0.6412364840507507,0.08590725809335709
6,3,64,15,0.3668099641799927,0.1831439733505249
6,3,64,16,0.5304320454597473,0.15224896371364594
6,3,64,17,0.7427685856819153,0.07782403379678726
6,3,64,18,0.597016453742981,0.13085882365703583
6,3,64,19,0.5567351579666138,0.1853933036327362
6,3,64,20,0.34093356132507324,0.0578220896422863
6,3,64,21,0.6562929749488831,0.1268852949142456
6,3,64,22,0.634835422039032,0.10037290304899216
6,3,64,23,0.5253180861473083,0.11176111549139023
6,3,64,24,0.6835030913352966,0.13084028661251068
6,3,64,25,0.4903794229030609,0.11145616322755814
6,3,64,26,0.6343896985054016,0.07578926533460617
6,3,64,27,0.233475461602211,0.11765147000551224
6,3,64,28,0.5926783680915833,0.20002250373363495
6,3,64,29,0.2796509563922882,0.15378019213676453
6,3,64,30,0.4849594831466675,0.0801541730761528
6,3,64,31,0.3781191408634186,0.08329104632139206
6,3,64,32,0.38544291257858276,0.11873769015073776
6,3,64,33,0.5679119229316711,0.17254139482975006
6,3,64,34,0.38718369603157043,0.1645635962486267
6,3,64,35,0.5352798104286194,0.1841370165348053
6,3,64,36,0.29133760929107666,0.1132085844874382
6,3,64,37,0.6935146450996399,0.1143411323428154
6,3,64,38,0.29404181241989136,0.17593711614608765
6,3,64,39,0.6484549045562744,0.18273617327213287
6,3,64,40,0.2824557423591614,0.12043098360300064
6,3,64,41,0.6783989667892456,0.24240104854106903
6,3,64,42,0.4812226891517639,0.20767883956432343
6,3,64,43,0.49168968200683594,0.13929183781147003
6,3,64,44,0.7294574975967407,0.14568597078323364
6,3,64,45,0.5243346095085144,0.13548338413238525
6,3,64,46,0.5140621662139893,0.08951383084058762
6,3,64,47,0.4428800344467163,0.156355619430542
6,3,64,48,0.4420985281467438,0.09766870737075806
6,3,64,49,0.5617038011550903,0.22601884603500366
6,3,64,50,0.6123431921005249,0.07665933668613434
6,3,64,51,0.3526863157749176,0.08635634183883667
6,3,64,52,0.48274683952331543,0.1250910609960556
6,3,64,53,0.4326079189777374,0.14147646725177765
6,3,64,54,0.47646957635879517,0.1815471649169922
6,3,64,55,0.601263701915741,0.08743615448474884
6,3,64,56,0.5193299055099487,0.1567293107509613
6,3,64,57,0.6015110015869141,0.19513124227523804
6,3,64,58,0.6375197768211365,0.1625683605670929
6,3,64,59,0.48670694231987,0.15052013099193573
6,3,64,60,0.5527003407478333,0.17932793498039246
6,3,64,61,0.3875563442707062,0.07527395337820053
6,3,64,62,0.6155107021331787,0.22381335496902466
6,3,64,63,0.4586215019226074,0.059593528509140015
