epoch,train_ce,train_coral,val_loss,best,subject,coral_lambda
1,0.8976814423698977,0.00023255136601433316,0.7739196617990519,1,1,30.0
2,0.7966870335211237,0.0001549757809303869,0.6861540048191832,1,1,30.0
3,0.7640280630215105,0.00013743808804394072,0.632561561304784,1,1,30.0
4,0.7300801743944008,0.00012479783126983387,0.6600406042265512,0,1,30.0
5,0.6995172450341374,0.00011387260265000367,0.668715779438205,0,1,30.0
6,0.687248830335686,0.00010618933780519965,0.7143443136794313,0,1,30.0
7,0.6638181209564209,9.602045203616607e-05,0.6677030930831522,0,1,30.0
8,0.6539145320294851,9.174780713791219e-05,0.5380650226836918,1,1,30.0
9,0.6195033917944115,8.893598767673506e-05,0.5296090492577924,1,1,30.0
10,0.5985448615378645,8.303381707582409e-05,0.5678128456016295,0,1,30.0
11,0.5918229136122278,8.15530728281571e-05,0.6269422648222749,0,1,30.0
12,0.580743027738778,8.4432429568814e-05,0.6395896740906889,0,1,30.0
13,0.5645640427807728,7.887680590375753e-05,0.5761953048099815,0,1,30.0
14,0.545418140758951,7.84264424926579e-05,0.5476869913371228,0,1,30.0
15,0.5265951232019678,7.420937153398541e-05,0.6889495722551751,0,1,30.0
16,0.5133669125028404,7.376203308034835e-05,0.5673158507366254,0,1,30.0
1,0.9072336951891581,0.00020585366413191272,0.6119871992832066,1,2,30.0
2,0.7994065306016377,0.00014571421776227433,0.5842364492133505,1,2,30.0
3,0.7552496322563717,0.00012900367818517787,0.5653790058099236,1,2,30.0
4,0.7270107120275497,0.0001311942358456907,0.5445261052706324,1,2,30.0
5,0.7068231666371936,0.00012052632094613121,0.5555318784421126,0,2,30.0
6,0.6786638888574782,0.00012241202066001105,0.5574238933880612,0,2,30.0
7,0.6729584236939748,0.0001019379642457352,0.5047762075546205,1,2,30.0
8,0.6454912636961255,0.0001101205037100174,0.5009422449924388,1,2,30.0
9,0.6215413202132497,9.994345730644585e-05,0.5058121763914646,0,2,30.0
10,0.6123488073547682,9.335340326374752e-05,0.4716514451191473,1,2,30.0
11,0.5949762907056582,8.911757621327914e-05,0.47907447760097593,0,2,30.0
12,0.5725425031213534,8.903476368903371e-05,0.46270937703601417,1,2,30.0
13,0.5624957574265343,9.080695287723626e-05,0.4527206605407417,1,2,30.0
14,0.5479515723529316,8.42781996003136e-05,0.4590418579777295,0,2,30.0
15,0.5212301746720359,8.586393085438648e-05,0.4259583536247505,1,2,30.0
16,0.5155797724922498,8.519955121127645e-05,0.46581263812598833,0,2,30.0
17,0.5061701791627067,7.796676492857624e-05,0.42148387782849894,1,2,30.0
18,0.49166745373180937,7.949012944577372e-05,0.4309449249852304,0,2,30.0
19,0.47782924629393075,7.703945508789427e-05,0.4514877917593915,0,2,30.0
20,0.4664559087582997,7.6714400945223e-05,0.4267575234462281,0,2,30.0
21,0.4618350412873995,7.747255551207455e-05,0.42108101442241136,1,2,30.0
22,0.44741870108104886,7.72798817446788e-05,0.4253523684222544,0,2,30.0
23,0.43302434647367116,7.562727010476269e-05,0.4433052922969902,0,2,30.0
24,0.42914326063224245,7.309588878949096e-05,0.41864398508562667,1,2,30.0
25,0.4162022155665216,7.6064523714844e-05,0.41424627283426274,1,2,30.0
26,0.40680094418071566,6.768347486199456e-05,0.40364207970414,1,2,30.0
27,0.4138776475474948,6.995082159327077e-05,0.4172424184670883,0,2,30.0
28,0.3951452856972104,7.330880561355679e-05,0.39679320397904794,1,2,30.0
29,0.3921864348508063,6.820869891401214e-05,0.4015158487344305,0,2,30.0
30,0.3784752699236075,7.15027553745867e-05,0.408787449881718,0,2,30.0
31,0.3788575093661036,6.706902392276486e-05,0.4040267828869049,0,2,30.0
32,0.37868607966672807,6.799076886853159e-05,0.41241840299752663,0,2,30.0
33,0.36204845351832254,6.944064647368144e-05,0.40166416323875537,0,2,30.0
34,0.3650061275277819,7.224249462264456e-05,0.40219466012629895,0,2,30.0
35,0.3586217812484219,6.951553275160092e-05,0.39409279224232363,1,2,30.0
36,0.34938859496088254,7.096693250440738e-05,0.3992554538114833,0,2,30.0
37,0.34902816868963693,6.750608818471111e-05,0.3966017771832044,0,2,30.0
38,0.3533755934664181,6.677533677984251e-05,0.3936570476014163,1,2,30.0
39,0.35243017971515656,7.054396272516377e-05,0.39685200984827307,0,2,30.0
40,0.3500620813242027,6.92692590833065e-05,0.3939610629184054,0,2,30.0
1,0.9143951500163359,0.0002037177113165586,0.8621516951375351,1,3,30.0
2,0.7923683972919688,0.00015193216352011351,0.8283256177877737,1,3,30.0
3,0.7548627243322484,0.00013270005695042474,0.8228135629197216,1,3,30.0
4,0.7150672842474545,0.00012296874175423428,0.8375612368393541,0,3,30.0
5,0.6908632089109982,0.00010565382416483344,0.725240121291178,1,3,30.0
6,0.6661584307165707,0.00011333080268848468,0.6796602169140236,1,3,30.0
7,0.6569525347036473,0.00010050446452463375,0.7546016190043233,0,3,30.0
8,0.6265403852743261,9.495854991495006e-05,0.7829913557866954,0,3,30.0
9,0.6218778207021601,9.379584585343872e-05,0.6878670281523764,0,3,30.0
10,0.6025512260549208,8.826917024527895e-05,0.6784429098564333,1,3,30.0
11,0.578158709231545,8.281851028989288e-05,0.7227931809215896,0,3,30.0
12,0.5645421715343699,9.163638738648254e-05,0.6541667985470442,1,3,30.0
13,0.5526544521836674,7.709590362912208e-05,0.7043453789434476,0,3,30.0
14,0.5387605705681969,7.171641191234812e-05,0.6420820990737542,1,3,30.0
15,0.5221538876785952,8.292636240880444e-05,0.7305373325370089,0,3,30.0
16,0.5145399318021886,7.030299179057372e-05,0.6659297217367472,0,3,30.0
17,0.5043800150646883,6.972789958715166e-05,0.643498982181139,0,3,30.0
18,0.4865329889690175,8.07012636334334e-05,0.6600542364218804,0,3,30.0
19,0.4776506774565753,6.290643359534443e-05,0.7097566146020979,0,3,30.0
20,0.46671076872769524,7.00398839184987e-05,0.6335145035215841,1,3,30.0
21,0.45672388252090007,6.836240722537589e-05,0.6092793402774918,1,3,30.0
22,0.4462490674327402,6.47242742107825e-05,0.6331791729959199,0,3,30.0
23,0.4329711924580967,6.309762919794166e-05,0.6350427114836327,0,3,30.0
24,0.4231269724228803,6.375468493548825e-05,0.6547220795768025,0,3,30.0
25,0.41944417427567876,6.750285294187694e-05,0.6031746984195246,1,3,30.0
26,0.4043340290293974,6.170692311784746e-05,0.5894929595913293,1,3,30.0
27,0.4030849958167357,6.1990790110191e-05,0.611154981265,0,3,30.0
28,0.3914563652347116,6.0501611818942957e-05,0.562606761969425,1,3,30.0
29,0.3860234358731438,5.988128164865296e-05,0.5885429673489848,0,3,30.0
30,0.3818899319452398,6.343277157558238e-05,0.5866992585561854,0,3,30.0
31,0.3809598344213822,6.35284702772932e-05,0.5976308396547574,0,3,30.0
32,0.37149140484192794,6.322489352896809e-05,0.6042649284947248,0,3,30.0
33,0.358518186211586,6.553657731274143e-05,0.5854270748392378,0,3,30.0
34,0.3543929101789699,6.247930633595816e-05,0.5914475157555666,0,3,30.0
35,0.3550663511542713,6.347320193205686e-05,0.5932854760156058,0,3,30.0
1,0.9343990248792312,0.000204983377839466,0.5714417598546968,1,4,30.0
2,0.8261058085104999,0.00013983422421220252,0.6210637787953001,0,4,30.0
3,0.7916833197369295,0.00012172216708730796,0.5110985658930516,1,4,30.0
4,0.746316787775825,0.00011798960391281392,0.4939469937715108,1,4,30.0
5,0.7105631449643304,0.00011417980259626774,0.4726662265492404,1,4,30.0
6,0.6903097377103917,0.00011381726722260389,0.44292312286363594,1,4,30.0
7,0.6696163051268633,9.317032326019698e-05,0.43455516037894454,1,4,30.0
8,0.648627386373632,9.00605866798501e-05,0.43144039432794296,1,4,30.0
9,0.6358793549677905,9.258593114175121e-05,0.399892721752957,1,4,30.0
10,0.6162564530092127,9.263579340768047e-05,0.3841059886651663,1,4,30.0
11,0.6073727839133318,8.225982472889454e-05,0.3953526948119868,0,4,30.0
12,0.5966131585485795,7.803297699223656e-05,0.3783771399560498,1,4,30.0
13,0.5720059840118183,7.332702165620183e-05,0.3971883965144015,0,4,30.0
14,0.5551134098978604,8.001709014506024e-05,0.3975522632945738,0,4,30.0
15,0.5481179233859567,7.092307778828613e-05,0.3705209163776004,1,4,30.0
16,0.5302773892879487,7.103214803090155e-05,0.36912086666420696,1,4,30.0
17,0.5194144091185402,6.92795978359166e-05,0.397150258593539,0,4,30.0
18,0.5156537434634041,7.27205813745968e-05,0.37070702490566193,0,4,30.0
19,0.49264368414878845,7.233847919611863e-05,0.3283260150614279,1,4,30.0
20,0.4844693569576039,6.724609565400682e-05,0.3721125219907348,0,4,30.0
21,0.477092667537577,6.162657270632575e-05,0.33139924441825636,0,4,30.0
22,0.46740842847263114,6.253592090455213e-05,0.33633899013191454,0,4,30.0
23,0.4510845408720129,6.127220189869952e-05,0.3430545939925256,0,4,30.0
24,0.4497829759822172,6.3782675030833e-05,0.33516697962492265,0,4,30.0
25,0.43575584117104027,6.264644907787442e-05,0.32095270337150605,1,4,30.0
26,0.42798356869641474,6.551539357614649e-05,0.32450382264966154,0,4,30.0
27,0.4251926657031564,6.116540380924776e-05,0.3538915358590042,0,4,30.0
28,0.40709421459366296,6.592480610432924e-05,0.3287854532107491,0,4,30.0
29,0.4116024960489834,6.21355471701142e-05,0.3349343780013422,0,4,30.0
30,0.4072810285231646,5.736807592363809e-05,0.31866302079697506,1,4,30.0
31,0.40235171493361976,5.8301610004170524e-05,0.3143916508988616,1,4,30.0
32,0.3783519345171311,6.158684499335804e-05,0.32587256689861416,0,4,30.0
33,0.3860534643425661,6.13964166618911e-05,0.32356485491816567,0,4,30.0
34,0.378338467724183,6.0831368532757656e-05,0.33214101873847107,0,4,30.0
35,0.376933192505556,6.0873276037027076e-05,0.3353321307341337,0,4,30.0
36,0.37198508416905124,5.892236804356798e-05,0.3226892672794176,0,4,30.0
37,0.36743017400012296,6.304043713231188e-05,0.3212410616358728,0,4,30.0
38,0.35879617859335505,5.780904907356564e-05,0.32680869487962155,0,4,30.0
1,0.9085411206785455,0.00021941737090910683,0.6887702127849934,1,5,30.0
2,0.7769050253442971,0.00016523087570788787,0.6554861776884874,1,5,30.0
3,0.7526551571237036,0.00014961470703591582,0.6222565114332301,1,5,30.0
4,0.7251156834234674,0.00013877528273228398,0.5423954151373865,1,5,30.0
5,0.6991943946803909,0.00011779081364967355,0.5652783932801316,0,5,30.0
6,0.6705717430057296,0.000114542717119,0.5238176949616757,1,5,30.0
7,0.6507727877203241,9.62714623612161e-05,0.5386247531066714,0,5,30.0
8,0.6279413933495441,9.546796319633161e-05,0.5819113127720548,0,5,30.0
9,0.619540382939649,8.672222195099198e-05,0.5399831525174698,0,5,30.0
10,0.5994369398398571,8.663931903246992e-05,0.4974994874239113,1,5,30.0
11,0.5808508827025631,9.096875935456301e-05,0.5699209454487737,0,5,30.0
12,0.5692594808986388,8.23040509313143e-05,0.5123452720371153,0,5,30.0
13,0.5557764143828886,8.07830321981925e-05,0.5357790863689458,0,5,30.0
14,0.5457773366606379,7.761455357884034e-05,0.5630166085716358,0,5,30.0
15,0.5338946544980429,7.844237276354344e-05,0.49245617994397306,1,5,30.0
16,0.5126951814415943,7.463414141352861e-05,0.5638949994059137,0,5,30.0
17,0.5087048476000866,7.656865400130332e-05,0.4875616206228906,1,5,30.0
18,0.4958259452538318,7.814526622266374e-05,0.49039636260294134,0,5,30.0
19,0.4791546510644706,7.034418775723877e-05,0.4524361738797347,1,5,30.0
20,0.4714078583631171,7.370858455318059e-05,0.49401250781321676,0,5,30.0
21,0.4589114483580532,6.383445326215026e-05,0.4365410353518105,1,5,30.0
22,0.45858445332711,6.656783623466582e-05,0.4699009661617804,0,5,30.0
23,0.4339025674096073,6.747645037024315e-05,0.4838346747627839,0,5,30.0
24,0.4203511365206845,7.132637646387287e-05,0.44480968311078345,0,5,30.0
25,0.4163408387138183,7.315632025991757e-05,0.4597901845743429,0,5,30.0
26,0.4142246113484164,7.192528297660412e-05,0.41572504507089686,1,5,30.0
27,0.40748471488435584,6.574855990082317e-05,0.4344769035193507,0,5,30.0
28,0.3934295080512403,7.17813179425682e-05,0.47042147764828557,0,5,30.0
29,0.3883746528481863,7.534712367706529e-05,0.45715577121277284,0,5,30.0
30,0.3767339088112475,6.907477650366421e-05,0.4476404980744034,0,5,30.0
31,0.37710914141442403,7.056289506586639e-05,0.44040591728180617,0,5,30.0
32,0.36932620226618756,7.075070168932406e-05,0.46850349700586674,0,5,30.0
33,0.35983723940619505,6.649260800500142e-05,0.4362078626004648,0,5,30.0
1,0.9119923821715421,0.0002504489678168009,0.6993862168688605,1,6,30.0
2,0.8104639309783315,0.0001546697816973942,0.614144239803734,1,6,30.0
3,0.7633851544801579,0.00013788325431537382,0.5684052855258621,1,6,30.0
4,0.7363042602705401,0.0001337117052550406,0.6764832191820284,0,6,30.0
5,0.7080403753491336,0.00011471194848973239,0.6174829424496543,0,6,30.0
6,0.6766602383103482,0.0001129872716139585,0.5973583168059813,0,6,30.0
7,0.6631839268429335,0.00010798094284160302,0.6045354644827216,0,6,30.0
8,0.6391053726506788,9.843548523772476e-05,0.5791942291122488,0,6,30.0
9,0.6164853455022324,9.672785745351575e-05,0.594059572041742,0,6,30.0
10,0.6079925745725632,9.031234160004736e-05,0.572417418680434,0,6,30.0
1,0.9136039579198474,0.00022694937858129075,0.6000803683365838,1,7,30.0
2,0.8128642922356015,0.0001587845271431087,0.5469307589268534,1,7,30.0
3,0.7750106453895569,0.00012099215737613295,0.6129291723705341,0,7,30.0
4,0.7455588905584245,0.00011575286061131573,0.5700625082433771,0,7,30.0
5,0.7240190569843564,0.00010779659446381542,0.6683088472977201,0,7,30.0
6,0.6931395935160773,0.00011210216252081972,0.5798186032911632,0,7,30.0
7,0.6875582819893247,9.940549959234583e-05,0.4976516962556027,1,7,30.0
8,0.6625967267013732,9.602677956926138e-05,0.5144858043415569,0,7,30.0
9,0.6409444347733543,9.413491447741676e-05,0.4633149112920341,1,7,30.0
10,0.6223022487191927,8.735196960125384e-05,0.499693649788092,0,7,30.0
11,0.609763221016952,9.080371641868537e-05,0.45636790442218744,1,7,30.0
12,0.5917306748174486,7.790425535772339e-05,0.5007772375822759,0,7,30.0
13,0.5847039946487972,7.266956267163291e-05,0.42716757780870035,1,7,30.0
14,0.5567830502986908,7.420287459223931e-05,0.3822547585622781,1,7,30.0
15,0.5458157058982622,7.354226536768866e-05,0.35078258777103044,1,7,30.0
16,0.5379363564508302,7.315587087456758e-05,0.37354211230596945,0,7,30.0
17,0.5255130224284672,7.799414886124265e-05,0.31329857192872285,1,7,30.0
18,0.5148167734344801,7.679707617907774e-05,0.36848895568950313,0,7,30.0
19,0.4974416728530611,6.950580323713698e-05,0.32672458286584144,0,7,30.0
20,0.49408353510357084,6.847232197330977e-05,0.36984041152971636,0,7,30.0
21,0.4833594461282094,6.613832413547373e-05,0.31763089392343236,0,7,30.0
22,0.47684785085065023,5.99917404456175e-05,0.2813699793378743,1,7,30.0
23,0.45649387616486775,6.46892925336336e-05,0.2918691593715691,0,7,30.0
24,0.4476653780965578,5.809678987134248e-05,0.2977648531836937,0,7,30.0
25,0.4537988468295052,6.800030011315054e-05,0.29429524589057815,0,7,30.0
26,0.4378799189414297,6.1003621037040524e-05,0.2802671821122015,1,7,30.0
27,0.4346017564336459,5.9065446120733946e-05,0.29699989038429,0,7,30.0
28,0.42390636319205877,6.062875384789853e-05,0.26720330478865917,1,7,30.0
29,0.42160701255003613,6.253000633261676e-05,0.28800894787880205,0,7,30.0
30,0.40867185592651367,6.106084722324297e-05,0.27145709926789663,0,7,30.0
31,0.40224703968990416,6.286429786649976e-05,0.2921660002348039,0,7,30.0
32,0.39684668236545156,6.471895999094981e-05,0.26949992943888534,0,7,30.0
33,0.39085076323577334,6.168799509829288e-05,0.2788308544033065,0,7,30.0
34,0.3831903583237103,6.279679044902358e-05,0.27115082496936677,0,7,30.0
35,0.388509149707499,6.645788159533237e-05,0.2656779572994858,1,7,30.0
36,0.3803818527431715,6.210090374398056e-05,0.2677228185769493,0,7,30.0
37,0.3862187594530128,6.240232345416665e-05,0.2620460291072748,1,7,30.0
38,0.37689063431961195,6.217976143878852e-05,0.2667152678001948,0,7,30.0
39,0.3758161582407497,6.336002657224613e-05,0.27038289060844106,0,7,30.0
40,0.38400540465400335,5.8914588321169415e-05,0.2660463774080258,0,7,30.0
1,0.9190128280455807,0.00022226203890820314,0.6205526255783224,1,8,30.0
2,0.8108972727534283,0.00012890263744601868,0.6891586398189162,0,8,30.0
3,0.7647649114390453,0.00011364611129399883,0.624834508495731,0,8,30.0
4,0.7285055252442877,0.00010319497302687918,0.5973853502240214,1,8,30.0
5,0.7162647843360901,9.774988145828359e-05,0.5273711344439944,1,8,30.0
6,0.6931406101548528,9.415230604382344e-05,0.5275992291234868,0,8,30.0
7,0.679802524038108,8.774370915664595e-05,0.5380600031994995,0,8,30.0
8,0.6530357182744038,8.16012587779095e-05,0.5264975773982513,1,8,30.0
9,0.6479871086327427,8.51614199472165e-05,0.5304786405780099,0,8,30.0
10,0.6304551090102598,7.169688356646157e-05,0.4955437917184163,1,8,30.0
11,0.604706613773323,7.873231739525302e-05,0.5232985873113979,0,8,30.0
12,0.6112674489078751,7.393820571056735e-05,0.471244303260372,1,8,30.0
13,0.5790580342333,7.693565387316665e-05,0.4654070209842045,1,8,30.0
14,0.5721889931753458,7.225885600341114e-05,0.4502353037709679,1,8,30.0
15,0.5445275601134243,7.294502982579407e-05,0.44160855407967714,1,8,30.0
16,0.5485151902020696,7.238686280233886e-05,0.41874085982918463,1,8,30.0
17,0.534764697034675,6.971439178009147e-05,0.42679523208758213,0,8,30.0
18,0.5098685119525496,6.961609078753537e-05,0.42734831031455306,0,8,30.0
19,0.5080652718084404,6.688722320418547e-05,0.4096864971594933,1,8,30.0
20,0.4925575112722006,6.596228821905812e-05,0.39468016430631386,1,8,30.0
21,0.4791238322315446,6.600007393252924e-05,0.4018510201455274,0,8,30.0
22,0.47642432781587163,6.647861879304927e-05,0.4239826063592951,0,8,30.0
23,0.46764810903962833,6.699486179256262e-05,0.41305095118346746,0,8,30.0
24,0.4598532426788146,6.613874581697851e-05,0.41612903264053774,0,8,30.0
25,0.44650908694209823,6.738759602521018e-05,0.4256011092058429,0,8,30.0
26,0.44519265049911405,6.031452375534271e-05,0.43216519514337565,0,8,30.0
27,0.4296262558684292,6.30987832040094e-05,0.39798582464734433,0,8,30.0
1,0.9016341694763729,0.0002177395706981077,0.6529296938237285,1,9,30.0
2,0.7857923741851535,0.0001613544024751588,0.6459081910112109,1,9,30.0
3,0.7410231104918888,0.00015055009264740095,0.6385466292907792,1,9,30.0
4,0.7230153502452941,0.00013064923768979497,0.6260976242486317,1,9,30.0
5,0.6886993852399644,0.00012070514718029049,0.5740799863323499,1,9,30.0
6,0.6776161655074074,0.00011678923883231445,0.5511637700841333,1,9,30.0
7,0.6637484303542546,0.00010719057817844995,0.553938394313785,0,9,30.0
8,0.6550738648289726,0.00010345628297294578,0.5304091177519334,1,9,30.0
9,0.6377541139012292,9.081498276264894e-05,0.5342577473668446,0,9,30.0
10,0.6204936121191297,8.648059931493619e-05,0.5560586123455044,0,9,30.0
11,0.609817508430708,8.462713529817327e-05,0.4968040262066182,1,9,30.0
12,0.6000228141035352,7.65286507712084e-05,0.5172751184623543,0,9,30.0
13,0.579605003907567,8.040412718574295e-05,0.5572932217801272,0,9,30.0
14,0.5690499451898393,7.188598941692839e-05,0.4775498925307589,1,9,30.0
15,0.5492252941642489,7.663532722376875e-05,0.46944861331800025,1,9,30.0
16,0.5407520046546346,7.867841941333609e-05,0.4944298036178178,0,9,30.0
17,0.5238606752384276,7.478728201974827e-05,0.4779544144619336,0,9,30.0
18,0.5214265088240305,7.017038877252379e-05,0.46184140240887767,1,9,30.0
19,0.5114514160723913,6.301174085993331e-05,0.41758304487797343,1,9,30.0
20,0.5003072874886649,6.638872335835393e-05,0.45936436344436227,0,9,30.0
21,0.4873828036444528,6.560440475108667e-05,0.43549223757162964,0,9,30.0
22,0.47761958376282737,6.424522550895788e-05,0.4287292182893185,0,9,30.0
23,0.46178851808820454,6.373846597506643e-05,0.43905348194236976,0,9,30.0
24,0.4568746547613825,5.719480811551746e-05,0.4075016576014285,1,9,30.0
25,0.45328005651632947,5.7136419161993434e-05,0.4053096727978799,1,9,30.0
26,0.43717952853157405,5.630080643944287e-05,0.3936125014281844,1,9,30.0
27,0.44083944069487707,6.0102858047425146e-05,0.3887202416236355,1,9,30.0
28,0.42643687022583826,5.7818829364329025e-05,0.3968216505711653,0,9,30.0
29,0.4173241073176974,6.227270183617726e-05,0.38847540330982977,1,9,30.0
30,0.40515160879918505,6.123435681123131e-05,0.3862614229278365,1,9,30.0
31,0.4089780017023995,6.119267553523449e-05,0.3937511393574255,0,9,30.0
32,0.3962164691516331,6.428063131482174e-05,0.3857328774431815,1,9,30.0
33,0.38204241331134525,6.255025601560538e-05,0.38990961784316647,0,9,30.0
34,0.3932463063725403,6.420358637288224e-05,0.3782220143743173,1,9,30.0
35,0.38071397301696597,6.515511653387442e-05,0.3821108899166639,0,9,30.0
36,0.3797260221271288,6.0695993419185036e-05,0.37950848314770774,0,9,30.0
37,0.3702971653214523,6.385741800754441e-05,0.3758234025245889,1,9,30.0
38,0.37382934987545013,6.458283678512089e-05,0.3711256089706751,1,9,30.0
39,0.37617099072252,6.517511827128363e-05,0.3682003103965346,1,9,30.0
40,0.3706246447705087,6.321846220609067e-05,0.37051257456620024,0,9,30.0
1,0.919888528655557,0.00024391685780274737,0.6383496336871698,1,10,30.0
2,0.8028056298985201,0.0001525410421891138,0.6802626427324123,0,10,30.0
3,0.7841908917707555,0.00011910835806595381,0.667658433894244,0,10,30.0
4,0.7612625921473783,0.00012005589823649429,0.592212991457286,1,10,30.0
5,0.7403395996374242,0.00011332698923069984,0.5761186839366248,1,10,30.0
6,0.7094897389411926,0.00011292986652252318,0.6242591370684181,0,10,30.0
7,0.7002848996835597,0.00010467007266604068,0.5836000883885347,0,10,30.0
8,0.6703543109052321,0.0001022861861736815,0.5464544617501833,1,10,30.0
9,0.6658088536823497,9.880407126141055e-05,0.5490723196101884,0,10,30.0
10,0.6442304569132188,8.661300170762629e-05,0.5323055644370024,1,10,30.0
11,0.6276723654831157,9.01991941859973e-05,0.5773431752313514,0,10,30.0
12,0.6066769175669726,8.60270146992715e-05,0.5498282803487798,0,10,30.0
13,0.5908212265547584,8.396524178405183e-05,0.5603559956968556,0,10,30.0
14,0.5699281503172482,8.377421292928322e-05,0.527862945898026,1,10,30.0
15,0.5702206155833076,7.399214399115676e-05,0.528041583641445,0,10,30.0
16,0.5466183946413152,7.757945170263103e-05,0.49060294199563986,1,10,30.0
17,0.5351353441967683,7.431805369218209e-05,0.5218546414903984,0,10,30.0
18,0.5125906488474677,7.440678125610302e-05,0.5270584479640646,0,10,30.0
19,0.5112079851767596,6.940108257421183e-05,0.4959350378914263,0,10,30.0
20,0.5030378089231603,6.762620417729896e-05,0.526840696439018,0,10,30.0
21,0.4929309497861301,6.590757843428839e-05,0.5147614220729007,0,10,30.0
22,0.4742358162122614,7.18835964696208e-05,0.5361605867555821,0,10,30.0
23,0.471633097003488,6.434046740383457e-05,0.4864328524113985,1,10,30.0
24,0.4513007847701802,6.965454860405503e-05,0.5234852943691141,0,10,30.0
25,0.4462016919079949,6.694739880485406e-05,0.4849256009893457,1,10,30.0
26,0.44528395463438597,7.481879198595005e-05,0.518460534999586,0,10,30.0
27,0.4342028400477241,6.858798562247745e-05,0.47859507888431624,1,10,30.0
28,0.41372700754333946,6.751658049110761e-05,0.4929976750271183,0,10,30.0
29,0.41020226198084214,7.240435819874299e-05,0.47392202545126766,1,10,30.0
30,0.41450568332391624,6.880568060510354e-05,0.5002422658025384,0,10,30.0
31,0.39376202330869786,7.132979688535937e-05,0.49328209894891867,0,10,30.0
32,0.3989455547402887,6.485674692906769e-05,0.49580318118393807,0,10,30.0
33,0.3912346948595608,6.692691073540653e-05,0.5059573092762919,0,10,30.0
34,0.3742829340345719,6.859125150025219e-05,0.497537642066454,0,10,30.0
35,0.37348755843499126,6.896781402140144e-05,0.49395131544072174,0,10,30.0
36,0.38522879691684947,6.839139755089383e-05,0.4762570772115176,0,10,30.0
1,0.9061641168026697,0.00023583457230069187,0.5890667589241166,1,11,30.0
2,0.8138925497020993,0.00012819046163973065,0.5901948272088672,0,11,30.0
3,0.7698505776269096,0.0001133834263046516,0.5355640155076278,1,11,30.0
4,0.734846518153236,0.00011860776712204651,0.5313644143110121,1,11,30.0
5,0.7085239525352206,0.0001100356648748857,0.5239507493759191,1,11,30.0
6,0.6972639461358389,0.00010102079626709124,0.4849571507730822,1,11,30.0
7,0.6782795595271247,8.835311971432973e-05,0.5005896710690729,0,11,30.0
8,0.6608285016956783,8.613861813327752e-05,0.4757798432628904,1,11,30.0
9,0.6322945136399496,8.566865012870126e-05,0.45385744678760426,1,11,30.0
10,0.6191604187091192,8.515861515791454e-05,0.4740257206693464,0,11,30.0
11,0.6041446001756758,8.454299976230166e-05,0.4480884561548504,1,11,30.0
12,0.5850660942849659,7.720155627750847e-05,0.44742844279110255,1,11,30.0
13,0.5743890649506024,8.088900302114088e-05,0.4872390619312365,0,11,30.0
14,0.5640453054081827,7.937061079809653e-05,0.4150033372736225,1,11,30.0
15,0.5520970902982212,6.894411087289752e-05,0.4343563643338848,0,11,30.0
16,0.5359362477347964,7.028660786004149e-05,0.4538399793814466,0,11,30.0
17,0.5286419409371558,6.506902172986884e-05,0.42412275132595945,0,11,30.0
18,0.5085774234363011,6.970972342623143e-05,0.4275727874502069,0,11,30.0
19,0.5068415534638223,6.820313397578761e-05,0.4328247354534837,0,11,30.0
20,0.4928494000009128,6.449550636759904e-05,0.4151922038600981,0,11,30.0
21,0.48080109982263475,6.346221692053535e-05,0.41000199576830576,1,11,30.0
22,0.47345720834675287,6.479621905392767e-05,0.40494086696034925,1,11,30.0
23,0.4652621015196755,6.270990901871951e-05,0.40411850555019296,1,11,30.0
24,0.45647493324109484,6.88762427324989e-05,0.40743761646488164,0,11,30.0
25,0.4392701940877097,6.986515542112535e-05,0.3874366621641294,1,11,30.0
26,0.4300841834573519,7.210208769677029e-05,0.4012043074073938,0,11,30.0
27,0.4402594811150006,6.373348831056362e-05,0.39197416194433604,0,11,30.0
28,0.4224427090514274,7.047822158970771e-05,0.40742307810557077,0,11,30.0
29,0.4176647333162172,6.824563617902597e-05,0.39242458375758316,0,11,30.0
30,0.39959088145267396,6.771957534857349e-05,0.38121619831052667,1,11,30.0
31,0.40300636028959635,6.640351676608025e-05,0.3827044682989855,0,11,30.0
32,0.39626507957776386,6.858270115203812e-05,0.3851996924557665,0,11,30.0
33,0.3938440144771621,6.557891321703902e-05,0.38151530313144516,0,11,30.0
34,0.3841728417291528,6.29652679760641e-05,0.37627724293943676,1,11,30.0
35,0.3840531472648893,6.964854002858157e-05,0.3843521177628097,0,11,30.0
36,0.3763835181792577,6.701486372982064e-05,0.3829068800069323,0,11,30.0
37,0.3879056984470004,6.882045268173984e-05,0.37842730305452665,0,11,30.0
38,0.37518424203708056,6.526233647448299e-05,0.3785850678010984,0,11,30.0
39,0.36752220651223544,6.897315446015757e-05,0.3824089079924801,0,11,30.0
40,0.375003881752491,6.845626960836983e-05,0.3792787676676668,0,11,30.0
1,0.9426190116826225,0.00017880273063543856,0.5712635319715418,1,12,30.0
2,0.8257704601568334,0.00012784329446731136,0.5454882093867841,1,12,30.0
3,0.7990157260614283,0.0001129489359942347,0.5991733673357449,0,12,30.0
4,0.7728885236908408,0.00010715580249191535,0.48319396112611346,1,12,30.0
5,0.7507938356960521,9.689282100332681e-05,0.5245839831117309,0,12,30.0
6,0.7333577773150276,9.529577407246346e-05,0.45663100464174206,1,12,30.0
7,0.7174399964949664,9.61789903265205e-05,0.42562528445791786,1,12,30.0
8,0.6847481166615206,9.099474687793511e-05,0.42915739482673404,0,12,30.0
9,0.6775026700075935,9.739806016167517e-05,0.43399732581567996,0,12,30.0
10,0.6616361309500302,8.622092594604885e-05,0.4496111656889017,0,12,30.0
11,0.6414913142428679,8.074197390027728e-05,0.423110463271168,1,12,30.0
12,0.6214534738484551,8.212291774244103e-05,0.3997505276832001,1,12,30.0
13,0.6070903108400457,7.927531469784512e-05,0.3966301641735665,1,12,30.0
14,0.5929938526714549,7.984060233438333e-05,0.3559593637932478,1,12,30.0
15,0.575965980571859,7.573868163436761e-05,0.35143233238156396,1,12,30.0
16,0.5637084722518921,8.227792397305807e-05,0.3419526169978429,1,12,30.0
17,0.5556425049024469,7.116193395203856e-05,0.33312935302621693,1,12,30.0
18,0.5380637210958145,6.602044848156819e-05,0.3428378555723498,0,12,30.0
19,0.5358790629050311,6.917500474681968e-05,0.32342844571957524,1,12,30.0
20,0.5195043518262751,6.185627280501649e-05,0.28024190704140206,1,12,30.0
21,0.49842293718281916,6.789641441119945e-05,0.3014462091551706,0,12,30.0
22,0.4963992318686317,6.768449345733696e-05,0.3122386937373308,0,12,30.0
23,0.48391269550603977,7.109583072152043e-05,0.2654364676195357,1,12,30.0
24,0.4902534407727859,5.953574796234641e-05,0.27450385731116883,0,12,30.0
25,0.46809549191418814,6.144025006934123e-05,0.30147163504406554,0,12,30.0
26,0.4598183197133681,6.66059973916751e-05,0.2918884117231942,0,12,30.0
27,0.4583620029337266,6.921653505688643e-05,0.27103111281891384,0,12,30.0
28,0.4355495537028593,6.585640401360305e-05,0.25926793763817785,1,12,30.0
29,0.4393973897485172,6.160471067928216e-05,0.25871984409271337,1,12,30.0
30,0.434088854228749,6.128593496909803e-05,0.2739846528584162,0,12,30.0
31,0.42848414007355184,5.770080995930852e-05,0.2658252651482537,0,12,30.0
32,0.41718702631838184,5.885693411555086e-05,0.26602264982618257,0,12,30.0
33,0.41822678201338825,6.1205325233887e-05,0.28656482489146895,0,12,30.0
34,0.41008655253578635,6.246805620749536e-05,0.25723213394378197,1,12,30.0
35,0.401188840936212,5.8302059572751576e-05,0.2502752837846398,1,12,30.0
36,0.40223375839345593,6.293418067370487e-05,0.25335138130479956,0,12,30.0
37,0.39750996407340555,5.913652682519408e-05,0.25014339813684305,1,12,30.0
38,0.3878611824091743,5.920307697070872e-05,0.2575637240908268,0,12,30.0
39,0.4015995467410368,6.177211972124711e-05,0.25807471714643715,0,12,30.0
40,0.389458822853425,6.18866816854707e-05,0.25002788277675786,1,12,30.0
1,0.9189698887722832,0.0002057568595080825,0.7259490567233198,1,13,30.0
2,0.8114265224763325,0.00014259748344816865,0.6548219287363003,1,13,30.0
3,0.7645942306234723,0.00011841290623643934,0.6420475204372359,1,13,30.0
4,0.7294959198860895,0.000106644171821591,0.6666816751878116,0,13,30.0
5,0.703348234295845,0.00011598001981924643,0.6402605612452754,1,13,30.0
6,0.6748600360893068,9.577278688950519e-05,0.611395779722188,1,13,30.0
7,0.656908759758586,9.07325177953074e-05,0.6569077208815323,0,13,30.0
8,0.6418656795507386,9.407432861778597e-05,0.5970242989497234,1,13,30.0
9,0.6297161536557334,8.0442350303028e-05,0.5823471953353414,1,13,30.0
10,0.6051573590153739,8.055384330960113e-05,0.5670012333690972,1,13,30.0
11,0.5928891737546239,7.872768713111457e-05,0.5613240530366588,1,13,30.0
12,0.5806158621396337,7.450259930746619e-05,0.5511070407591225,1,13,30.0
13,0.5651803037949971,7.741865378886273e-05,0.5545735800765186,0,13,30.0
14,0.5435479343647048,7.769737207819985e-05,0.5498841663996895,1,13,30.0
15,0.5469831146654629,7.503475323270929e-05,0.5755418468794429,0,13,30.0
16,0.5253674650476092,7.292388593105854e-05,0.49662327503120324,1,13,30.0
17,0.5129019011344228,7.074971472320613e-05,0.5141722467350172,0,13,30.0
18,0.4991321989468166,6.568098706338787e-05,0.49720203951407094,0,13,30.0
19,0.4820044274841036,6.813959697908667e-05,0.4891657072131869,1,13,30.0
20,0.466886447653884,7.29833367846108e-05,0.4890785250174359,1,13,30.0
21,0.4579301905773935,7.254284805856601e-05,0.487758456679073,1,13,30.0
22,0.448907233774662,7.250806213830532e-05,0.4648873067510311,1,13,30.0
23,0.4394454619004613,7.174183212468744e-05,0.4684715984382728,0,13,30.0
24,0.43803677565994714,6.615903818047151e-05,0.4693005887875467,0,13,30.0
25,0.4211539906405267,6.819103691668715e-05,0.45707816067287804,1,13,30.0
26,0.41308312650237766,6.487212470217076e-05,0.4557441378606427,1,13,30.0
27,0.4147647051584153,6.473259171408634e-05,0.45954690322717223,0,13,30.0
28,0.4023720927181698,6.82471724021958e-05,0.46761793279056285,0,13,30.0
29,0.397174800435702,6.41811824434193e-05,0.4784547445876778,0,13,30.0
30,0.3892355994099662,6.456792102870254e-05,0.4620729330498144,0,13,30.0
31,0.3881528129180272,6.547385453900678e-05,0.46668185261846207,0,13,30.0
32,0.3821890524455479,6.429613300237438e-05,0.4696785958101876,0,13,30.0
33,0.37038386719567434,6.121130263636587e-05,0.47115702454301467,0,13,30.0
1,0.9376315523596371,0.0002399456190794487,0.5586080890913673,1,14,30.0
2,0.8303958359886618,0.0001550397522377727,0.5489111416426715,1,14,30.0
3,0.7823384362108567,0.0001406012459911461,0.44743546632544096,1,14,30.0
4,0.7549660184804131,0.0001219582869346007,0.4456792655231937,1,14,30.0
5,0.7189991193659165,0.000120131581378005,0.40414006524626783,1,14,30.0
6,0.704664275225471,0.00011467857222990406,0.3992831386911948,1,14,30.0
7,0.6835318340974695,0.00010159503131837803,0.4165793743966431,0,14,30.0
8,0.6647535071653479,0.00010295921263819122,0.41699426476923834,0,14,30.0
9,0.6539125049815459,9.163070186760332e-05,0.3831932883339607,1,14,30.0
10,0.6500798498882967,8.938052483512472e-05,0.39350509220795915,0,14,30.0
11,0.6210578806260053,9.217054256998167e-05,0.38630434381646034,0,14,30.0
12,0.609566029029734,8.719084229703774e-05,0.36019607135002185,1,14,30.0
13,0.5984637200832367,7.973699428154814e-05,0.35654619140340793,1,14,30.0
14,0.5874668100300957,7.867944604025551e-05,0.34006992700380206,1,14,30.0
15,0.5769292277448318,7.620472884702716e-05,0.35011282983698594,0,14,30.0
16,0.563571496220196,7.278318906387808e-05,0.36270994208703766,0,14,30.0
17,0.5546482790918911,7.292968858725062e-05,0.33943019353396053,1,14,30.0
18,0.5287910317673402,7.552426215946017e-05,0.33655740943176066,1,14,30.0
19,0.5173584485755247,8.016545449636931e-05,0.2958602215616119,1,14,30.0
20,0.5152796601547914,7.166079885791987e-05,0.3063054080840373,0,14,30.0
21,0.4990532405236188,7.04668541028e-05,0.28546750777900615,1,14,30.0
22,0.49226676190600677,7.644041534684434e-05,0.2864192399076673,0,14,30.0
23,0.4849376278765061,7.641702138832496e-05,0.2878804553541916,0,14,30.0
24,0.473661247772329,6.872966289794182e-05,0.28213004014053883,1,14,30.0
25,0.4558633376570309,6.542826993288198e-05,0.26332813952438877,1,14,30.0
26,0.4499686469050015,6.904401914867135e-05,0.2726264840137485,0,14,30.0
27,0.44582307443899266,6.219395213787827e-05,0.29914587609321863,0,14,30.0
28,0.4399668434086968,6.247950445600402e-05,0.2832153393012404,0,14,30.0
29,0.428049568568959,6.65633380669854e-05,0.26057287529703005,1,14,30.0
30,0.4183733326547286,7.013871432076592e-05,0.28320164787897606,0,14,30.0
31,0.4226437161950504,6.983750966302229e-05,0.2578928736646641,1,14,30.0
32,0.41392368954770703,7.065137534107849e-05,0.2672371237576995,0,14,30.0
33,0.4103400247938493,6.086757232825381e-05,0.2611888597693467,0,14,30.0
34,0.39807701180962957,6.385428115369423e-05,0.2731154784570072,0,14,30.0
35,0.3945099448456484,6.765577122945722e-05,0.2689268683459585,0,14,30.0
36,0.3968699244891896,6.89916845979443e-05,0.25612174127028875,1,14,30.0
37,0.3884967022082385,6.366479009396725e-05,0.2589748372561884,0,14,30.0
38,0.3962194470798268,6.91644915016642e-05,0.2526081209930758,1,14,30.0
39,0.3833045107476852,6.734740895541001e-05,0.25377215643592227,0,14,30.0
40,0.3936908262617448,6.653634940020685e-05,0.25453333567408537,0,14,30.0
1,0.9228074515149707,0.00019315290341009606,0.5654613370519351,1,15,30.0
2,0.8142830835921424,0.0001562063859767347,0.5188307476138133,1,15,30.0
3,0.7712762774456114,0.00011540205611839025,0.49490076578320213,1,15,30.0
4,0.7560405312549501,0.00011146549288588132,0.5380480901855023,0,15,30.0
5,0.722853251865932,9.981825830133555e-05,0.47047644567478347,1,15,30.0
6,0.6968239623875845,9.935608146146738e-05,0.5189474190055239,0,15,30.0
7,0.6855363122054509,9.391470069074006e-05,0.512316945900616,0,15,30.0
8,0.6611799895763397,9.002468383793409e-05,0.46774498537644393,1,15,30.0
9,0.6438023490565163,9.20337489289869e-05,0.4203481956484837,1,15,30.0
10,0.6255323475315457,9.535430022619298e-05,0.43148346481015426,0,15,30.0
11,0.6215063219978696,8.453463708844668e-05,0.4832981108463411,0,15,30.0
12,0.6007217363942237,7.960033473777695e-05,0.49712271614717685,0,15,30.0
13,0.5877427182027272,8.156053098944194e-05,0.4168137903797638,1,15,30.0
14,0.5892247891142255,7.250694618830624e-05,0.3848217164551001,1,15,30.0
15,0.5698486846827325,7.361647259954008e-05,0.45769011731208653,0,15,30.0
16,0.5546913129233179,7.217612099858732e-05,0.3973091391577425,0,15,30.0
17,0.5359498514305978,7.062465170920838e-05,0.36588691833846804,1,15,30.0
18,0.5173546373844147,6.774291172665212e-05,0.4157071931520642,0,15,30.0
19,0.5271593066198486,6.905193346201919e-05,0.38397022346587406,0,15,30.0
20,0.49594248370045707,6.962468809693487e-05,0.374785905774814,0,15,30.0
21,0.49253744702963603,6.769103930266629e-05,0.3702685886588354,0,15,30.0
22,0.4897133558988571,6.485206787536819e-05,0.3495380417865539,1,15,30.0
23,0.46747358036892755,6.519375286491898e-05,0.3392832214503839,1,15,30.0
24,0.4636165283265568,6.647306197139966e-05,0.3184897445620593,1,15,30.0
25,0.4548142020191465,6.965404255814584e-05,0.3234724863600818,0,15,30.0
26,0.44555292846191497,6.741581957959126e-05,0.33958486212141326,0,15,30.0
27,0.4351366176491692,6.859940631762757e-05,0.3098534793251864,1,15,30.0
28,0.424176271827448,6.467855928349309e-05,0.32548023460419234,0,15,30.0
29,0.4237204222452073,6.809460566208665e-05,0.32971876464056527,0,15,30.0
30,0.4205100287993749,6.764770270300298e-05,0.30964552982232196,1,15,30.0
31,0.41478920940841946,6.312266946008007e-05,0.2961924835347162,1,15,30.0
32,0.41129272573051,6.574944399333271e-05,0.3123425004819263,0,15,30.0
33,0.4024264773442632,6.775145664592163e-05,0.3118414136324123,0,15,30.0
34,0.39994243248587563,6.80534957653089e-05,0.29941336949241165,0,15,30.0
35,0.3896854654664085,7.040379378373646e-05,0.30861729760225937,0,15,30.0
36,0.3880974551041921,7.105003762609115e-05,0.3151551354271275,0,15,30.0
37,0.38684705999635516,7.2884182156399e-05,0.31267117717245857,0,15,30.0
38,0.3879306413942859,7.305098153578693e-05,0.3098356640549959,0,15,30.0
1,0.9281108457417715,0.00019840134899866478,0.598340509632821,1,16,30.0
2,0.825068385828109,0.00013376423114442289,0.5683934277730432,1,16,30.0
3,0.7729258714687257,0.00012084337764203415,0.5611459355846591,1,16,30.0
4,0.7541603524060476,0.00010637610167967588,0.5441829096450497,1,16,30.0
5,0.725132894657907,0.00010106194340984249,0.547120208380676,0,16,30.0
6,0.7065301076287315,9.159427134450415e-05,0.5304879570900187,1,16,30.0
7,0.6813420291457858,8.990435357450874e-05,0.4863624673502648,1,16,30.0
8,0.6748273819684982,8.839290140236873e-05,0.4730015129816194,1,16,30.0
9,0.6535733037051701,7.650472473739813e-05,0.4446334473879231,1,16,30.0
10,0.6435763268243699,7.677066072834091e-05,0.4683582878667816,0,16,30.0
11,0.6280806610981623,7.801935282172745e-05,0.47943577725395015,0,16,30.0
12,0.6061612406656856,7.148699478420895e-05,0.4201714295728004,1,16,30.0
13,0.5886813004811605,7.187660845548158e-05,0.44356582727026844,0,16,30.0
14,0.585881260179338,7.348978033405729e-05,0.4677223678421878,0,16,30.0
15,0.57137457352309,6.838415061966294e-05,0.41906556855087823,1,16,30.0
16,0.5658246920931906,6.861117530899632e-05,0.403837928525832,1,16,30.0
17,0.5483576407035192,6.668990740113909e-05,0.434527909405801,0,16,30.0
18,0.5296227204657736,6.444239157385059e-05,0.39987679163695344,1,16,30.0
19,0.5222339757851192,5.829400171413519e-05,0.3784435048759708,1,16,30.0
20,0.5069621396916253,6.163515757050066e-05,0.4172678995832258,0,16,30.0
21,0.4910179731391725,6.14095245379888e-05,0.3712713388416931,1,16,30.0
22,0.4847929413829531,5.624762516596266e-05,0.3966112873452878,0,16,30.0
23,0.4760329066997483,6.179200759756245e-05,0.3783867502743416,0,16,30.0
24,0.4660110363648051,6.598475517551248e-05,0.4117555954919653,0,16,30.0
25,0.4698773108067967,6.54777544089787e-05,0.3461075083688203,1,16,30.0
26,0.45637777021953035,5.9088904847504596e-05,0.35909861368447665,0,16,30.0
27,0.45034758533750263,5.998056678349496e-05,0.35316381437575767,0,16,30.0
28,0.4466018265201932,5.8028137703201666e-05,0.3323840504957114,1,16,30.0
29,0.43015702281679424,6.122783192300371e-05,0.31955048484116916,1,16,30.0
30,0.41967140173628215,6.131217222511103e-05,0.33565513041579287,0,16,30.0
31,0.42009585882936207,6.328730194668641e-05,0.3327664215313761,0,16,30.0
32,0.412072017788887,6.043331826991302e-05,0.3336783849638001,0,16,30.0
33,0.399302391069276,6.11624803544449e-05,0.31608981153501675,1,16,30.0
34,0.4063615014865285,6.0886607614173995e-05,0.32283500808211957,0,16,30.0
35,0.39315833151340485,6.24386820640038e-05,0.3239001310185382,0,16,30.0
36,0.388195680365676,6.553657316371322e-05,0.31514655831854355,1,16,30.0
37,0.40077605063006994,6.376385625203728e-05,0.3113382221595478,1,16,30.0
38,0.39016065320798327,6.634746404458946e-05,0.31621453310796604,0,16,30.0
39,0.3874589020297641,6.529619319432338e-05,0.3174373030300565,0,16,30.0
40,0.38196031465416863,6.848013098143773e-05,0.31722734940920766,0,16,30.0
1,0.925024172379857,0.0002139288285217758,0.6157519984990358,1,17,30.0
2,0.8148391339040938,0.00012790804677414208,0.882809467613697,0,17,30.0
3,0.7653386358703885,0.00012207156119291627,0.5976457614451647,1,17,30.0
4,0.7528426122097742,0.0001080786623788299,0.5763199329376221,1,17,30.0
5,0.7222995715481895,0.00011326975033755713,0.5270884083583951,1,17,30.0
6,0.6962397992610931,0.00010362384935953222,0.5228397762402892,1,17,30.0
7,0.6874094846702757,9.850954601071342e-05,0.6557347662746906,0,17,30.0
8,0.6613104627245948,9.207786920991825e-05,0.6239071674644947,0,17,30.0
9,0.6425467474120004,9.374084341592e-05,0.48309862427413464,1,17,30.0
10,0.6216100152759325,9.089117529150652e-05,0.4963245955295861,0,17,30.0
11,0.6007753525461469,8.174050682490426e-05,0.491655764169991,0,17,30.0
12,0.5976898833399727,7.525671039080148e-05,0.4411178436130285,1,17,30.0
13,0.5812890707027345,7.316849756274937e-05,0.4268165386747569,1,17,30.0
14,0.5686691896546454,7.249063123925312e-05,0.45845740265212953,0,17,30.0
15,0.554850507350195,7.311409851917276e-05,0.4974792245775461,0,17,30.0
16,0.5286781355029061,7.095026363198745e-05,0.38371890678536147,1,17,30.0
17,0.5224808252283505,7.213897264418414e-05,0.4644509127829224,0,17,30.0
18,0.5057227104192689,6.24397649690287e-05,0.43102449737489223,0,17,30.0
19,0.503129865087214,6.540546231311357e-05,0.4714377555064857,0,17,30.0
20,0.4920743540638969,6.170467947543199e-05,0.42479168926365674,0,17,30.0
21,0.4769147120061375,6.04812082764554e-05,0.4418634825851768,0,17,30.0
22,0.47185177107652027,6.056647821207575e-05,0.415376320714131,0,17,30.0
23,0.4643069601484707,5.8482974422769897e-05,0.39584517502225935,0,17,30.0
1,0.9172398282820919,0.0002263501706934276,0.6409604532889998,1,18,30.0
2,0.8124398524502674,0.00016085696350558694,0.5942823790003291,1,18,30.0
3,0.7705792921135225,0.00013212140958829144,0.7004512407344068,0,18,30.0
4,0.738021791699421,0.00011370667864439492,0.5538950417734974,1,18,30.0
5,0.7207566219640066,0.00010733312991355176,0.6468219747281287,0,18,30.0
6,0.6889048204364547,0.00010599062403913655,0.4857030287489974,1,18,30.0
7,0.674012599221195,9.832386987624657e-05,0.713980679755034,0,18,30.0
8,0.6550694700465145,9.768344425099778e-05,0.5334106143257774,0,18,30.0
9,0.6367811488817974,9.311144945004124e-05,0.6182640611761442,0,18,30.0
10,0.6206917145166052,8.092900938515731e-05,0.48579123201869695,0,18,30.0
11,0.6086750120283609,7.764491391457976e-05,0.49576291492311203,0,18,30.0
12,0.5937962751072573,8.174344698803118e-05,0.4741959472030695,1,18,30.0
13,0.5782433999590126,6.964828440160714e-05,0.4764507571790856,0,18,30.0
14,0.5540480814784406,8.26495162040242e-05,0.46849476935551054,1,18,30.0
15,0.549861792340336,7.568954830078958e-05,0.5342215303525839,0,18,30.0
16,0.5291741709393191,7.291949292398002e-05,0.46167348685708054,1,18,30.0
17,0.5220530413719545,7.167014354560804e-05,0.4548081903879829,1,18,30.0
18,0.5048908691808401,6.650340206344635e-05,0.5093951906716673,0,18,30.0
19,0.4984205936092928,6.999635052234663e-05,0.44129775287456613,1,18,30.0
20,0.4853225709444069,6.890861094502889e-05,0.4487268994144567,0,18,30.0
21,0.48708745047270535,6.997405707587891e-05,0.4846731409073548,0,18,30.0
22,0.46499798635402356,6.83962796055235e-05,0.447895182472487,0,18,30.0
23,0.4566771459866719,6.588552669090421e-05,0.42465078651541105,1,18,30.0
24,0.43715908979795065,7.448848471934739e-05,0.4124933915792804,1,18,30.0
25,0.42634930955358297,7.087461015171686e-05,0.42005027457546773,0,18,30.0
26,0.4247736302484949,7.156518974175946e-05,0.43518350079844625,0,18,30.0
27,0.4162186531417341,7.010826264004537e-05,0.4099003951445383,1,18,30.0
28,0.4111584363931633,6.959607511028053e-05,0.3957310090984969,1,18,30.0
29,0.40997132120362245,7.503764770142397e-05,0.4021276540462822,0,18,30.0
30,0.4026063102555562,7.039560559093503e-05,0.43019094234511795,0,18,30.0
31,0.39515404744320604,7.06213885491871e-05,0.414453289594489,0,18,30.0
32,0.38541314544447935,7.198005848941505e-05,0.4025983075795458,0,18,30.0
33,0.3873683451169945,6.842677160979709e-05,0.40672989034943874,0,18,30.0
34,0.3719763213611511,6.93682261307146e-05,0.41318552986228335,0,18,30.0
35,0.37553575473377504,7.14970132299553e-05,0.4060365671336567,0,18,30.0
1,0.9287188634985969,0.0002323303373746707,0.6003043393347222,1,19,30.0
2,0.8206750821499598,0.0001549704174976796,0.5778609570215564,1,19,30.0
3,0.7825957990828014,0.00012281497397669314,0.551657634382762,1,19,30.0
4,0.7490932196378708,0.00011360243488092064,0.5086580212402578,1,19,30.0
5,0.7348898947238922,0.00010417009140101505,0.49285834117464056,1,19,30.0
6,0.7043561126504626,0.00010173976516809835,0.4759727616929082,1,19,30.0
7,0.6795563981646583,9.602502472088894e-05,0.4712590760128842,1,19,30.0
8,0.6609071166742415,8.825595887174131e-05,0.46622133864580567,1,19,30.0
9,0.6471792991672244,8.847578781223135e-05,0.4382102538191886,1,19,30.0
10,0.6350517677409309,8.231166378079382e-05,0.4583069172102813,0,19,30.0
11,0.6180946677923203,7.445449777844173e-05,0.4094807231963608,1,19,30.0
12,0.5995688271664438,7.995294501077816e-05,0.4219710019205,0,19,30.0
13,0.5910100965272813,7.821557950852107e-05,0.42196689026790807,0,19,30.0
14,0.5724008686485744,7.025484956102446e-05,0.40680568501589837,1,19,30.0
15,0.5601454895167124,6.683314833415872e-05,0.42058378422466075,0,19,30.0
16,0.5444000519457317,6.790528104396625e-05,0.4054203147253412,1,19,30.0
17,0.5451677427405403,6.67134078997021e-05,0.3719694586850758,1,19,30.0
18,0.5138166351687341,7.095425025043023e-05,0.4019839133161389,0,19,30.0
19,0.5092436284536407,7.115766523687246e-05,0.36509852352827876,1,19,30.0
20,0.49737111053296496,6.684195640056194e-05,0.3785107150408792,0,19,30.0
21,0.4930085937182109,7.095191367192282e-05,0.3758296079489953,0,19,30.0
22,0.4811262676403636,6.746388866997135e-05,0.3675317205842589,0,19,30.0
23,0.471488614877065,6.378733329862978e-05,0.37848553984613365,0,19,30.0
24,0.4621241245241392,7.13235667284434e-05,0.3562490692346988,1,19,30.0
25,0.45581060896317166,6.628091670704417e-05,0.38037154437533255,0,19,30.0
26,0.43702323521886555,6.444285597916903e-05,0.3671094428724615,0,19,30.0
27,0.442590805036681,7.103088232508439e-05,0.36847699438374953,0,19,30.0
28,0.424114584568001,6.623995718005713e-05,0.349124616302585,1,19,30.0
29,0.41594558989717845,6.531872965015715e-05,0.3682955416072981,0,19,30.0
30,0.41174994834831785,6.738943085067495e-05,0.348643019598156,1,19,30.0
31,0.407012796827725,6.57534921542503e-05,0.3617499936047231,0,19,30.0
32,0.4049976574523108,6.449710136145032e-05,0.3660844255980314,0,19,30.0
33,0.3902269264771825,6.636172873272916e-05,0.3657943242171566,0,19,30.0
34,0.39052106475546244,6.744965750320781e-05,0.3607471910945086,0,19,30.0
35,0.3809941418114163,6.537768513226183e-05,0.3587334673353289,0,19,30.0
36,0.3764836458223207,6.52085816996294e-05,0.36405429203728074,0,19,30.0
37,0.3763059459271885,6.477189041712943e-05,0.35585854159143404,0,19,30.0
1,0.9308068899547353,0.00020801372653188403,0.8013569741947636,1,20,30.0
2,0.818723025041468,0.00013412406106534249,0.7171156523333992,1,20,30.0
3,0.7754773799110861,0.0001313938240534352,0.6270053275983045,1,20,30.0
4,0.7528829897151273,0.0001048050337618299,0.5930186165442133,1,20,30.0
5,0.7140583627364214,9.417044433682938e-05,0.6381744787191889,0,20,30.0
6,0.7070018508855034,9.078597953810138e-05,0.5409649065117927,1,20,30.0
7,0.6809230299556956,9.088499132571194e-05,0.48504486194841423,1,20,30.0
8,0.6549597038942225,8.705336466150852e-05,0.48728926819600876,0,20,30.0
9,0.6338680449654074,8.059796450919856e-05,0.44880729451300994,1,20,30.0
10,0.6243528555421268,8.359953242367791e-05,0.5187302151455241,0,20,30.0
11,0.6003522907986361,7.762958292219349e-05,0.4328263861605316,1,20,30.0
12,0.5962783420787138,7.91780354869415e-05,0.44829594455706845,0,20,30.0
13,0.5831412245245541,6.958779015215388e-05,0.4347935362587309,0,20,30.0
14,0.5729777844513164,7.143204433412071e-05,0.4177995493381646,1,20,30.0
15,0.553435505137724,6.891420044292532e-05,0.4102048138903964,1,20,30.0
16,0.5410517450641184,7.57572938763427e-05,0.36146163165759126,1,20,30.0
17,0.5277740233084735,7.152016046080355e-05,0.3709151269106349,0,20,30.0
18,0.5164776668829076,7.380517589113236e-05,0.369297966890654,0,20,30.0
19,0.504606928544886,6.748080974348876e-05,0.3913150493335572,0,20,30.0
20,0.4957502848961774,6.459605090854251e-05,0.3636651727747006,0,20,30.0
21,0.49396804816582623,6.555684466387474e-05,0.36189154262565504,0,20,30.0
22,0.47519003258031955,6.688848811523606e-05,0.32448916161610825,1,20,30.0
23,0.46450228270362404,6.305329315021963e-05,0.3292169449207889,0,20,30.0
24,0.4526598232633927,6.473196746596574e-05,0.3536814076163966,0,20,30.0
25,0.44383232242920817,6.361532441052773e-05,0.4033966203233239,0,20,30.0
26,0.4342764668604907,6.56284398299998e-05,0.3513301469974077,0,20,30.0
27,0.4396457314491272,6.508630459018819e-05,0.30844666604688215,1,20,30.0
28,0.4164372931508457,6.525596986380954e-05,0.3868183652876289,0,20,30.0
29,0.4105556081323063,6.38202248570879e-05,0.3532047699657595,0,20,30.0
30,0.41067089298192194,6.24136753150892e-05,0.3687114437550876,0,20,30.0
31,0.4042256863678203,6.366550108342541e-05,0.32387171303343243,0,20,30.0
32,0.3966004613567801,6.0684155965538916e-05,0.33980141658027463,0,20,30.0
33,0.3957861455047832,5.952654738554402e-05,0.3273971153928596,0,20,30.0
34,0.38876452130429884,6.0837606168420546e-05,0.33623227439298753,0,20,30.0
1,0.9237318323102108,0.0002769224701359933,0.7230140631881562,1,21,30.0
2,0.8288077940774519,0.00015221404583128385,0.5543237899713498,1,21,30.0
3,0.7883649309014165,0.0001302219646932763,0.5346343598420294,1,21,30.0
4,0.7593225316945896,0.0001116816166295605,0.6361129469662564,0,21,30.0
5,0.7341426888177561,0.0001014130106510535,0.736590090273156,0,21,30.0
6,0.7192527672579122,9.2612819740722e-05,0.4862171852343681,1,21,30.0
7,0.6951816449331683,9.239421084456872e-05,0.4538711881428292,1,21,30.0
8,0.689636617898941,9.34580031837889e-05,0.4737835456503106,0,21,30.0
9,0.667392048724862,8.385955579585645e-05,0.5319645945763517,0,21,30.0
10,0.6558360408904941,8.60597433212354e-05,0.48782466019812526,0,21,30.0
11,0.6266995204049487,7.86151474955638e-05,0.3523731836760148,1,21,30.0
12,0.6244178594544877,8.102267976176146e-05,0.38977300945951293,0,21,30.0
13,0.5994651140861733,7.777923087286221e-05,0.3632685349433884,0,21,30.0
14,0.6041106969811195,7.562447011201416e-05,0.33466249121536557,1,21,30.0
15,0.5751351935918941,7.844368291295913e-05,0.39813907534111176,0,21,30.0
16,0.5683436040268388,7.397494969048895e-05,0.34495049935679883,0,21,30.0
17,0.5570371528697569,7.01646041243505e-05,0.40076357506876675,0,21,30.0
18,0.5381444692611694,6.297812056842768e-05,0.3279895375639395,1,21,30.0
19,0.5322331519320954,6.210636016730014e-05,0.32613514281229344,1,21,30.0
20,0.5195692240498787,6.115504926805611e-05,0.3249118079339592,1,21,30.0
21,0.5173050175572551,6.161906327009959e-05,0.3342718984810032,0,21,30.0
22,0.4974652303512706,6.162772588986838e-05,0.2965114342954231,1,21,30.0
23,0.48833241573599884,6.066924779165569e-05,0.28902061730694223,1,21,30.0
24,0.481912269841793,5.9540201449593486e-05,0.27741601828548595,1,21,30.0
25,0.4647826548925666,6.142230547063031e-05,0.26473495606779157,1,21,30.0
26,0.46123008464657983,6.13708188486567e-05,0.27968072503801106,0,21,30.0
27,0.4530808658793915,6.139039202068044e-05,0.2774929074954828,0,21,30.0
28,0.4451473791931951,5.860296889380173e-05,0.2849060605803812,0,21,30.0
29,0.43318322578141855,5.8530432884148215e-05,0.2762578899810414,0,21,30.0
30,0.4355233505714771,5.919046727581719e-05,0.27498799821774583,0,21,30.0
31,0.42674939473008,5.9426006902317886e-05,0.27610841879512654,0,21,30.0
32,0.409631657045941,5.5832380809967385e-05,0.27034110538448547,0,21,30.0
1,0.91294008067676,0.0002506159823193836,0.7458008019047715,1,22,30.0
2,0.7974410816317513,0.0001506244708642563,0.6952648052213125,1,22,30.0
3,0.7631665184384301,0.00014273818600313027,0.6780097211847576,1,22,30.0
4,0.7157878286781765,0.0001261261049443246,0.6898263690480843,0,22,30.0
5,0.6933388603585107,0.00011684759426446232,0.6832116133679461,0,22,30.0
6,0.6755803461585727,0.00011859708077584703,0.7005704661797741,0,22,30.0
7,0.6621154560929253,0.0001152433149053693,0.6495844154477426,1,22,30.0
8,0.6425091986145292,0.00010145700265898736,0.6441423798434839,1,22,30.0
9,0.6298255363390559,0.00010241069919304988,0.599468582723012,1,22,30.0
10,0.612551365225088,9.819089406110357e-05,0.6138830076223167,0,22,30.0
11,0.5827036783808753,8.424800996311075e-05,0.6241555781742908,0,22,30.0
12,0.5799057040186155,8.897512374720204e-05,0.607549765020379,0,22,30.0
13,0.5664563388341949,9.138537219162875e-05,0.5668791675475692,1,22,30.0
14,0.5621515778558595,8.607782317648387e-05,0.5575121181751278,1,22,30.0
15,0.522672081277484,7.683872826462556e-05,0.5629850620092647,0,22,30.0
16,0.521591644911539,8.867314820582535e-05,0.5320164373800503,1,22,30.0
17,0.5127697728929066,7.605842317085869e-05,0.533435319467498,0,22,30.0
18,0.5026788516413598,8.127943285563517e-05,0.5343033169508746,0,22,30.0
19,0.5041169907365527,7.342572570494321e-05,0.5455609013802901,0,22,30.0
20,0.48709225548165186,7.48984527187228e-05,0.5126413873504551,1,22,30.0
21,0.4771080496055739,7.907012180415525e-05,0.5274849842477274,0,22,30.0
22,0.470572024229027,7.403334568932354e-05,0.49578013822321415,1,22,30.0
23,0.4571546230997358,6.298307354362416e-05,0.4970589507629755,0,22,30.0
24,0.43864613665001734,6.810916996376666e-05,0.5257198411731916,0,22,30.0
25,0.443575480509372,7.180033809986309e-05,0.49474948857238177,1,22,30.0
26,0.43618986046030406,6.622277769132605e-05,0.509250920641315,0,22,30.0
27,0.41424897348596934,6.650219490568685e-05,0.49697170238032135,0,22,30.0
28,0.4157387192050616,6.686242293307303e-05,0.5220083578846448,0,22,30.0
29,0.4107794360745521,6.729547082310698e-05,0.5096020431513958,0,22,30.0
30,0.39814370231969015,6.595100915417009e-05,0.5352667889224992,0,22,30.0
31,0.38959250918456484,6.749065384307566e-05,0.5043836818945745,0,22,30.0
32,0.38595408307654516,6.792275750437209e-05,0.49322664585338,1,22,30.0
33,0.3815541827962512,6.32729638493315e-05,0.5061590907602047,0,22,30.0
34,0.37597591394469854,6.418585373813541e-05,0.4891118695485408,1,22,30.0
35,0.37820954780493465,6.263599013999781e-05,0.4998719141385243,0,22,30.0
36,0.36419851936045144,6.387142288336431e-05,0.49344050632382724,0,22,30.0
37,0.37508530772867654,6.775199827167117e-05,0.49078835559611456,0,22,30.0
38,0.35905889031432925,6.569332327628563e-05,0.49472881032292826,0,22,30.0
39,0.37376602384306135,6.332285816565022e-05,0.4965522489158537,0,22,30.0
40,0.3549293820701894,6.241496919842792e-05,0.4939383387699685,0,22,30.0
1,0.9162841254756564,0.00023802587877850913,0.5052176364952264,1,23,30.0
2,0.8027789316007069,0.00013763779350570293,0.47179035536904473,1,23,30.0
3,0.7634826011600948,0.00013068989444166488,0.4937043489127279,0,23,30.0
4,0.7338179938849949,0.0001214229947176396,0.4519392142798467,1,23,30.0
5,0.7086843323139917,0.00011341790490232164,0.4363152749906214,1,23,30.0
6,0.6838403216430119,0.00010277633659175731,0.41838003371871124,1,23,30.0
7,0.6670236509470713,0.00010164522748146694,0.40902197879485275,1,23,30.0
8,0.6449126359962282,9.698157156803755e-05,0.40470481347412,1,23,30.0
9,0.6318662549768176,8.949703442340251e-05,0.3815540588140018,1,23,30.0
10,0.6192168355697677,8.648279245313634e-05,0.39828343030676694,0,23,30.0
11,0.5991183043945403,8.293892209448608e-05,0.3718043220889956,1,23,30.0
12,0.5743134791652361,7.84494178723045e-05,0.3737011313871717,0,23,30.0
13,0.5723121354267711,7.714471874870859e-05,0.38492438081099284,0,23,30.0
14,0.5539672857239133,7.272217598732649e-05,0.33753717524362586,1,23,30.0
15,0.5344343089631626,6.983212842030861e-05,0.35421342873085654,0,23,30.0
16,0.521147944742725,7.321427992359358e-05,0.35175781617535046,0,23,30.0
17,0.5152352863834018,7.135967955816471e-05,0.34363134486620034,0,23,30.0
18,0.4967598723513739,6.597514658053461e-05,0.3402757877883299,0,23,30.0
19,0.477279252239636,6.633142592839985e-05,0.3581945166862058,0,23,30.0
20,0.49890536069869995,6.387486657677939e-05,0.3276171471249769,1,23,30.0
21,0.4787764527967998,6.15235230725375e-05,0.32197269416166796,1,23,30.0
22,0.466898449474857,5.710242246658752e-05,0.31155188937619616,1,23,30.0
23,0.4576719782891728,6.128519007255644e-05,0.3459325796989251,0,23,30.0
24,0.44134259152980077,6.378732286109534e-05,0.3367268142183465,0,23,30.0
25,0.43977310153700055,6.426877613800268e-05,0.31739774605781645,0,23,30.0
26,0.4386564627999351,5.881448023934527e-05,0.34162890673337337,0,23,30.0
27,0.42915884795643033,5.8669474756676385e-05,0.3203486620061588,0,23,30.0
28,0.4108908949863343,5.906839699794849e-05,0.3217968863548464,0,23,30.0
29,0.411813106920038,6.48770170040994e-05,0.3051696431328726,1,23,30.0
30,0.3998304435185024,6.29691342813506e-05,0.31674379114375556,0,23,30.0
31,0.3942170464211986,5.9722104803464994e-05,0.31136700809975015,0,23,30.0
32,0.3824014943980035,6.507975493670009e-05,0.31214246186420885,0,23,30.0
33,0.38274025668700534,6.216848227528058e-05,0.3135918296172209,0,23,30.0
34,0.3837648232777913,6.106188894115067e-05,0.3086686055251696,0,23,30.0
35,0.382149482944182,6.0953358158821215e-05,0.30524250719477797,0,23,30.0
36,0.36891246728953864,5.9571655800114276e-05,0.30488921439724054,1,23,30.0
37,0.37109418993904475,5.998744277998672e-05,0.3085789315663223,0,23,30.0
38,0.36745484670003253,6.10339555004473e-05,0.3052654014996718,0,23,30.0
39,0.371610415833337,5.883370158699108e-05,0.3047504853714256,1,23,30.0
40,0.3663429522088596,5.761863403244033e-05,0.3086822917717043,0,23,30.0
1,0.9246288779236022,0.0002184059870030199,0.6456864130616072,1,24,30.0
2,0.8135446373905454,0.00015360730694304774,0.596689823343188,1,24,30.0
3,0.7690687136990684,0.0001300832110635903,0.524392086687565,1,24,30.0
4,0.7356245780274981,0.00012711325161078656,0.5743092296365467,0,24,30.0
5,0.7051167807408741,0.0001347473984683997,0.6122799185985158,0,24,30.0
6,0.6882659246524175,0.00012026127080302796,0.48562117867520327,1,24,30.0
7,0.6663967839309147,0.00011371572955318871,0.5578295516329463,0,24,30.0
8,0.648395360935302,0.00010012868824560428,0.554598617985605,0,24,30.0
9,0.6209680796379135,0.00010028262897235219,0.6172126736469226,0,24,30.0
10,0.603939260400477,9.798098749126352e-05,0.5170627067275854,0,24,30.0
11,0.5767778899698031,9.148560487422704e-05,0.5505116334642042,0,24,30.0
12,0.5770694595717248,8.519667928686388e-05,0.48987139589525397,0,24,30.0
13,0.5585794221787226,7.746325216084231e-05,0.46886239048849465,1,24,30.0
14,0.5503079043257804,8.43133099503272e-05,0.5008302507502232,0,24,30.0
15,0.5209572414557139,8.808261948919001e-05,0.47026000029864023,0,24,30.0
16,0.5177394463902428,7.71394830475661e-05,0.48314588569051004,0,24,30.0
17,0.4972181650144713,8.068933212122093e-05,0.47408111511875345,0,24,30.0
18,0.49737254423754557,7.834621655569034e-05,0.4306228719798069,1,24,30.0
19,0.48736329199302764,6.935303809725502e-05,0.4357292865094144,0,24,30.0
20,0.4728638802965482,6.94031818316684e-05,0.4967220569585203,0,24,30.0
21,0.46316632876793545,7.022417698213499e-05,0.45220484861396715,0,24,30.0
22,0.4599098101967857,7.381602877319979e-05,0.4584288568687015,0,24,30.0
23,0.44214132037900744,7.780909570664378e-05,0.4003951639014947,1,24,30.0
24,0.44401331352336065,6.895296064612921e-05,0.431226782547605,0,24,30.0
25,0.4285452688733737,7.131711741489457e-05,0.42549856455530743,0,24,30.0
26,0.4194837315451531,6.88382947157065e-05,0.4076282754589517,0,24,30.0
27,0.41626392482292085,7.385478758286419e-05,0.4116066468760981,0,24,30.0
28,0.41299119733628775,6.235034418620802e-05,0.3825577506239546,1,24,30.0
29,0.3985031137154216,6.65381617398539e-05,0.38691304818541616,0,24,30.0
30,0.39745267799922396,7.226812236435112e-05,0.3716460534343325,1,24,30.0
31,0.38431674277498606,6.360047163547105e-05,0.40065823608183815,0,24,30.0
32,0.3770643153360912,6.652228534048412e-05,0.3878477362618708,0,24,30.0
33,0.3877305821293876,6.712907980684013e-05,0.4122369943721799,0,24,30.0
34,0.3739641461343992,6.407871890024537e-05,0.3974861618712682,0,24,30.0
35,0.3656134733131954,6.721969081506056e-05,0.4191339562840673,0,24,30.0
36,0.36125702339978444,6.94746929747496e-05,0.3996476299987025,0,24,30.0
37,0.370881838457925,7.098231903260707e-05,0.4014063874766298,0,24,30.0
1,0.9240509853643529,0.00018600875782259904,0.5223385911295214,1,25,30.0
2,0.8141786077443292,0.00013540406216634439,0.5134846379527938,1,25,30.0
3,0.7699348632027121,0.00011182989221518201,0.5348164929937079,0,25,30.0
4,0.7467788275550393,0.0001082428584649118,0.5139533686114386,0,25,30.0
5,0.7288023338598364,0.00010024170333053917,0.4587774511233439,1,25,30.0
6,0.6981309491045334,9.721585528870277e-05,0.450607050349912,1,25,30.0
7,0.6755733903716592,9.589020183364697e-05,0.4401291236396196,1,25,30.0
8,0.6566322515992558,9.624194743296624e-05,0.43951430277727666,1,25,30.0
9,0.6431273432338939,9.829783058889649e-05,0.422427261295108,1,25,30.0
10,0.6259130674249985,8.496968306751702e-05,0.3888993625326774,1,25,30.0
11,0.6145276862032273,9.175570457420476e-05,0.40154718475643036,0,25,30.0
12,0.5940214465646183,8.113559058127815e-05,0.46308031684322487,0,25,30.0
13,0.5836309492588043,8.170899591812699e-05,0.38050689405518184,1,25,30.0
14,0.5659636402831358,7.704166127950885e-05,0.41268986323489615,0,25,30.0
15,0.5581386622260599,7.604956592652289e-05,0.3659083741364506,1,25,30.0
16,0.5413901854963864,7.621060944716994e-05,0.33755469861386306,1,25,30.0
17,0.5298421922852011,7.57741742692066e-05,0.3620214576928139,0,25,30.0
18,0.5274656940908993,7.015979058718692e-05,0.33246485540728477,1,25,30.0
19,0.515211378476199,7.189340955365504e-05,0.30756809428892934,1,25,30.0
20,0.5042315055342281,6.707641167689443e-05,0.32990409490094164,0,25,30.0
21,0.4846400664133184,6.183300626135485e-05,0.33790311997189054,0,25,30.0
22,0.47897151463172016,7.146319155307377e-05,0.31189101716311207,0,25,30.0
23,0.4708752306068645,6.82461164508234e-05,0.3155252315949708,0,25,30.0
24,0.47077567612423615,6.798953999189988e-05,0.3430487311798668,0,25,30.0
25,0.45317436877418965,6.589483365293263e-05,0.3051358884230111,1,25,30.0
26,0.43807336968534133,6.362799480591682e-05,0.31025174465250466,0,25,30.0
27,0.4335645864991581,6.576637105728664e-05,0.2962317531177431,1,25,30.0
28,0.4337410313241622,6.649690613438211e-05,0.3129549994108061,0,25,30.0
29,0.4221500344136182,6.75119819574962e-05,0.3158068038297422,0,25,30.0
30,0.41990152772735145,6.930739417679005e-05,0.3086695319331482,0,25,30.0
31,0.40602411417400136,6.75019428051789e-05,0.29646621355963904,0,25,30.0
32,0.4021922072943519,6.827069831642268e-05,0.30362170082471523,0,25,30.0
33,0.39187767961445974,6.233009694637182e-05,0.2899751526441829,1,25,30.0
34,0.3943664329893449,6.649404407225495e-05,0.29959855883027814,0,25,30.0
35,0.38873173138674566,6.230160147157114e-05,0.29560841795231174,0,25,30.0
36,0.3924485627342673,6.243274219741579e-05,0.2904092308284995,0,25,30.0
37,0.38369916537228754,6.595744420979719e-05,0.2999023032313931,0,25,30.0
38,0.38827231193290035,6.612132852109532e-05,0.2967986062161422,0,25,30.0
39,0.3744493561632493,6.381766468300211e-05,0.2898771709886403,1,25,30.0
40,0.38109872235971337,6.545731517048005e-05,0.2945328351200147,0,25,30.0
1,0.9160346360767588,0.00021960666944163248,0.6998835254523296,1,26,30.0
2,0.8048630013185389,0.0001392504892839283,0.6503020011519912,1,26,30.0
3,0.7669524487327127,0.00011957451214959078,0.6395404011817258,1,26,30.0
4,0.7350250068832846,0.00011375473884126062,0.6515603598383063,0,26,30.0
5,0.7183163180070765,0.00011076960128026685,0.6483516622717221,0,26,30.0
6,0.6927224713213304,0.00010771659290185199,0.6365737397960954,1,26,30.0
7,0.6895344446687137,0.00010198681997922797,0.5821790110166646,1,26,30.0
8,0.66231469336678,9.033705483649529e-05,0.6248712927944138,0,26,30.0
9,0.6478897101738874,9.020191004417618e-05,0.622349339535009,0,26,30.0
10,0.6297448789372163,8.531123376622632e-05,0.5839497133258658,0,26,30.0
11,0.6130382204757018,8.67998575011049e-05,0.5604659270571266,1,26,30.0
12,0.6045618937296026,7.395530547535814e-05,0.5391088831581622,1,26,30.0
13,0.5842240940122043,8.286008417010581e-05,0.5143908052673096,1,26,30.0
14,0.5704688790966482,7.209228647030507e-05,0.5536305399631128,0,26,30.0
15,0.5621240072390612,6.891942954526338e-05,0.505921557858502,1,26,30.0
16,0.5427555301610161,7.61250128990094e-05,0.5211183920355111,0,26,30.0
17,0.5312437404604519,6.898316813235664e-05,0.4929053813199534,1,26,30.0
18,0.5228424896212185,6.684533047304926e-05,0.5233914225790629,0,26,30.0
19,0.5225159915054546,6.681033089133802e-05,0.49536761534566087,0,26,30.0
20,0.5077023169573616,6.544580336434164e-05,0.4705960568055519,1,26,30.0
21,0.48750090003013613,6.912726680371527e-05,0.47262459153526937,0,26,30.0
22,0.48073578406782713,6.690867919721367e-05,0.46368694547311873,1,26,30.0
23,0.46906405196470374,6.58492348413668e-05,0.4574210203540381,1,26,30.0
24,0.47233435792081496,7.064565031802939e-05,0.4556417330249161,1,26,30.0
25,0.4467013874474694,6.477883160936043e-05,0.4603356327808851,0,26,30.0
26,0.45083328134873335,6.725600816186189e-05,0.44661121950090227,1,26,30.0
27,0.44385194848565496,6.326488030882662e-05,0.4246911233269951,1,26,30.0
28,0.433691485489116,6.144129374126137e-05,0.41411859138087037,1,26,30.0
29,0.4369522497934454,6.182820909410057e-05,0.4198415785076278,0,26,30.0
30,0.41013754290692944,6.530945696902242e-05,0.4340448655625597,0,26,30.0
31,0.39955440654474145,6.591172333334244e-05,0.4352442518369149,0,26,30.0
32,0.4189046856235055,6.79003494202762e-05,0.43391036932576954,0,26,30.0
33,0.4033859743791468,6.596104238483616e-05,0.43254331276931224,0,26,30.0
34,0.395986655179192,6.436449552625966e-05,0.4342563474515369,0,26,30.0
35,0.392769495529287,6.895018839927884e-05,0.4317653969813497,0,26,30.0
1,0.9226093866995403,0.00019980069382221526,0.6404865446970287,1,27,30.0
2,0.8143393156074342,0.00012869106268183152,0.6360839121526993,1,27,30.0
3,0.7809520065784454,0.00011073620451151371,0.6550492968242516,0,27,30.0
4,0.7447985439073472,9.807687339551714e-05,0.6471335812436506,0,27,30.0
5,0.7242813976038069,9.669156376427661e-05,0.5453763492433845,1,27,30.0
6,0.6968744539079212,9.738343362100533e-05,0.5159960177257237,1,27,30.0
7,0.6770911933410735,9.501098953651741e-05,0.5401617045929128,0,27,30.0
8,0.660149596631527,9.879001979806206e-05,0.5161672948490752,0,27,30.0
9,0.6511758594285875,8.336727279085954e-05,0.48650396855643263,1,27,30.0
10,0.6358609454972404,8.63078926808417e-05,0.4626332855217407,1,27,30.0
11,0.6046978508432707,8.578168646116475e-05,0.479754384700896,0,27,30.0
12,0.5938862090309461,8.11209017791996e-05,0.4475518925666536,1,27,30.0
13,0.5872305652924946,7.859773714222857e-05,0.45578415161915575,0,27,30.0
14,0.5586507898711023,7.405393799195909e-05,0.46618758120387604,0,27,30.0
15,0.5504092041935239,7.529703301164166e-05,0.436853719962876,1,27,30.0
16,0.536530362708228,7.733522350116844e-05,0.4366379106055762,1,27,30.0
17,0.5173154430730003,7.290692918191088e-05,0.4099006022593654,1,27,30.0
18,0.500965545574824,7.087968900859345e-05,0.429922470726268,0,27,30.0
19,0.49042215056362604,6.81220289195716e-05,0.4156825752652607,0,27,30.0
20,0.48850169281164807,6.829550230100896e-05,0.4290300042424621,0,27,30.0
21,0.4725603816055116,6.699447879197708e-05,0.432860241516765,0,27,30.0
22,0.4682481899147942,6.906376022795615e-05,0.4192993889852536,0,27,30.0
23,0.454878541685286,6.878418398195035e-05,0.39378815740290046,1,27,30.0
24,0.44335730870564777,6.307032271295265e-05,0.4065194517720886,0,27,30.0
25,0.44050324850139166,6.49158671963267e-05,0.4022536884099662,0,27,30.0
26,0.4235730866591136,6.527848095824343e-05,0.36975674628187943,1,27,30.0
27,0.42075196085941224,6.257468924429434e-05,0.39310213051361076,0,27,30.0
28,0.4056627569454057,6.24236151149186e-05,0.4277766769634869,0,27,30.0
29,0.4056284363780703,6.575237356238566e-05,0.4037949004414518,0,27,30.0
30,0.3986255916811171,6.50641967738574e-05,0.3992507756647188,0,27,30.0
31,0.38833925269898917,6.239208574871078e-05,0.4052584726023207,0,27,30.0
32,0.38775674040828434,6.55148462014733e-05,0.4132835922875998,0,27,30.0
33,0.37565131804772783,6.628976453135866e-05,0.4106184088041486,0,27,30.0
1,0.9167035676184154,0.0002086750216784865,0.723610726822459,1,28,30.0
2,0.8250812859762282,0.0001524519254980121,0.6472269868086472,1,28,30.0
3,0.7881077527999878,0.0001385568834631981,0.6173543223135097,1,28,30.0
4,0.7551389627513432,0.00011777211364547146,0.5346029587759445,1,28,30.0
5,0.7293816343659446,0.00011003972845390395,0.5741741821249461,0,28,30.0
6,0.7153203934431076,9.486539104164833e-05,0.593026292185114,0,28,30.0
7,0.6949310430458614,9.637066670534078e-05,0.5569507203500441,0,28,30.0
8,0.6727003228096735,8.959823944245553e-05,0.45673824956024545,1,28,30.0
9,0.6676245700745356,8.844616526662971e-05,0.4777584105418862,0,28,30.0
10,0.642278933099338,8.613277501960208e-05,0.47392990546515407,0,28,30.0
11,0.6324670133846146,7.706285552038545e-05,0.4692207983667379,0,28,30.0
12,0.6180824850286756,7.548519278359544e-05,0.46874023457213826,0,28,30.0
13,0.6031886871371951,7.086146658929508e-05,0.4180559900025247,1,28,30.0
14,0.5866872306380954,6.937798917490346e-05,0.4697028085401245,0,28,30.0
15,0.5783187583798454,6.449755441973961e-05,0.42390769936647327,0,28,30.0
16,0.5485472661398706,6.470874562919129e-05,0.44930297357580684,0,28,30.0
17,0.5497647917696408,6.47691284982665e-05,0.4394691229633708,0,28,30.0
18,0.5293803754306975,6.612744779150013e-05,0.37873256044492176,1,28,30.0
19,0.5143076631994474,6.25431316404415e-05,0.3985925563188173,0,28,30.0
20,0.504505914236818,6.814365211279696e-05,0.4388391924366145,0,28,30.0
21,0.504452486478147,6.15713330868554e-05,0.39418317792614205,0,28,30.0
22,0.48048221107040134,6.659906540291905e-05,0.40478130444095456,0,28,30.0
23,0.4736167455003375,6.630973218437118e-05,0.3764803082460104,1,28,30.0
24,0.46380331580127987,6.484875346012857e-05,0.3850342485404177,0,28,30.0
25,0.45048299751111437,6.659075660579783e-05,0.3962449634822213,0,28,30.0
26,0.45508389671643573,6.251820122131557e-05,0.3707250362124625,1,28,30.0
27,0.43701583324443727,6.262507880213282e-05,0.35904726196549047,1,28,30.0
28,0.4300919317063831,6.09668405082803e-05,0.4011534451171864,0,28,30.0
29,0.4229726514645985,6.711028648472468e-05,0.3655796364391238,0,28,30.0
30,0.41554905970891315,5.903640300987588e-05,0.37019254166439297,0,28,30.0
31,0.411394614726305,6.156673576437502e-05,0.3496856683224707,1,28,30.0
32,0.4089698926323936,6.264467018419444e-05,0.3622116799547277,0,28,30.0
33,0.401669731097562,6.245375434012939e-05,0.3641013827847951,0,28,30.0
34,0.3980423804549944,6.058986695106363e-05,0.36348471482161787,0,28,30.0
35,0.391244490586576,6.307105286396109e-05,0.36384470968979,0,28,30.0
36,0.3987887657824017,5.886487923860495e-05,0.35041769101922665,0,28,30.0
37,0.3942428667630468,6.02385540072906e-05,0.35661192103540107,0,28,30.0
38,0.38630093988918124,6.220328045206511e-05,0.35949170383913764,0,28,30.0
1,0.9099688207401949,0.00027089660982121985,0.7784161244055895,1,29,30.0
2,0.7895909386522629,0.00013812234576428582,0.7020822610910161,1,29,30.0
3,0.7547917422126321,0.0001259324116878869,0.66048086302557,1,29,30.0
4,0.7223792889538934,0.00011196870344814242,0.6385287799013161,1,29,30.0
5,0.701576847188613,0.00010748467376448816,0.586596648864024,1,29,30.0
6,0.6700927650227266,0.00010399525952593916,0.6628244666804817,0,29,30.0
7,0.6613597491208245,8.940853662994307e-05,0.6247203301490314,0,29,30.0
8,0.6421335248386159,8.981527922407943e-05,0.5696358949698259,1,29,30.0
9,0.621680861010271,9.301988954094294e-05,0.6121077407251495,0,29,30.0
10,0.6111315920072443,8.800415834069581e-05,0.5485627967003976,1,29,30.0
11,0.5965078851755927,8.822759405387949e-05,0.6688605297104757,0,29,30.0
12,0.5878198809483473,8.206641530919382e-05,0.5963797059658391,0,29,30.0
13,0.5691201672834508,7.971594844574985e-05,0.5370377976563384,1,29,30.0
14,0.551428076800178,7.679441097185618e-05,0.5614686085253345,0,29,30.0
15,0.5473887517171747,7.501574265702134e-05,0.5861238891180809,0,29,30.0
16,0.5295055652365965,7.583991451503928e-05,0.5410459107538299,0,29,30.0
17,0.5228629746857811,8.260523960309322e-05,0.5819913762372495,0,29,30.0
18,0.5038292895345127,8.1632992334883e-05,0.5569153062351024,0,29,30.0
19,0.505483889579773,7.111508252016981e-05,0.5279444918260539,1,29,30.0
20,0.4809809526976417,7.825287436443271e-05,0.5270661543914699,1,29,30.0
21,0.47645823008873883,7.68150866326109e-05,0.5134661933197114,1,29,30.0
22,0.47494067409459284,7.722849297672784e-05,0.5263204613958599,0,29,30.0
23,0.46139839922680576,7.408671547583415e-05,0.5021756180310992,1,29,30.0
24,0.44423043517505423,7.379253301598295e-05,0.5075807147344252,0,29,30.0
25,0.4431591412600349,7.594618946313859e-05,0.5296566911866022,0,29,30.0
26,0.4378352081074434,6.776487977784949e-05,0.5188758251218227,0,29,30.0
27,0.42277048230171205,7.127298077273949e-05,0.4939831832801937,1,29,30.0
28,0.4117291573215933,7.258920218994128e-05,0.5093573365844666,0,29,30.0
29,0.4024821120149949,7.350186347406741e-05,0.5016811079676758,0,29,30.0
30,0.4044764269800747,7.174997539122534e-05,0.5164709242678994,0,29,30.0
31,0.3894362151622772,6.637911595616434e-05,0.49851685460700895,0,29,30.0
32,0.394944953918457,6.963480730465722e-05,0.4886235219979645,1,29,30.0
33,0.37852575743899625,6.769641447189154e-05,0.49507014361379226,0,29,30.0
34,0.37985547833582933,7.39693568475024e-05,0.5088126582166562,0,29,30.0
35,0.37189306686906254,7.452385877567234e-05,0.5013627149444774,0,29,30.0
36,0.38157948991831614,6.985170997829888e-05,0.49947006077726724,0,29,30.0
37,0.3766293532708112,6.882533737499377e-05,0.49998617318691935,0,29,30.0
38,0.36559408832998835,7.498838244560723e-05,0.49116658100860333,0,29,30.0
39,0.3653214570354013,7.175849010202321e-05,0.4945547470760909,0,29,30.0
1,0.9281762341658274,0.00023032508284987196,0.6300659629258069,1,30,30.0
2,0.8162849907364164,0.0001530125239133624,0.6934889238458257,0,30,30.0
3,0.7658106166692007,0.0001152770382759627,0.6940935729621528,0,30,30.0
4,0.7483391108967009,0.00010306052393259182,0.6599127060777552,0,30,30.0
5,0.7160486649899256,0.00011014896431117363,0.6809456461930538,0,30,30.0
6,0.7024443752708889,0.00010394235574668052,0.5857815634947758,1,30,30.0
7,0.6795115910825276,0.00010444632997470242,0.6141985468379967,0,30,30.0
8,0.6583954950883275,9.861536606573888e-05,0.5446798070832655,1,30,30.0
9,0.6460731916484379,9.232564709583087e-05,0.59165389932789,0,30,30.0
10,0.6146988435870125,8.944707813151624e-05,0.5535091801180138,0,30,30.0
11,0.6016976581442923,8.75658913303466e-05,0.5747278603884551,0,30,30.0
12,0.588480758879866,7.84377903290165e-05,0.5011595587234,1,30,30.0
13,0.5716062528746468,7.923666323352206e-05,0.5115289224220348,0,30,30.0
14,0.5648907298843066,7.654715820882259e-05,0.5415194574240092,0,30,30.0
15,0.5433237687462852,7.944591986112452e-05,0.5900321209335232,0,30,30.0
16,0.536034779889243,7.531358763420333e-05,0.5141879682456171,0,30,30.0
17,0.5296874284034684,6.977003661068877e-05,0.5081532109860663,0,30,30.0
18,0.5103700483838717,6.870114893466788e-05,0.5413837926285164,0,30,30.0
19,0.49978083762384595,7.598963379894572e-05,0.4977547596912604,1,30,30.0
20,0.497504228637332,6.900400283138013e-05,0.5188737862460964,0,30,30.0
21,0.4810594238695644,7.366847083695964e-05,0.5332896833543902,0,30,30.0
22,0.4696109231029238,7.37281886488615e-05,0.49130852706916817,1,30,30.0
23,0.4563316287738936,7.841372635517647e-05,0.5008947500535795,0,30,30.0
24,0.4493389715041433,7.075358263093568e-05,0.49533980275626416,0,30,30.0
25,0.4323532549398286,7.566531387835442e-05,0.4614095852987186,1,30,30.0
26,0.4259445755964234,7.673727070921035e-05,0.4931619839744644,0,30,30.0
27,0.42248224786349703,7.104129118878128e-05,0.5002416242231,0,30,30.0
28,0.413982969664392,7.378124419552652e-05,0.5097238798220236,0,30,30.0
29,0.4073313485298838,7.008971520657983e-05,0.48877986114065686,0,30,30.0
30,0.39821304629246396,7.608785684472726e-05,0.4864459100577447,0,30,30.0
31,0.4032738613230841,7.760402539653504e-05,0.4981138433317642,0,30,30.0
32,0.3846439736939612,6.987520633369318e-05,0.4917078864228379,0,30,30.0
1,0.9015675903785796,0.00019626689789306728,0.714911364681277,1,31,30.0
2,0.8086051153285163,0.00013569025620762702,0.7164718103828696,0,31,30.0
3,0.7667167208024434,0.00012167760195595856,0.7065693493075484,1,31,30.0
4,0.7335962589297976,0.00010979899460445657,0.6718754914439372,1,31,30.0
5,0.7097903007552737,0.00011153108858880365,0.6431053653407831,1,31,30.0
6,0.6925614660694486,9.674497500998855e-05,0.6403585949509344,1,31,30.0
7,0.6813394831759589,9.080982657732897e-05,0.5989628636147726,1,31,30.0
8,0.6549765545697439,9.303223153741176e-05,0.5786630324883789,1,31,30.0
9,0.6422527439537502,9.471738624034472e-05,0.6159868386850315,0,31,30.0
10,0.6230130756185168,8.14715537368708e-05,0.5911796952909851,0,31,30.0
11,0.6036586328631356,8.612789220240389e-05,0.5673000963967877,1,31,30.0
12,0.5871423599975449,7.463229169280523e-05,0.6486208896103773,0,31,30.0
13,0.5866601477776255,7.592738481997956e-05,0.5198976220035296,1,31,30.0
14,0.5566245689988136,7.57657680878765e-05,0.5334541108592384,0,31,30.0
15,0.5498073115235284,7.438415789129933e-05,0.5475717387999782,0,31,30.0
16,0.5405431648805028,6.870076811624348e-05,0.5418603579531401,0,31,30.0
17,0.526073024741241,7.164256974300813e-05,0.5256211927891976,0,31,30.0
18,0.5150999426841736,6.616348045575986e-05,0.5349710482132238,0,31,30.0
19,0.519054132203261,6.765043486839637e-05,0.5008589848396054,1,31,30.0
20,0.5027871571836018,6.82799600326689e-05,0.5131903549234187,0,31,30.0
21,0.48127062938043047,6.454347866175729e-05,0.5821703997397544,0,31,30.0
22,0.46816046677884604,6.733842326953198e-05,0.5748434656295778,0,31,30.0
23,0.4720895017186801,6.612099410371488e-05,0.4994027341233868,1,31,30.0
24,0.4582267084292003,6.391203580625144e-05,0.5122254755789056,0,31,30.0
25,0.4492438854206176,6.217446778984075e-05,0.48375520900725616,1,31,30.0
26,0.43614845793871654,6.133892877967031e-05,0.5159404454392088,0,31,30.0
27,0.4360263894001643,7.150736075259157e-05,0.5286890267419176,0,31,30.0
28,0.43453370070173625,6.302530168579237e-05,0.5145442101464459,0,31,30.0
29,0.41729361315568286,6.266461886774604e-05,0.5288790916187714,0,31,30.0
30,0.4070687372060049,6.395854740860938e-05,0.5074553001891242,0,31,30.0
31,0.4135036986498606,6.223628103422622e-05,0.5470604544246379,0,31,30.0
32,0.40034200996160507,6.110817875672918e-05,0.5444109220592626,0,31,30.0
1,0.9129909143728369,0.00019184286656501867,0.5505625739678063,1,32,30.0
2,0.8057207275839413,0.00014717802405357362,0.546846897597875,1,32,30.0
3,0.7643488680615145,0.00013447939623695087,0.6024995874155895,0,32,30.0
4,0.7491517144090989,0.00012095122194081984,0.5085239545001575,1,32,30.0
5,0.7136751890182496,0.00013137072109042065,0.48275286881316415,1,32,30.0
6,0.7091229291523204,0.00011623455134480644,0.5275040774431393,0,32,30.0
7,0.6816824955098769,0.00010209131150451653,0.4853018003915594,0,32,30.0
8,0.6530384119819193,9.85145867589916e-05,0.48256562945033266,1,32,30.0
9,0.6515506765421699,9.95823427408194e-05,0.46358580406126215,1,32,30.0
10,0.6282352857729968,9.638357672991011e-05,0.3959502826974972,1,32,30.0
11,0.6031966700273401,8.762084326008335e-05,0.43109339648556844,0,32,30.0
12,0.5920279513387119,8.495695472126552e-05,0.4337998264305142,0,32,30.0
13,0.5696566771058476,8.993348742746201e-05,0.4018415549601551,0,32,30.0
14,0.5629784871550167,8.553527984665433e-05,0.400810649967083,0,32,30.0
15,0.5441518141942866,8.246387365301523e-05,0.403278285528446,0,32,30.0
16,0.5312272888772628,8.189980542417342e-05,0.39333255764659764,1,32,30.0
17,0.5298920996048871,7.80280000232297e-05,0.3595026875829049,1,32,30.0
18,0.5117192292914671,7.538173941772102e-05,0.3556286602330205,1,32,30.0
19,0.5064691519036012,7.303034653887153e-05,0.3471734970438032,1,32,30.0
20,0.494989992239896,7.195215529303396e-05,0.3540610804320379,0,32,30.0
21,0.4764241172986872,7.515833794433788e-05,0.34627481323306125,1,32,30.0
22,0.4736309991163366,7.282457749277134e-05,0.35548572823642843,0,32,30.0
23,0.4685666049227995,7.10907399051768e-05,0.34750170625115306,0,32,30.0
24,0.45273023247718813,6.89927274994689e-05,0.3332013315406773,1,32,30.0
25,0.4466570605249966,6.621285270632464e-05,0.33916339130903717,0,32,30.0
26,0.4398692422053393,7.412364703829071e-05,0.31539975631528355,1,32,30.0
27,0.42498819267048554,7.037133028087042e-05,0.3301029338852405,0,32,30.0
28,0.42411682816112745,6.734152698567521e-05,0.334955207795154,0,32,30.0
29,0.4190077971009647,7.314729801317513e-05,0.3205129332787864,0,32,30.0
30,0.40855908709413863,7.350500210818341e-05,0.3159564862702523,0,32,30.0
31,0.3972507985199199,6.890923759783618e-05,0.3180797459344417,0,32,30.0
32,0.39651055300936977,7.16336805934963e-05,0.3074567499665482,1,32,30.0
33,0.3891348810756908,6.681612281039741e-05,0.30974657391916066,0,32,30.0
34,0.3929805443567388,6.689637816367288e-05,0.30940138425539754,0,32,30.0
35,0.3913718027227065,6.793166775263243e-05,0.320281045009921,0,32,30.0
36,0.38172525132403656,6.73048898427035e-05,0.3237735918078959,0,32,30.0
37,0.3764258801937103,6.735569314675077e-05,0.31106783174196434,0,32,30.0
38,0.3818540464429294,6.727826210622238e-05,0.3129250073568848,0,32,30.0
39,0.3752164027270149,6.782072163974483e-05,0.3158520748298391,0,32,30.0
1,0.8952144994622185,0.00022227564252153527,0.7141671258138447,1,33,30.0
2,0.7845920657827741,0.00017396417223651604,0.6822684010499861,1,33,30.0
3,0.7388052727494921,0.00013125191470039898,0.6868385099783176,0,33,30.0
4,0.7154746836140042,0.00012186089883297904,0.7217625285049037,0,33,30.0
5,0.6806986253885996,0.00012096257826973063,0.6852225670036747,0,33,30.0
6,0.6643846950360707,0.00011343090586922786,0.693373931065747,0,33,30.0
7,0.6523661138046355,0.0001016149461585363,0.7044468414692617,0,33,30.0
8,0.6129603109189442,0.0001075818340939891,0.6159510375784211,1,33,30.0
9,0.6027155593037605,9.85060069069732e-05,0.6902101249056982,0,33,30.0
10,0.5983823044669061,9.583127034385966e-05,0.6103431776202306,1,33,30.0
11,0.5816769284151849,8.367873483837771e-05,0.6179116033108496,0,33,30.0
12,0.5672572450268836,7.762059032670332e-05,0.6018048632780953,1,33,30.0
13,0.5481952819086257,8.99803469673359e-05,0.6416392884230832,0,33,30.0
14,0.5416193388047672,8.159451534170547e-05,0.6153814434405507,0,33,30.0
15,0.5383249546090761,7.187128015911661e-05,0.623554821090273,0,33,30.0
16,0.5185655014855521,7.69805760466538e-05,0.6156552761295674,0,33,30.0
17,0.5059835974659238,6.832142519540087e-05,0.614403460584581,0,33,30.0
18,0.4791620001196861,7.759424594648105e-05,0.5781782121102258,1,33,30.0
19,0.4829499771197637,7.650732190779222e-05,0.5986985033346204,0,33,30.0
20,0.47501219773576375,7.394652181704129e-05,0.5878099194398468,0,33,30.0
21,0.46500015613578616,7.281952925300825e-05,0.5904898896845194,0,33,30.0
22,0.4581336783511298,7.107696040163449e-05,0.567322580090883,1,33,30.0
23,0.4386449615870203,7.320054304554582e-05,0.602651094935789,0,33,30.0
24,0.4315111977713449,7.044829713517434e-05,0.5477755107653396,1,33,30.0
25,0.42253090866974424,6.883859692780312e-05,0.5831409588572001,0,33,30.0
26,0.42207727155515123,6.739038083954559e-05,0.5681589643871866,0,33,30.0
27,0.40804417502312434,6.760264174469437e-05,0.593303621486738,0,33,30.0
28,0.39365181930008386,6.83791368352277e-05,0.5920151529000027,0,33,30.0
29,0.3957095259711856,7.061301875226145e-05,0.580195630627071,0,33,30.0
30,0.4000691789246741,7.532601332405604e-05,0.5810379943542364,0,33,30.0
31,0.38249521879922777,6.331570624578966e-05,0.5861791153912,0,33,30.0
1,0.9065159769619212,0.00020896843934144058,0.6783624492317152,1,34,30.0
2,0.7971225436996011,0.00014835823856307852,0.7016681794918415,0,34,30.0
3,0.763663240741281,0.00012921829569249358,0.6116552505896194,1,34,30.0
4,0.7365790444261887,0.00010935890168184415,0.5961337756536493,1,34,30.0
5,0.7085518086657805,0.00012279432044391903,0.5520926712214607,1,34,30.0
6,0.684685340348412,0.00010959720607121092,0.5549165429525698,0,34,30.0
7,0.6557350923033322,0.00010673310183954206,0.5634878199129315,0,34,30.0
8,0.6353898160597857,0.00010316339141675545,0.4812696613361714,1,34,30.0
9,0.6261291135759914,0.00010430941183585674,0.46598315406141577,1,34,30.0
10,0.6053287776077495,9.327449515694752e-05,0.44541419335028376,1,34,30.0
11,0.5872987620970782,8.7395660332678e-05,0.49731561706331623,0,34,30.0
12,0.5760609346277573,9.196294978370561e-05,0.5119950803697481,0,34,30.0
13,0.5673099223305197,8.49888585114112e-05,0.47601448360657656,0,34,30.0
14,0.5525381547563216,8.516621519982651e-05,0.47017486512348045,0,34,30.0
15,0.5312718752552481,7.553711458218886e-05,0.43830038899677015,1,34,30.0
16,0.521514681858175,7.099973475252388e-05,0.4888581807913714,0,34,30.0
17,0.5115646597217111,6.982143266427823e-05,0.43488240927952326,1,34,30.0
18,0.4950103924554937,7.078158254016136e-05,0.408179953717524,1,34,30.0
19,0.49239744579090794,7.014724713585833e-05,0.42128833152483186,0,34,30.0
20,0.478175105417476,6.877903527792488e-05,0.40832451858169244,0,34,30.0
21,0.4619111544945661,6.511652960291352e-05,0.410424031799677,0,34,30.0
22,0.46296303026816427,6.548668697017573e-05,0.430615918891925,0,34,30.0
23,0.4515555753427393,6.941746011280509e-05,0.4092533964270642,0,34,30.0
24,0.44426739811897276,6.384666532325997e-05,0.4095887830541299,0,34,30.0
25,0.4409568653387182,5.9716602460385354e-05,0.4088253767816613,0,34,30.0
1,0.9204858598254976,0.00022083394945920665,0.5778717180108343,1,35,30.0
2,0.8110997861339933,0.00015392878490924237,0.574139977426417,1,35,30.0
3,0.7746476218813941,0.0001231193271970759,0.535599154939817,1,35,30.0
4,0.7522097130616506,0.00011537471952275762,0.5194739682629378,1,35,30.0
5,0.7221930126349131,0.00010849701487001897,0.4618213502362165,1,35,30.0
6,0.6973286249807903,0.00010108608035980502,0.5109090205660397,0,35,30.0
7,0.6864052798066821,9.994075515437761e-05,0.4658957998125209,0,35,30.0
8,0.6521303703387579,8.790864913386205e-05,0.4339671424756919,1,35,30.0
9,0.6401134473936898,9.446821565818806e-05,0.42356240683562785,1,35,30.0
10,0.6318234574227106,8.552219601586417e-05,0.4519138434762064,0,35,30.0
11,0.6040881240651721,7.968248826814705e-05,0.4074156378957311,1,35,30.0
12,0.5885316009322802,8.355592555225095e-05,0.4141961529303291,0,35,30.0
13,0.569619302948316,7.558947453660603e-05,0.4113118151405321,0,35,30.0
14,0.5591185050351279,7.575836220244778e-05,0.3874857502705653,1,35,30.0
15,0.5517044227038111,7.071517371687583e-05,0.4161891567084849,0,35,30.0
16,0.5274308511898631,7.090971264135857e-05,0.3653449044049912,1,35,30.0
17,0.52052602881477,6.960652145997821e-05,0.3724303987255627,0,35,30.0
18,0.5016496514990216,6.901881906309253e-05,0.358761050624772,1,35,30.0
19,0.4926462627592541,7.158493735914817e-05,0.3660398763606839,0,35,30.0
20,0.4833785469333331,7.626614500449727e-05,0.3536859285609341,1,35,30.0
21,0.468289410784131,6.631353885279081e-05,0.3477930067950454,1,35,30.0
22,0.4592563272232101,7.21497988793306e-05,0.3328693267480946,1,35,30.0
23,0.4487753879456293,6.817374099097963e-05,0.347410175038455,0,35,30.0
24,0.43772627093962263,6.717079079299722e-05,0.33170268465177694,1,35,30.0
25,0.424391613474914,7.132066297171626e-05,0.35163005197638453,0,35,30.0
26,0.4265748248213813,6.664531333843202e-05,0.3732501280671361,0,35,30.0
27,0.4086774722451255,6.972703561457041e-05,0.33154815946567295,1,35,30.0
28,0.40712332867440726,7.118193588255617e-05,0.3230941928333625,1,35,30.0
29,0.3999175438213916,7.03602149120083e-05,0.33730220697314356,0,35,30.0
30,0.3885354938961211,7.03890813210386e-05,0.3197694874771278,1,35,30.0
31,0.382230933933031,6.59395765026039e-05,0.3248220082028232,0,35,30.0
32,0.3760610017038527,6.888688139519044e-05,0.32581969351337053,0,35,30.0
33,0.3673149634684835,6.635118682295018e-05,0.3337960253569957,0,35,30.0
34,0.36657693946645376,6.83289660758289e-05,0.32246152948989376,0,35,30.0
35,0.36953233643656686,6.927960618798221e-05,0.330209866687161,0,35,30.0
36,0.35431170215209323,6.640764721461372e-05,0.33257669620425073,0,35,30.0
37,0.3678229474240825,6.69007250897786e-05,0.31534147048830197,1,35,30.0
38,0.3575891502911136,6.803741087510606e-05,0.3228843682590585,0,35,30.0
39,0.3597302121065912,6.990471952338426e-05,0.3276596714824727,0,35,30.0
40,0.3546585731563114,6.939972540532749e-05,0.33265476078631745,0,35,30.0
1,0.9279278310991469,0.000221939875787246,0.7133707784323388,1,36,30.0
2,0.8148912333306813,0.00018625285892561632,0.7801295295110682,0,36,30.0
3,0.7828512106622968,0.00015857818176473736,0.5820899714668987,1,36,30.0
4,0.7501394628059297,0.00013708574416731217,0.543230547311506,1,36,30.0
5,0.7228947154113224,0.00012311515837652785,0.5228464564926556,1,36,30.0
6,0.710770322453408,0.00010985820898938636,0.47667700133968816,1,36,30.0
7,0.68751146537917,0.00010310812342054088,0.48722887036524326,0,36,30.0
8,0.6653970657359987,0.00010790799470192897,0.4299838404225561,1,36,30.0
9,0.6583411941925684,9.91363357613972e-05,0.4257918622452092,1,36,30.0
10,0.6347184482784498,9.008092573432285e-05,0.4167947051241458,1,36,30.0
11,0.606549611049039,9.008529758873573e-05,0.42236284878949554,0,36,30.0
12,0.5959111544347945,8.690465819243054e-05,0.4620128082806466,0,36,30.0
13,0.5820786534320741,9.323266403087127e-05,0.48652530240939607,0,36,30.0
14,0.5678448985729899,8.37023807911291e-05,0.40640064602723935,1,36,30.0
15,0.5611737285341535,8.036021868714929e-05,0.37510539019740197,1,36,30.0
16,0.548461952024982,7.594857002654212e-05,0.39872628648011726,0,36,30.0
17,0.5275358525770051,7.527008849484402e-05,0.3582643501268635,1,36,30.0
18,0.5276522466114589,7.824595788752915e-05,0.3593960226368795,0,36,30.0
19,0.5053565569576763,7.653388469667075e-05,0.360613085213622,0,36,30.0
20,0.49469869903155733,7.488741539418697e-05,0.4019305835654011,0,36,30.0
21,0.48127382426034837,7.21521950513956e-05,0.3690356076660584,0,36,30.0
22,0.47212579207760946,7.649309537512073e-05,0.36268457820132144,0,36,30.0
23,0.4660385680340585,7.488035706566214e-05,0.3609630470143931,0,36,30.0
24,0.4665777949350221,7.276671918329416e-05,0.341775139568108,1,36,30.0
25,0.4577706977725029,6.881713588449028e-05,0.2982832040543673,1,36,30.0
26,0.4426732538711457,6.854411887096441e-05,0.3401918615257518,0,36,30.0
27,0.43717167987709954,7.086745899002944e-05,0.32401971494671156,0,36,30.0
28,0.43298141232558657,7.12824036911895e-05,0.3308456304220179,0,36,30.0
29,0.4254020693756285,6.833974787566279e-05,0.3119636166425604,0,36,30.0
30,0.40696784534624647,6.999444416405389e-05,0.32579655449355754,0,36,30.0
31,0.41199364903427305,7.010142001360822e-05,0.3089225320176366,0,36,30.0
32,0.40542209432238624,6.510078812771965e-05,0.33614245370254625,0,36,30.0
1,0.9104845636031207,0.00023980290202684152,0.606464487681022,1,37,30.0
2,0.819028780039619,0.00019624695003799656,0.5733986166501657,1,37,30.0
3,0.7724053151467267,0.00015652234090820832,0.5859727616493519,0,37,30.0
4,0.7488604791024152,0.0001263789354946793,0.5772923111609923,0,37,30.0
5,0.7332513633896323,0.00011251358904273195,0.5193456506117796,1,37,30.0
6,0.6941270624890047,0.00011438182050102007,0.5239282754140022,0,37,30.0
7,0.6850434366394492,0.00011288623346070594,0.4929900754720737,1,37,30.0
8,0.6633232144748463,0.00010298095080275636,0.5591721963271117,0,37,30.0
9,0.6454081759733312,0.00010879361254731467,0.4986840563859695,0,37,30.0
10,0.6238107172881856,0.00010381148805369295,0.5154757377428886,0,37,30.0
11,0.6188854466466343,8.864153334049179e-05,0.4762018377505816,1,37,30.0
12,0.5928043796735651,8.855709041681086e-05,0.4725692884127299,1,37,30.0
13,0.5829327358919032,8.295905221637119e-05,0.4195426054031421,1,37,30.0
14,0.5619520814979777,8.694017905166701e-05,0.47764172465373306,0,37,30.0
15,0.5552538692951202,7.692073246717508e-05,0.4535101581689639,0,37,30.0
16,0.5328498636975008,8.374205640660982e-05,0.46600485138404063,0,37,30.0
17,0.5208989423864028,7.56506714370677e-05,0.42078477951196525,0,37,30.0
18,0.5044899011359495,8.392376775565722e-05,0.4414866535938703,0,37,30.0
19,0.5033903619822334,6.930282128022928e-05,0.40732592850159377,1,37,30.0
20,0.49716280558530024,8.071170536020551e-05,0.40376484161768206,1,37,30.0
21,0.48431600893245025,7.29752321015386e-05,0.4032647214180384,1,37,30.0
22,0.4695007106837104,7.371541437083472e-05,0.4286571556941057,0,37,30.0
23,0.4664866542114931,7.178659549989628e-05,0.3739081897338231,1,37,30.0
24,0.449723414813771,7.713539401747232e-05,0.42595978788840466,0,37,30.0
25,0.44945380792898293,7.192429030136041e-05,0.44233128066246324,0,37,30.0
26,0.4338400114985073,7.226624408812153e-05,0.41113114677942714,0,37,30.0
27,0.42718667878824124,7.299713829792488e-05,0.40985668379526874,0,37,30.0
28,0.41929620364133047,7.256438261452679e-05,0.42012739279331307,0,37,30.0
29,0.41160457730293276,6.833079708431957e-05,0.4053052875017508,0,37,30.0
30,0.40863985664704267,7.407493942403509e-05,0.3981976728485181,0,37,30.0
1,0.9305507313637507,0.00026258525135095364,0.6049473794908338,1,38,30.0
2,0.8271817983615966,0.00018802116877244165,0.5677888628130363,1,38,30.0
3,0.7867652199098042,0.00016421369158100182,0.6311682291485821,0,38,30.0
4,0.7572910097383317,0.00015377804369823674,0.5724108007445126,0,38,30.0
5,0.7393893762713387,0.0001321592621284903,0.5862998509166568,0,38,30.0
6,0.7063953315927869,0.00012024500054914305,0.6183396859070396,0,38,30.0
7,0.690452345779964,0.00011898681294128654,0.5794939183056037,0,38,30.0
8,0.6763550085680825,0.00010480390877395014,0.518812249688986,1,38,30.0
9,0.6562280534278779,9.495634826418522e-05,0.4871885559297824,1,38,30.0
10,0.6489991829508827,9.819584062954943e-05,0.4740510107342043,1,38,30.0
11,0.6223179229668209,9.144381484864945e-05,0.4728347557060188,1,38,30.0
12,0.6093228306798708,9.163773561989988e-05,0.49317116001079725,0,38,30.0
13,0.5925634815579369,8.040355753889474e-05,0.4191757758970159,1,38,30.0
14,0.5802906403938929,7.927887288263134e-05,0.4891272303424974,0,38,30.0
15,0.5668085951890264,8.860248657410488e-05,0.4380376766955934,0,38,30.0
16,0.552739598211788,8.391414883676806e-05,0.4676538748400552,0,38,30.0
17,0.5430207344747725,8.520421046601509e-05,0.4457940230232542,0,38,30.0
18,0.527169830387547,8.627058858629815e-05,0.40685288451160156,1,38,30.0
19,0.5150710599763053,7.990576895757666e-05,0.44694955773279166,0,38,30.0
20,0.5059505215003377,8.140059573980536e-05,0.43332258234000454,0,38,30.0
21,0.4999221996182487,7.257253643426036e-05,0.41080154947023406,0,38,30.0
22,0.4828368663078263,8.28706440318326e-05,0.4070240878905327,0,38,30.0
23,0.48155619275002254,7.732165847431003e-05,0.40640067018377574,1,38,30.0
24,0.4720261501414435,7.291855711498232e-05,0.37884735134358155,1,38,30.0
25,0.4696830025031453,7.59106816466166e-05,0.43848292183237797,0,38,30.0
26,0.46425576366129373,6.849733779831912e-05,0.41128602965180266,0,38,30.0
27,0.447393295665582,7.347622184689888e-05,0.4367347079008039,0,38,30.0
28,0.4440398453956559,7.508881099922638e-05,0.421281760257419,0,38,30.0
29,0.425439494351546,6.953602033241797e-05,0.3919203385948923,0,38,30.0
30,0.4276790679210708,7.409100340910733e-05,0.4035882462544872,0,38,30.0
31,0.4108892895636104,7.579902523416205e-05,0.41876972754256914,0,38,30.0
1,0.9165748841622297,0.000287002265908728,1.026068525460164,1,39,30.0
2,0.8140062900150523,0.00017485654286300654,1.0624159745310977,0,39,30.0
3,0.7817705196492812,0.00014018976174103205,0.9509056305646345,1,39,30.0
4,0.7449445422957925,0.00013544442746719784,0.937308749604795,1,39,30.0
5,0.7268604790463167,0.00011567008576307939,1.174911504951733,0,39,30.0
6,0.6925410460023319,0.00011460693726001089,0.9907656137356872,0,39,30.0
7,0.6772619990741505,0.00010995471983572797,1.1032410595203175,0,39,30.0
8,0.6577597583041471,0.00010004958376692444,0.9264398484280899,1,39,30.0
9,0.6384143450680901,9.868804297772893e-05,0.9598816736471804,0,39,30.0
10,0.6208079516887665,9.479726500370924e-05,0.904132101360246,1,39,30.0
11,0.6090530325384701,8.742377180811566e-05,0.8033688433738332,1,39,30.0
12,0.5970803583369536,8.630645354381105e-05,0.8931477313573548,0,39,30.0
13,0.5853948316153358,8.424352015615167e-05,0.8681249041325695,0,39,30.0
14,0.5814827031948987,8.261155967107591e-05,0.8423774684342527,0,39,30.0
15,0.5504302154569065,7.847134427934447e-05,0.7345149809184892,1,39,30.0
16,0.5533102372113397,7.877117502229178e-05,0.7974501809158413,0,39,30.0
17,0.5232163583531099,7.415993159691638e-05,0.7408150055052474,0,39,30.0
18,0.5278815592036528,7.361948810284958e-05,0.8098900778929025,0,39,30.0
19,0.5114686766091515,7.547340907930286e-05,0.7988003972363453,0,39,30.0
20,0.5083088099956512,6.631624235203215e-05,0.829984920637922,0,39,30.0
21,0.4906840033390943,7.08528574785519e-05,0.8144044639158298,0,39,30.0
22,0.4792588714291068,6.597919679787831e-05,0.7616216247674893,0,39,30.0
1,0.9292507073458504,0.0002915847999461488,0.5711410484888071,1,40,30.0
2,0.8278469688752118,0.0001863502281861763,0.5805456709642351,0,40,30.0
3,0.7840825340327094,0.0001427558798562078,0.5913105541211696,0,40,30.0
4,0.7589452792616451,0.000130265777304029,0.5404963221530485,1,40,30.0
5,0.7367176581831539,0.00012305675404872198,0.5027984648882002,1,40,30.0
6,0.7116588894058676,0.0001149041071852587,0.5044249038084396,0,40,30.0
7,0.689865121420692,0.00010889288888018414,0.48352244584716414,1,40,30.0
8,0.6676985593403086,0.0001000278715390082,0.46003234063433235,1,40,30.0
9,0.6576588010086732,9.487565330346115e-05,0.45030033486325804,1,40,30.0
10,0.637249414359822,9.022787121734034e-05,0.45317970327499696,0,40,30.0
11,0.6224391323678634,8.99020922695533e-05,0.4525754162717938,0,40,30.0
12,0.6085814658333274,7.987156714079901e-05,0.4678160967667166,0,40,30.0
13,0.591449057004031,8.457822101156447e-05,0.45502644224218064,0,40,30.0
14,0.5833098292350769,8.427286657559521e-05,0.44040506640125393,1,40,30.0
15,0.5679217759300681,7.306662887191016e-05,0.4360531358265438,1,40,30.0
16,0.5679553161649143,7.421605619396467e-05,0.46079473157845635,0,40,30.0
17,0.5368115937008577,7.809295818921836e-05,0.43444953075703424,1,40,30.0
18,0.5238827298669254,7.485260554377045e-05,0.42837895269378073,1,40,30.0
19,0.5225480153280146,7.026912768624778e-05,0.40991518653335013,1,40,30.0
20,0.5106378425570095,6.950626026510315e-05,0.4046561057490805,1,40,30.0
21,0.5023383918930503,6.826556238914182e-05,0.4103061955170763,0,40,30.0
22,0.48876114031847784,7.03093944620752e-05,0.3810219101623036,1,40,30.0
23,0.48054030888220844,6.794313928420546e-05,0.378829111647935,1,40,30.0
24,0.4714895662139444,7.102622433140983e-05,0.4054489251538532,0,40,30.0
25,0.46040835941539093,6.524714275763152e-05,0.3816346279926339,0,40,30.0
26,0.44547308683395387,6.970720192732508e-05,0.36754029102486335,1,40,30.0
27,0.44340058530078214,6.755532496540314e-05,0.38770159957873307,0,40,30.0
28,0.4347985341268427,6.908265294281164e-05,0.3588955135966493,1,40,30.0
29,0.4262237317421857,6.566830625695943e-05,0.37846588821803623,0,40,30.0
30,0.4168603697243859,7.248637651654836e-05,0.37021059366914394,0,40,30.0
31,0.40622952019467073,6.623876371818102e-05,0.3855197699950029,0,40,30.0
32,0.40649151731939875,7.155043567763641e-05,0.34180338008439737,1,40,30.0
33,0.40770196774426626,6.629762745647253e-05,0.3617348613823118,0,40,30.0
34,0.3986987026298747,6.85244554273702e-05,0.35726037147647277,0,40,30.0
35,0.39097504685906803,6.620765848578337e-05,0.3608709008552911,0,40,30.0
36,0.3928788034354939,6.667859432876439e-05,0.3670112865392294,0,40,30.0
37,0.3931835886310129,7.241314126397757e-05,0.3556987507942995,0,40,30.0
38,0.39069837787572076,6.350457988446578e-05,0.3578351365672786,0,40,30.0
39,0.38380677664981167,6.434526174630532e-05,0.36372331091048526,0,40,30.0
