SVM+RF+CNN [hard],SVM+RF+CNN [soft],SVM+RF+CNN [weighted_soft],SVM+RF+CNN [stacking],SVM+RF+RESNET_SE [hard],SVM+RF+RESNET_SE [soft],SVM+RF+RESNET_SE [weighted_soft],SVM+RF+RESNET_SE [stacking],SVM+RF+CNN+RESNET_SE [hard],SVM+RF+CNN+RESNET_SE [soft],SVM+RF+CNN+RESNET_SE [weighted_soft],SVM+RF+CNN+RESNET_SE [stacking],SVM+RF [hard],SVM+RF [soft],SVM+RF [weighted_soft],SVM+RF [stacking],SVM+RESNET_SE [hard],SVM+RESNET_SE [soft],SVM+RESNET_SE [weighted_soft],SVM+RESNET_SE [stacking],RF+RESNET_SE [hard],RF+RESNET_SE [soft],RF+RESNET_SE [weighted_soft],RF+RESNET_SE [stacking]
0.6440846153543565,0.6374189349050734,0.6374189349050734,0.6534955140144054,0.6500583494434821,0.6200705129504619,0.6211312041266948,0.6302633186057975,0.6226043549124138,0.5958240906631995,0.5991503598394354,0.6294832637459553,0.6610942948088491,0.6655803885872092,0.6655803885872092,0.6556349417622017,0.6610942948088491,0.6356006582859366,0.6356006582859366,0.6436282281151308,0.6026753059144594,0.5754582934266119,0.5763114543969864,0.5579870257957884
0.8753999605048624,0.9053564765762481,0.9053564765762481,0.8929045796157865,0.8870580365261217,0.9046430521889857,0.9046430521889857,0.8879640055524696,0.8789332339961717,0.8959865231700385,0.8959865231700385,0.8943057970749002,0.8641173938134359,0.875970146798365,0.875970146798365,0.8596222257418973,0.8641173938134359,0.8920735920351742,0.8920735920351742,0.894186970747331,0.8502282632843694,0.8531364376942228,0.8531364376942228,0.8717834784189492
0.8297556337619181,0.842464435941743,0.842464435941743,0.8385385502456809,0.8296678479605308,0.8299826358636577,0.8299826358636577,0.8411377076741131,0.8230735868120449,0.8515063406283823,0.8515063406283823,0.8356026287074567,0.8026899482277057,0.8063576228759659,0.8063576228759659,0.803907109697134,0.8026899482277057,0.8430068307485434,0.8430068307485434,0.8372904568331396,0.7844170805503818,0.8261090538168514,0.8261090538168514,0.8184399262590705
0.8082486629731985,0.8206941190384858,0.8206941190384858,0.8216578488299202,0.8037383348351237,0.8186368114936289,0.8186368114936289,0.8085416460696643,0.8043461359772759,0.8300282090139621,0.8277133423773961,0.812803065109586,0.7679634527580891,0.7845305498139727,0.7845305498139727,0.7917284643095513,0.7679634527580891,0.8173862410512895,0.8173862410512895,0.8089785367580139,0.7922746997349666,0.8057788917810127,0.8057788917810127,0.7976354428341379
0.6760130541582146,0.6788142613105966,0.6788142613105966,0.6694648230047399,0.6710717279426521,0.6496383283608327,0.6496383283608327,0.6478329892469088,0.6555570144756124,0.6036462587537269,0.6055649751087239,0.6482825929637301,0.6954911174105827,0.6876949658480151,0.6876949658480151,0.6937339124839125,0.6954911174105827,0.615622070098755,0.6174764218521595,0.6482739692700914,0.6582109311114686,0.5781949294549641,0.5781949294549641,0.6213606858910498
0.7473889882682955,0.7576077826608243,0.7576077826608243,0.7482157820393115,0.7390930294875254,0.7597116722858719,0.7591490916091053,0.7480619024499521,0.7577765446281188,0.750001692279483,0.7530380431199535,0.7548112041085793,0.7559901477531702,0.7658137275463884,0.7658137275463884,0.7590630020876505,0.7559901477531702,0.755729274857353,0.755729274857353,0.7443986290297634,0.7145014755448332,0.7041713586250868,0.7041713586250868,0.7270901188575165
0.7796071566308174,0.7659991904186692,0.7659991904186692,0.7494940107223094,0.7682647661329809,0.7761861474854757,0.7761861474854757,0.7824564991657901,0.7598578546763792,0.7620795882167775,0.7620795882167775,0.7792435206686354,0.774968415788696,0.771375077340203,0.771375077340203,0.7676055771004197,0.774968415788696,0.7814801137701666,0.7814801137701666,0.7809555998875242,0.7481762662220409,0.7546625472687655,0.7546625472687655,0.7456694920145959
0.7888681815871439,0.7849730326270367,0.7849730326270367,0.7990219296523908,0.790562655432237,0.8167490485472941,0.8167490485472941,0.8184852341788433,0.793228865192142,0.8075850920599779,0.8075850920599779,0.8102629806271046,0.7543530055835337,0.760642424581219,0.760642424581219,0.7581802037782315,0.7543530055835337,0.8180736027487153,0.8180736027487153,0.7965639556339221,0.7513695213612382,0.7876230021651079,0.7876230021651079,0.787032814603237
0.7917741168580525,0.8071355241071068,0.8091581008578057,0.8162389281404605,0.8034072512705149,0.8226958443465988,0.8246076059429837,0.8360901602334945,0.8033215176039848,0.8187218739308799,0.8167886288071164,0.8261430178762637,0.7924311503784587,0.8005993909063469,0.8005993909063469,0.7853138803040582,0.7924311503784587,0.8422987593381759,0.84278639138065,0.8447139862234201,0.7752577572551006,0.8068685801942708,0.8068685801942708,0.8114156672860603
0.7418837191356661,0.7567976794548809,0.7567976794548809,0.7510189214390537,0.7545400700452307,0.7648005696019731,0.7648005696019731,0.764030331621388,0.7493907357725096,0.7575507825507825,0.7575507825507825,0.7535674782806341,0.6979028659134293,0.7279399917190869,0.7279399917190869,0.7309892957919274,0.6979028659134293,0.7468341173051969,0.7468341173051969,0.7411489540134497,0.7383121311281183,0.7796032882435187,0.7796032882435187,0.7862902024142271
0.8813869404292217,0.9075908335927659,0.9075908335927659,0.9077359978097865,0.9015464574264612,0.9472400483882858,0.9472400483882858,0.9336474794096777,0.8953781773225066,0.9231317785519654,0.9231317785519654,0.9325310942036319,0.858444922684521,0.8696081810717343,0.8696081810717343,0.8783935143891162,0.858444922684521,0.9414511015724512,0.9414511015724512,0.9442006052485936,0.8568400332837391,0.9368548861771953,0.9347539222449506,0.950843198131353
0.8600032124816108,0.8857666802274287,0.884176099016764,0.8694977734868967,0.844800714304036,0.853010299651458,0.853010299651458,0.8631347875213202,0.8504292588920885,0.8635308950697376,0.8635308950697376,0.8637927606586411,0.8166930173542191,0.8313580293209556,0.8313580293209556,0.816660454293616,0.8166930173542191,0.8525670643598878,0.8545761580244339,0.843577351960178,0.8149277876966663,0.8418989573231697,0.8418989573231697,0.8540231438189583
0.9072090305204054,0.9171261088904831,0.9164430668780535,0.9131964729990892,0.9141441624383055,0.9146256230521146,0.9146256230521146,0.910277515327839,0.9011928687420288,0.9198163766200456,0.9198163766200456,0.9121384827024572,0.9000335687796831,0.9068601506996293,0.9068601506996293,0.8999137675451275,0.9000335687796831,0.9145438615192709,0.9145438615192709,0.9077711112713027,0.8939836426295077,0.9004514511639552,0.9029160035471214,0.9107828987200669
0.8023987178532632,0.8040668927905656,0.8040668927905656,0.8115029206810656,0.8194275831168094,0.8297296786654405,0.8297296786654405,0.8203809948918042,0.7964063892134873,0.8132577850677314,0.8132577850677314,0.8234532800293066,0.8077138410107172,0.8030244362150355,0.8030244362150355,0.8003636445332677,0.8077138410107172,0.8269321037145133,0.8269321037145133,0.8313811530449361,0.7711021683080721,0.79540225244521,0.79540225244521,0.8035322084501635
0.8310987194230436,0.8643160375430852,0.86432016431197,0.8706240387140338,0.8463066863857456,0.8922285479520897,0.8922285479520897,0.8867882914533631,0.8684592058418491,0.8908028556905996,0.8908028556905996,0.8878835171229927,0.8426218181543597,0.8294718970678874,0.8294718970678874,0.8188624846124719,0.8426218181543597,0.9026836431262478,0.9026836431262478,0.8901774024141441,0.780019128288689,0.8893116092239942,0.8893116092239942,0.8787644213067323
0.852772072156531,0.8596720468653896,0.8596720468653896,0.8562202865410949,0.8522053019147892,0.8747928921849926,0.8747928921849926,0.8721750911378723,0.8552874013548998,0.8705541785517114,0.8705541785517114,0.8729571002278116,0.8388107682115974,0.836985877334129,0.836985877334129,0.8372542254503016,0.8388107682115974,0.8703847872659054,0.8703847872659054,0.86899228814911,0.8355576483872889,0.8532168188134676,0.8532168188134676,0.8570494141716488
0.8055889938646441,0.8209554833007735,0.8186226839442535,0.8209292001768257,0.8154710392889202,0.8386876385481974,0.8408110413102838,0.8411136632607707,0.8146809758112223,0.833561144523419,0.8361488638216645,0.8313267004924682,0.8042652517120371,0.8036813716384259,0.8036813716384259,0.7929562312164701,0.8042652517120371,0.8444857493013042,0.8444857493013042,0.8383496984525572,0.7829022437545126,0.8221393222812401,0.8221393222812401,0.8170349077091303
0.8112375726658445,0.7849206223231544,0.7849206223231544,0.7779297856780313,0.8179555437523758,0.8323493453015178,0.8323493453015178,0.828771915053144,0.7903738735579788,0.8035600950204911,0.8010969181295826,0.8101959490317275,0.8234392881774706,0.8098892821322284,0.8098892821322284,0.7944478141692607,0.8234392881774706,0.8373536632340608,0.8373536632340608,0.840637877658814,0.7703538754826219,0.7728992999145371,0.7733960832728715,0.7651551423244882
0.8177063362497355,0.8273966386854564,0.8247309421760209,0.8328719936455067,0.8179556894808179,0.8398221121156915,0.8398221121156915,0.8338001505314518,0.8361361700310835,0.8444026833845046,0.8444026833845046,0.8340932262979023,0.7582753072081415,0.7732461629565595,0.7732461629565595,0.7756777731052318,0.7582753072081415,0.8337498239070943,0.8334266733538308,0.8266351495898487,0.7798201964221061,0.8494072145085944,0.8494072145085944,0.837088362866188
0.7170922672670718,0.7542781085110741,0.7456255897603583,0.7542015580942154,0.7174564999162322,0.7655645623316532,0.7655645623316532,0.7751281990875912,0.7384609577096473,0.7872348904509681,0.7872348904509681,0.7690322429848157,0.6926349754468984,0.7178511303511304,0.7178511303511304,0.7274103898362487,0.6926349754468984,0.7756647480777722,0.7756647480777722,0.7688999641332299,0.6827689585011569,0.800013607564849,0.800013607564849,0.7785444947209653
0.7992865287119171,0.8029034972883888,0.7993102982151308,0.8052939701094011,0.7944133919076315,0.8019963958879756,0.8019963958879756,0.7949177181923888,0.7843214582621721,0.8026888127513779,0.8026888127513779,0.788678653042533,0.7784542053178383,0.7900773402031877,0.7900773402031877,0.7870461971349576,0.7784542053178383,0.7904589070149787,0.7880249059166031,0.7897292513990578,0.7942523900240688,0.7892964027277758,0.7892964027277758,0.8081523704946403
0.7581414436225022,0.7676117155839871,0.7676117155839871,0.7620084527263637,0.7744538527207824,0.7992575354970696,0.7992575354970696,0.7839027677521213,0.7670944003321353,0.7802896333463114,0.7802896333463114,0.7763628852122002,0.7298605455735194,0.7536316694163713,0.7536316694163713,0.7617461194214923,0.7298605455735194,0.7944641265036716,0.7944641265036716,0.7914547890730845,0.7366067642150091,0.7580951818611241,0.7580951818611241,0.7366932817663984
0.7518835590803601,0.7716746114212851,0.7716746114212851,0.7745216739275769,0.756352087432126,0.7906281087963218,0.7887186430594801,0.7827490421001047,0.7907087020030921,0.7936275336736557,0.7936275336736557,0.788864389151952,0.6764175957441693,0.7136628776187163,0.7136628776187163,0.734879143869442,0.6764175957441693,0.7922183661441906,0.7922183661441906,0.7590478349660618,0.7305645669132046,0.7963517943197185,0.7963517943197185,0.7705739727321071
0.7319573703114076,0.7653337607793709,0.7670401293237862,0.765024462574977,0.7271419292038319,0.7836755014180221,0.7836755014180221,0.77099793016696,0.7168837476457524,0.7748685340570092,0.7748685340570092,0.7793274055999164,0.6852724367396084,0.7196495209247232,0.7196495209247232,0.7305853530586247,0.6852724367396084,0.7667069463502978,0.7679795578357331,0.7591236560896194,0.7449661101196623,0.7389233204810252,0.7400081268891644,0.7604382740011897
0.7801779146515119,0.7728051328345797,0.7749232654426648,0.7910244619530287,0.7832442410357939,0.8072178277309239,0.8072178277309239,0.8177126687437585,0.746942962240126,0.7919390804580392,0.7919390804580392,0.815277205682585,0.7680174319261338,0.7832713716252895,0.7832713716252895,0.7758407439855821,0.7680174319261338,0.8098723565548569,0.8068432721223711,0.8214396204033632,0.779662855593143,0.7953011328937739,0.7918573459558722,0.7941759972587209
0.7310010896259578,0.7216278555898279,0.7247246436238429,0.7175104805779571,0.7491160607612222,0.762582124317154,0.762582124317154,0.7624734840301652,0.7412110844140375,0.7365259731594443,0.7365259731594443,0.7590240501731069,0.7363611427329986,0.7385596117436107,0.7385596117436107,0.7353754580622698,0.7363611427329986,0.765177436570119,0.765177436570119,0.7604557728405271,0.7152486610417648,0.7452588256652393,0.7461231743664899,0.7564185148945424
0.8471052774087386,0.8520755960314443,0.8520755960314443,0.847260750651666,0.8381338881322438,0.8305181174922852,0.8331939349231773,0.8277725172029406,0.8412191679080838,0.8488324382146103,0.8488324382146103,0.8383750667417794,0.8291525086155735,0.8367608698248525,0.8367608698248525,0.8291354453672104,0.8291525086155735,0.8341674480808753,0.8341674480808753,0.8343146842110223,0.827541169893101,0.8160799925328628,0.8160799925328628,0.8320785840051894
0.8101006295560105,0.8224033573886481,0.8224033573886481,0.8303138495153125,0.8262312646861688,0.8477345841432826,0.8477345841432826,0.8450771342496695,0.8282342270209799,0.840829556041724,0.840829556041724,0.8461759418556349,0.8087149984189221,0.7964967799244947,0.7964967799244947,0.8077695043783886,0.8087149984189221,0.8454846136802393,0.8454846136802393,0.8489155500109967,0.779837012094181,0.7920374251273969,0.7920374251273969,0.7933560446262196
0.7721422185223856,0.7929939752588273,0.7929939752588273,0.7921061403433656,0.7887954118101185,0.82639419569148,0.82639419569148,0.8382591019205908,0.789223765844909,0.8210236818885075,0.8210236818885075,0.8341096179444396,0.7889011178336834,0.7896588949526827,0.7896588949526827,0.7854301289185546,0.7889011178336834,0.8370765545920014,0.8370765545920014,0.8336425113817574,0.7418081158937451,0.8285851980145459,0.8285851980145459,0.8191402150524588
0.824023344663657,0.8184816150842873,0.8184816150842873,0.8325665297584421,0.8165410837065051,0.8245050194132275,0.8245050194132275,0.8521989254763502,0.8461925060152903,0.8476995525754871,0.8476995525754871,0.8571828581583352,0.8003173741104742,0.8092683379961532,0.8092683379961532,0.8171359433065422,0.8003173741104742,0.8246299953332976,0.8246299953332976,0.8314730586923185,0.815420191924198,0.8196083583583583,0.8196083583583583,0.8389276680180571
0.7277708039060098,0.7541520377057913,0.7535695048360573,0.7565481134922365,0.7454566312803307,0.7701490826490827,0.7699337988139808,0.7623797948019904,0.7302898807347674,0.7641331843022998,0.7641331843022998,0.770776397128859,0.7377602508887344,0.738449665627085,0.738449665627085,0.7451224736436797,0.7377602508887344,0.7711617276043157,0.7711617276043157,0.777430003206262,0.706385129084563,0.7580971232754999,0.7580971232754999,0.7505590929688868
0.7786773446227364,0.7765789471430744,0.7745145723655473,0.7675180618168217,0.7988426584140935,0.7963344722513674,0.7963344722513674,0.7955996406606651,0.8105935814968528,0.788720451412771,0.788720451412771,0.7910822696824512,0.7344483912664599,0.7637939964329226,0.7637939964329226,0.7492761766180996,0.7344483912664599,0.7889916611200638,0.7892903404824632,0.7861104598550086,0.7675591337772055,0.7872691634402018,0.7872691634402018,0.7790847448577798
0.8734707261080815,0.9009853070819611,0.9009853070819611,0.899423567802183,0.8764615712638295,0.8948223078657861,0.8948223078657861,0.8950840397031206,0.8870517394733672,0.924571311283134,0.924571311283134,0.9081794669347343,0.8477766212286448,0.8564433390670778,0.8564433390670778,0.8588849307839077,0.8477766212286448,0.9018164793755032,0.9018164793755032,0.8857727734349036,0.8483985123769411,0.885989940313401,0.885989940313401,0.8957723353596134
0.870755404163916,0.8812331916819627,0.8812331916819627,0.8797571364994596,0.8710471417718255,0.8904172873384282,0.8904172873384282,0.8917607660913335,0.8620736846544084,0.8840443821103706,0.8806812796003423,0.8918589174800354,0.844441056815531,0.8522467811941496,0.8522467811941496,0.8610519483005601,0.844441056815531,0.8892911764727568,0.8892911764727568,0.8998340273341515,0.8450584444471654,0.8782551737195728,0.8782551737195728,0.8715297930172307
0.7319401655118518,0.7404487807270247,0.7404487807270247,0.7422611104899139,0.7382295029960859,0.7459877791026139,0.7480910402594795,0.7488744461998421,0.702321576964081,0.7358195369957954,0.7358195369957954,0.7429797428680736,0.7501497150169296,0.743207971774711,0.743207971774711,0.7385345265172747,0.7501497150169296,0.7402942260577525,0.7402942260577525,0.741272029459399,0.7011606199497994,0.7249515641635131,0.7270718241078107,0.734244606058144
0.7316021006123301,0.7301469377053982,0.7324983266788672,0.7274959534072887,0.7458536778349738,0.7672288646233758,0.7672288646233758,0.7529508207699251,0.7258022286924589,0.7518613025294411,0.7536708619374524,0.7589174295063438,0.7203683413360833,0.7141720129431388,0.7141720129431388,0.7210608604667315,0.7203683413360833,0.766176751287551,0.766176751287551,0.7575719162809977,0.7455897454602711,0.7449319230236783,0.7449319230236783,0.7531912110218281
0.8808624975129888,0.8806270648613839,0.8806270648613839,0.8917502979948511,0.8745831517198794,0.8532513940155502,0.8532513940155502,0.8538566322015351,0.8883552229242657,0.903312743239072,0.903312743239072,0.8771782314736969,0.7907394434391044,0.8275581711301041,0.8275581711301041,0.8358011769661318,0.7907394434391044,0.8347426193836515,0.8347426193836515,0.8289844587330706,0.8694714899812868,0.8910321268844295,0.8910321268844295,0.8886124983226702
0.8455835140536634,0.8404197200014849,0.8404197200014849,0.8350690347660531,0.8483258080032274,0.8559761801835882,0.8559761801835882,0.8375977910096482,0.8249787672104829,0.8513029260914752,0.8513029260914752,0.8377546766468568,0.80764422807116,0.8346529557967444,0.8346529557967444,0.8376847168367156,0.80764422807116,0.8504706898137269,0.8504706898137269,0.833468642964271,0.838085497627845,0.8599669336008396,0.8599669336008396,0.8536275131664937
0.7798708613626808,0.803907126836281,0.803907126836281,0.8068008745523375,0.7732811466824542,0.805174090056328,0.805174090056328,0.8072404134959148,0.7691079034626359,0.803521732257961,0.803414516195415,0.8174245775915734,0.7681083234921882,0.7693227518852274,0.7693227518852274,0.7579396640966544,0.7681083234921882,0.8034501228264977,0.8029293588414144,0.8015398176287655,0.7523619214748247,0.7825524169610191,0.7825524169610191,0.8117836376509966
0.7970242982518461,0.8030084455555319,0.8030084455555319,0.8085927271121556,0.7913795391472269,0.7908164097054483,0.7908164097054483,0.8001273045441255,0.7607243762498893,0.7945374657732416,0.7945374657732416,0.8050308600108518,0.7593831519907634,0.7747666071391617,0.7747666071391617,0.7907508770446764,0.7593831519907634,0.7816401820294483,0.7821828200692368,0.7787639513958239,0.8060080973387425,0.7840875342813999,0.7840875342813999,0.8020015844585285
