subject,channel,alpha,f1,drop_pp
1,0,1.0,0.5551840916405262,0.0
1,0,0.75,0.5442907176592953,1.0893373981230914
1,0,0.5,0.5353504669814091,1.9833624659117088
1,0,0.25,0.5215814749992318,3.360261664129438
1,0,0.0,0.5135027971544412,4.168129448608493
1,1,1.0,0.5551840916405262,0.0
1,1,0.75,0.5549987254608402,0.018536617968600844
1,1,0.5,0.552120754681588,0.3063336958938123
1,1,0.25,0.5490235217316584,0.6160569908867819
1,1,0.0,0.5353600413003172,1.9824050340208954
1,2,1.0,0.5551840916405262,0.0
1,2,0.75,0.5393666593605194,1.581743228000676
1,2,0.5,0.5294930068445123,2.5691084796013897
1,2,0.25,0.5119285855440777,4.325550609644846
1,2,0.0,0.5012418928248941,5.394219881563211
1,3,1.0,0.5551840916405262,0.0
1,3,0.75,0.5393787856885505,1.5805305951975712
1,3,0.5,0.5408866586609039,1.429743297962227
1,3,0.25,0.5189188292291818,3.6265262411344423
1,3,0.0,0.4571396569799547,9.80444346605715
1,4,1.0,0.5551840916405262,0.0
1,4,0.75,0.560074640860667,-0.4890549220140872
1,4,0.5,0.5705542329252453,-1.537014128471914
1,4,0.25,0.512761287264987,4.242280437553914
1,4,0.0,0.42400568181818177,13.11784098223444
1,5,1.0,0.5551840916405262,0.0
1,5,0.75,0.5451265984223572,1.0057493218168956
1,5,0.5,0.5161108881338262,3.907320350669996
1,5,0.25,0.46206377656427533,9.312031507625084
1,5,0.0,0.38001537870841107,17.516871293211512
1,6,1.0,0.5551840916405262,0.0
1,6,0.75,0.5641004110159835,-0.8916319375457338
1,6,0.5,0.575945786869209,-2.0761695228682875
1,6,0.25,0.5971812279216575,-4.199713628113133
1,6,0.0,0.6144427169623866,-5.925862532186043
1,7,1.0,0.5551840916405262,0.0
1,7,0.75,0.5609962311519479,-0.5812139511421677
1,7,0.5,0.551338116843,0.38459747975261305
1,7,0.25,0.5217834693759862,3.340062226453999
1,7,0.0,0.5004616095802021,5.472248206032404
1,8,1.0,0.5551840916405262,0.0
1,8,0.75,0.5497435640315941,0.54405276089321
1,8,0.5,0.5390710090132738,1.6113082627252417
1,8,0.25,0.5110648819939902,4.411920964653593
1,8,0.0,0.4568409432252412,9.834314841528496
2,0,1.0,0.8408392164837566,0.0
2,0,0.75,0.822509245393258,1.832997109049861
2,0,0.5,0.8077460181059297,3.309319837782687
2,0,0.25,0.7797039489376201,6.113526754613652
2,0,0.0,0.7316204804328639,10.92187360508927
2,1,1.0,0.8408392164837566,0.0
2,1,0.75,0.801999944634832,3.883927184892455
2,1,0.5,0.7822317127849001,5.860750369885648
2,1,0.25,0.7750736324286662,6.5765584055090365
2,1,0.0,0.7582817588506273,8.255745763312927
2,2,1.0,0.8408392164837566,0.0
2,2,0.75,0.8237740317637225,1.7065184720034043
2,2,0.5,0.8150547514736146,2.5784465010141977
2,2,0.25,0.7333626538481347,10.747656263562188
2,2,0.0,0.6508438204285595,18.99953960551971
2,3,1.0,0.8408392164837566,0.0
2,3,0.75,0.839019152211635,0.18200642721215576
2,3,0.5,0.834562969924812,0.6276246558944543
2,3,0.25,0.8121538537275627,2.8685362756193933
2,3,0.0,0.7802991824112514,6.054003407250519
2,4,1.0,0.8408392164837566,0.0
2,4,0.75,0.8402054122751359,0.06338042086206919
2,4,0.5,0.8144959351129513,2.6343281370805327
2,4,0.25,0.7769028959918981,6.3936320491858485
2,4,0.0,0.7700278232325898,7.0811393251166805
2,5,1.0,0.8408392164837566,0.0
2,5,0.75,0.8316662266032976,0.9172989880459004
2,5,0.5,0.780199140329163,6.064007615459355
2,5,0.25,0.7688154983413604,7.2023718142396165
2,5,0.0,0.7102516968325792,13.058751965117743
2,6,1.0,0.8408392164837566,0.0
2,6,0.75,0.8477356394699795,-0.689642298622295
2,6,0.5,0.8304237170389407,1.04154994448159
2,6,0.25,0.7991513745343998,4.168784194935682
2,6,0.0,0.7765393578918836,6.429985859187304
2,7,1.0,0.8408392164837566,0.0
2,7,0.75,0.819989826579499,2.0849389904257554
2,7,0.5,0.780686699171419,6.015251731233762
2,7,0.25,0.6952721776252574,14.55670388584992
2,7,0.0,0.5779260275620858,26.29131889216708
2,8,1.0,0.8408392164837566,0.0
2,8,0.75,0.831031961835805,0.9807254647951624
2,8,0.5,0.8151115692483617,2.572764723539489
2,8,0.25,0.7700147554196202,7.082446106413642
2,8,0.0,0.718201014847476,12.263820163628058
3,0,1.0,0.8374828825727152,0.0
3,0,0.75,0.8333113162720858,0.41715663006294257
3,0,0.5,0.8159450927796342,2.1537789793080964
3,0,0.25,0.7984691902322463,3.901369234046892
3,0,0.0,0.723447251314435,11.40356312582802
3,1,1.0,0.8374828825727152,0.0
3,1,0.75,0.8399626235833132,-0.24797410105980022
3,1,0.5,0.8189952321860149,1.8487650386700305
3,1,0.25,0.7523490192642903,8.513386330842486
3,1,0.0,0.639742349486524,19.774053308619123
3,2,1.0,0.8374828825727152,0.0
3,2,0.75,0.8194369044875967,1.8045978085118541
3,2,0.5,0.7673650749347448,7.011780763797038
3,2,0.25,0.715357546599718,12.212533597299725
3,2,0.0,0.6443725784851836,19.31103040875316
3,3,1.0,0.8374828825727152,0.0
3,3,0.75,0.8272466103773255,1.0236272195389695
3,3,0.5,0.673803575040713,16.36793075320022
3,3,0.25,0.5797266590488396,25.77562235238756
3,3,0.0,0.553705602673145,28.377727989957023
3,4,1.0,0.8374828825727152,0.0
3,4,0.75,0.7864238618524333,5.10590207202819
3,4,0.5,0.7534746304559512,8.400825211676398
3,4,0.25,0.7255362114098143,11.194667116290091
3,4,0.0,0.6978221303571315,13.966075221558372
3,5,1.0,0.8374828825727152,0.0
3,5,0.75,0.7838696240324037,5.3613258540311515
3,5,0.5,0.7086551872232301,12.882769534948512
3,5,0.25,0.6417479310710626,19.573495150165254
3,5,0.0,0.5718893519911978,26.559353058151736
3,6,1.0,0.8374828825727152,0.0
3,6,0.75,0.8390309118496365,-0.15480292769213255
3,6,0.5,0.8403187428679858,-0.2835860295270609
3,6,0.25,0.8470512248779001,-0.9568342305184885
3,6,0.0,0.8327773945674493,0.4705488005265934
3,7,1.0,0.8374828825727152,0.0
3,7,0.75,0.831156485689823,0.632639688289216
3,7,0.5,0.7955587361209993,4.192414645171594
3,7,0.25,0.7765751347457015,6.090774782701369
3,7,0.0,0.7154885953318958,12.19942872408194
3,8,1.0,0.8374828825727152,0.0
3,8,0.75,0.8438356468369532,-0.6352764264238031
3,8,0.5,0.8437097749844441,-0.6226892411728913
3,8,0.25,0.8098387442259074,2.764413834680779
3,8,0.0,0.7428008048842231,9.468207768849213
4,0,1.0,0.7282578971148025,0.0
4,0,0.75,0.7358086048064593,-0.7550707691656777
4,0,0.5,0.7323905083738151,-0.4132611259012653
4,0,0.25,0.7131663081813004,1.5091588933502043
4,0,0.0,0.6676612561452971,6.059664096950534
4,1,1.0,0.7282578971148025,0.0
4,1,0.75,0.6984445667218422,2.98133303929603
4,1,0.5,0.6763041053703246,5.1953791744477895
4,1,0.25,0.6317731337640615,9.648476335074097
4,1,0.0,0.6567977788400406,7.146011827476184
4,2,1.0,0.7282578971148025,0.0
4,2,0.75,0.7164356936901592,1.182220342464324
4,2,0.5,0.6980649524069849,3.0192944707817637
4,2,0.25,0.6528814646540282,7.53764324607743
4,2,0.0,0.6150789479671467,11.317894914765581
4,3,1.0,0.7282578971148025,0.0
4,3,0.75,0.6986021557699003,2.965574134490223
4,3,0.5,0.6856072467207981,4.26506503940044
4,3,0.25,0.6706134249195723,5.764447219523017
4,3,0.0,0.6614180324974317,6.68398646173708
4,4,1.0,0.7282578971148025,0.0
4,4,0.75,0.7871997134012939,-5.894181628649142
4,4,0.5,0.7559420852834439,-2.7684188168641377
4,4,0.25,0.7309801334148017,-0.27222362999992367
4,4,0.0,0.7025223563655791,2.573554074922335
4,5,1.0,0.7282578971148025,0.0
4,5,0.75,0.6857848678182675,4.247302929653496
4,5,0.5,0.6582739277156292,6.9983969399173285
4,5,0.25,0.6059555070056453,12.230239010915723
4,5,0.0,0.4930793362097281,23.51785609050744
4,6,1.0,0.7282578971148025,0.0
4,6,0.75,0.6865234375,4.173445961480249
4,6,0.5,0.6694528146476015,5.880508246720096
4,6,0.25,0.6487169647241191,7.954093239068339
4,6,0.0,0.6296717698469889,9.858612726781358
4,7,1.0,0.7282578971148025,0.0
4,7,0.75,0.7148697474205532,1.3388149694249285
4,7,0.5,0.6902022036737319,3.8055693441070626
4,7,0.25,0.6338194429777373,9.44384541370652
4,7,0.0,0.5937655226598565,13.4492374454946
4,8,1.0,0.7282578971148025,0.0
4,8,0.75,0.778145499189847,-4.98876020750445
4,8,0.5,0.7849151323217961,-5.665723520699362
4,8,0.25,0.7661775590806156,-3.791966196581309
4,8,0.0,0.7340772019260768,-0.5819304811274351
5,0,1.0,0.5620212419147826,0.0
5,0,0.75,0.5674656787696709,-0.5444436854888268
5,0,0.5,0.568714503218343,-0.6693261303560405
5,0,0.25,0.5443431980693815,1.767804384540117
5,0,0.0,0.48187466382806443,8.01465780867182
5,1,1.0,0.5620212419147826,0.0
5,1,0.75,0.5450238938718819,1.6997348042900762
5,1,0.5,0.538705688364522,2.3315553550260604
5,1,0.25,0.526052769947517,3.5968471967265603
5,1,0.0,0.5146553633618898,4.736587855289287
5,2,1.0,0.5620212419147826,0.0
5,2,0.75,0.552456637332449,0.9564604582333658
5,2,0.5,0.5440843996821225,1.7936842232660122
5,2,0.25,0.5256601501623763,3.6361091752406316
5,2,0.0,0.49462557883990876,6.739566307487388
5,3,1.0,0.5620212419147826,0.0
5,3,0.75,0.5905711855778901,-2.854994366310748
5,3,0.5,0.6176312330409783,-5.5609991126195695
5,3,0.25,0.6112869457822853,-4.926570386750262
5,3,0.0,0.6044218515667215,-4.240060965193882
5,4,1.0,0.5620212419147826,0.0
5,4,0.75,0.5473057523314286,1.4715489583354002
5,4,0.5,0.5344708051409736,2.7550436773809084
5,4,0.25,0.5241703637501781,3.785087816460453
5,4,0.0,0.5194205167410179,4.260072517376479
5,5,1.0,0.5620212419147826,0.0
5,5,0.75,0.5575641470149479,0.44570948998347015
5,5,0.5,0.5361478105092234,2.58734314055592
5,5,0.25,0.507676921277683,5.434432063709959
5,5,0.0,0.4731430945793452,8.887814733543742
5,6,1.0,0.5620212419147826,0.0
5,6,0.75,0.5643525241095023,-0.2331282194719675
5,6,0.5,0.567300478092489,-0.5279236177706315
5,6,0.25,0.5434889200675148,1.853232184726783
5,6,0.0,0.5343250141485439,2.76962277662387
5,7,1.0,0.5620212419147826,0.0
5,7,0.75,0.5645614278075342,-0.2540185892751512
5,7,0.5,0.5172628320682603,4.475840984652235
5,7,0.25,0.4842454097626511,7.777583215213152
5,7,0.0,0.47397885643045523,8.80423854843274
5,8,1.0,0.5620212419147826,0.0
5,8,0.75,0.5541814332999547,0.7839808614827914
5,8,0.5,0.5566100324132788,0.5411209501503866
5,8,0.25,0.49796804337279077,6.405319854199187
5,8,0.0,0.46810936253527524,9.39118793795074
6,0,1.0,0.7199034847841594,0.0
6,0,0.75,0.6532889517921645,6.6614532991994935
6,0,0.5,0.6130870478916669,10.681643689249254
6,0,0.25,0.5925986965611821,12.73047882229773
6,0,0.0,0.5855648967085049,13.433858807565457
6,1,1.0,0.7199034847841594,0.0
6,1,0.75,0.655034836957914,6.486864782624546
6,1,0.5,0.6205925552363293,9.931092954783017
6,1,0.25,0.5578689028128151,16.203458197134434
6,1,0.0,0.5815719788016657,13.833150598249377
6,2,1.0,0.7199034847841594,0.0
6,2,0.75,0.7494322109449643,-2.952872616080482
6,2,0.5,0.7455273284835735,-2.562384369941406
6,2,0.25,0.7314066049267667,-1.1503120142607237
6,2,0.0,0.7096108291185407,1.0292655665618766
6,3,1.0,0.7199034847841594,0.0
6,3,0.75,0.7386163550770188,-1.8712870292859396
6,3,0.5,0.7498581639190544,-2.9954679134894913
6,3,0.25,0.7254722689433721,-0.5568784159212692
6,3,0.0,0.623447372562245,9.645611222191441
6,4,1.0,0.7199034847841594,0.0
6,4,0.75,0.7320876594465421,-1.218417466238264
6,4,0.5,0.7120916060629542,0.7811878721205257
6,4,0.25,0.6894531327561199,3.0450352028039585
6,4,0.0,0.6818936298878485,3.8009854896310924
6,5,1.0,0.7199034847841594,0.0
6,5,0.75,0.6739445856384035,4.59588991457559
6,5,0.5,0.6244054348755909,9.549804990856858
6,5,0.25,0.5764748487049828,14.342863607917666
6,5,0.0,0.5219021401680305,19.800134461612895
6,6,1.0,0.7199034847841594,0.0
6,6,0.75,0.6893535152324601,3.0549969551699308
6,6,0.5,0.6162911400984753,10.361234468568414
6,6,0.25,0.5966677082052265,12.323577657893292
6,6,0.0,0.5950895689860036,12.481391579815583
6,7,1.0,0.7199034847841594,0.0
6,7,0.75,0.6400830892776539,7.982039550650555
6,7,0.5,0.5800281394531921,13.987534533096735
6,7,0.25,0.5009687422518191,21.893474253234036
6,7,0.0,0.4573302063390991,26.257327844506033
6,8,1.0,0.7199034847841594,0.0
6,8,0.75,0.7344404147429827,-1.4536929958823275
6,8,0.5,0.7432139568326429,-2.3310472048483466
6,8,0.25,0.6881480614921478,3.175542329201164
6,8,0.0,0.6379859380061657,8.191754677799379
7,0,1.0,0.7257292747607517,0.0
7,0,0.75,0.7281695189985585,-0.24402442378068656
7,0,0.5,0.720653453689168,0.5075821071583664
7,0,0.25,0.582599198225562,14.31300765351896
7,0,0.0,0.5226686092373851,20.306066552336656
7,1,1.0,0.7257292747607517,0.0
7,1,0.75,0.7051072989741523,2.062197578659941
7,1,0.5,0.6710948115893585,5.46344631713932
7,1,0.25,0.6271874040718263,9.85418706889254
7,1,0.0,0.6166268289149645,10.91024458457872
7,2,1.0,0.7257292747607517,0.0
7,2,0.75,0.7451275286934875,-1.9398253932735865
7,2,0.5,0.723166615041887,0.25626597188647127
7,2,0.25,0.7175547637811788,0.8174510979572891
7,2,0.0,0.6873840631197264,3.8345211641025223
7,3,1.0,0.7257292747607517,0.0
7,3,0.75,0.7480051572692404,-2.2275882508488776
7,3,0.5,0.7560021819548003,-3.0272907194048626
7,3,0.25,0.6249186039123252,10.081067084842644
7,3,0.0,0.6028630030758594,12.286627168489229
7,4,1.0,0.7257292747607517,0.0
7,4,0.75,0.7100078916120383,1.5721383148713408
7,4,0.5,0.6738869464169293,5.184232834382241
7,4,0.25,0.6546139807998967,7.111529396085492
7,4,0.0,0.6180413095969137,10.768796516383794
7,5,1.0,0.7257292747607517,0.0
7,5,0.75,0.7489828749550291,-2.325360019427747
7,5,0.5,0.715825194676917,0.9904080083834699
7,5,0.25,0.6528002502972268,7.292902446352489
7,5,0.0,0.5211925589676796,20.45367157930721
7,6,1.0,0.7257292747607517,0.0
7,6,0.75,0.7240116662117518,0.17176085489998272
7,6,0.5,0.7087727198863216,1.695655487443004
7,6,0.25,0.7022169728075518,2.3512301953199866
7,6,0.0,0.69802811173606,2.770116302469161
7,7,1.0,0.7257292747607517,0.0
7,7,0.75,0.7288123475295059,-0.30830727687541915
7,7,0.5,0.719332663588417,0.6396611172334699
7,7,0.25,0.6641974692442313,6.153180551652038
7,7,0.0,0.6489130823567171,7.6816192404034584
7,8,1.0,0.7257292747607517,0.0
7,8,0.75,0.7319190610117006,-0.6189786250948903
7,8,0.5,0.7311181355681449,-0.5388860807393203
7,8,0.25,0.6916516063029938,3.4077668457757837
7,8,0.0,0.6556705969884808,7.005867777227081
8,0,1.0,0.8049499183018128,0.0
8,0,0.75,0.8076757985444717,-0.27258802426588513
8,0,0.5,0.7942553135442273,1.0694604757585546
8,0,0.25,0.6199522903397637,18.499762796204912
8,0,0.0,0.5891176973895103,21.583222091230258
8,1,1.0,0.8049499183018128,0.0
8,1,0.75,0.8063103740053869,-0.1360455703574015
8,1,0.5,0.8124249911151207,-0.7475072813307837
8,1,0.25,0.797856904523015,0.7093013778797785
8,1,0.0,0.7114185286969568,9.353138960485607
8,2,1.0,0.8049499183018128,0.0
8,2,0.75,0.806913846619729,-0.19639283179161415
8,2,0.5,0.8089442792149071,-0.39943609130942415
8,2,0.25,0.811604202225687,-0.6654283923874127
8,2,0.0,0.8105958714621923,-0.5645953160379413
8,3,1.0,0.8049499183018128,0.0
8,3,0.75,0.8013627050722552,0.3587213229557684
8,3,0.5,0.7846857058205484,2.026421248126442
8,3,0.25,0.7904669061990897,1.448301210272318
8,3,0.0,0.7351983734899871,6.975154481182577
8,4,1.0,0.8049499183018128,0.0
8,4,0.75,0.7960814785575929,0.8868439744219914
8,4,0.5,0.7952834113238832,0.966650697792959
8,4,0.25,0.7647880274375093,4.016189086430355
8,4,0.0,0.7103342820224496,9.46156362793632
8,5,1.0,0.8049499183018128,0.0
8,5,0.75,0.7959255404454011,0.9024377856411747
8,5,0.5,0.7703415525373846,3.4608365764428273
8,5,0.25,0.7030464202270493,10.190349807476352
8,5,0.0,0.6583504245704023,14.659949373141057
8,6,1.0,0.8049499183018128,0.0
8,6,0.75,0.8224217264231801,-1.7471808121367283
8,6,0.5,0.8164419415747388,-1.1492023272925977
8,6,0.25,0.8164528962228466,-1.150297792103372
8,6,0.0,0.7388834744889194,6.606644381289339
8,7,1.0,0.8049499183018128,0.0
8,7,0.75,0.8159191587583023,-1.0969240456489504
8,7,0.5,0.8079358221314528,-0.29859038296399243
8,7,0.25,0.7769855784858408,2.7964339815972017
8,7,0.0,0.7368412026855804,6.8108715616232445
8,8,1.0,0.8049499183018128,0.0
8,8,0.75,0.7865949979831063,1.8354920318706558
8,8,0.5,0.793378811137186,1.1571107164626837
8,8,0.25,0.7518370804097407,5.311283789207211
8,8,0.0,0.6921455965497638,11.280432175204902
9,0,1.0,0.8061579340612931,0.0
9,0,0.75,0.8036722684191707,0.2485665642122381
9,0,0.5,0.8030798810788979,0.3078052982395163
9,0,0.25,0.7841466921419068,2.2011241919386304
9,0,0.0,0.7244702874978234,8.168764656346973
9,1,1.0,0.8061579340612931,0.0
9,1,0.75,0.7924304887136995,1.3727445347593625
9,1,0.5,0.7315980353558669,7.4559898705426235
9,1,0.25,0.6949012541234683,11.125667993782484
9,1,0.0,0.6827907882465722,12.336714581472085
9,2,1.0,0.8061579340612931,0.0
9,2,0.75,0.8100599615715895,-0.39020275102964463
9,2,0.5,0.8098249758597422,-0.3667041798449122
9,2,0.25,0.768721354907963,3.7436579153330096
9,2,0.0,0.702996943861959,10.31609901993341
9,3,1.0,0.8061579340612931,0.0
9,3,0.75,0.8096069120310561,-0.34489779697629563
9,3,0.5,0.8101052257706874,-0.39472917093943405
9,3,0.25,0.7783741326424254,2.7783801418867715
9,3,0.0,0.7617611659697088,4.439676809158433
9,4,1.0,0.8061579340612931,0.0
9,4,0.75,0.7837993577812596,2.235857628003346
9,4,0.5,0.7550778789861307,5.1080055075162445
9,4,0.25,0.7012637408050252,10.489419325626791
9,4,0.0,0.7042334450080161,10.1924489053277
9,5,1.0,0.8061579340612931,0.0
9,5,0.75,0.8059090909090909,0.02488431522021939
9,5,0.5,0.7769389094380146,2.9219024623278522
9,5,0.25,0.7058127208729618,10.034521318833134
9,5,0.0,0.6467288789722492,15.942905508904392
9,6,1.0,0.8061579340612931,0.0
9,6,0.75,0.8018417394929777,0.43161945683154457
9,6,0.5,0.7866498091857703,1.950812487552278
9,6,0.25,0.7706566271169036,3.5501306944389466
9,6,0.0,0.729768976068073,7.638895799322009
9,7,1.0,0.8061579340612931,0.0
9,7,0.75,0.7982508063535884,0.7907127707704742
9,7,0.5,0.772220201991178,3.393773207011508
9,7,0.25,0.7315043529977509,7.465358106354225
9,7,0.0,0.6640650678846505,14.209286617664263
9,8,1.0,0.8061579340612931,0.0
9,8,0.75,0.7832767279080941,2.2881206153198996
9,8,0.5,0.7699819810306736,3.617595303061949
9,8,0.25,0.7198353363054856,8.632259775580753
9,8,0.0,0.6400608581039366,16.609707595735646
10,0,1.0,0.6935186719168973,0.0
10,0,0.75,0.6977903669335196,-0.4271695016622279
10,0,0.5,0.6895794759319205,0.3939195984976829
10,0,0.25,0.652863414337506,4.065525757939126
10,0,0.0,0.4917068387885283,20.181183312836904
10,1,1.0,0.6935186719168973,0.0
10,1,0.75,0.694483256572169,-0.09645846552717163
10,1,0.5,0.6683242545656733,2.5194417351223963
10,1,0.25,0.6001557897710261,9.336288214587118
10,1,0.0,0.5678200778976288,12.569859401926852
10,2,1.0,0.6935186719168973,0.0
10,2,0.75,0.6883897575856461,0.5128914331251178
10,2,0.5,0.6780208943809718,1.5497777535925517
10,2,0.25,0.6361255168315297,5.739315508536757
10,2,0.0,0.5309495494815262,16.256912243537116
10,3,1.0,0.6935186719168973,0.0
10,3,0.75,0.694177547115324,-0.06588751984266672
10,3,0.5,0.693465283317667,0.005338859923031958
10,3,0.25,0.6766752726969748,1.6843399219922506
10,3,0.0,0.5959500610130581,9.756861090383918
10,4,1.0,0.6935186719168973,0.0
10,4,0.75,0.6844768676503535,0.9041804266543774
10,4,0.5,0.7007598450972768,-0.7241173180379534
10,4,0.25,0.6846404018992852,0.88782700176121
10,4,0.0,0.6490051501040022,4.451352181289514
10,5,1.0,0.6935186719168973,0.0
10,5,0.75,0.6975273902232063,-0.40087183063090004
10,5,0.5,0.6706172248902939,2.290144702660346
10,5,0.25,0.6421531136789563,5.136555823794097
10,5,0.0,0.6213979659912893,7.212070592560805
10,6,1.0,0.6935186719168973,0.0
10,6,0.75,0.7033159472254538,-0.9797275308556452
10,6,0.5,0.686962319091276,0.6556352825621281
10,6,0.25,0.6761986702252188,1.7320001691678466
10,6,0.0,0.6699876470089369,2.353102490796044
10,7,1.0,0.6935186719168973,0.0
10,7,0.75,0.6863924471548105,0.7126224762086797
10,7,0.5,0.663053065842507,3.0465606074390306
10,7,0.25,0.6383203763972777,5.519829551961964
10,7,0.0,0.577413932286313,11.610473963058432
10,8,1.0,0.6935186719168973,0.0
10,8,0.75,0.6974027405138178,-0.3884068596920476
10,8,0.5,0.6908134894212882,0.27051824956091375
10,8,0.25,0.6580698612478655,3.5448810669031827
10,8,0.0,0.6382867017419912,5.523197017490611
11,0,1.0,0.868079356305713,0.0
11,0,0.75,0.86297037030742,0.5108985998293014
11,0,0.5,0.8363126053846028,3.1766750921110143
11,0,0.25,0.7912930861276963,7.678627017801665
11,0,0.0,0.7509120864415526,11.716726986416038
11,1,1.0,0.868079356305713,0.0
11,1,0.75,0.854463483376185,1.3615872929527928
11,1,0.5,0.8130748814992692,5.500447480644377
11,1,0.25,0.7797729112560614,8.830644504965157
11,1,0.0,0.7441745541175712,12.390480218814181
11,2,1.0,0.868079356305713,0.0
11,2,0.75,0.8650617692281555,0.3017587077557504
11,2,0.5,0.8368711310474242,3.1208225258288813
11,2,0.25,0.7917128673090448,7.63664889966682
11,2,0.0,0.7332682082136677,13.48111480920453
11,3,1.0,0.868079356305713,0.0
11,3,0.75,0.8678931355924022,0.01862207133107585
11,3,0.5,0.842542315780496,2.553704052521699
11,3,0.25,0.7487781361413344,11.93012201643786
11,3,0.0,0.6985681469386955,16.95112093670175
11,4,1.0,0.868079356305713,0.0
11,4,0.75,0.8652981435637033,0.2781212742009709
11,4,0.5,0.8530800516687614,1.4999304636951538
11,4,0.25,0.8170974987999238,5.098185750578921
11,4,0.0,0.7713546964815835,9.672465982412948
11,5,1.0,0.868079356305713,0.0
11,5,0.75,0.8292690923231204,3.8810263982592574
11,5,0.5,0.7815351324365368,8.654422386917615
11,5,0.25,0.729905688960146,13.817366734556702
11,5,0.0,0.6484545997501608,21.962475655555213
11,6,1.0,0.868079356305713,0.0
11,6,0.75,0.8681234777677503,-0.004412146203736089
11,6,0.5,0.8594153442520599,0.8664012053653081
11,6,0.25,0.8458323227250103,2.224703358070268
11,6,0.0,0.8293923206137142,3.868703569199883
11,7,1.0,0.868079356305713,0.0
11,7,0.75,0.8689166136392305,-0.08372573335174716
11,7,0.5,0.8606610687357799,0.7418287569933124
11,7,0.25,0.8134236776903035,5.4655678615409435
11,7,0.0,0.6352343643548168,23.284499195089616
11,8,1.0,0.868079356305713,0.0
11,8,0.75,0.8727009740190949,-0.4621617713381876
11,8,0.5,0.8511077060753248,1.6971650230388158
11,8,0.25,0.8314091302368661,3.6670226068846845
11,8,0.0,0.8059406703306601,6.213868597505289
12,0,1.0,0.7412239621910744,0.0
12,0,0.75,0.72483236274525,1.6391599445824467
12,0,0.5,0.7206597185703081,2.0564243620766365
12,0,0.25,0.7253544851089355,1.5869477082138927
12,0,0.0,0.7110299483391911,3.019401385188336
12,1,1.0,0.7412239621910744,0.0
12,1,0.75,0.7395413259390292,0.16826362520452331
12,1,0.5,0.7358608860893197,0.5363076101754793
12,1,0.25,0.7399913540556718,0.1232608135402602
12,1,0.0,0.7346908316247003,0.6533130566374168
12,2,1.0,0.7412239621910744,0.0
12,2,0.75,0.7561681002026979,-1.494413801162342
12,2,0.5,0.7646775761770571,-2.345361398598267
12,2,0.25,0.7701870965686684,-2.89631343775939
12,2,0.0,0.7512127543851082,-0.9988792194033702
12,3,1.0,0.7412239621910744,0.0
12,3,0.75,0.7179871006924332,2.3236861498641237
12,3,0.5,0.7097373496045409,3.1486612586533513
12,3,0.25,0.6728097885736252,6.841417361744928
12,3,0.0,0.57456858621217,16.665537597890445
12,4,1.0,0.7412239621910744,0.0
12,4,0.75,0.6770234431074742,6.4200519083600245
12,4,0.5,0.6369143353275346,10.430962686353984
12,4,0.25,0.6034776224460815,13.774633974499295
12,4,0.0,0.5678916499064484,17.33323122846261
12,5,1.0,0.7412239621910744,0.0
12,5,0.75,0.6902512888489298,5.097267334214461
12,5,0.5,0.6639314088418835,7.729255334919094
12,5,0.25,0.6379263714467234,10.329759074435108
12,5,0.0,0.5914004410880653,14.982352110300912
12,6,1.0,0.7412239621910744,0.0
12,6,0.75,0.7461305390845313,-0.490657689345686
12,6,0.5,0.7467522446689113,-0.5528282477836877
12,6,0.25,0.7556155654650867,-1.4391603274012232
12,6,0.0,0.7450244806522162,-0.3800518461141711
12,7,1.0,0.7412239621910744,0.0
12,7,0.75,0.7419479501612831,-0.07239879702086727
12,7,0.5,0.7377394991431023,0.34844630479721195
12,7,0.25,0.7046293328455282,3.659462934554625
12,7,0.0,0.7067590661829131,3.4464896008161383
12,8,1.0,0.7412239621910744,0.0
12,8,0.75,0.7448440321894064,-0.3620069998331976
12,8,0.5,0.741594609765091,-0.03706475740165027
12,8,0.25,0.7313626464179909,0.9861315773083579
12,8,0.0,0.7127126021001664,2.8511360090908044
13,0,1.0,0.9029544952133747,0.0
13,0,0.75,0.9119767369828005,-0.9022241769425787
13,0,0.5,0.9087882736355614,-0.5833778422186686
13,0,0.25,0.8545696122801627,4.838488293321197
13,0,0.0,0.7915581449679059,11.139635024546878
13,1,1.0,0.9029544952133747,0.0
13,1,0.75,0.8968248103886065,0.6129684824768167
13,1,0.5,0.8853719307765628,1.7582564436811832
13,1,0.25,0.8400496536765862,6.290484153678843
13,1,0.0,0.8139608448336313,8.899365037974338
13,2,1.0,0.9029544952133747,0.0
13,2,0.75,0.9004792415472489,0.24752536661257762
13,2,0.5,0.8906991803603086,1.225531485306608
13,2,0.25,0.8744921143202231,2.846238089315156
13,2,0.0,0.8167899423673095,8.616455284606516
13,3,1.0,0.9029544952133747,0.0
13,3,0.75,0.8966385860645139,0.6315909148860821
13,3,0.5,0.8812868005064516,2.166769470692309
13,3,0.25,0.8703842648287353,3.2570230384639354
13,3,0.0,0.8457723492791621,5.718214593421256
13,4,1.0,0.9029544952133747,0.0
13,4,0.75,0.8885366804874558,1.4417814725918854
13,4,0.5,0.8230756060911497,7.9878889122224965
13,4,0.25,0.8108582201881088,9.209627502526585
13,4,0.0,0.7719606616200088,13.099383359336592
13,5,1.0,0.9029544952133747,0.0
13,5,0.75,0.8805201004852883,2.2434394728086393
13,5,0.5,0.8292931711312386,7.366132408213611
13,5,0.25,0.7371354562356194,16.58190389777553
13,5,0.0,0.6263979404698548,27.655655474351992
13,6,1.0,0.9029544952133747,0.0
13,6,0.75,0.8944007043016222,0.8553790911752457
13,6,0.5,0.8823794840770871,2.057501113628757
13,6,0.25,0.8745623283434372,2.8392166869937507
13,6,0.0,0.862583511532798,4.037098368057668
13,7,1.0,0.9029544952133747,0.0
13,7,0.75,0.898264467301574,0.46900279118006205
13,7,0.5,0.8921505745219003,1.08039206914744
13,7,0.25,0.8575763341840631,4.537816102931158
13,7,0.0,0.8417130403121974,6.124145490117727
13,8,1.0,0.9029544952133747,0.0
13,8,0.75,0.9064279696142914,-0.34734744009167207
13,8,0.5,0.8908528623123565,1.2101632901018178
13,8,0.25,0.8665190871836266,3.6435408029748095
13,8,0.0,0.8343788190493651,6.857567616400962
14,0,1.0,0.8214944455125526,0.0
14,0,0.75,0.8176558125746067,0.38386329379458406
14,0,0.5,0.8109083408222576,1.0586104690294973
14,0,0.25,0.8025267528151004,1.8967692697452132
14,0,0.0,0.7563286445897046,6.516580092284796
14,1,1.0,0.8214944455125526,0.0
14,1,0.75,0.7945842589008119,2.6910186611740716
14,1,0.5,0.7707610736259038,5.073337188664873
14,1,0.25,0.7578626054563332,6.363184005621935
14,1,0.0,0.7486345586959778,7.285988681657473
14,2,1.0,0.8214944455125526,0.0
14,2,0.75,0.8198940026911009,0.16004428214516642
14,2,0.5,0.7864036439057582,3.509080160679434
14,2,0.25,0.7229378294948784,9.855661601767418
14,2,0.0,0.6342662284539032,18.722821705864934
14,3,1.0,0.8214944455125526,0.0
14,3,0.75,0.8080641441824987,1.343030133005385
14,3,0.5,0.7786772463353019,4.281719917725068
14,3,0.25,0.7564552025034597,6.503924300909292
14,3,0.0,0.7168253838952885,10.466906161726408
14,4,1.0,0.8214944455125526,0.0
14,4,0.75,0.8233945631640875,-0.19001176515349716
14,4,0.5,0.8103016886611603,1.1192756851392316
14,4,0.25,0.7730031192514693,4.849132626108332
14,4,0.0,0.6772779990867995,14.421644642575304
14,5,1.0,0.8214944455125526,0.0
14,5,0.75,0.806213309117026,1.528113639552653
14,5,0.5,0.73012144123186,9.137300428069262
14,5,0.25,0.689048106415244,13.244633909730851
14,5,0.0,0.6147837316155186,20.6710713897034
14,6,1.0,0.8214944455125526,0.0
14,6,0.75,0.8160688886057561,0.5425556906796469
14,6,0.5,0.8149584817935608,0.6535963718991789
14,6,0.25,0.8086291834727073,1.2865262039845282
14,6,0.0,0.7891906906522982,3.2303754860254386
14,7,1.0,0.8214944455125526,0.0
14,7,0.75,0.8172164663994573,0.42779791130952427
14,7,0.5,0.7910688288693046,3.0425616643247944
14,7,0.25,0.7752049091219575,4.628953639059508
14,7,0.0,0.7474221187771515,7.4072326735401095
14,8,1.0,0.8214944455125526,0.0
14,8,0.75,0.8220826199706739,-0.05881744581213155
14,8,0.5,0.7919079795525282,2.9586465960024344
14,8,0.25,0.7628109381578791,5.8683507354673425
14,8,0.0,0.7351479590316414,8.634648648091115
15,0,1.0,0.7845036063460702,0.0
15,0,0.75,0.8034465993784795,-1.8942993032409317
15,0,0.5,0.8001714609715129,-1.5667854625442734
15,0,0.25,0.7749839918801367,0.9519614465933524
15,0,0.0,0.7378381613573928,4.666544498867742
15,1,1.0,0.7845036063460702,0.0
15,1,0.75,0.7742045320083907,1.0299074337679515
15,1,0.5,0.7608831386550111,2.3620467691059077
15,1,0.25,0.7452461266301451,3.925747971592508
15,1,0.0,0.7361477792486978,4.83558270973724
15,2,1.0,0.7845036063460702,0.0
15,2,0.75,0.7788031384841624,0.570046786190781
15,2,0.5,0.7701005761598467,1.4403030186223464
15,2,0.25,0.758765112180672,2.5738494165398196
15,2,0.0,0.7449197904445456,3.95838159015246
15,3,1.0,0.7845036063460702,0.0
15,3,0.75,0.7902053085161882,-0.5701702170118006
15,3,0.5,0.7722183948717115,1.2285211474358682
15,3,0.25,0.7644109026534416,2.009270369262861
15,3,0.0,0.752092752673095,3.2410853672975137
15,4,1.0,0.7845036063460702,0.0
15,4,0.75,0.7879516334697503,-0.34480271236800863
15,4,0.5,0.8029986753242894,-1.8495068978219176
15,4,0.25,0.7192735239996018,6.523008234646843
15,4,0.0,0.6807597485336061,10.37438578124641
15,5,1.0,0.7845036063460702,0.0
15,5,0.75,0.7894119301400326,-0.49083237939624436
15,5,0.5,0.7625416257762467,2.196198056982346
15,5,0.25,0.5908871595526369,19.361644679343325
15,5,0.0,0.3920187491341721,39.24848572118981
15,6,1.0,0.7845036063460702,0.0
15,6,0.75,0.7673453109962793,1.7158295349790853
15,6,0.5,0.7654682176085058,1.9035388737564385
15,6,0.25,0.7582178128269138,2.6285793519156386
15,6,0.0,0.7452922382593975,3.9211368086672693
15,7,1.0,0.7845036063460702,0.0
15,7,0.75,0.7844588498343441,0.004475651172608508
15,7,0.5,0.7862344002740645,-0.17307939279943563
15,7,0.25,0.7372276702189249,4.727593612714531
15,7,0.0,0.7062444627489248,7.825914359714536
15,8,1.0,0.7845036063460702,0.0
15,8,0.75,0.797716673710103,-1.3213067364032827
15,8,0.5,0.7937312114784465,-0.9227605132376304
15,8,0.25,0.7534021628206841,3.110144352538613
15,8,0.0,0.7229236093309408,6.1579997015129395
16,0,1.0,0.8085383348387439,0.0
16,0,0.75,0.8244974130830696,-1.595907824432563
16,0,0.5,0.8275590272743851,-1.9020692435641195
16,0,0.25,0.7976004759424693,1.0937858896274633
16,0,0.0,0.648811830452901,15.97265043858429
16,1,1.0,0.8085383348387439,0.0
16,1,0.75,0.8209625838489024,-1.2424249010158483
16,1,0.5,0.8032757279512246,0.5262606887519339
16,1,0.25,0.7583177643418607,5.022057049688322
16,1,0.0,0.723166586555648,8.53717482830959
16,2,1.0,0.8085383348387439,0.0
16,2,0.75,0.8209943892882271,-1.2456054449483167
16,2,0.5,0.8114406641908989,-0.2902329352154953
16,2,0.25,0.7667508430472768,4.178749179146712
16,2,0.0,0.7164881505853182,9.20501842534257
16,3,1.0,0.8085383348387439,0.0
16,3,0.75,0.8111460333141742,-0.2607698475430298
16,3,0.5,0.8034602216785656,0.5078113160178366
16,3,0.25,0.6368896170839212,17.164871775482272
16,3,0.0,0.6003189365664088,20.821939827233514
16,4,1.0,0.8085383348387439,0.0
16,4,0.75,0.7957808880622044,1.275744677653956
16,4,0.5,0.7637730271411742,4.47653076975697
16,4,0.25,0.6942128174936586,11.432551734508534
16,4,0.0,0.6654497430609712,14.308859177777277
16,5,1.0,0.8085383348387439,0.0
16,5,0.75,0.7741554876664727,3.4382847172271247
16,5,0.5,0.719385685947586,8.915264889115793
16,5,0.25,0.6368441686765178,17.16941661622261
16,5,0.0,0.5580493351967046,25.04889996420393
16,6,1.0,0.8085383348387439,0.0
16,6,0.75,0.8180942445049039,-0.9555909666159934
16,6,0.5,0.8194947805321704,-1.0956445693426464
16,6,0.25,0.8017227134751671,0.6815621363576829
16,6,0.0,0.7747366117200307,3.380172311871321
16,7,1.0,0.8085383348387439,0.0
16,7,0.75,0.8404485822401709,-3.1910247401427005
16,7,0.5,0.8265997273225997,-1.8061392483855743
16,7,0.25,0.8073319189372001,0.12064159015438003
16,7,0.0,0.6574210452686843,15.111728957005965
16,8,1.0,0.8085383348387439,0.0
16,8,0.75,0.8195560527812105,-1.1017717942466532
16,8,0.5,0.8209004580273237,-1.2362123188579766
16,8,0.25,0.7913732548535528,1.7165079985191123
16,8,0.0,0.7422639159264233,6.627441891232067
17,0,1.0,0.7919459475018558,0.0
17,0,0.75,0.7802047134139083,1.1741234087947472
17,0,0.5,0.7213640158317368,7.058193167011895
17,0,0.25,0.6733418471936792,11.860410030817658
17,0,0.0,0.6092675354683343,18.26784120335214
17,1,1.0,0.7919459475018558,0.0
17,1,0.75,0.8059670275432828,-1.4021080041426992
17,1,0.5,0.7922029055718032,-0.025695806994741055
17,1,0.25,0.737630472117409,5.431547538444681
17,1,0.0,0.675836652088081,11.61092954137748
17,2,1.0,0.7919459475018558,0.0
17,2,0.75,0.7865348619516097,0.5411085550246053
17,2,0.5,0.7871850785730317,0.47608689288241024
17,2,0.25,0.7666085386592836,2.5337408842572184
17,2,0.0,0.7100903279127424,8.185561958911336
17,3,1.0,0.7919459475018558,0.0
17,3,0.75,0.7797678991929821,1.2178048308873701
17,3,0.5,0.7402495355891828,5.169641191267294
17,3,0.25,0.7035701013961884,8.83758461056674
17,3,0.0,0.6831319165535971,10.88140309482587
17,4,1.0,0.7919459475018558,0.0
17,4,0.75,0.7954947686256495,-0.3548821123793733
17,4,0.5,0.7945216576696177,-0.25757101677619243
17,4,0.25,0.7572252369946069,3.4720710507248898
17,4,0.0,0.734814498250105,5.713144925175073
17,5,1.0,0.7919459475018558,0.0
17,5,0.75,0.7687478673279817,2.3198080173874036
17,5,0.5,0.7500122613591192,4.193368614273652
17,5,0.25,0.6970287092588625,9.491723824299324
17,5,0.0,0.6561712969155924,13.577465058626338
17,6,1.0,0.7919459475018558,0.0
17,6,0.75,0.7967904527879788,-0.4844505286123013
17,6,0.5,0.8036048557765384,-1.1658908274682633
17,6,0.25,0.8115394989726705,-1.9593551470814763
17,6,0.0,0.8056910217991615,-1.374507429730576
17,7,1.0,0.7919459475018558,0.0
17,7,0.75,0.7891342897452759,0.2811657756579877
17,7,0.5,0.7824834290143948,0.9462518487460936
17,7,0.25,0.7452165023468031,4.672944515505262
17,7,0.0,0.7170497891416251,7.4896158360230665
17,8,1.0,0.7919459475018558,0.0
17,8,0.75,0.778758893016474,1.318705448538171
17,8,0.5,0.7727431293384333,1.9202818163422508
17,8,0.25,0.7303508348530977,6.159511264875805
17,8,0.0,0.6647698875364991,12.717605996535664
18,0,1.0,0.7283135249436007,0.0
18,0,0.75,0.7248159614723082,0.34975634712924863
18,0,0.5,0.7022753828225616,2.6038142121039054
18,0,0.25,0.6916195341837834,3.6693990759817274
18,0,0.0,0.6710556404455843,5.725788449801639
18,1,1.0,0.7283135249436007,0.0
18,1,0.75,0.7212528701062355,0.7060654837365177
18,1,0.5,0.7057375440843354,2.2575980859265266
18,1,0.25,0.6800195439360639,4.829398100753679
18,1,0.0,0.6637673904641723,6.454613447942837
18,2,1.0,0.7283135249436007,0.0
18,2,0.75,0.7370188646823648,-0.8705339738764084
18,2,0.5,0.758222288464224,-2.9908763520623327
18,2,0.25,0.7586558310904388,-3.0342306146838083
18,2,0.0,0.7249641125261975,0.33494124174031636
18,3,1.0,0.7283135249436007,0.0
18,3,0.75,0.7170979504515774,1.1215574492023261
18,3,0.5,0.6859576380409714,4.235588690262926
18,3,0.25,0.6223425126783549,10.597101226524575
18,3,0.0,0.578080014344206,15.023351059939472
18,4,1.0,0.7283135249436007,0.0
18,4,0.75,0.722802496765718,0.5511028177882737
18,4,0.5,0.7199758750593546,0.8337649884246123
18,4,0.25,0.6901988386460557,3.8114686297544997
18,4,0.0,0.5958342313357292,13.247929360787147
18,5,1.0,0.7283135249436007,0.0
18,5,0.75,0.7307265905936278,-0.24130656500270797
18,5,0.5,0.6925191865674548,3.5794338376145873
18,5,0.25,0.5720745991346756,15.623892580892507
18,5,0.0,0.47059009712204153,25.772342782155917
18,6,1.0,0.7283135249436007,0.0
18,6,0.75,0.7547303998808399,-2.641687493723921
18,6,0.5,0.7748021712397113,-4.64886462961106
18,6,0.25,0.7901566972545504,-6.184317231094971
18,6,0.0,0.79354292154586,-6.522939660225935
18,7,1.0,0.7283135249436007,0.0
18,7,0.75,0.7142065334669911,1.4106991476609543
18,7,0.5,0.6902882210601533,3.802530388344738
18,7,0.25,0.6528769723592458,7.543655258435489
18,7,0.0,0.633782048256485,9.45314766871157
18,8,1.0,0.7283135249436007,0.0
18,8,0.75,0.7267232774428745,0.15902475007262273
18,8,0.5,0.7277202214376686,0.0593303505932119
18,8,0.25,0.6994389217137275,2.887460322987323
18,8,0.0,0.6872914915192043,4.102203342439637
19,0,1.0,0.7977570722681976,0.0
19,0,0.75,0.7797750446590427,1.7982027609154905
19,0,0.5,0.7608426065737146,3.691446569448298
19,0,0.25,0.7312652725845978,6.6491799683599755
19,0,0.0,0.6869961738223465,11.076089844585113
19,1,1.0,0.7977570722681976,0.0
19,1,0.75,0.7949361806179134,0.28208916502842074
19,1,0.5,0.7681089548665512,2.964811740164641
19,1,0.25,0.723649707798499,7.410736446969857
19,1,0.0,0.6823024432505504,11.545462901764713
19,2,1.0,0.7977570722681976,0.0
19,2,0.75,0.8015332170078806,-0.37761447396830183
19,2,0.5,0.7925926023924098,0.516446987578778
19,2,0.25,0.7740862924712444,2.36707797969532
19,2,0.0,0.7299256248476214,6.7831447420576225
19,3,1.0,0.7977570722681976,0.0
19,3,0.75,0.7853406578316615,1.2416414436536072
19,3,0.5,0.7439865673675597,5.377050490063784
19,3,0.25,0.6710575128086362,12.669955945956135
19,3,0.0,0.6230902198149587,17.466685245323887
19,4,1.0,0.7977570722681976,0.0
19,4,0.75,0.784784411086498,1.2972661181699596
19,4,0.5,0.7560984230744234,4.165864919377416
19,4,0.25,0.6563271839956498,14.142988827254776
19,4,0.0,0.5939556176935269,20.38014545746707
19,5,1.0,0.7977570722681976,0.0
19,5,0.75,0.7334437183907032,6.431335387749437
19,5,0.5,0.6068276752928294,19.092939697536814
19,5,0.25,0.516465372843521,28.12916994246766
19,5,0.0,0.4671409000141289,33.06161722540687
19,6,1.0,0.7977570722681976,0.0
19,6,0.75,0.8014218564280231,-0.3664784159825518
19,6,0.5,0.7918147243541629,0.5942347914034696
19,6,0.25,0.7834238819146473,1.4333190353550296
19,6,0.0,0.7740167461324391,2.3740326135758494
19,7,1.0,0.7977570722681976,0.0
19,7,0.75,0.7876116619021551,1.014541036604244
19,7,0.5,0.7849746605543293,1.2782411713868291
19,7,0.25,0.7619278977755511,3.5829174492646443
19,7,0.0,0.7005283296269559,9.72287426412417
19,8,1.0,0.7977570722681976,0.0
19,8,0.75,0.7836272610237867,1.4129811244410928
19,8,0.5,0.7718714245511358,2.588564771706181
19,8,0.25,0.7575941839623432,4.0162888305854345
19,8,0.0,0.7051096309257985,9.26474413423991
20,0,1.0,0.7856962891646132,0.0
20,0,0.75,0.7909132547219244,-0.5216965557311215
20,0,0.5,0.7601468359472828,2.5549453217330376
20,0,0.25,0.708933888232766,7.676240093184717
20,0,0.0,0.5887258694091355,19.69704197554777
20,1,1.0,0.7856962891646132,0.0
20,1,0.75,0.7709563833333148,1.473990583129836
20,1,0.5,0.7370227079419787,4.867358122263454
20,1,0.25,0.6803011038794301,10.539518528518311
20,1,0.0,0.6498765999876012,13.581968917701204
20,2,1.0,0.7856962891646132,0.0
20,2,0.75,0.8104873146615433,-2.479102549693013
20,2,0.5,0.7941358730025048,-0.8439583837891562
20,2,0.25,0.7757475022229161,0.9948786941697096
20,2,0.0,0.7469160997732427,3.878018939137051
20,3,1.0,0.7856962891646132,0.0
20,3,0.75,0.7910753139559701,-0.5379024791356879
20,3,0.5,0.7823970852500202,0.3299203914593041
20,3,0.25,0.7940382046605287,-0.8341915495915453
20,3,0.0,0.7754552745418901,1.0241014622723088
20,4,1.0,0.7856962891646132,0.0
20,4,0.75,0.8033914982144039,-1.7695209049790717
20,4,0.5,0.7879290501473792,-0.22327609827660355
20,4,0.25,0.7858384576710369,-0.014216850642367884
20,4,0.0,0.7343365094288727,5.135977973574047
20,5,1.0,0.7856962891646132,0.0
20,5,0.75,0.8033550117140315,-1.7658722549418249
20,5,0.5,0.8065321414945807,-2.083585232996754
20,5,0.25,0.7375154257507198,4.818086341389338
20,5,0.0,0.5792846172849941,20.641167187961905
20,6,1.0,0.7856962891646132,0.0
20,6,0.75,0.7770971604768331,0.8599128687780122
20,6,0.5,0.7758022076755231,0.9894081489090101
20,6,0.25,0.755393707246552,3.0302581918061233
20,6,0.0,0.7401240664254065,4.557222273920669
20,7,1.0,0.7856962891646132,0.0
20,7,0.75,0.7768742076217466,0.8822081542866567
20,7,0.5,0.7469776597641709,3.871862940044235
20,7,0.25,0.7269945337248849,5.870175543972833
20,7,0.0,0.6983462241692301,8.735006499538311
20,8,1.0,0.7856962891646132,0.0
20,8,0.75,0.7760534015250997,0.9642887639513487
20,8,0.5,0.7905441372839149,-0.4847848119301723
20,8,0.25,0.7695217776874379,1.6174511477175302
20,8,0.0,0.696287099473896,8.94091896907172
21,0,1.0,0.7462177696502997,0.0
21,0,0.75,0.7321723327135041,1.4045436936795608
21,0,0.5,0.71658886442469,2.962890522560968
21,0,0.25,0.686858948944711,5.935882070558874
21,0,0.0,0.6408348530027846,10.538291664751508
21,1,1.0,0.7462177696502997,0.0
21,1,0.75,0.7347739457655209,1.1443823884778825
21,1,0.5,0.7395876707689168,0.6630098881382884
21,1,0.25,0.7318198492452667,1.4397920405033071
21,1,0.0,0.7217321177260791,2.4485651924220586
21,2,1.0,0.7462177696502997,0.0
21,2,0.75,0.7641913691452302,-1.7973599494930492
21,2,0.5,0.7557212316831785,-0.9503462032878773
21,2,0.25,0.7537508497093768,-0.7533080059077046
21,2,0.0,0.7379300662499212,0.8287703400378543
21,3,1.0,0.7462177696502997,0.0
21,3,0.75,0.7363470866220276,0.9870683028272098
21,3,0.5,0.7169920436796866,2.9225725970613126
21,3,0.25,0.643340921104537,10.287684854576273
21,3,0.0,0.5734923473260289,17.272542232427078
21,4,1.0,0.7462177696502997,0.0
21,4,0.75,0.7436075607006816,0.26102089496181646
21,4,0.5,0.7368285469160561,0.9389222734243585
21,4,0.25,0.7161417645159462,3.007600513435349
21,4,0.0,0.6564043197511578,8.981344989914197
21,5,1.0,0.7462177696502997,0.0
21,5,0.75,0.7463839735062046,-0.01662038559048229
21,5,0.5,0.6004887350857278,14.572903456457198
21,5,0.25,0.5658368286547861,18.038094099551362
21,5,0.0,0.49710424214268767,24.911352750761207
21,6,1.0,0.7462177696502997,0.0
21,6,0.75,0.7609674443913574,-1.4749674741057706
21,6,0.5,0.7505781371019021,-0.4360367451602398
21,6,0.25,0.7490716392671101,-0.2853869616810334
21,6,0.0,0.746945336434825,-0.07275667845252354
21,7,1.0,0.7462177696502997,0.0
21,7,0.75,0.7536427859329048,-0.7425016282605057
21,7,0.5,0.7518912097196113,-0.5673440069311586
21,7,0.25,0.7572253398458483,-1.1007570195548544
21,7,0.0,0.7414696708528277,0.4748098797472067
21,8,1.0,0.7462177696502997,0.0
21,8,0.75,0.7466222472195811,-0.0404477569281414
21,8,0.5,0.7310481720010409,1.5169597649258848
21,8,0.25,0.707696685985514,3.8521083664785682
21,8,0.0,0.6877410938296974,5.847667582060234
22,0,1.0,0.7830412335671195,0.0
22,0,0.75,0.7810986015624237,0.1942632004695799
22,0,0.5,0.7778034835654063,0.5237750001713226
22,0,0.25,0.7586852810257065,2.4355952541412984
22,0,0.0,0.7063281558867464,7.671307768037316
22,1,1.0,0.7830412335671195,0.0
22,1,0.75,0.7711989450434825,1.1842288523637001
22,1,0.5,0.773834449036702,0.9206784530417567
22,1,0.25,0.7439895142160255,3.905171935109397
22,1,0.0,0.7183002278099906,6.474100575712893
22,2,1.0,0.7830412335671195,0.0
22,2,0.75,0.7662428416138343,1.6798391953285252
22,2,0.5,0.731831594791535,5.120963877558449
22,2,0.25,0.6912594240365932,9.178180953052628
22,2,0.0,0.6434811759765686,13.95600575905509
22,3,1.0,0.7830412335671195,0.0
22,3,0.75,0.7658655640396365,1.7175669527483062
22,3,0.5,0.7506835380450454,3.2357695522074126
22,3,0.25,0.7247113537783634,5.8329879788756145
22,3,0.0,0.655723194906233,12.731803866088654
22,4,1.0,0.7830412335671195,0.0
22,4,0.75,0.7674803108821201,1.5560922684999423
22,4,0.5,0.7525659874716479,3.0475246095471586
22,4,0.25,0.7162854414290145,6.675579213810501
22,4,0.0,0.6875908721302767,9.545036143684282
22,5,1.0,0.7830412335671195,0.0
22,5,0.75,0.761424854825329,2.1616378741790565
22,5,0.5,0.7289884800074337,5.405275355968586
22,5,0.25,0.6717269286547648,11.131430491235472
22,5,0.0,0.6490304100170192,13.401082355010029
22,6,1.0,0.7830412335671195,0.0
22,6,0.75,0.7874834057828187,-0.4442172215699203
22,6,0.5,0.7762150178032093,0.6826215763910182
22,6,0.25,0.7602152457731297,2.282598779398981
22,6,0.0,0.7638832162390304,1.9158017328089083
22,7,1.0,0.7830412335671195,0.0
22,7,0.75,0.7653324088799036,1.7708824687215907
22,7,0.5,0.7335881842938212,4.94530492732983
22,7,0.25,0.6793869912101916,10.365424235692789
22,7,0.0,0.6247867129935778,15.825452057354173
22,8,1.0,0.7830412335671195,0.0
22,8,0.75,0.7794082331845488,0.363300038257075
22,8,0.5,0.7498424980940344,3.319873547308516
22,8,0.25,0.7115020357930828,7.153919777403672
22,8,0.0,0.6436264003016348,13.941483326548475
23,0,1.0,0.749147392052469,0.0
23,0,0.75,0.7433161118211195,0.58312802313496
23,0,0.5,0.7138267428438578,3.532064920861122
23,0,0.25,0.6765982303262893,7.254916172617976
23,0,0.0,0.6434610730314232,10.568631902104586
23,1,1.0,0.749147392052469,0.0
23,1,0.75,0.7365013438610034,1.2646048191465642
23,1,0.5,0.6847672125880693,6.438017946439977
23,1,0.25,0.6396580218662599,10.948937018620919
23,1,0.0,0.6307848777436212,11.836251430884781
23,2,1.0,0.749147392052469,0.0
23,2,0.75,0.7487674835240963,0.03799085283727743
23,2,0.5,0.7206676136363636,2.8479778416105495
23,2,0.25,0.6947201381343732,5.442725391809589
23,2,0.0,0.6436879701388968,10.545942191357227
23,3,1.0,0.749147392052469,0.0
23,3,0.75,0.7524346559348684,-0.3287263882399305
23,3,0.5,0.7352124118220069,1.3934980230462135
23,3,0.25,0.7029823957349909,4.616499631747817
23,3,0.0,0.6560506282018863,9.309676385058275
23,4,1.0,0.749147392052469,0.0
23,4,0.75,0.7458855203378596,0.32618717146094545
23,4,0.5,0.7321517047679287,1.6995687284540373
23,4,0.25,0.6953302939366783,5.381709811579071
23,4,0.0,0.6532330360577275,9.591435599474153
23,5,1.0,0.749147392052469,0.0
23,5,0.75,0.7367346592073822,1.2412732845086816
23,5,0.5,0.7107623030944026,3.838508895806647
23,5,0.25,0.6259391217328455,12.320827031962356
23,5,0.0,0.5502200940748752,19.89272979775939
23,6,1.0,0.749147392052469,0.0
23,6,0.75,0.7273686872118437,2.1778704840625385
23,6,0.5,0.7133860790751424,3.5761312977326654
23,6,0.25,0.7018272852657946,4.732010678667442
23,6,0.0,0.6866168394764866,6.25305525759825
23,7,1.0,0.749147392052469,0.0
23,7,0.75,0.7498292663065607,-0.06818742540916078
23,7,0.5,0.7158559687404551,3.3291423312013957
23,7,0.25,0.6143219240192236,13.482546803324546
23,7,0.0,0.5595470947659652,18.960029728650383
23,8,1.0,0.749147392052469,0.0
23,8,0.75,0.7240935255315679,2.5053866520901136
23,8,0.5,0.7106266209320121,3.852077112045693
23,8,0.25,0.6682203914410226,8.092700061144642
23,8,0.0,0.6360197020439967,11.312769000847233
24,0,1.0,0.6862586404785893,0.0
24,0,0.75,0.6601618216786757,2.6096818799913657
24,0,0.5,0.6416610538604881,4.45975866181012
24,0,0.25,0.6191052714686636,6.7153369009925745
24,0,0.0,0.6094032292894027,7.6855411189186595
24,1,1.0,0.6862586404785893,0.0
24,1,0.75,0.6584578684227093,2.780077205588005
24,1,0.5,0.6176594086517027,6.859923182688665
24,1,0.25,0.5941949913929989,9.206364908559038
24,1,0.0,0.5718339406820625,11.442469979652682
24,2,1.0,0.6862586404785893,0.0
24,2,0.75,0.6725295796969611,1.3729060781628166
24,2,0.5,0.6588936747507628,2.736496572782654
24,2,0.25,0.6206763776568698,6.558226282171953
24,2,0.0,0.570634415659702,11.562422481888735
24,3,1.0,0.6862586404785893,0.0
24,3,0.75,0.7328455490334372,-4.658690855484792
24,3,0.5,0.7732566796427524,-8.699803916416304
24,3,0.25,0.7775500755710248,-9.129143509243553
24,3,0.0,0.7578578074124541,-7.1599166933864815
24,4,1.0,0.6862586404785893,0.0
24,4,0.75,0.707835318764078,-2.1576678285488704
24,4,0.5,0.6897531569487961,-0.3494516470206821
24,4,0.25,0.6670247190753684,1.9233921403220888
24,4,0.0,0.6105671831178849,7.569145736070437
24,5,1.0,0.6862586404785893,0.0
24,5,0.75,0.6485595166822908,3.7699123796298473
24,5,0.5,0.5558152972976264,13.044334318096295
24,5,0.25,0.46702290410194924,21.923573637664006
24,5,0.0,0.4079834769074178,27.827516357117148
24,6,1.0,0.6862586404785893,0.0
24,6,0.75,0.6817395679509277,0.4519072527661594
24,6,0.5,0.6738824122352106,1.2376228243378695
24,6,0.25,0.6594790630166648,2.6779577461924498
24,6,0.0,0.6242720048081991,6.19866356703902
24,7,1.0,0.6862586404785893,0.0
24,7,0.75,0.6907985656884623,-0.4539925209873008
24,7,0.5,0.6755469242062156,1.0711716272373661
24,7,0.25,0.627976197976198,5.828244250239134
24,7,0.0,0.564407568018655,12.185107245993432
24,8,1.0,0.6862586404785893,0.0
24,8,0.75,0.6897948607560919,-0.35362202775025553
24,8,0.5,0.6620649049093321,2.419373556925719
24,8,0.25,0.6425158017188378,4.374283875975149
24,8,0.0,0.6466880456478432,3.9570594830746098
25,0,1.0,0.7566209623539848,0.0
25,0,0.75,0.7425197273259592,1.4101235028025627
25,0,0.5,0.7156459237008705,4.097503865311425
25,0,0.25,0.683245213052313,7.337574930167179
25,0,0.0,0.6523134073194993,10.430755503448552
25,1,1.0,0.7566209623539848,0.0
25,1,0.75,0.7619930974978429,-0.5372135143858148
25,1,0.5,0.7610915651827437,-0.4470602828758885
25,1,0.25,0.7449344680672418,1.1686494286742954
25,1,0.0,0.7067742795217151,4.984668283226967
25,2,1.0,0.7566209623539848,0.0
25,2,0.75,0.7493966985282098,0.7224263825775012
25,2,0.5,0.7487142829942791,0.7906679359705682
25,2,0.25,0.6975254029058706,5.909555944811418
25,2,0.0,0.6565311066571271,10.00898556968577
25,3,1.0,0.7566209623539848,0.0
25,3,0.75,0.7514067339708672,0.5214228383117581
25,3,0.5,0.7366165528946842,2.00044094593006
25,3,0.25,0.718362588367447,3.8258373986537753
25,3,0.0,0.6611563139402943,9.546464841369051
25,4,1.0,0.7566209623539848,0.0
25,4,0.75,0.7521546926251277,0.44662697288571085
25,4,0.5,0.7195447409733123,3.707622138067246
25,4,0.25,0.6795069008717098,7.711406148227495
25,4,0.0,0.583048861518903,17.35721008350818
25,5,1.0,0.7566209623539848,0.0
25,5,0.75,0.6948335688917882,6.178739346219664
25,5,0.5,0.6434936502059234,11.312731214806139
25,5,0.25,0.591222669702467,16.539829265151784
25,5,0.0,0.5468881198286755,20.97328425253093
25,6,1.0,0.7566209623539848,0.0
25,6,0.75,0.7430540531064738,1.3566909247511028
25,6,0.5,0.7386530731935639,1.7967889160420913
25,6,0.25,0.7209221336933984,3.569882866058638
25,6,0.0,0.7057937993620358,5.0827162991949
25,7,1.0,0.7566209623539848,0.0
25,7,0.75,0.762355367658672,-0.5734405304687162
25,7,0.5,0.7654050365646439,-0.8784074210659076
25,7,0.25,0.7320729662281142,2.4547996125870553
25,7,0.0,0.7026420306604243,5.397893169356049
25,8,1.0,0.7566209623539848,0.0
25,8,0.75,0.7638082798642105,-0.7187317510225721
25,8,0.5,0.7742428198673664,-1.7621857513381634
25,8,0.25,0.7646667326583126,-0.8045770304327848
25,8,0.0,0.7380918945744611,1.8529067779523678
26,0,1.0,0.708719864336429,0.0
26,0,0.75,0.7033422361773499,0.5377628159079051
26,0,0.5,0.6992698959030423,0.9449968433386635
26,0,0.25,0.6571092764486547,5.161058788777428
26,0,0.0,0.605110088438525,10.360977589790398
26,1,1.0,0.708719864336429,0.0
26,1,0.75,0.7176524072070577,-0.8932542870628724
26,1,0.5,0.7135127256191724,-0.4792861282743477
26,1,0.25,0.6786518537972178,3.0068010539211154
26,1,0.0,0.6350039215701135,7.371594276631543
26,2,1.0,0.708719864336429,0.0
26,2,0.75,0.7069676327897009,0.17522315467281002
26,2,0.5,0.6757008762686484,3.3018988067780586
26,2,0.25,0.6418823061462697,6.683755819015924
26,2,0.0,0.6068792878186362,10.184057651779277
26,3,1.0,0.708719864336429,0.0
26,3,0.75,0.6928426823172857,1.5877182019143232
26,3,0.5,0.6965328898569016,1.2186974479527324
26,3,0.25,0.6838207070056375,2.489915733079151
26,3,0.0,0.6722460672338251,3.64737971026039
26,4,1.0,0.708719864336429,0.0
26,4,0.75,0.6929351008079145,1.5784763528514434
26,4,0.5,0.6731320672074146,3.5587797129014387
26,4,0.25,0.654912887946739,5.380697638969001
26,4,0.0,0.6097890008669218,9.893086346950719
26,5,1.0,0.708719864336429,0.0
26,5,0.75,0.6825316248518829,2.618823948454607
26,5,0.5,0.6387236810513299,6.9996183285099045
26,5,0.25,0.5843735195993841,12.434634473704486
26,5,0.0,0.502761827917268,20.5958036419161
26,6,1.0,0.708719864336429,0.0
26,6,0.75,0.716509273044448,-0.778940870801903
26,6,0.5,0.7188517631280036,-1.0131898791574612
26,6,0.25,0.7191404843945671,-1.0420620058138153
26,6,0.0,0.7029252596330607,0.5794604703368234
26,7,1.0,0.708719864336429,0.0
26,7,0.75,0.7018339274270327,0.6885936909396317
26,7,0.5,0.6785620945244516,3.0157769811977375
26,7,0.25,0.6580174570694416,5.070240726698739
26,7,0.0,0.6396981524850377,6.902171185139128
26,8,1.0,0.708719864336429,0.0
26,8,0.75,0.6952705555687768,1.3449308767652157
26,8,0.5,0.6867916886434879,2.192817569294103
26,8,0.25,0.6517562669293804,5.696359740704859
26,8,0.0,0.6343610096133248,7.435885472310422
27,0,1.0,0.7843252155282193,0.0
27,0,0.75,0.7974648399758525,-1.313962444763317
27,0,0.5,0.8062743369705289,-2.194912144230954
27,0,0.25,0.7828941645016195,0.14310510265997944
27,0,0.0,0.681070467246704,10.325474828151538
27,1,1.0,0.7843252155282193,0.0
27,1,0.75,0.7720280842280862,1.2297131300133102
27,1,0.5,0.7693662764251,1.4958939103119295
27,1,0.25,0.7733216868046772,1.1003528723542155
27,1,0.0,0.777215233243385,0.7109982284834282
27,2,1.0,0.7843252155282193,0.0
27,2,0.75,0.7728995836325966,1.1425631895622734
27,2,0.5,0.7461389108715832,3.8186304656636083
27,2,0.25,0.704003010925274,8.032220460294537
27,2,0.0,0.6654338333924982,11.889138213572114
27,3,1.0,0.7843252155282193,0.0
27,3,0.75,0.795334951374431,-1.1009735846211677
27,3,0.5,0.8047648379560554,-2.0439622427836035
27,3,0.25,0.7994051486690995,-1.5079933140880186
27,3,0.0,0.7790815195987609,0.5243695929458392
27,4,1.0,0.7843252155282193,0.0
27,4,0.75,0.7855160681153097,-0.11908525870903963
27,4,0.5,0.7621315369764936,2.2193678551725715
27,4,0.25,0.720143047754988,6.418216777323127
27,4,0.0,0.6692530422269342,11.507217330128515
27,5,1.0,0.7843252155282193,0.0
27,5,0.75,0.7520730490431713,3.225216648504803
27,5,0.5,0.6442627475173558,14.006246801086352
27,5,0.25,0.5877923042118746,19.653291131634475
27,5,0.0,0.5405724164963462,24.37527990318731
27,6,1.0,0.7843252155282193,0.0
27,6,0.75,0.7963690109844839,-1.204379545626455
27,6,0.5,0.7938556725748676,-0.9530457046648233
27,6,0.25,0.7773988126142183,0.692640291400104
27,6,0.0,0.7875176431029443,-0.3192427574724932
27,7,1.0,0.7843252155282193,0.0
27,7,0.75,0.7780182576589864,0.6306957869232965
27,7,0.5,0.7614717612850304,2.2853454243188964
27,7,0.25,0.7385122683572732,4.581294717094608
27,7,0.0,0.6784934091417645,10.583180638645484
27,8,1.0,0.7843252155282193,0.0
27,8,0.75,0.791326179618871,-0.7000964090651651
27,8,0.5,0.8028193493457184,-1.8494133817499092
27,8,0.25,0.7888086055928806,-0.44833900646612523
27,8,0.0,0.7207675769529784,6.355763857524089
28,0,1.0,0.7532017118236252,0.0
28,0,0.75,0.7799508940208121,-2.6749182197186916
28,0,0.5,0.7981535362167872,-4.495182439316203
28,0,0.25,0.7745992559307109,-2.139754410708572
28,0,0.0,0.7360216552101009,1.7180056613524286
28,1,1.0,0.7532017118236252,0.0
28,1,0.75,0.7995006744414425,-4.629896261781729
28,1,0.5,0.7663520390749072,-1.3150327251282068
28,1,0.25,0.762264442993515,-0.906273116988987
28,1,0.0,0.7187259483008626,3.4475763522762604
28,2,1.0,0.7532017118236252,0.0
28,2,0.75,0.754962328190397,-0.17606163667718278
28,2,0.5,0.7519408941666155,0.1260817657009694
28,2,0.25,0.7255583883045106,2.764332351911458
28,2,0.0,0.690965638416162,6.223607340746318
28,3,1.0,0.7532017118236252,0.0
28,3,0.75,0.790925259682474,-3.7723547858848794
28,3,0.5,0.7847169423379359,-3.151523051431071
28,3,0.25,0.7520916427263176,0.11100690973075977
28,3,0.0,0.7328591911583716,2.034252066525355
28,4,1.0,0.7532017118236252,0.0
28,4,0.75,0.7476445633527936,0.5557148470831552
28,4,0.5,0.7309240976091459,2.227761421447927
28,4,0.25,0.7103882424253517,4.281346939827346
28,4,0.0,0.6841058931436045,6.909581868002068
28,5,1.0,0.7532017118236252,0.0
28,5,0.75,0.7078956615960549,4.530605022757028
28,5,0.5,0.6769278737809266,7.6273838042698605
28,5,0.25,0.6356968299387281,11.750488188489705
28,5,0.0,0.6132916108035754,13.991010102004974
28,6,1.0,0.7532017118236252,0.0
28,6,0.75,0.7723971523968008,-1.9195440573175682
28,6,0.5,0.7663844995070027,-1.318278768337755
28,6,0.25,0.7647194302489669,-1.1517718425341772
28,6,0.0,0.7677138057765749,-1.4512093952949723
28,7,1.0,0.7532017118236252,0.0
28,7,0.75,0.7723006917124595,-1.9098979888834355
28,7,0.5,0.7641428252842742,-1.0941113460649077
28,7,0.25,0.7146438367475756,3.8557875076049575
28,7,0.0,0.6826340087048769,7.056770311874827
28,8,1.0,0.7532017118236252,0.0
28,8,0.75,0.7828349843735547,-2.9633272549929535
28,8,0.5,0.7783499250371843,-2.514821321355909
28,8,0.25,0.7813421452829721,-2.8140433459346914
28,8,0.0,0.7241599973967168,2.9041714426908394
29,0,1.0,0.7955845744848578,0.0
29,0,0.75,0.7861306537123381,0.9453920772519608
29,0,0.5,0.768375434194388,2.7209140290469724
29,0,0.25,0.7240034716834989,7.158110280135888
29,0,0.0,0.6547900542547429,14.079452023011484
29,1,1.0,0.7955845744848578,0.0
29,1,0.75,0.7928473593010891,0.2737215183768682
29,1,0.5,0.7691322048475445,2.6452369637313233
29,1,0.25,0.7375826513683094,5.80019231165484
29,1,0.0,0.7277699251302245,6.781464935463322
29,2,1.0,0.7955845744848578,0.0
29,2,0.75,0.7932540339205383,0.2330540564319472
29,2,0.5,0.7800672587058376,1.5517315779020158
29,2,0.25,0.6627412964470185,13.284327803783924
29,2,0.0,0.6184997428884698,17.7084831596388
29,3,1.0,0.7955845744848578,0.0
29,3,0.75,0.7915471030489344,0.40374714359233677
29,3,0.5,0.778158951005449,1.7425623479408792
29,3,0.25,0.7698906889782134,2.569388550664431
29,3,0.0,0.7617270402140229,3.385753427083482
29,4,1.0,0.7955845744848578,0.0
29,4,0.75,0.7887269878110396,0.6857586673818195
29,4,0.5,0.763130823887507,3.2453750597350783
29,4,0.25,0.7196088639634908,7.597571052136698
29,4,0.0,0.6811042628970199,11.448031158783788
29,5,1.0,0.7955845744848578,0.0
29,5,0.75,0.7981040972655371,-0.2519522780679351
29,5,0.5,0.7654644419627978,3.0120132522059917
29,5,0.25,0.6850627997190567,11.052177476580106
29,5,0.0,0.5028381566620352,29.274641782282252
29,6,1.0,0.7955845744848578,0.0
29,6,0.75,0.7952054628077082,0.03791116771495462
29,6,0.5,0.8066247113301422,-1.1040136845284487
29,6,0.25,0.8135694116668521,-1.7984837181994395
29,6,0.0,0.8067325935750302,-1.114801909017249
29,7,1.0,0.7955845744848578,0.0
29,7,0.75,0.795024559611109,0.05600148737487931
29,7,0.5,0.7878673871906516,0.7717187294206118
29,7,0.25,0.7539966048062747,4.1587969678583026
29,7,0.0,0.7023205649546185,9.326400953023928
29,8,1.0,0.7955845744848578,0.0
29,8,0.75,0.7803603181236867,1.5224256361171085
29,8,0.5,0.766551485420342,2.903308906451574
29,8,0.25,0.7532274731845882,4.235710130026959
29,8,0.0,0.6930369355385888,10.254763894626894
30,0,1.0,0.7558545347610572,0.0
30,0,0.75,0.769256471661535,-1.340193690047775
30,0,0.5,0.776258527451211,-2.0403992690153805
30,0,0.25,0.7532181971260381,0.2636337635019137
30,0,0.0,0.7202152955546299,3.563923920642731
30,1,1.0,0.7558545347610572,0.0
30,1,0.75,0.7399202957872838,1.593423897377344
30,1,0.5,0.7150750439316682,4.077949082938903
30,1,0.25,0.7056279566566214,5.022657810443587
30,1,0.0,0.6664919891229119,8.936254563814538
30,2,1.0,0.7558545347610572,0.0
30,2,0.75,0.7391817151448665,1.6672819616190715
30,2,0.5,0.7468810455143514,0.8973489246705824
30,2,0.25,0.7168301365882012,3.902439817285608
30,2,0.0,0.6914227338199828,6.443180094107448
30,3,1.0,0.7558545347610572,0.0
30,3,0.75,0.7639220049949131,-0.80674702338559
30,3,0.5,0.7488149103079648,0.7039624453092475
30,3,0.25,0.7417125927728925,1.4141941988164763
30,3,0.0,0.7232157688680212,3.263876589303605
30,4,1.0,0.7558545347610572,0.0
30,4,0.75,0.758078232021588,-0.22236972605307326
30,4,0.5,0.7496963536372404,0.615818112381683
30,4,0.25,0.7379808578540081,1.7873676907049107
30,4,0.0,0.6768950039882706,7.895953077278661
30,5,1.0,0.7558545347610572,0.0
30,5,0.75,0.7626895147721946,-0.6834980011137359
30,5,0.5,0.7536531033778953,0.2201431383161978
30,5,0.25,0.6673413562809443,8.851317848011298
30,5,0.0,0.5805849928591253,17.526954190193187
30,6,1.0,0.7558545347610572,0.0
30,6,0.75,0.7659022438600724,-1.00477090990152
30,6,0.5,0.7578363202065778,-0.1981785445520523
30,6,0.25,0.7702537855765352,-1.4399250815477993
30,6,0.0,0.7839753038062034,-2.8120769045146154
30,7,1.0,0.7558545347610572,0.0
30,7,0.75,0.7613921828610515,-0.5537648099994241
30,7,0.5,0.757343129882474,-0.1488595121416747
30,7,0.25,0.7279182386048644,2.7936296156192864
30,7,0.0,0.6953013978334142,6.055313692764308
30,8,1.0,0.7558545347610572,0.0
30,8,0.75,0.768166065528572,-1.231153076751479
30,8,0.5,0.7799062309310927,-2.405169617003544
30,8,0.25,0.7967124551566247,-4.085792039556746
30,8,0.0,0.7638174325033742,-0.7962897742316954
31,0,1.0,0.7033852252155527,0.0
31,0,0.75,0.6961674390663674,0.7217786149185335
31,0,0.5,0.6697454107542071,3.3639814461345563
31,0,0.25,0.6503770841167609,5.300814109879182
31,0,0.0,0.6341917263676883,6.919349884786441
31,1,1.0,0.7033852252155527,0.0
31,1,0.75,0.7139212617437559,-1.053603652820323
31,1,0.5,0.7014282899476043,0.19569352679483787
31,1,0.25,0.6831077257039574,2.02774995115953
31,1,0.0,0.6534235123941461,4.99617128214066
31,2,1.0,0.7033852252155527,0.0
31,2,0.75,0.7017955662454864,0.15896589700662433
31,2,0.5,0.6752629572305624,2.812226798499029
31,2,0.25,0.6176737462197125,8.57114789958402
31,2,0.0,0.573379223047148,13.000600216840475
31,3,1.0,0.7033852252155527,0.0
31,3,0.75,0.7263649016130269,-2.2979676397474225
31,3,0.5,0.7443900782543182,-4.100485303876555
31,3,0.25,0.7259829554770113,-2.2597730261458615
31,3,0.0,0.6991440449987771,0.4241180216775553
31,4,1.0,0.7033852252155527,0.0
31,4,0.75,0.7053892750571443,-0.20040498415916375
31,4,0.5,0.6995053316644451,0.3879893551107627
31,4,0.25,0.6687559616313179,3.4629263584234793
31,4,0.0,0.6132044800885681,9.01807451269846
31,5,1.0,0.7033852252155527,0.0
31,5,0.75,0.6904649897177483,1.292023549780441
31,5,0.5,0.6330825883257076,7.0302636889845065
31,5,0.25,0.5806987940779971,12.268643113755562
31,5,0.0,0.45417649204211463,24.920873317343805
31,6,1.0,0.7033852252155527,0.0
31,6,0.75,0.7155127349946111,-1.212750977905841
31,6,0.5,0.7114996507412329,-0.8114425525680202
31,6,0.25,0.7090635023137986,-0.5678277098245865
31,6,0.0,0.6650121183820243,3.8373106833528348
31,7,1.0,0.7033852252155527,0.0
31,7,0.75,0.6985057387059529,0.4879486509599795
31,7,0.5,0.6921949320335474,1.1190293182005262
31,7,0.25,0.664746868220776,3.863835699477669
31,7,0.0,0.6153216815419386,8.806354367361413
31,8,1.0,0.7033852252155527,0.0
31,8,0.75,0.7040384386314587,-0.06532134159059622
31,8,0.5,0.6681438688194937,3.5241356396058965
31,8,0.25,0.6350327000990619,6.835252511649081
31,8,0.0,0.6103717921060824,9.30134331094703
32,0,1.0,0.7195063189930907,0.0
32,0,0.75,0.7278588885289505,-0.8352569535859833
32,0,0.5,0.7163758296407523,0.3130489352338395
32,0,0.25,0.7163816221109125,0.3124696882178202
32,0,0.0,0.6452479735508176,7.425834544227305
32,1,1.0,0.7195063189930907,0.0
32,1,0.75,0.7343465324436537,-1.4840213450562967
32,1,0.5,0.7234291301927279,-0.39228111996372217
32,1,0.25,0.6995710926692589,1.9935226323831823
32,1,0.0,0.6685758427396005,5.093047625349023
32,2,1.0,0.7195063189930907,0.0
32,2,0.75,0.7380068978584895,-1.8500578865398798
32,2,0.5,0.7407904007439675,-2.1284081750876815
32,2,0.25,0.7196425582088225,-0.013623921573180375
32,2,0.0,0.6749575197465224,4.454879924656829
32,3,1.0,0.7195063189930907,0.0
32,3,0.75,0.7258709222107407,-0.6364603217649978
32,3,0.5,0.7348800055291156,-1.5373686536024889
32,3,0.25,0.7441527461694482,-2.4646427176357455
32,3,0.0,0.7312501947132541,-1.1743875720163444
32,4,1.0,0.7195063189930907,0.0
32,4,0.75,0.7122299908506318,0.7276328142458932
32,4,0.5,0.6865448492931707,3.2961469699919976
32,4,0.25,0.667080110929682,5.24262080634087
32,4,0.0,0.6478574837985425,7.164883519454824
32,5,1.0,0.7195063189930907,0.0
32,5,0.75,0.7290374145215707,-0.9531095528479971
32,5,0.5,0.6518624275035483,6.764389148954242
32,5,0.25,0.47257621076165435,24.693010823143634
32,5,0.0,0.37464614859483447,34.486017039825626
32,6,1.0,0.7195063189930907,0.0
32,6,0.75,0.7276165278225895,-0.8110208829498755
32,6,0.5,0.7411038339513008,-2.159751495821005
32,6,0.25,0.7336817761781511,-1.4175457185060414
32,6,0.0,0.7159916171427156,0.3514701850375057
32,7,1.0,0.7195063189930907,0.0
32,7,0.75,0.726768355487686,-0.7262036494595336
32,7,0.5,0.7162686706944539,0.32376482986368194
32,7,0.25,0.6714197019398573,4.8086617053233365
32,7,0.0,0.6360202978658865,8.348602112720416
32,8,1.0,0.7195063189930907,0.0
32,8,0.75,0.7196480917105007,-0.014177271741000474
32,8,0.5,0.7207927968552746,-0.12864778621839434
32,8,0.25,0.7097572035864361,0.9749115406654574
32,8,0.0,0.6757107625924765,4.379555640061417
33,0,1.0,0.903063468961407,0.0
33,0,0.75,0.9104364467824156,-0.7372977821008653
33,0,0.5,0.9035049921033796,-0.04415231419726551
33,0,0.25,0.8629676623241589,4.00958066372481
33,0,0.0,0.7935730952755492,10.94903736858578
33,1,1.0,0.903063468961407,0.0
33,1,0.75,0.8959947224190102,0.7068746542396753
33,1,0.5,0.8558610989532043,4.720237000820271
33,1,0.25,0.7840214844783704,11.90419844830366
33,1,0.0,0.7776959596391568,12.536750932225015
33,2,1.0,0.903063468961407,0.0
33,2,0.75,0.8898818110328808,1.3181657928526214
33,2,0.5,0.85617942721391,4.688404174749694
33,2,0.25,0.7890885451715824,11.397492378982454
33,2,0.0,0.6903966304237239,21.26668385376831
33,3,1.0,0.903063468961407,0.0
33,3,0.75,0.897360442875817,0.5703026085590035
33,3,0.5,0.8725097125097125,3.0553756451694447
33,3,0.25,0.7980101874457738,10.50532815156332
33,3,0.0,0.7002962508201726,20.276721814123444
33,4,1.0,0.903063468961407,0.0
33,4,0.75,0.9027396646454623,0.032380431594469794
33,4,0.5,0.8948970093134057,0.8166459648001334
33,4,0.25,0.8834058557868394,1.96576131745676
33,4,0.0,0.8122153536515239,9.084811530988313
33,5,1.0,0.903063468961407,0.0
33,5,0.75,0.8364266946670322,6.663677429437476
33,5,0.5,0.6346300107481089,26.843345821329812
33,5,0.25,0.5454024993985489,35.76609695628581
33,5,0.0,0.48598788467625,41.7075584285157
33,6,1.0,0.903063468961407,0.0
33,6,0.75,0.9027230521648032,0.0340416796603793
33,6,0.5,0.8985257028596692,0.4537766101737839
33,6,0.25,0.8896865889783727,1.3376879983034273
33,6,0.0,0.8758318272278678,2.7231641733539202
33,7,1.0,0.903063468961407,0.0
33,7,0.75,0.9017968664727507,0.12666024886562877
33,7,0.5,0.8492043710695187,5.385909789188825
33,7,0.25,0.7681089927474448,13.495447621396217
33,7,0.0,0.7258140381124252,17.724943084898182
33,8,1.0,0.903063468961407,0.0
33,8,0.75,0.9058722563730534,-0.2808787411646363
33,8,0.5,0.90554672127698,-0.24832523155730035
33,8,0.25,0.8902434114254033,1.2820057536003682
33,8,0.0,0.8604750676214818,4.258840133992514
34,0,1.0,0.8764386133374936,0.0
34,0,0.75,0.8613109158743074,1.5127697463186207
34,0,0.5,0.8283877152333028,4.805089810419084
34,0,0.25,0.7830148867640149,9.342372657347875
34,0,0.0,0.7255794034742968,15.085920986319678
34,1,1.0,0.8764386133374936,0.0
34,1,0.75,0.8603751754305431,1.6063437906950528
34,1,0.5,0.8539205189362351,2.2518094401258515
34,1,0.25,0.8331574946242126,4.328111871328099
34,1,0.0,0.8140526818452076,6.238593149228599
34,2,1.0,0.8764386133374936,0.0
34,2,0.75,0.8842673783199897,-0.7828764982496073
34,2,0.5,0.8671056517544186,0.9332961583075061
34,2,0.25,0.8265627489901824,4.987586434731117
34,2,0.0,0.7670467722562266,10.939184108126698
34,3,1.0,0.8764386133374936,0.0
34,3,0.75,0.8791500756030862,-0.27114622655926013
34,3,0.5,0.8534566296096104,2.298198372788318
34,3,0.25,0.8523359194422524,2.4102693895241223
34,3,0.0,0.8245201248543494,5.191848848314418
34,4,1.0,0.8764386133374936,0.0
34,4,0.75,0.8414452387264988,3.499337461099483
34,4,0.5,0.8071084625170534,6.933015082044025
34,4,0.25,0.7916746934561163,8.476391988137733
34,4,0.0,0.7694504310499156,10.698818228757801
34,5,1.0,0.8764386133374936,0.0
34,5,0.75,0.867953805348857,0.84848079886366
34,5,0.5,0.8486219172864862,2.781669605100745
34,5,0.25,0.832017376884888,4.4421236452605655
34,5,0.0,0.8037529726460633,7.268564069143036
34,6,1.0,0.8764386133374936,0.0
34,6,0.75,0.8720894479529933,0.4349165384500364
34,6,0.5,0.8685211864510166,0.7917426886477008
34,6,0.25,0.8580102858606583,1.8428327476835316
34,6,0.0,0.8505848947100576,2.5853718627436018
34,7,1.0,0.8764386133374936,0.0
34,7,0.75,0.8733660375349749,0.307257580251874
34,7,0.5,0.8484724092682758,2.7966204069217793
34,7,0.25,0.8205224963320408,5.591611700545284
34,7,0.0,0.7441159330865214,13.232268025097227
34,8,1.0,0.8764386133374936,0.0
34,8,0.75,0.8585574117945572,1.7881201542936376
34,8,0.5,0.8390878731106084,3.7350740226885226
34,8,0.25,0.8164772323717416,5.996138096575199
34,8,0.0,0.7649796736171565,11.145893972033715
35,0,1.0,0.6726137188119499,0.0
35,0,0.75,0.6604442634513673,1.216945536058256
35,0,0.5,0.6174227969022157,5.519092190973418
35,0,0.25,0.5801126123792173,9.250110643273256
35,0,0.0,0.5362333008834869,13.6380417928463
35,1,1.0,0.6726137188119499,0.0
35,1,0.75,0.6682997211297118,0.43139976822380577
35,1,0.5,0.6685974936929809,0.401622511896893
35,1,0.25,0.6783013867321616,-0.5687667920211692
35,1,0.0,0.6526805186338336,1.9933200178116284
35,2,1.0,0.6726137188119499,0.0
35,2,0.75,0.6716447505757461,0.09689682362037377
35,2,0.5,0.6717057448768633,0.09079739350865701
35,2,0.25,0.6779405148548666,-0.5326796042916748
35,2,0.0,0.6807403521333739,-0.8126633321424048
35,3,1.0,0.6726137188119499,0.0
35,3,0.75,0.6717373141995717,0.08764046123781455
35,3,0.5,0.6508013400062882,2.181237880566167
35,3,0.25,0.6374237547452377,3.5189964066712154
35,3,0.0,0.6052969860040799,6.731673280786998
35,4,1.0,0.6726137188119499,0.0
35,4,0.75,0.6615291771447793,1.1084541667170544
35,4,0.5,0.674870971120451,-0.22572523085011564
35,4,0.25,0.6772580828800348,-0.4644364068084883
35,4,0.0,0.6697645007774057,0.28492180345441875
35,5,1.0,0.6726137188119499,0.0
35,5,0.75,0.684178536658927,-1.156481784697716
35,5,0.5,0.6737407544927898,-0.11270356808399384
35,5,0.25,0.662254213615985,1.0359505195964847
35,5,0.0,0.5886624154462261,8.395130336572375
35,6,1.0,0.6726137188119499,0.0
35,6,0.75,0.6724430240709798,0.017069474097008985
35,6,0.5,0.6724345213267994,0.017919748515049516
35,6,0.25,0.6679239083190667,0.4689810492883195
35,6,0.0,0.6682857933845223,0.4327925427427548
35,7,1.0,0.6726137188119499,0.0
35,7,0.75,0.6660012701331887,0.6612448678761207
35,7,0.5,0.6518994023865841,2.071431642536581
35,7,0.25,0.6110272146806085,6.158650413134136
35,7,0.0,0.6069198151042479,6.569390370770201
35,8,1.0,0.6726137188119499,0.0
35,8,0.75,0.6668155773186102,0.5798141493339681
35,8,0.5,0.6375317778739019,3.508194093804795
35,8,0.25,0.5987341187341187,7.3879600077831125
35,8,0.0,0.5531215003522982,11.949221845965162
36,0,1.0,0.6016821946169773,0.0
36,0,0.75,0.5994103158609037,0.22718787560735976
36,0,0.5,0.5940168103785182,0.7665384238459083
36,0,0.25,0.6033604216965848,-0.16782270796075194
36,0,0.0,0.5886192533387876,1.3062941278189633
36,1,1.0,0.6016821946169773,0.0
36,1,0.75,0.5990640689942857,0.26181256226915917
36,1,0.5,0.592757610367798,0.8924584249179301
36,1,0.25,0.590980161791933,1.0702032825044228
36,1,0.0,0.5884840920407789,1.3198102576198356
36,2,1.0,0.6016821946169773,0.0
36,2,0.75,0.6069111310469597,-0.5228936429982456
36,2,0.5,0.6197549734081427,-1.8072778791165423
36,2,0.25,0.6061318757948135,-0.44496811778362844
36,2,0.0,0.5872749190219582,1.4407275595019087
36,3,1.0,0.6016821946169773,0.0
36,3,0.75,0.6020762731978785,-0.03940785809012359
36,3,0.5,0.6055047482572099,-0.3822553640232651
36,3,0.25,0.5940950176568532,0.7587176960124009
36,3,0.0,0.5895484644574689,1.213373015950836
36,4,1.0,0.6016821946169773,0.0
36,4,0.75,0.6128179768102676,-1.1135782193290367
36,4,0.5,0.6255026576145974,-2.3820462997620195
36,4,0.25,0.6276323190781548,-2.5950124461177504
36,4,0.0,0.6310875025435727,-2.940530792659546
36,5,1.0,0.6016821946169773,0.0
36,5,0.75,0.6315702819960249,-2.988808737904769
36,5,0.5,0.6507832038253908,-4.910100920841353
36,5,0.25,0.6163163255440656,-1.4634130927088318
36,5,0.0,0.595951226769264,0.5730967847713209
36,6,1.0,0.6016821946169773,0.0
36,6,0.75,0.6046412386464883,-0.2959044029511082
36,6,0.5,0.5996787044337186,0.20034901832586272
36,6,0.25,0.5901967194200335,1.1485475196943762
36,6,0.0,0.568671944326802,3.3010250290175236
36,7,1.0,0.6016821946169773,0.0
36,7,0.75,0.6090743773597956,-0.7392182742818387
36,7,0.5,0.5885830652515742,1.3099129365403028
36,7,0.25,0.5672468646320432,3.4435329984934038
36,7,0.0,0.5399736069721314,6.1708587644845885
36,8,1.0,0.6016821946169773,0.0
36,8,0.75,0.6022428415574756,-0.056064694049839936
36,8,0.5,0.6105886497940773,-0.8906455177100092
36,8,0.25,0.6113309971547685,-0.9648802537791212
36,8,0.0,0.584447820906254,1.7234373710723228
37,0,1.0,0.8478003774089667,0.0
37,0,0.75,0.8368955312906882,1.0904846118278577
37,0,0.5,0.8068468201416179,4.0953557267348835
37,0,0.25,0.7803092851756982,6.749109223326855
37,0,0.0,0.7529957996136534,9.480457779531337
37,1,1.0,0.8478003774089667,0.0
37,1,0.75,0.8216949246746684,2.610545273429832
37,1,0.5,0.7987620921510408,4.903828525792598
37,1,0.25,0.7709667365481557,7.683364086081101
37,1,0.0,0.7258740064486622,12.192637096030456
37,2,1.0,0.8478003774089667,0.0
37,2,0.75,0.8428025341754714,0.49978432334953915
37,2,0.5,0.8283371368361359,1.9463240572830887
37,2,0.25,0.7971489831870031,5.0651394221963635
37,2,0.0,0.7587105228212461,8.908985458772067
37,3,1.0,0.8478003774089667,0.0
37,3,0.75,0.8280923466775045,1.9708030731462212
37,3,0.5,0.8220742005159039,2.572617689306289
37,3,0.25,0.8026082628429884,4.519211456597838
37,3,0.0,0.7886060695454257,5.919430786354107
37,4,1.0,0.8478003774089667,0.0
37,4,0.75,0.8590576638162168,-1.12572864072501
37,4,0.5,0.8635607339862659,-1.5760356577299128
37,4,0.25,0.8440006151321867,0.37997622767800276
37,4,0.0,0.804894303479369,4.290607392959778
37,5,1.0,0.8478003774089667,0.0
37,5,0.75,0.8453510955005098,0.24492819084569462
37,5,0.5,0.8658860467263829,-1.8085669317416175
37,5,0.25,0.5487818061744907,29.901857123447606
37,5,0.0,0.4098496709002054,43.795070650876134
37,6,1.0,0.8478003774089667,0.0
37,6,0.75,0.8393118326413521,0.8488544767614625
37,6,0.5,0.8400773285760669,0.772304883289987
37,6,0.25,0.8223275396422978,2.5472837766668976
37,6,0.0,0.7819670961810572,6.583328122790954
37,7,1.0,0.8478003774089667,0.0
37,7,0.75,0.8230703173288095,2.4730060080157212
37,7,0.5,0.7989527278014612,4.884764960750553
37,7,0.25,0.785144387567766,6.26559898412008
37,7,0.0,0.7709039806985707,7.689639671039606
37,8,1.0,0.8478003774089667,0.0
37,8,0.75,0.807197784407595,4.0602593001371705
37,8,0.5,0.7864998742394642,6.130050316950253
37,8,0.25,0.7713849274389468,7.641544997001992
37,8,0.0,0.7606516953831219,8.71486820258448
38,0,1.0,0.7850465517058133,0.0
38,0,0.75,0.7684068759738079,1.6639675732005421
38,0,0.5,0.7735256347894405,1.1520916916372803
38,0,0.25,0.7627637071327056,2.2282844573107696
38,0,0.0,0.7317334017903458,5.331314991546742
38,1,1.0,0.7850465517058133,0.0
38,1,0.75,0.7613771430107446,2.3669408695068728
38,1,0.5,0.6823993011012095,10.264725060460378
38,1,0.25,0.6102826341245942,17.476391758121913
38,1,0.0,0.5784371500657242,20.660940164008913
38,2,1.0,0.7850465517058133,0.0
38,2,0.75,0.7719592373438527,1.3087314361960534
38,2,0.5,0.6671188966247974,11.792765508101589
38,2,0.25,0.607357491318311,17.76890603875023
38,2,0.0,0.568962010113263,21.608454159255032
38,3,1.0,0.7850465517058133,0.0
38,3,0.75,0.7952024697281559,-1.0155918022342614
38,3,0.5,0.8026075012759184,-1.7560949570105122
38,3,0.25,0.7998749970305933,-1.4828445324780004
38,3,0.0,0.7797421809321272,0.5304370773686062
38,4,1.0,0.7850465517058133,0.0
38,4,0.75,0.7844381446519445,0.06084070538687758
38,4,0.5,0.763806424755429,2.124012695038424
38,4,0.25,0.6877231860091688,9.732336569664445
38,4,0.0,0.5965253622392366,18.85211894665767
38,5,1.0,0.7850465517058133,0.0
38,5,0.75,0.7622364806653724,2.281007104044086
38,5,0.5,0.6738584993539313,11.118805235188201
38,5,0.25,0.4676939392366186,31.735261246919467
38,5,0.0,0.37788412610465494,40.71624256011583
38,6,1.0,0.7850465517058133,0.0
38,6,0.75,0.7726671442440369,1.2379407461776348
38,6,0.5,0.7534416057696102,3.160494593620311
38,6,0.25,0.7409147016597708,4.413185004604248
38,6,0.0,0.7168517771223333,6.8194774583480005
38,7,1.0,0.7850465517058133,0.0
38,7,0.75,0.7797966903164146,0.5249861389398647
38,7,0.5,0.768070304704816,1.6976247000997313
38,7,0.25,0.7677127260238962,1.7333825681917103
38,7,0.0,0.7226475821403725,6.239896956544078
38,8,1.0,0.7850465517058133,0.0
38,8,0.75,0.7869461982458461,-0.18996465400328288
38,8,0.5,0.7894927460212201,-0.4446194315406826
38,8,0.25,0.7816303402961312,0.34162114096820684
38,8,0.0,0.7443741698664542,4.067238183935906
39,0,1.0,0.7287060357848888,0.0
39,0,0.75,0.6989120890798884,2.979394670500035
39,0,0.5,0.6423626091422702,8.634342664261862
39,0,0.25,0.591468609237677,13.723742654721182
39,0,0.0,0.5516711068378043,17.70349289470845
39,1,1.0,0.7287060357848888,0.0
39,1,0.75,0.725387396898559,0.3318638886329772
39,1,0.5,0.718033466644331,1.0672569140557808
39,1,0.25,0.7015172633020345,2.718877248285434
39,1,0.0,0.660201713241387,6.8504322543501805
39,2,1.0,0.7287060357848888,0.0
39,2,0.75,0.7142894020139127,1.4416633770976128
39,2,0.5,0.7094349336470726,1.9271102137816243
39,2,0.25,0.7085359538796212,2.017008190526759
39,2,0.0,0.6772990905180866,5.140694526680223
39,3,1.0,0.7287060357848888,0.0
39,3,0.75,0.7151545497342932,1.355148605059564
39,3,0.5,0.7126683943734926,1.6037641411396186
39,3,0.25,0.6806361283375467,4.8069907447342075
39,3,0.0,0.6152206852394824,11.348535054540642
39,4,1.0,0.7287060357848888,0.0
39,4,0.75,0.7198056945073535,0.8900341277535251
39,4,0.5,0.7115178710265011,1.7188164758387692
39,4,0.25,0.6804302802465931,4.827575553829567
39,4,0.0,0.6473049071322101,8.140112865267868
39,5,1.0,0.7287060357848888,0.0
39,5,0.75,0.6959625715756288,3.274346420926
39,5,0.5,0.6365559481177676,9.215008766712119
39,5,0.25,0.5264745793808207,20.223145640406813
39,5,0.0,0.4925412500312505,23.616478575363832
39,6,1.0,0.7287060357848888,0.0
39,6,0.75,0.7387519321487741,-1.004589636388531
39,6,0.5,0.7317711135199316,-0.30650777350428315
39,6,0.25,0.7200884908140975,0.8617544970791258
39,6,0.0,0.7290341930528135,-0.0328157267924678
39,7,1.0,0.7287060357848888,0.0
39,7,0.75,0.7319395345060234,-0.32334987211346533
39,7,0.5,0.7731404946720077,-4.443445888711894
39,7,0.25,0.7735737032814187,-4.486766749652993
39,7,0.0,0.7077204665162896,2.098556926859918
39,8,1.0,0.7287060357848888,0.0
39,8,0.75,0.7353969671243795,-0.6690931339490724
39,8,0.5,0.7555355487239545,-2.682951293906566
39,8,0.25,0.7549598124680377,-2.6253776683148877
39,8,0.0,0.7469387831320857,-1.8232747347196931
40,0,1.0,0.7809702965498342,0.0
40,0,0.75,0.7748936572782744,0.607663927155977
40,0,0.5,0.7554790723399403,2.5491224209893915
40,0,0.25,0.7297620484266809,5.120824812315328
40,0,0.0,0.7150349608960527,6.593533565378151
40,1,1.0,0.7809702965498342,0.0
40,1,0.75,0.7851812460006824,-0.42109494508482115
40,1,0.5,0.7576039138401764,2.336638270965774
40,1,0.25,0.7362079333541616,4.476236319567262
40,1,0.0,0.7157190861372948,6.525121041253934
40,2,1.0,0.7809702965498342,0.0
40,2,0.75,0.7856495853819861,-0.4679288832151962
40,2,0.5,0.7758163820454941,0.5153914504340107
40,2,0.25,0.7482257155735859,3.2744580976248328
40,2,0.0,0.7401434265509008,4.082686999893337
40,3,1.0,0.7809702965498342,0.0
40,3,0.75,0.789711035311916,-0.8740738762081812
40,3,0.5,0.7726547212905422,0.8315575259291941
40,3,0.25,0.72331218261736,5.7658113932474215
40,3,0.0,0.691040229558747,8.993006699108719
40,4,1.0,0.7809702965498342,0.0
40,4,0.75,0.7793850353835619,0.15852611662723337
40,4,0.5,0.7601293095537691,2.084098699606507
40,4,0.25,0.7241549282179349,5.681536833189926
40,4,0.0,0.6941266357423681,8.684366080746608
40,5,1.0,0.7809702965498342,0.0
40,5,0.75,0.7822226189303655,-0.1252322380531301
40,5,0.5,0.7697607833142397,1.1209513235594493
40,5,0.25,0.7040360172689673,7.6934279280866935
40,5,0.0,0.6323183912590725,14.865190529076166
40,6,1.0,0.7809702965498342,0.0
40,6,0.75,0.7770358102535451,0.3934486296289119
40,6,0.5,0.7741318497878331,0.6838446762001071
40,6,0.25,0.7589338220445228,2.203647450531143
40,6,0.0,0.7373795347967,4.359076175313414
40,7,1.0,0.7809702965498342,0.0
40,7,0.75,0.7646146712475304,1.6355625302303833
40,7,0.5,0.7259274237700634,5.504287277977083
40,7,0.25,0.687016486513048,9.395381003678615
40,7,0.0,0.6388803606837079,14.208993586612628
40,8,1.0,0.7809702965498342,0.0
40,8,0.75,0.7841767372226485,-0.32064406728142814
40,8,0.5,0.76307516514122,1.7895131408614207
40,8,0.25,0.7039058235297135,7.706447302012065
40,8,0.0,0.6377190027021435,14.325129384769063
