subject,channel,alpha,f1,drop_pp
1,0,1.0,0.586347079698704,0.0
1,0,0.75,0.5520892715375738,3.425780816113022
1,0,0.5,0.5314110045002811,5.493607519842292
1,0,0.25,0.5192311647062503,6.7115914992453725
1,0,0.0,0.5058445066383299,8.050257306037413
1,1,1.0,0.586347079698704,0.0
1,1,0.75,0.5988547623885969,-1.2507682689892885
1,1,0.5,0.6022265357305194,-1.5879456031815398
1,1,0.25,0.6024362067858815,-1.6089127087177468
1,1,0.0,0.5722488549009981,1.409822479770595
1,2,1.0,0.586347079698704,0.0
1,2,0.75,0.5591185352441165,2.7228544454587555
1,2,0.5,0.510701294621283,7.5645785077421035
1,2,0.25,0.44930460194530614,13.70424777533979
1,2,0.0,0.40418660859505506,18.216047110364897
1,3,1.0,0.586347079698704,0.0
1,3,0.75,0.5892781375967149,-0.2931057898010847
1,3,0.5,0.5986827422257186,-1.2335662527014568
1,3,0.25,0.5811736934629054,0.517338623579866
1,3,0.0,0.5404233045485,4.592377515020408
1,4,1.0,0.586347079698704,0.0
1,4,0.75,0.5602207789593723,2.6126300739331754
1,4,0.5,0.548126752111168,3.822032758753602
1,4,0.25,0.5396336059969427,4.671347370176138
1,4,0.0,0.5347648489120058,5.158223078669821
1,5,1.0,0.586347079698704,0.0
1,5,0.75,0.5383328662821419,4.801421341656209
1,5,0.5,0.43124996980807595,15.509710989062809
1,5,0.25,0.4208944196150711,16.545266008363292
1,5,0.0,0.40474191109347546,18.160516860522858
1,6,1.0,0.586347079698704,0.0
1,6,0.75,0.6124244892220903,-2.607740952338622
1,6,0.5,0.6265611248301637,-4.021404513145965
1,6,0.25,0.6388865206264813,-5.253944092777729
1,6,0.0,0.6528648304902487,-6.651775079154465
1,7,1.0,0.586347079698704,0.0
1,7,0.75,0.6109569084815727,-2.460982878286866
1,7,0.5,0.613975283021845,-2.7628203323140976
1,7,0.25,0.5895605495495512,-0.32134698508471393
1,7,0.0,0.5606885700488823,2.565850964982175
1,8,1.0,0.586347079698704,0.0
1,8,0.75,0.604522406061327,-1.8175326362622979
1,8,0.5,0.5810239957925494,0.5323083906154658
1,8,0.25,0.5308220258357095,5.552505386299456
1,8,0.0,0.5274942699451748,5.8852809753529245
2,0,1.0,0.7931635000708602,0.0
2,0,0.75,0.7764134484311215,1.675005163973875
2,0,0.5,0.7806276336216456,1.2535866449214672
2,0,0.25,0.7680828029526834,2.5080697118176842
2,0,0.0,0.7562032268974272,3.696027317343298
2,1,1.0,0.7931635000708602,0.0
2,1,0.75,0.7497026282239496,4.346087184691061
2,1,0.5,0.745100459825461,4.80630402453992
2,1,0.25,0.761612167802901,3.1551332267959253
2,1,0.0,0.7566691427528867,3.649435731797357
2,2,1.0,0.7931635000708602,0.0
2,2,0.75,0.7933419047663015,-0.0178404695441281
2,2,0.5,0.7771464801125252,1.6017019958335044
2,2,0.25,0.7467187546051689,4.644474546569133
2,2,0.0,0.7107121565626306,8.245134350822958
2,3,1.0,0.7931635000708602,0.0
2,3,0.75,0.7998164670578463,-0.6652966986986031
2,3,0.5,0.8053121690013125,-1.21486689304523
2,3,0.25,0.7648076070586374,2.8355893012222855
2,3,0.0,0.7006374889916639,9.252601107919634
2,4,1.0,0.7931635000708602,0.0
2,4,0.75,0.8153953346660823,-2.2231834595222044
2,4,0.5,0.8009694094358848,-0.7805909365024566
2,4,0.25,0.7490888323748486,4.4074667696011645
2,4,0.0,0.6899362453466932,10.322725472416705
2,5,1.0,0.7931635000708602,0.0
2,5,0.75,0.8145163887908761,-2.135288872001584
2,5,0.5,0.7616868828000338,3.14766172708264
2,5,0.25,0.7197776796215883,7.338582044927189
2,5,0.0,0.6703674821777039,12.279601789315631
2,6,1.0,0.7931635000708602,0.0
2,6,0.75,0.781518029969176,1.1645470101684263
2,6,0.5,0.7697177716522621,2.3445728418598155
2,6,0.25,0.7672914860795332,2.587201399132699
2,6,0.0,0.7473562757301695,4.580722434069074
2,7,1.0,0.7931635000708602,0.0
2,7,0.75,0.755779416494919,3.738408357594125
2,7,0.5,0.7280797514756524,6.508374859520782
2,7,0.25,0.7008099128021656,9.235358726869459
2,7,0.0,0.6626623382303067,13.05011618405535
2,8,1.0,0.7931635000708602,0.0
2,8,0.75,0.7863252353012453,0.683826476961491
2,8,0.5,0.7809374110443926,1.2226089026467601
2,8,0.25,0.7765597296668395,1.6603770404020723
2,8,0.0,0.7649750226303971,2.8188477440463156
3,0,1.0,0.792352974645133,0.0
3,0,0.75,0.7645050248608849,2.7847949784248094
3,0,0.5,0.667085135655439,12.526783898969395
3,0,0.25,0.6687239862964668,12.36289883486662
3,0,0.0,0.6384243936907142,15.392858095441875
3,1,1.0,0.792352974645133,0.0
3,1,0.75,0.8127537519099834,-2.0400777264850456
3,1,0.5,0.8195999716816859,-2.7246997036552867
3,1,0.25,0.803604538847087,-1.1251564201954056
3,1,0.0,0.7639485949638614,2.840437968127163
3,2,1.0,0.792352974645133,0.0
3,2,0.75,0.8016595697557412,-0.9306595110608162
3,2,0.5,0.8135791082599593,-2.122613361482628
3,2,0.25,0.7998172583796666,-0.7464283734533561
3,2,0.0,0.7703294731608445,2.2023501484288444
3,3,1.0,0.792352974645133,0.0
3,3,0.75,0.7345824327186863,5.777054192644671
3,3,0.5,0.6450555093947131,14.729746525041987
3,3,0.25,0.6172877063455117,17.506526829962134
3,3,0.0,0.5816605577376431,21.069241690748985
3,4,1.0,0.792352974645133,0.0
3,4,0.75,0.7835655004417472,0.878747420338577
3,4,0.5,0.7676480706925135,2.4704903952619484
3,4,0.25,0.7517770041912589,4.057597045387407
3,4,0.0,0.7114488161434014,8.09041585017316
3,5,1.0,0.792352974645133,0.0
3,5,0.75,0.7884191822031557,0.3933792441977335
3,5,0.5,0.7408380480571801,5.151492658795287
3,5,0.25,0.6449934653630918,14.735950928204122
3,5,0.0,0.5811707873134809,21.118218733165207
3,6,1.0,0.792352974645133,0.0
3,6,0.75,0.797770333264284,-0.5417358619151047
3,6,0.5,0.7859487095476718,0.640426509746117
3,6,0.25,0.7262052280695188,6.6147746575614175
3,6,0.0,0.6630365524136076,12.93164222315254
3,7,1.0,0.792352974645133,0.0
3,7,0.75,0.7812099248962544,1.1143049748878586
3,7,0.5,0.7695768245040684,2.27761501410646
3,7,0.25,0.7510365043476754,4.131647029745755
3,7,0.0,0.7093320636303232,8.302091101480979
3,8,1.0,0.792352974645133,0.0
3,8,0.75,0.8086387634125709,-1.6285788767437914
3,8,0.5,0.8125908973826301,-2.023792273749714
3,8,0.25,0.7823386051897241,1.00143694554089
3,8,0.0,0.7406405875983131,5.171238704681991
4,0,1.0,0.7963748408884097,0.0
4,0,0.75,0.7387931841701028,5.758165671830695
4,0,0.5,0.7057991354884492,9.057570539996052
4,0,0.25,0.7046430615650023,9.173177932340737
4,0,0.0,0.6816723493317046,11.470249155670508
4,1,1.0,0.7963748408884097,0.0
4,1,0.75,0.7842896107962204,1.2085230092189314
4,1,0.5,0.7573365567068733,3.903828418153643
4,1,0.25,0.7218294304979964,7.454541039041329
4,1,0.0,0.6679813552795925,12.839348560881724
4,2,1.0,0.7963748408884097,0.0
4,2,0.75,0.7353191092534876,6.105573163492206
4,2,0.5,0.7049700462911452,9.140479459726446
4,2,0.25,0.6995475099902799,9.682733089812977
4,2,0.0,0.7032884555756911,9.308638531271862
4,3,1.0,0.7963748408884097,0.0
4,3,0.75,0.7363912530441113,5.998358784429836
4,3,0.5,0.7133234519104084,8.305138897800134
4,3,0.25,0.6850766069426717,11.129823394573801
4,3,0.0,0.6573510374640342,13.902380342437548
4,4,1.0,0.7963748408884097,0.0
4,4,0.75,0.7787427899847482,1.763205090366149
4,4,0.5,0.7692883317186725,2.7086509169737205
4,4,0.25,0.7497718172779798,4.660302361042989
4,4,0.0,0.7089228743606624,8.745196652774734
4,5,1.0,0.7963748408884097,0.0
4,5,0.75,0.7444648100515898,5.191003083681989
4,5,0.5,0.7073663839280092,8.900845696040049
4,5,0.25,0.6524174482220007,14.395739266640906
4,5,0.0,0.6218266035607585,17.454823732765124
4,6,1.0,0.7963748408884097,0.0
4,6,0.75,0.7518584657532098,4.451637513519991
4,6,0.5,0.7106572130073577,8.571762788105197
4,6,0.25,0.6993462243647419,9.702861652366778
4,6,0.0,0.6749747802187832,12.14000606696265
4,7,1.0,0.7963748408884097,0.0
4,7,0.75,0.7353961725583922,6.097866833001753
4,7,0.5,0.6765573279834943,11.981751290491538
4,7,0.25,0.6334659890204285,16.29088518679812
4,7,0.0,0.5921549351667741,20.421990572163562
4,8,1.0,0.7963748408884097,0.0
4,8,0.75,0.8067616998226127,-1.0386858934202992
4,8,0.5,0.7769829385904283,1.9391902297981378
4,8,0.25,0.7759822229704044,2.0392617918005285
4,8,0.0,0.7391418484696435,5.723299241876623
5,0,1.0,0.57757382978233,0.0
5,0,0.75,0.5638417761129874,1.3732053669342603
5,0,0.5,0.5586096270943154,1.8964202688014575
5,0,0.25,0.5374143237551977,4.015950602713225
5,0,0.0,0.5431618054270068,3.44120243553232
5,1,1.0,0.57757382978233,0.0
5,1,0.75,0.5636223405536285,1.3951489228701486
5,1,0.5,0.5365148915660407,4.105893821628925
5,1,0.25,0.5018840174014216,7.568981238090833
5,1,0.0,0.4575207883626893,12.005304141964068
5,2,1.0,0.57757382978233,0.0
5,2,0.75,0.5604264387882046,1.7147390994125322
5,2,0.5,0.5437429045209141,3.3830925261415845
5,2,0.25,0.5440523661701316,3.352146361219832
5,2,0.0,0.5167478370950498,6.082599268728018
5,3,1.0,0.57757382978233,0.0
5,3,0.75,0.6141625252466374,-3.658869546430743
5,3,0.5,0.6486618557563391,-7.10880259740091
5,3,0.25,0.6546440319658097,-7.707020218347971
5,3,0.0,0.6467651701341017,-6.919134035177176
5,4,1.0,0.57757382978233,0.0
5,4,0.75,0.5515366076767902,2.6037222105539715
5,4,0.5,0.5417177109697516,3.585611881257833
5,4,0.25,0.54475428148674,3.2819548295589973
5,4,0.0,0.5398239620586633,3.774986772366662
5,5,1.0,0.57757382978233,0.0
5,5,0.75,0.5451635116089609,3.2410318173369035
5,5,0.5,0.5116286954788996,6.59451343034304
5,5,0.25,0.4744051946536598,10.316863512867014
5,5,0.0,0.45732476285402446,12.02490669283055
5,6,1.0,0.57757382978233,0.0
5,6,0.75,0.5725217966166131,0.5052033165716896
5,6,0.5,0.5781375787207111,-0.05637489383811811
5,6,0.25,0.5838661471461793,-0.6292317363849387
5,6,0.0,0.576530824286797,0.10430054955329338
5,7,1.0,0.57757382978233,0.0
5,7,0.75,0.5629422274710376,1.4631602311292347
5,7,0.5,0.5460058533618406,3.1567976420489363
5,7,0.25,0.5109465821409683,6.662724764136163
5,7,0.0,0.5056212002956328,7.195262948669711
5,8,1.0,0.57757382978233,0.0
5,8,0.75,0.5748877266778889,0.2686103104441062
5,8,0.5,0.5658143422009065,1.1759487581423422
5,8,0.25,0.5318993943471009,4.567443543522909
5,8,0.0,0.5129312917517963,6.464253803053365
6,0,1.0,0.6742357550926,0.0
6,0,0.75,0.6760540349914166,-0.1818279898816555
6,0,0.5,0.6738206071404429,0.04151479521571355
6,0,0.25,0.6089953478134303,6.524040727916969
6,0,0.0,0.5776488055068161,9.658694958578396
6,1,1.0,0.6742357550926,0.0
6,1,0.75,0.6528905613828577,2.1345193709742305
6,1,0.5,0.6466390181215965,2.759673697100351
6,1,0.25,0.6194746575488121,5.476109754378788
6,1,0.0,0.6065451390541495,6.76906160384505
6,2,1.0,0.6742357550926,0.0
6,2,0.75,0.6771689862684287,-0.29332311758286655
6,2,0.5,0.6831293346961643,-0.8893579603564294
6,2,0.25,0.671166245389832,0.3069509702767981
6,2,0.0,0.5524113856475281,12.182436944507192
6,3,1.0,0.6742357550926,0.0
6,3,0.75,0.6756605035585601,-0.14247484659600795
6,3,0.5,0.6818161344466399,-0.7580379354039879
6,3,0.25,0.5882437932437932,8.599196184880686
6,3,0.0,0.5913164141556129,8.291934093698716
6,4,1.0,0.6742357550926,0.0
6,4,0.75,0.666804380658398,0.7431374434202054
6,4,0.5,0.6503744380962145,2.3861316996385495
6,4,0.25,0.6062608244283503,6.797493066424975
6,4,0.0,0.5499592385010594,12.42765165915406
6,5,1.0,0.6742357550926,0.0
6,5,0.75,0.661264452681848,1.2971302410752061
6,5,0.5,0.6312192056692902,4.301654942330979
6,5,0.25,0.4525614020009426,22.167435309165747
6,5,0.0,0.38294227506864714,29.12934800239529
6,6,1.0,0.6742357550926,0.0
6,6,0.75,0.6755794313385937,-0.13436762459936302
6,6,0.5,0.6690712013680004,0.5164553724599674
6,6,0.25,0.654110628663245,2.0125126429355045
6,6,0.0,0.6510843279929638,2.3151427099636246
6,7,1.0,0.6742357550926,0.0
6,7,0.75,0.6451686683156671,2.9067086776932927
6,7,0.5,0.632499634222756,4.173612086984402
6,7,0.25,0.5140439490653783,16.019180602722173
6,7,0.0,0.42037076009172375,25.386499500087627
6,8,1.0,0.6742357550926,0.0
6,8,0.75,0.6780420722653028,-0.38063171727027445
6,8,0.5,0.6695491974089961,0.46865576836039313
6,8,0.25,0.6390731713694108,3.5162583723189256
6,8,0.0,0.5725162938846583,10.171946120794173
7,0,1.0,0.6437498521794195,0.0
7,0,0.75,0.5705085930061008,7.32412591733187
7,0,0.5,0.5254895484835191,11.826030369590034
7,0,0.25,0.4732927248651912,17.045712731422828
7,0,0.0,0.4515110217101138,19.223883046930567
7,1,1.0,0.6437498521794195,0.0
7,1,0.75,0.6005359916384111,4.32138605410084
7,1,0.5,0.5270417377477307,11.670811443168883
7,1,0.25,0.4876108166856922,15.613903549372726
7,1,0.0,0.48220920216611934,16.154065001330014
7,2,1.0,0.6437498521794195,0.0
7,2,0.75,0.6344307548309978,0.9319097348421734
7,2,0.5,0.643414967810194,0.03348843692254633
7,2,0.25,0.6271759197094734,1.6573932469946095
7,2,0.0,0.5926451966553602,5.1104655524059295
7,3,1.0,0.6437498521794195,0.0
7,3,0.75,0.6215000182295295,2.2249833949889997
7,3,0.5,0.5356347601949991,10.811509198442037
7,3,0.25,0.48204392609723445,16.170592608218502
7,3,0.0,0.4694865567833997,17.42632953960198
7,4,1.0,0.6437498521794195,0.0
7,4,0.75,0.6292581735349086,1.4491678644510841
7,4,0.5,0.6140743973682078,2.96754548112117
7,4,0.25,0.596283883983602,4.74659681958175
7,4,0.0,0.5799324609493658,6.38173912300537
7,5,1.0,0.6437498521794195,0.0
7,5,0.75,0.6698800466919181,-2.613019451249865
7,5,0.5,0.6695923777551924,-2.5842525575772934
7,5,0.25,0.6176200846612742,2.612976751814533
7,5,0.0,0.48830384011925654,15.544601206016296
7,6,1.0,0.6437498521794195,0.0
7,6,0.75,0.629680826024941,1.406902615447847
7,6,0.5,0.6123208647339752,3.142898744544431
7,6,0.25,0.6154237325072383,2.832611967218124
7,6,0.0,0.6105759867424143,3.317386543700518
7,7,1.0,0.6437498521794195,0.0
7,7,0.75,0.6216489299221694,2.2100922257250133
7,7,0.5,0.6042828670451255,3.946698513429403
7,7,0.25,0.582749984367235,6.099986781218448
7,7,0.0,0.554090384007038,8.965946817238146
7,8,1.0,0.6437498521794195,0.0
7,8,0.75,0.6279510283903644,1.579882378905506
7,8,0.5,0.6366599400085867,0.7089912170832768
7,8,0.25,0.5691085864128897,7.4641265766529745
7,8,0.0,0.5156009714833244,12.814888069609509
8,0,1.0,0.795572868983533,0.0
8,0,0.75,0.7952021002177612,0.03707687657718006
8,0,0.5,0.7932143776818373,0.2358491301695631
8,0,0.25,0.7337606302044242,6.181223877910879
8,0,0.0,0.6040262286666889,19.15466403168441
8,1,1.0,0.795572868983533,0.0
8,1,0.75,0.7915603304919866,0.4012538491546369
8,1,0.5,0.7968753917717158,-0.13025227881828805
8,1,0.25,0.7657677056017916,2.980516338174133
8,1,0.0,0.7148649599127438,8.070790907078917
8,2,1.0,0.795572868983533,0.0
8,2,0.75,0.8170012507010369,-2.142838171750394
8,2,0.5,0.8232672856928593,-2.7694416709326375
8,2,0.25,0.8221897749897442,-2.661690600621125
8,2,0.0,0.8123760774910904,-1.6803208507557454
8,3,1.0,0.795572868983533,0.0
8,3,0.75,0.7971855064217408,-0.16126374382078312
8,3,0.5,0.7869834085921092,0.858946039142372
8,3,0.25,0.7749159849148132,2.0656884068719794
8,3,0.0,0.7032178526841448,9.235501629938813
8,4,1.0,0.795572868983533,0.0
8,4,0.75,0.7884896852171458,0.7083183766387169
8,4,0.5,0.7717888993040463,2.3783969679486705
8,4,0.25,0.7288823373984981,6.669053158503491
8,4,0.0,0.6982062373831005,9.736663160043246
8,5,1.0,0.795572868983533,0.0
8,5,0.75,0.7929144244413082,0.2658444542224747
8,5,0.5,0.757900461029116,3.7672407954416953
8,5,0.25,0.6629536143864727,13.261925459706026
8,5,0.0,0.5948285446429282,20.074432434060473
8,6,1.0,0.795572868983533,0.0
8,6,0.75,0.802322236374176,-0.6749367390643024
8,6,0.5,0.8025299757129927,-0.6957106729459706
8,6,0.25,0.7980398749031669,-0.24670059196338912
8,6,0.0,0.8121272688190657,-1.6554399835532752
8,7,1.0,0.795572868983533,0.0
8,7,0.75,0.8009900740038063,-0.5417205020273319
8,7,0.5,0.8111215538847117,-1.5548684901178778
8,7,0.25,0.7808740258440446,1.4698843139488327
8,7,0.0,0.728488463614634,6.708440536889892
8,8,1.0,0.795572868983533,0.0
8,8,0.75,0.7803340215476253,1.5238847435907643
8,8,0.5,0.7431918894696843,5.238097951384868
8,8,0.25,0.7051904987049622,9.038237027857077
8,8,0.0,0.6583582042900288,13.721466469350418
9,0,1.0,0.7867621642983962,0.0
9,0,0.75,0.768469296119177,1.8292868179219157
9,0,0.5,0.7497287195251255,3.703344477327064
9,0,0.25,0.7091105849119309,7.765157938646528
9,0,0.0,0.7024188988233588,8.434326547503733
9,1,1.0,0.7867621642983962,0.0
9,1,0.75,0.7503745844707674,3.6387579827628747
9,1,0.5,0.7325034450989671,5.425871919942904
9,1,0.25,0.7121700397454852,7.459212455291098
9,1,0.0,0.7134096009282288,7.335256337016737
9,2,1.0,0.7867621642983962,0.0
9,2,0.75,0.7899220288991589,-0.3159864600762674
9,2,0.5,0.7882297717400877,-0.14676074416914986
9,2,0.25,0.7814933876189458,0.526877667945036
9,2,0.0,0.7572812118469585,2.948095245143767
9,3,1.0,0.7867621642983962,0.0
9,3,0.75,0.7903187923568245,-0.35566280584282683
9,3,0.5,0.7851081637140102,0.16540005843860284
9,3,0.25,0.7738741582491584,1.2888006049237788
9,3,0.0,0.7676249574491252,1.9137206849271005
9,4,1.0,0.7867621642983962,0.0
9,4,0.75,0.7924270092411685,-0.5664844942772307
9,4,0.5,0.7832199966121378,0.35421676862583684
9,4,0.25,0.7798983423524442,0.6863821945952031
9,4,0.0,0.7614521421510849,2.531002214731126
9,5,1.0,0.7867621642983962,0.0
9,5,0.75,0.8025676094943938,-1.580544519599758
9,5,0.5,0.8025591348176355,-1.579697051923934
9,5,0.25,0.7907488568858572,-0.39866925874609827
9,5,0.0,0.7327733011012623,5.398886319713392
9,6,1.0,0.7867621642983962,0.0
9,6,0.75,0.7911197014493365,-0.4357537150940338
9,6,0.5,0.7852309155427218,0.15312487556743415
9,6,0.25,0.7582998091327299,2.846235516566631
9,6,0.0,0.770852643647124,1.5909520651272158
9,7,1.0,0.7867621642983962,0.0
9,7,0.75,0.7946961539600981,-0.793398966170189
9,7,0.5,0.7840986738800584,0.26634904183377994
9,7,0.25,0.7740543842414677,1.270778005692852
9,7,0.0,0.7005680946480203,8.61940696503759
9,8,1.0,0.7867621642983962,0.0
9,8,0.75,0.7698347231797935,1.692744111860267
9,8,0.5,0.7695045970718578,1.7257567226538373
9,8,0.25,0.7269052916165392,5.985687268185702
9,8,0.0,0.642416454462203,14.434570983619322
10,0,1.0,0.7107293981354104,0.0
10,0,0.75,0.6938146793281914,1.6914718807218954
10,0,0.5,0.6797180207507838,3.101137738462656
10,0,0.25,0.6626825572806966,4.8046840854713775
10,0,0.0,0.6040701993941932,10.665919874121721
10,1,1.0,0.7107293981354104,0.0
10,1,0.75,0.6985607337815186,1.2168664353891745
10,1,0.5,0.6892812951785494,2.144810295686095
10,1,0.25,0.6417825900462185,6.894680808919185
10,1,0.0,0.5959965475576905,11.473285057771987
10,2,1.0,0.7107293981354104,0.0
10,2,0.75,0.7032352468935148,0.7494151241895564
10,2,0.5,0.6811977586022758,2.9531639533134535
10,2,0.25,0.673361672945704,3.7367725189706325
10,2,0.0,0.6437480669015785,6.698133123383188
10,3,1.0,0.7107293981354104,0.0
10,3,0.75,0.6966685797870433,1.4060818348367032
10,3,0.5,0.6826636011304759,2.80657970049345
10,3,0.25,0.5969373189791543,11.37920791562561
10,3,0.0,0.5067344784431067,20.399491969230365
10,4,1.0,0.7107293981354104,0.0
10,4,0.75,0.7149597131274728,-0.42303149920623895
10,4,0.5,0.7157712754197294,-0.5041877284319041
10,4,0.25,0.6873998000540387,2.3329598081371694
10,4,0.0,0.6622060485753137,4.852334956009663
10,5,1.0,0.7107293981354104,0.0
10,5,0.75,0.6873465653932658,2.338283274214459
10,5,0.5,0.6859079511525826,2.4821446982827733
10,5,0.25,0.6489901700460766,6.173922808933375
10,5,0.0,0.6332336263422328,7.7495771793177575
10,6,1.0,0.7107293981354104,0.0
10,6,0.75,0.6947361432197449,1.59932549156655
10,6,0.5,0.6967266047998035,1.4002793335606833
10,6,0.25,0.6765766045789365,3.4152793556473826
10,6,0.0,0.6814785646358111,2.9250833499599227
10,7,1.0,0.7107293981354104,0.0
10,7,0.75,0.6562370939058532,5.44923042295572
10,7,0.5,0.6479225298512312,6.280686828417914
10,7,0.25,0.6321370928487562,7.859230528665417
10,7,0.0,0.5691110646563363,14.161833347907404
10,8,1.0,0.7107293981354104,0.0
10,8,0.75,0.7088862033140273,0.1843194821383065
10,8,0.5,0.6762385698751825,3.449082826022787
10,8,0.25,0.6424131706481135,6.831622748729682
10,8,0.0,0.5908995926235674,11.982980551184298
11,0,1.0,0.8775426105680593,0.0
11,0,0.75,0.8375030277798776,4.003958278818165
11,0,0.5,0.8140825121905018,6.346009837755751
11,0,0.25,0.7821932974793893,9.534931308867002
11,0,0.0,0.745070643180795,13.24719673872643
11,1,1.0,0.8775426105680593,0.0
11,1,0.75,0.8684182185466874,0.912439202137183
11,1,0.5,0.8509796783589192,2.6562932209140078
11,1,0.25,0.8152393546692507,6.2303255898808585
11,1,0.0,0.7546214476060887,12.292116296197053
11,2,1.0,0.8775426105680593,0.0
11,2,0.75,0.867855200723364,0.9687409844695294
11,2,0.5,0.8466759494428513,3.0866661125207973
11,2,0.25,0.8205080959754827,5.703451459257658
11,2,0.0,0.8059823315531964,7.156027901486284
11,3,1.0,0.8775426105680593,0.0
11,3,0.75,0.8510440101237345,2.6498600444324727
11,3,0.5,0.8092206572788093,6.832195328924994
11,3,0.25,0.7200218919675934,15.752071860046591
11,3,0.0,0.6265806124507316,25.096199811732767
11,4,1.0,0.8775426105680593,0.0
11,4,0.75,0.8707139372681947,0.6828673299864585
11,4,0.5,0.848271049113375,2.9271561454684236
11,4,0.25,0.8263297195258634,5.121289104219584
11,4,0.0,0.7939240010310743,8.361860953698496
11,5,1.0,0.8775426105680593,0.0
11,5,0.75,0.8439797723539304,3.3562838214128865
11,5,0.5,0.7906064728059684,8.693613776209085
11,5,0.25,0.7607910205400875,11.675159002797175
11,5,0.0,0.7380653063568338,13.94773042112255
11,6,1.0,0.8775426105680593,0.0
11,6,0.75,0.8709175994067058,0.66250111613535
11,6,0.5,0.8707048039342737,0.6837806633785526
11,6,0.25,0.8619754310038382,1.5567179564221045
11,6,0.0,0.8683528419636892,0.9189768604370041
11,7,1.0,0.8775426105680593,0.0
11,7,0.75,0.882194798119116,-0.46521875510567856
11,7,0.5,0.885658076994677,-0.8115466426617757
11,7,0.25,0.8358708576377392,4.1671752930320105
11,7,0.0,0.7197913090289163,15.775130153914297
11,8,1.0,0.8775426105680593,0.0
11,8,0.75,0.8517244226112385,2.581818795682078
11,8,0.5,0.8269662464976448,5.057636407041444
11,8,0.25,0.7638886278323841,11.365398273567518
11,8,0.0,0.7466412893074743,13.090132126058496
12,0,1.0,0.8744560331343474,0.0
12,0,0.75,0.8949713323579023,-2.0515299223554884
12,0,0.5,0.8914497113686359,-1.6993678234288545
12,0,0.25,0.8272750017141793,4.718103142016805
12,0,0.0,0.7921587868577886,8.229724627655877
12,1,1.0,0.8744560331343474,0.0
12,1,0.75,0.8622238115001136,1.2232221634233764
12,1,0.5,0.8417105454426361,3.274548769171126
12,1,0.25,0.808235567345765,6.622046578858242
12,1,0.0,0.7819778898194951,9.247814331485227
12,2,1.0,0.8744560331343474,0.0
12,2,0.75,0.869392448162829,0.5063584971518376
12,2,0.5,0.8547459000200333,1.9710133114314132
12,2,0.25,0.8233532399927197,5.110279314162769
12,2,0.0,0.805256890559287,6.9199142575060435
12,3,1.0,0.8744560331343474,0.0
12,3,0.75,0.8909077150837319,-1.6451681949384511
12,3,0.5,0.863553948921992,1.090208421235539
12,3,0.25,0.8190102668907664,5.5445766243581
12,3,0.0,0.7636215694548637,11.083446367948369
12,4,1.0,0.8744560331343474,0.0
12,4,0.75,0.8388864838799011,3.556954925444633
12,4,0.5,0.818781332101819,5.567470103252836
12,4,0.25,0.7833685643573637,9.10874687769837
12,4,0.0,0.7619754402715857,11.248059286276169
12,5,1.0,0.8744560331343474,0.0
12,5,0.75,0.8480453658286388,2.6410667305708624
12,5,0.5,0.8028552554904136,7.16007776439338
12,5,0.25,0.7594610591236639,11.499497401068348
12,5,0.0,0.6965018399011677,17.795419323317972
12,6,1.0,0.8744560331343474,0.0
12,6,0.75,0.879180956080664,-0.47249229463166564
12,6,0.5,0.873056173479043,0.1399859655304425
12,6,0.25,0.8445911816644224,2.9864851469925013
12,6,0.0,0.8239762581500306,5.047977498431678
12,7,1.0,0.8744560331343474,0.0
12,7,0.75,0.8624106230847803,1.2045410049567051
12,7,0.5,0.8425133128955479,3.1942720238799516
12,7,0.25,0.8154941240744173,5.896190905993004
12,7,0.0,0.7767996576726961,9.765637546165129
12,8,1.0,0.8744560331343474,0.0
12,8,0.75,0.8685426100213725,0.5913423112974936
12,8,0.5,0.8359793020645734,3.8476731069774006
12,8,0.25,0.8092700977551294,6.518593537921802
12,8,0.0,0.7619042977929383,11.255173534140905
13,0,1.0,0.8837857459273062,0.0
13,0,0.75,0.8730347526183405,1.0750993308965673
13,0,0.5,0.8466554144224065,3.713033150489964
13,0,0.25,0.8068496996211583,7.693604630614792
13,0,0.0,0.7530273387757249,13.075840715158126
13,1,1.0,0.8837857459273062,0.0
13,1,0.75,0.8503553976849344,3.343034824237179
13,1,0.5,0.8345823511416142,4.920339478569202
13,1,0.25,0.796245625506909,8.754012042039715
13,1,0.0,0.7802717982571645,10.351394767014167
13,2,1.0,0.8837857459273062,0.0
13,2,0.75,0.8822293798387845,0.15563660885217212
13,2,0.5,0.8711335157129191,1.2652230214387106
13,2,0.25,0.8381100019344349,4.567574399287134
13,2,0.0,0.7669050701293908,11.68806757979154
13,3,1.0,0.8837857459273062,0.0
13,3,0.75,0.8653084288894043,1.8477317037901897
13,3,0.5,0.8494708461019337,3.4314899825372502
13,3,0.25,0.8083922591797583,7.539348674754787
13,3,0.0,0.7758201062466862,10.796563968062001
13,4,1.0,0.8837857459273062,0.0
13,4,0.75,0.8843319363889565,-0.05461904616502755
13,4,0.5,0.8876200470136913,-0.3834301086385161
13,4,0.25,0.8593614628899074,2.442428303739874
13,4,0.0,0.8139510632492979,6.98346826780083
13,5,1.0,0.8837857459273062,0.0
13,5,0.75,0.8727316401797892,1.1054105747516974
13,5,0.5,0.8177315087538901,6.6054237173416075
13,5,0.25,0.6307046175805823,25.308112834672393
13,5,0.0,0.504583860075851,37.92018858514552
13,6,1.0,0.8837857459273062,0.0
13,6,0.75,0.8803820846430945,0.34036612842116565
13,6,0.5,0.8684618643971722,1.5323881530133976
13,6,0.25,0.8597616171983551,2.40241287289511
13,6,0.0,0.8458864037719701,3.789934215533608
13,7,1.0,0.8837857459273062,0.0
13,7,0.75,0.8791594739507667,0.4626271976539531
13,7,0.5,0.8678483353581401,1.5937410569166088
13,7,0.25,0.8557453245774677,2.804042134983853
13,7,0.0,0.8375130540606379,4.627269186666827
13,8,1.0,0.8837857459273062,0.0
13,8,0.75,0.8675782598223409,1.6207486104965252
13,8,0.5,0.8796797070925463,0.41060388347599064
13,8,0.25,0.8540115478295607,2.977419809774551
13,8,0.0,0.836254375342626,4.753137058468015
14,0,1.0,0.7838868126720216,0.0
14,0,0.75,0.7841485568301662,-0.02617441581445057
14,0,0.5,0.7752648161682991,0.8621996503722529
14,0,0.25,0.7558488343502152,2.8037978321806434
14,0,0.0,0.7293703375269008,5.451647514512081
14,1,1.0,0.7838868126720216,0.0
14,1,0.75,0.7916142949749922,-0.7727482302970601
14,1,0.5,0.7809616402331634,0.2925172438858259
14,1,0.25,0.7743892920352011,0.9497520636820522
14,1,0.0,0.752280148123853,3.160666454816863
14,2,1.0,0.7838868126720216,0.0
14,2,0.75,0.79091539123353,-0.7028578561508403
14,2,0.5,0.7709529205204506,1.2933892151571036
14,2,0.25,0.7353130813066728,4.857373136534882
14,2,0.0,0.6451428678354053,13.874394483661634
14,3,1.0,0.7838868126720216,0.0
14,3,0.75,0.7627425637488154,2.114424892320621
14,3,0.5,0.7485851648351649,3.530164783685674
14,3,0.25,0.7295962968753292,5.429051579669242
14,3,0.0,0.6938943575767024,8.999245509531928
14,4,1.0,0.7838868126720216,0.0
14,4,0.75,0.7824269824596123,0.14598302124093632
14,4,0.5,0.7725334685159604,1.1353344156061262
14,4,0.25,0.7466323786622044,3.7254434009817206
14,4,0.0,0.6993442376621559,8.454257500986573
14,5,1.0,0.7838868126720216,0.0
14,5,0.75,0.7769750975958751,0.6911715076146518
14,5,0.5,0.751294909983836,3.259190268818568
14,5,0.25,0.6946080097563713,8.927880291565039
14,5,0.0,0.6393870224371859,14.449979023483571
14,6,1.0,0.7838868126720216,0.0
14,6,0.75,0.7836413496696388,0.02454630023828175
14,6,0.5,0.7844256332768256,-0.05388206048039246
14,6,0.25,0.7786889111803319,0.5197901491689749
14,6,0.0,0.773495385471029,1.039142720099262
14,7,1.0,0.7838868126720216,0.0
14,7,0.75,0.7961087491771046,-1.2221936505082964
14,7,0.5,0.782313260900108,0.15735517719136505
14,7,0.25,0.7347639074072668,4.912290526475482
14,7,0.0,0.7040071319750214,7.987968069700024
14,8,1.0,0.7838868126720216,0.0
14,8,0.75,0.7907647971754346,-0.6877984503412926
14,8,0.5,0.7885656813188646,-0.4678868646842971
14,8,0.25,0.7647162938881252,1.9170518783896418
14,8,0.0,0.7095751639060002,7.431164876602148
15,0,1.0,0.8884153858994354,0.0
15,0,0.75,0.8870782132977255,0.13371726017098462
15,0,0.5,0.8779232704482938,1.0492115451141593
15,0,0.25,0.8460694281307954,4.234595776863992
15,0,0.0,0.8107766917085839,7.763869419085145
15,1,1.0,0.8884153858994354,0.0
15,1,0.75,0.8775077936734565,1.0907592225978813
15,1,0.5,0.8531232398766335,3.529214602280184
15,1,0.25,0.8273153520206907,6.110003387874463
15,1,0.0,0.7916804535977291,9.673493230170626
15,2,1.0,0.8884153858994354,0.0
15,2,0.75,0.8722499128109742,1.6165473088461169
15,2,0.5,0.8462916382985604,4.212374760087501
15,2,0.25,0.8120124613648629,7.640292453457242
15,2,0.0,0.7749419169142047,11.34734689852307
15,3,1.0,0.8884153858994354,0.0
15,3,0.75,0.8711306465018593,1.728473939757602
15,3,0.5,0.8507520051243476,3.7663380775087796
15,3,0.25,0.8440024841751815,4.441290172425383
15,3,0.0,0.8282963163776474,6.011906952178792
15,4,1.0,0.8884153858994354,0.0
15,4,0.75,0.8916218281354431,-0.3206442236007745
15,4,0.5,0.8711722199073827,1.7243165992052667
15,4,0.25,0.8411729837135749,4.724240218586051
15,4,0.0,0.8434041584795978,4.501122741983754
15,5,1.0,0.8884153858994354,0.0
15,5,0.75,0.875657994985001,1.2757390914434397
15,5,0.5,0.8474217919132343,4.099359398620106
15,5,0.25,0.7699639242941114,11.845146160532394
15,5,0.0,0.6542305338672705,23.418485203216488
15,6,1.0,0.8884153858994354,0.0
15,6,0.75,0.8958216567970468,-0.7406270897611478
15,6,0.5,0.8883415605379703,0.007382536146505192
15,6,0.25,0.8625393437723898,2.587604212704553
15,6,0.0,0.8425128580680014,4.5902527831434
15,7,1.0,0.8884153858994354,0.0
15,7,0.75,0.8694477695077982,1.8967616391637132
15,7,0.5,0.8355018656775156,5.291352022191975
15,7,0.25,0.8244207271232726,6.399465877616272
15,7,0.0,0.7846901959834012,10.37251899160342
15,8,1.0,0.8884153858994354,0.0
15,8,0.75,0.8919169385461521,-0.3501552646716699
15,8,0.5,0.8726496494560724,1.5765736443362988
15,8,0.25,0.8628370968564975,2.5578289042937907
15,8,0.0,0.82748579590043,6.092958999900533
16,0,1.0,0.8052959882178604,0.0
16,0,0.75,0.810761342992843,-0.5465354774982556
16,0,0.5,0.8148385254284878,-0.9542537210627366
16,0,0.25,0.8071510627581393,-0.18550745402788893
16,0,0.0,0.758241206897587,4.705478132027341
16,1,1.0,0.8052959882178604,0.0
16,1,0.75,0.8047696631379487,0.052632507991168254
16,1,0.5,0.796205240677776,0.9090747540084432
16,1,0.25,0.7835620854043608,2.173390281349963
16,1,0.0,0.7714266160544336,3.386937216342678
16,2,1.0,0.8052959882178604,0.0
16,2,0.75,0.8103430799850839,-0.504709176722351
16,2,0.5,0.7869426901879762,1.8353298029884169
16,2,0.25,0.7669416537842793,3.835433443358116
16,2,0.0,0.731447830630205,7.384815758765539
16,3,1.0,0.8052959882178604,0.0
16,3,0.75,0.8102844315725309,-0.4988443354670524
16,3,0.5,0.8148225644561043,-0.9526576238243933
16,3,0.25,0.7693510408791272,3.5944947338733213
16,3,0.0,0.6657881673608277,13.950782085703272
16,4,1.0,0.8052959882178604,0.0
16,4,0.75,0.7942597916377385,1.1036196580121893
16,4,0.5,0.7684233512203177,3.687263699754273
16,4,0.25,0.7163521579989562,8.894383021890418
16,4,0.0,0.7018616755351291,10.343431268273129
16,5,1.0,0.8052959882178604,0.0
16,5,0.75,0.777623354571359,2.767263364650141
16,5,0.5,0.7038329704128967,10.146301780496369
16,5,0.25,0.628728085716854,17.65679025010064
16,5,0.0,0.574431880087179,23.086410813068138
16,6,1.0,0.8052959882178604,0.0
16,6,0.75,0.8075445565119536,-0.2248568294093145
16,6,0.5,0.8123664494694696,-0.707046125160915
16,6,0.25,0.8074731245777677,-0.2177136359907239
16,6,0.0,0.7972604215543766,0.8035566663483817
16,7,1.0,0.8052959882178604,0.0
16,7,0.75,0.8305981085568818,-2.530212033902135
16,7,0.5,0.8312214370162563,-2.5925448798395867
16,7,0.25,0.8091793301132493,-0.3883341895388859
16,7,0.0,0.7765678403212958,2.8728147896564638
16,8,1.0,0.8052959882178604,0.0
16,8,0.75,0.8118948457141124,-0.6598857496251997
16,8,0.5,0.7966038604608106,0.8692127757049861
16,8,0.25,0.7570344282788599,4.82615599390005
16,8,0.0,0.6915653061474837,11.373068207037672
17,0,1.0,0.7775911876717447,0.0
17,0,0.75,0.7760726186608966,0.15185690108481253
17,0,0.5,0.7672302452915638,1.0360942380180926
17,0,0.25,0.7227894843536685,5.480170331807621
17,0,0.0,0.6788250226921057,9.876616497963909
17,1,1.0,0.7775911876717447,0.0
17,1,0.75,0.763742705618129,1.3848482053615774
17,1,0.5,0.736480318942248,4.111086872949676
17,1,0.25,0.7204297295014065,5.716145817033825
17,1,0.0,0.679662351654458,9.792883601728676
17,2,1.0,0.7775911876717447,0.0
17,2,0.75,0.7708738787591277,0.6717308912617015
17,2,0.5,0.7734352965302815,0.4155891141463197
17,2,0.25,0.7805776438306136,-0.2986456158868833
17,2,0.0,0.7667117267292887,1.0879460942456065
17,3,1.0,0.7775911876717447,0.0
17,3,0.75,0.7732546420029608,0.4336545668783942
17,3,0.5,0.7704941984597546,0.709698921199009
17,3,0.25,0.768224861551304,0.9366326120440749
17,3,0.0,0.7552768298345935,2.231435783715119
17,4,1.0,0.7775911876717447,0.0
17,4,0.75,0.7768707662333096,0.07204214384350927
17,4,0.5,0.7772214412791081,0.036974639263664955
17,4,0.25,0.7751309091785297,0.24602784932150623
17,4,0.0,0.7451497639635959,3.244142370814884
17,5,1.0,0.7775911876717447,0.0
17,5,0.75,0.7758996173028843,0.16915703688604733
17,5,0.5,0.7582142608256172,1.9376926846127573
17,5,0.25,0.7202825337894346,5.73086538823101
17,5,0.0,0.6341568976203951,14.343429005134967
17,6,1.0,0.7775911876717447,0.0
17,6,0.75,0.7875612613164266,-0.9970073644681832
17,6,0.5,0.7956998041426497,-1.8108616470905003
17,6,0.25,0.7752386622306882,0.23525254410565744
17,6,0.0,0.725633141316228,5.195804635551671
17,7,1.0,0.7775911876717447,0.0
17,7,0.75,0.7833068339333619,-0.5715646261617136
17,7,0.5,0.7990212598646333,-2.1430072192888616
17,7,0.25,0.799985095245123,-2.2393907573378224
17,7,0.0,0.7671001613959517,1.0491026275793014
17,8,1.0,0.7775911876717447,0.0
17,8,0.75,0.7807345528238714,-0.31433651521266537
17,8,0.5,0.7755445149860035,0.20466726857412132
17,8,0.25,0.7271775421024206,5.041364556932415
17,8,0.0,0.6772062944572921,10.038489321445265
18,0,1.0,0.7193835733584147,0.0
18,0,0.75,0.7152910634928671,0.40925098655476555
18,0,0.5,0.6984065757270904,2.0976997631324323
18,0,0.25,0.6843840299974693,3.499954336094546
18,0,0.0,0.6643113078871593,5.507226547125543
18,1,1.0,0.7193835733584147,0.0
18,1,0.75,0.7119691967638182,0.7414376594596539
18,1,0.5,0.7052073146384314,1.4176258719983292
18,1,0.25,0.6973766444351508,2.2006928923263946
18,1,0.0,0.6894684622381718,2.991511112024292
18,2,1.0,0.7193835733584147,0.0
18,2,0.75,0.7405448845425646,-2.116131118414988
18,2,0.5,0.7241439020749365,-0.47603287165217667
18,2,0.25,0.6858201821548509,3.3563391203563886
18,2,0.0,0.6430319400020518,7.635163335636297
18,3,1.0,0.7193835733584147,0.0
18,3,0.75,0.7125265953375887,0.6856978020826077
18,3,0.5,0.6807773228402568,3.8606250518157914
18,3,0.25,0.6547136050414065,6.466996831700822
18,3,0.0,0.6347400701908898,8.464350316752489
18,4,1.0,0.7193835733584147,0.0
18,4,0.75,0.7282722650120457,-0.8888691653630931
18,4,0.5,0.7136804928502166,0.5703080508198122
18,4,0.25,0.6777562943814577,4.1627278976957065
18,4,0.0,0.5911382380497632,12.824533530865157
18,5,1.0,0.7193835733584147,0.0
18,5,0.75,0.6987922746978531,2.059129866056164
18,5,0.5,0.5992057371494147,12.017783620900001
18,5,0.25,0.582627698646366,13.675587471204874
18,5,0.0,0.546646905120662,17.27366682377527
18,6,1.0,0.7193835733584147,0.0
18,6,0.75,0.7454124040920717,-2.6028830733656916
18,6,0.5,0.7744872037426129,-5.510363038419818
18,6,0.25,0.7886396268043594,-6.925605344594466
18,6,0.0,0.7934662388366092,-7.4082665478194425
18,7,1.0,0.7193835733584147,0.0
18,7,0.75,0.6917450526263091,2.76385207321056
18,7,0.5,0.6626446369177565,5.673893644065819
18,7,0.25,0.6308952860259859,8.848828733242886
18,7,0.0,0.6093928781548451,10.999069520356963
18,8,1.0,0.7193835733584147,0.0
18,8,0.75,0.7219210824935195,-0.2537509135104754
18,8,0.5,0.7132838603871456,0.60997129712691
18,8,0.25,0.696508253653314,2.2875319705100705
18,8,0.0,0.6825471875599445,3.683638579847026
19,0,1.0,0.8109893538297508,0.0
19,0,0.75,0.7957384552391806,1.525089859057016
19,0,0.5,0.7729238435233627,3.806551030638805
19,0,0.25,0.7373088451854289,7.368050864432185
19,0,0.0,0.6764787682156486,13.451058561410223
19,1,1.0,0.8109893538297508,0.0
19,1,0.75,0.8044307000241996,0.6558653805551207
19,1,0.5,0.7905815421735554,2.040781165619543
19,1,0.25,0.7684028391223096,4.258651470744123
19,1,0.0,0.7387114613734094,7.227789245634142
19,2,1.0,0.8109893538297508,0.0
19,2,0.75,0.8003976239281994,1.0591729901551439
19,2,0.5,0.7825107114157585,2.847864241399234
19,2,0.25,0.7661315258481078,4.485782798164295
19,2,0.0,0.7401303835682622,7.085897026148857
19,3,1.0,0.8109893538297508,0.0
19,3,0.75,0.7750762489155671,3.5913104914183647
19,3,0.5,0.7263807787486815,8.460857508106933
19,3,0.25,0.6692607849250813,14.172856890466946
19,3,0.0,0.6232323580850797,18.775699574467108
19,4,1.0,0.8109893538297508,0.0
19,4,0.75,0.8176219223500042,-0.6632568520253401
19,4,0.5,0.7713287069261613,3.9660646903589503
19,4,0.25,0.7143532655824867,9.66360882472641
19,4,0.0,0.6641392580727219,14.685009575702889
19,5,1.0,0.8109893538297508,0.0
19,5,0.75,0.7954887067364311,1.5500647093319664
19,5,0.5,0.7240521483579935,8.693720547175731
19,5,0.25,0.6286350945471467,18.23542592826041
19,5,0.0,0.5710879263381452,23.990142749160558
19,6,1.0,0.8109893538297508,0.0
19,6,0.75,0.8123967119986228,-0.14073581688720527
19,6,0.5,0.8278455575836177,-1.6856203753866872
19,6,0.25,0.8331709579527259,-2.2181604122975096
19,6,0.0,0.8140199767846018,-0.30306229548510144
19,7,1.0,0.8109893538297508,0.0
19,7,0.75,0.7994620520680136,1.1527301761737219
19,7,0.5,0.7981804640753585,1.2808889754392316
19,7,0.25,0.7340099252979376,7.697942853181317
19,7,0.0,0.6471301872844197,16.385916654533105
19,8,1.0,0.8109893538297508,0.0
19,8,0.75,0.7949012861961662,1.6088067633584613
19,8,0.5,0.7865973528666805,2.439200096307026
19,8,0.25,0.7580661572416766,5.29231965880742
19,8,0.0,0.7082718795683375,10.271747426141332
20,0,1.0,0.7693476470704632,0.0
20,0,0.75,0.762083703175041,0.7263943895422176
20,0,0.5,0.7688226992790093,0.052494779145395576
20,0,0.25,0.711469698402026,5.78779486684372
20,0,0.0,0.6851599679618906,8.41876791085726
20,1,1.0,0.7693476470704632,0.0
20,1,0.75,0.7589796964482655,1.0367950622197752
20,1,0.5,0.7397230390892362,2.9624607981227014
20,1,0.25,0.6825284637547305,8.681918331573268
20,1,0.0,0.6649809172777592,10.436672979270401
20,2,1.0,0.7693476470704632,0.0
20,2,0.75,0.7558899076092523,1.3457739461210871
20,2,0.5,0.737115666250481,3.223198081998224
20,2,0.25,0.728626892980109,4.072075409035425
20,2,0.0,0.6723072399434691,9.704040712699413
20,3,1.0,0.7693476470704632,0.0
20,3,0.75,0.7736124665315417,-0.4264819461078484
20,3,0.5,0.7786903702911007,-0.934272322063745
20,3,0.25,0.7581214570166258,1.1226190053837404
20,3,0.0,0.7629528378518379,0.6394809218625341
20,4,1.0,0.7693476470704632,0.0
20,4,0.75,0.7661436570347694,0.32039900356938267
20,4,0.5,0.7574827705681677,1.1864876502295507
20,4,0.25,0.7227964985449827,4.6551148525480475
20,4,0.0,0.6833652931651648,8.59823539052984
20,5,1.0,0.7693476470704632,0.0
20,5,0.75,0.7896406292010506,-2.029298213058739
20,5,0.5,0.7812735596722297,-1.1925912601766453
20,5,0.25,0.7866518514126176,-1.7304204342154406
20,5,0.0,0.7263565082328881,4.29911388375751
20,6,1.0,0.7693476470704632,0.0
20,6,0.75,0.7695756960556241,-0.022804898516093353
20,6,0.5,0.7643933560095622,0.49542910609010615
20,6,0.25,0.7569115503539883,1.2436096716474943
20,6,0.0,0.7410902038641289,2.8257443206334276
20,7,1.0,0.7693476470704632,0.0
20,7,0.75,0.7713551103347455,-0.20074632642822499
20,7,0.5,0.7553599995512627,1.3987647519200563
20,7,0.25,0.7014650416073749,6.788260546308833
20,7,0.0,0.6490192766295707,12.03283704408925
20,8,1.0,0.7693476470704632,0.0
20,8,0.75,0.7809481129327855,-1.160046586232233
20,8,0.5,0.7722371054714009,-0.28894584009376834
20,8,0.25,0.7645892246735714,0.4758422396891837
20,8,0.0,0.7182678229704136,5.107982410004963
21,0,1.0,0.7350791468824521,0.0
21,0,0.75,0.7145488420459933,2.053030483645879
21,0,0.5,0.7027657871414213,3.231335974103078
21,0,0.25,0.6966169363706775,3.8462210511774675
21,0,0.0,0.6604480647472002,7.463108213525194
21,1,1.0,0.7350791468824521,0.0
21,1,0.75,0.7353426600553796,-0.026351317292749865
21,1,0.5,0.7270011556856536,0.8077991196798529
21,1,0.25,0.7187844989934412,1.6294647889010916
21,1,0.0,0.6781467255932268,5.693242128922538
21,2,1.0,0.7350791468824521,0.0
21,2,0.75,0.7590977493225058,-2.4018602440053716
21,2,0.5,0.7750100876686238,-3.9930940786171654
21,2,0.25,0.7647805071161308,-2.970136023367864
21,2,0.0,0.7520394504829423,-1.6960303600490167
21,3,1.0,0.7350791468824521,0.0
21,3,0.75,0.738270371161746,-0.31912242792938583
21,3,0.5,0.7337588725147058,0.1320274367746288
21,3,0.25,0.7427147181273286,-0.763557124487646
21,3,0.0,0.7010784515692153,3.4000695313236795
21,4,1.0,0.7350791468824521,0.0
21,4,0.75,0.7431521212087434,-0.8072974326291282
21,4,0.5,0.7370780740447288,-0.19989271622766758
21,4,0.25,0.7465439612423068,-1.1464814359854691
21,4,0.0,0.7288291080394224,0.625003884302977
21,5,1.0,0.7350791468824521,0.0
21,5,0.75,0.7480234511395236,-1.2944304257071493
21,5,0.5,0.7360750857634026,-0.09959388809505088
21,5,0.25,0.6525883727174037,8.249077416504846
21,5,0.0,0.5093464405126646,22.573270636978748
21,6,1.0,0.7350791468824521,0.0
21,6,0.75,0.7541009069420533,-1.9021760059601212
21,6,0.5,0.7477367833728553,-1.265763649040319
21,6,0.25,0.7398442784037844,-0.47651315213322887
21,6,0.0,0.7334144046797687,0.16647422026834224
21,7,1.0,0.7350791468824521,0.0
21,7,0.75,0.7276521121975666,0.7427034684885481
21,7,0.5,0.7053234783649529,2.9755668517499223
21,7,0.25,0.6929496655898864,4.212948129256578
21,7,0.0,0.6934069440926425,4.167220278980965
21,8,1.0,0.7350791468824521,0.0
21,8,0.75,0.7321463940648724,0.29327528175797646
21,8,0.5,0.7116781925430905,2.3400954339361624
21,8,0.25,0.7081922186609687,2.688692822148342
21,8,0.0,0.6924411907865293,4.263795609592281
22,0,1.0,0.7392600254174222,0.0
22,0,0.75,0.7287235844331825,1.053644098423967
22,0,0.5,0.7041021693423329,3.5157856075089255
22,0,0.25,0.6967875280798369,4.2472497337585295
22,0,0.0,0.6829354209312536,5.632460448616861
22,1,1.0,0.7392600254174222,0.0
22,1,0.75,0.7513659140462616,-1.2105888628839434
22,1,0.5,0.7404711267600025,-0.12111013425802897
22,1,0.25,0.7148110478408176,2.444897757660458
22,1,0.0,0.6614287329800389,7.78312924373833
22,2,1.0,0.7392600254174222,0.0
22,2,0.75,0.74239165356938,-0.3131628151957777
22,2,0.5,0.7304764879462355,0.8783537471186653
22,2,0.25,0.68143979072024,5.782023469718222
22,2,0.0,0.6046784445564171,13.458158086100514
22,3,1.0,0.7392600254174222,0.0
22,3,0.75,0.728051693135492,1.120833228193019
22,3,0.5,0.7032036775832475,3.6056347834174662
22,3,0.25,0.6521306964294307,8.712932898799153
22,3,0.0,0.6101799253768353,12.90801000405869
22,4,1.0,0.7392600254174222,0.0
22,4,0.75,0.7584456826619479,-1.91856572445257
22,4,0.5,0.7623992414858549,-2.313921606843272
22,4,0.25,0.7247310620756241,1.4528963341798096
22,4,0.0,0.6586659016586153,8.059412375880692
22,5,1.0,0.7392600254174222,0.0
22,5,0.75,0.7479323846294037,-0.8672359211981506
22,5,0.5,0.7313428715287197,0.7917153888702511
22,5,0.25,0.6674565178848374,7.18035075325848
22,5,0.0,0.5493197404541859,18.994028496323633
22,6,1.0,0.7392600254174222,0.0
22,6,0.75,0.7410591065631535,-0.17990811457313516
22,6,0.5,0.7483394615560663,-0.9079436138644148
22,6,0.25,0.748190009778267,-0.89299843608448
22,6,0.0,0.7396584653684847,-0.03984399510624792
22,7,1.0,0.7392600254174222,0.0
22,7,0.75,0.7078967563975864,3.136326901983577
22,7,0.5,0.6708507122322521,6.840931318517008
22,7,0.25,0.623965810628435,11.529421478898715
22,7,0.0,0.5684423251249047,17.081770029251754
22,8,1.0,0.7392600254174222,0.0
22,8,0.75,0.7216430748449839,1.7616950572438284
22,8,0.5,0.699004775365112,4.025525005231023
22,8,0.25,0.6692910574917563,6.996896792566587
22,8,0.0,0.6200315353608573,11.922849005656488
23,0,1.0,0.7531976163932685,0.0
23,0,0.75,0.7495971276525645,0.36004887407040664
23,0,0.5,0.678381980338502,7.481563605476649
23,0,0.25,0.6163659309015768,13.683168549169178
23,0,0.0,0.5824083253295377,17.078929106373085
23,1,1.0,0.7531976163932685,0.0
23,1,0.75,0.751834269674508,0.1363346718760594
23,1,0.5,0.7166162639086092,3.6581352484659324
23,1,0.25,0.6992806552857145,5.391696110755406
23,1,0.0,0.6727425863335115,8.045503005975707
23,2,1.0,0.7531976163932685,0.0
23,2,0.75,0.7655466268313803,-1.2349010438111763
23,2,0.5,0.8004617641585277,-4.726414776525911
23,2,0.25,0.791650737552335,-3.8453121159066406
23,2,0.0,0.7496673036522971,0.35303127409714863
23,3,1.0,0.7531976163932685,0.0
23,3,0.75,0.7150055275295568,3.8192088863711726
23,3,0.5,0.6747507612708312,7.844685512243732
23,3,0.25,0.6552491511793237,9.794846521394485
23,3,0.0,0.6405670938502166,11.263052254305194
23,4,1.0,0.7531976163932685,0.0
23,4,0.75,0.7559619328817311,-0.2764316488462537
23,4,0.5,0.7595324113716427,-0.6334794978374192
23,4,0.25,0.7188579109946645,3.4339705398604092
23,4,0.0,0.6831330751570139,7.006454123625461
23,5,1.0,0.7531976163932685,0.0
23,5,0.75,0.744759122851579,0.8438493541689573
23,5,0.5,0.6864518689861836,6.674574740708494
23,5,0.25,0.6327196161936527,12.047800019961585
23,5,0.0,0.5826659184337838,17.053169795948474
23,6,1.0,0.7531976163932685,0.0
23,6,0.75,0.7368733100107631,1.6324306382505482
23,6,0.5,0.7188000201758706,3.4397596217397908
23,6,0.25,0.7105397351493706,4.2657881243897915
23,6,0.0,0.7020707979977658,5.1126818395502704
23,7,1.0,0.7531976163932685,0.0
23,7,0.75,0.7486820559656726,0.45155604275959327
23,7,0.5,0.6878859512608015,6.5311665132467
23,7,0.25,0.615835224273134,13.736239212013457
23,7,0.0,0.5726035367713294,18.05940796219392
23,8,1.0,0.7531976163932685,0.0
23,8,0.75,0.7257003371159294,2.7497279277339137
23,8,0.5,0.6911712121022084,6.20264042910601
23,8,0.25,0.658106143754012,9.509147263925655
23,8,0.0,0.6465217027504693,10.667591364279927
24,0,1.0,0.6779985322098804,0.0
24,0,0.75,0.6662403181756472,1.175821403423316
24,0,0.5,0.6095906294324006,6.840790277747977
24,0,0.25,0.5633142082590612,11.468432395081917
24,0,0.0,0.5335602457958584,14.4438286414022
24,1,1.0,0.6779985322098804,0.0
24,1,0.75,0.678683843277551,-0.06853110676706686
24,1,0.5,0.6519936048331257,2.600492737675464
24,1,0.25,0.6271777522502571,5.082077995962331
24,1,0.0,0.6222475567617267,5.575097544815366
24,2,1.0,0.6779985322098804,0.0
24,2,0.75,0.6841400245706704,-0.614149236078998
24,2,0.5,0.6723705267547632,0.5628005455117213
24,2,0.25,0.6348266629824466,4.317186922743376
24,2,0.0,0.6046634227902047,7.333510941967569
24,3,1.0,0.6779985322098804,0.0
24,3,0.75,0.710203100638936,-3.2204568429055613
24,3,0.5,0.7349028602266594,-5.690432801677902
24,3,0.25,0.7302746747692006,-5.227614255932023
24,3,0.0,0.7126577582147783,-3.4659226004897903
24,4,1.0,0.6779985322098804,0.0
24,4,0.75,0.6753820712687852,0.26164609410951334
24,4,0.5,0.641432219920557,3.656631228932339
24,4,0.25,0.5717672483048941,10.623128390498627
24,4,0.0,0.5213745784443624,15.662395376551796
24,5,1.0,0.6779985322098804,0.0
24,5,0.75,0.6065409943549235,7.14575378549569
24,5,0.5,0.5200681790843938,15.793035312548653
24,5,0.25,0.4215954351009421,25.640309710893828
24,5,0.0,0.36473531950544336,31.326321270443703
24,6,1.0,0.6779985322098804,0.0
24,6,0.75,0.6700090063356188,0.7989525874261605
24,6,0.5,0.6484796092332666,2.9518922976613737
24,6,0.25,0.6214497912400886,5.654874096979179
24,6,0.0,0.5837705079722975,9.422802423758291
24,7,1.0,0.6779985322098804,0.0
24,7,0.75,0.653628223304546,2.4370308905334426
24,7,0.5,0.6082295340961414,6.976899811373894
24,7,0.25,0.552193063291012,12.580546891886835
24,7,0.0,0.5105869928983137,16.74115393115667
24,8,1.0,0.6779985322098804,0.0
24,8,0.75,0.6816398645820583,-0.3641332372177897
24,8,0.5,0.6751322662844401,0.2866265925440259
24,8,0.25,0.6562825506078839,2.1715981601996504
24,8,0.0,0.6407807277345622,3.7217804475318195
25,0,1.0,0.7958469986086265,0.0
25,0,0.75,0.7892453847142695,0.6601613894356984
25,0,0.5,0.7677292852677295,2.8117713340896966
25,0,0.25,0.7426188733349801,5.32281252736464
25,0,0.0,0.7254610753104506,7.038592329817595
25,1,1.0,0.7958469986086265,0.0
25,1,0.75,0.8074590816431323,-1.1612083034505782
25,1,0.5,0.7874643616156456,0.8382636992980919
25,1,0.25,0.7569518378135874,3.8895160795039074
25,1,0.0,0.7262275324476282,6.9619466160998345
25,2,1.0,0.7958469986086265,0.0
25,2,0.75,0.7945462560998852,0.13007425087413482
25,2,0.5,0.7813439482223956,1.4503050386230898
25,2,0.25,0.7620951763672288,3.375182224139772
25,2,0.0,0.6927310508908346,10.311594771779188
25,3,1.0,0.7958469986086265,0.0
25,3,0.75,0.8185605864302193,-2.271358782159283
25,3,0.5,0.7907582047274696,0.5088793881156906
25,3,0.25,0.73488692907053,6.096006953809652
25,3,0.0,0.6849938533976007,11.085314521102585
25,4,1.0,0.7958469986086265,0.0
25,4,0.75,0.791249361530024,0.4597637078602501
25,4,0.5,0.7742627362483147,2.1584262360311857
25,4,0.25,0.6751543026289202,12.069269597970633
25,4,0.0,0.6052053112490122,19.064168735961427
25,5,1.0,0.7958469986086265,0.0
25,5,0.75,0.7772613539582739,1.8585644650352617
25,5,0.5,0.6802097076917221,11.563729091690444
25,5,0.25,0.6228602815492691,17.298671705935742
25,5,0.0,0.5485829700579195,24.726402855070706
25,6,1.0,0.7958469986086265,0.0
25,6,0.75,0.8048243383860418,-0.8977339777415327
25,6,0.5,0.7954493762711646,0.039762233746187814
25,6,0.25,0.7927474978064748,0.3099500802151711
25,6,0.0,0.7874249157446775,0.8422082863948965
25,7,1.0,0.7958469986086265,0.0
25,7,0.75,0.7996236730495658,-0.37766744409393205
25,7,0.5,0.8058870000034574,-1.0040001394830855
25,7,0.25,0.7786762595189216,1.71707390897049
25,7,0.0,0.7117490749056734,8.40979237029531
25,8,1.0,0.7958469986086265,0.0
25,8,0.75,0.8070169413919414,-1.1169942783314846
25,8,0.5,0.8221417450387176,-2.629474643009111
25,8,0.25,0.8309797439708916,-3.513274536226507
25,8,0.0,0.7882281382691414,0.7618860339485112
26,0,1.0,0.7232895570738469,0.0
26,0,0.75,0.7196563351863985,0.36332218874484123
26,0,0.5,0.7094767401969193,1.3812816876927592
26,0,0.25,0.693974424727526,2.9315132346320882
26,0,0.0,0.6537709832709457,6.951857380290116
26,1,1.0,0.7232895570738469,0.0
26,1,0.75,0.7316383296024827,-0.8348772528635751
26,1,0.5,0.7219319398588822,0.13576172149647459
26,1,0.25,0.6929028525308406,3.0386704543006293
26,1,0.0,0.6579953850184099,6.529417205543697
26,2,1.0,0.7232895570738469,0.0
26,2,0.75,0.717588645910551,0.5700911163295852
26,2,0.5,0.701419443726508,2.1870113347338904
26,2,0.25,0.6779906169849463,4.529894008890056
26,2,0.0,0.652987314023292,7.030224305055488
26,3,1.0,0.7232895570738469,0.0
26,3,0.75,0.7177369992091811,0.5552557864665797
26,3,0.5,0.7228442024236132,0.04453546502336536
26,3,0.25,0.7170531175275701,0.623643954627684
26,3,0.0,0.6946428881464324,2.864666892741452
26,4,1.0,0.7232895570738469,0.0
26,4,0.75,0.7089223148558332,1.4367242218013665
26,4,0.5,0.6942505293954568,2.903902767839006
26,4,0.25,0.6555570654743161,6.773249159953076
26,4,0.0,0.6052929999074689,11.799655716637803
26,5,1.0,0.7232895570738469,0.0
26,5,0.75,0.6985662888463753,2.4723268227471618
26,5,0.5,0.6809791178695195,4.231043920432742
26,5,0.25,0.6240613708589091,9.922818621493779
26,5,0.0,0.5533175934486857,16.99719636251612
26,6,1.0,0.7232895570738469,0.0
26,6,0.75,0.730378091140967,-0.7088534067120067
26,6,0.5,0.7200320538223479,0.3257503251498983
26,6,0.25,0.7102911292762457,1.2998427797601186
26,6,0.0,0.7022820864760437,2.100747059780317
26,7,1.0,0.7232895570738469,0.0
26,7,0.75,0.7200330076236627,0.3256549450184165
26,7,0.5,0.7236459525289463,-0.035639545509935644
26,7,0.25,0.695372341683817,2.7917215390029892
26,7,0.0,0.6624256796204847,6.08638774533622
26,8,1.0,0.7232895570738469,0.0
26,8,0.75,0.7073934742370943,1.589608283675259
26,8,0.5,0.6929236521841894,3.0365904889657513
26,8,0.25,0.6683053866170977,5.49841704567492
26,8,0.0,0.624301018927807,9.898853814603992
27,0,1.0,0.8527019168462037,0.0
27,0,0.75,0.8622871777843185,-0.9585260938114848
27,0,0.5,0.8567417675214799,-0.40398506752762353
27,0,0.25,0.8363497362294391,1.6352180616764578
27,0,0.0,0.7941520873673646,5.854982947883903
27,1,1.0,0.8527019168462037,0.0
27,1,0.75,0.8565921347838753,-0.3890217937671636
27,1,0.5,0.8324588617036441,2.024305514255953
27,1,0.25,0.8504346127333555,0.22673041128481453
27,1,0.0,0.8458051513493348,0.6896765496868906
27,2,1.0,0.8527019168462037,0.0
27,2,0.75,0.8422020292183975,1.0499887627806181
27,2,0.5,0.8380423029426824,1.4659613903521218
27,2,0.25,0.8331238492733947,1.9578067572809
27,2,0.0,0.7996538383707636,5.3048078475440015
27,3,1.0,0.8527019168462037,0.0
27,3,0.75,0.8644961293400816,-1.179421249387791
27,3,0.5,0.8605164943218041,-0.7814577475600437
27,3,0.25,0.8556600672027486,-0.29581503565448974
27,3,0.0,0.83748529122733,1.5216625618873714
27,4,1.0,0.8527019168462037,0.0
27,4,0.75,0.8559160294833583,-0.32141126371546536
27,4,0.5,0.8453383738614081,0.7363542984795579
27,4,0.25,0.817326033246722,3.537588359948163
27,4,0.0,0.8095674246849173,4.31344921612864
27,5,1.0,0.8527019168462037,0.0
27,5,0.75,0.839533132373399,1.3168784472804673
27,5,0.5,0.8027602674725044,4.994164937369927
27,5,0.25,0.7191340071492327,13.356790969697096
27,5,0.0,0.6200319211531915,23.266999569301216
27,6,1.0,0.8527019168462037,0.0
27,6,0.75,0.8512935523331792,0.1408364513024507
27,6,0.5,0.8403314678458034,1.2370449000400296
27,6,0.25,0.8482439408089565,0.445797603724718
27,6,0.0,0.8298313548423297,2.287056200387394
27,7,1.0,0.8527019168462037,0.0
27,7,0.75,0.8548169265551068,-0.2115009708903104
27,7,0.5,0.8478788159002296,0.4823100945974046
27,7,0.25,0.8302960827443036,2.2405834101900113
27,7,0.0,0.8159782742077566,3.6723642638447074
27,8,1.0,0.8527019168462037,0.0
27,8,0.75,0.8658831164127774,-1.318119956657371
27,8,0.5,0.8749385757932251,-2.2236658947021426
27,8,0.25,0.8859989547262455,-3.329703788004179
27,8,0.0,0.8098954129976028,4.280650384860085
28,0,1.0,0.8046308077223652,0.0
28,0,0.75,0.8068950581953543,-0.2264250472989171
28,0,0.5,0.8167979646718817,-1.2167156949516533
28,0,0.25,0.7893578350822207,1.5272972640144489
28,0,0.0,0.758571316960955,4.605949076141014
28,1,1.0,0.8046308077223652,0.0
28,1,0.75,0.814706430661473,-1.0075622939107798
28,1,0.5,0.8204423781346859,-1.581157041232073
28,1,0.25,0.829986197751506,-2.535539002914078
28,1,0.0,0.8142756909299843,-0.9644883207619137
28,2,1.0,0.8046308077223652,0.0
28,2,0.75,0.8222645481682632,-1.763374044589805
28,2,0.5,0.8146417594080155,-1.001095168565036
28,2,0.25,0.8251121372912815,-2.048132956891635
28,2,0.0,0.7921471750755638,1.2483632646801412
28,3,1.0,0.8046308077223652,0.0
28,3,0.75,0.8219174361504353,-1.728662842807016
28,3,0.5,0.8169632044796522,-1.2332396757287034
28,3,0.25,0.795364593152706,0.9266214569659148
28,3,0.0,0.7625393851156774,4.2091422606687745
28,4,1.0,0.8046308077223652,0.0
28,4,0.75,0.782025973071973,2.2604834650392203
28,4,0.5,0.7641099441175128,4.052086360485241
28,4,0.25,0.733809556025156,7.082125169720921
28,4,0.0,0.7038025890379098,10.082821868445535
28,5,1.0,0.8046308077223652,0.0
28,5,0.75,0.778006360417283,2.6624447305082177
28,5,0.5,0.7451731310818888,5.945767664047641
28,5,0.25,0.6690894403005112,13.554136742185396
28,5,0.0,0.6329142628837607,17.171654483860443
28,6,1.0,0.8046308077223652,0.0
28,6,0.75,0.8074002512992695,-0.276944357690434
28,6,0.5,0.8052867974690775,-0.06559897467123266
28,6,0.25,0.7855455021885128,1.9085305533852348
28,6,0.0,0.7763251611935823,2.830564652878287
28,7,1.0,0.8046308077223652,0.0
28,7,0.75,0.803549146310613,0.10816614117521439
28,7,0.5,0.7842239888315787,2.040681889078644
28,7,0.25,0.7246086873301406,8.002212039222456
28,7,0.0,0.665672645904204,13.895816181816112
28,8,1.0,0.8046308077223652,0.0
28,8,0.75,0.7997601478238014,0.4870659898563723
28,8,0.5,0.7952735041565228,0.9357303565842412
28,8,0.25,0.7858084564291828,1.8822351293182327
28,8,0.0,0.7390883343270565,6.554247339530872
29,0,1.0,0.8229486751929451,0.0
29,0,0.75,0.8031899498653675,1.9758725327577609
29,0,0.5,0.7596762537318962,6.327242146104894
29,0,0.25,0.5762957788505159,24.665289634242924
29,0,0.0,0.5268707187987631,29.6077956394182
29,1,1.0,0.8229486751929451,0.0
29,1,0.75,0.8213623819684297,0.15862932245154227
29,1,0.5,0.8089476029940005,1.4001072198944642
29,1,0.25,0.7747158026130552,4.823287257988995
29,1,0.0,0.7551915717821699,6.775710341077524
29,2,1.0,0.8229486751929451,0.0
29,2,0.75,0.8131854160913956,0.9763259101549515
29,2,0.5,0.7914421869377055,3.1506488255239606
29,2,0.25,0.757952530819888,6.499614437305712
29,2,0.0,0.6913611406978375,13.158753449510762
29,3,1.0,0.8229486751929451,0.0
29,3,0.75,0.8003780610655923,2.257061412735284
29,3,0.5,0.7832549894251148,3.969368576783028
29,3,0.25,0.767397921614496,5.555075357844908
29,3,0.0,0.7591551975706738,6.379347762227128
29,4,1.0,0.8229486751929451,0.0
29,4,0.75,0.8130327292575417,0.9915945935403458
29,4,0.5,0.7911827997912904,3.1765875401654764
29,4,0.25,0.737921392204056,8.502728298888918
29,4,0.0,0.7009029963606072,12.204567883233796
29,5,1.0,0.8229486751929451,0.0
29,5,0.75,0.793435547554134,2.9513127638811087
29,5,0.5,0.7732173296050919,4.973134558785319
29,5,0.25,0.7256544564720371,9.729421872090803
29,5,0.0,0.6989592590997291,12.3989416093216
29,6,1.0,0.8229486751929451,0.0
29,6,0.75,0.7993130762821122,2.363559891083289
29,6,0.5,0.7805379734309057,4.241070176203943
29,6,0.25,0.7640283201158269,5.892035507711824
29,6,0.0,0.7460169187339133,7.6931756459031835
29,7,1.0,0.8229486751929451,0.0
29,7,0.75,0.8271260722026637,-0.4177397009718531
29,7,0.5,0.8231679385672792,-0.021926337433408882
29,7,0.25,0.7852918993565801,3.7656775836365064
29,7,0.0,0.7190924306230223,10.385624456992282
29,8,1.0,0.8229486751929451,0.0
29,8,0.75,0.8264686283763648,-0.35199531834196884
29,8,0.5,0.8023800843508521,2.056859084209306
29,8,0.25,0.7484048098143328,7.454386537861235
29,8,0.0,0.6675619934012375,15.538668179170767
30,0,1.0,0.7749130119492185,0.0
30,0,0.75,0.8000073413432444,-2.5094329394025894
30,0,0.5,0.8069607362765163,-3.2047724327297855
30,0,0.25,0.7990892546959065,-2.417624274668806
30,0,0.0,0.7953933345118418,-2.048032256262333
30,1,1.0,0.7749130119492185,0.0
30,1,0.75,0.7604671037845344,1.4445908164684051
30,1,0.5,0.7304902580316033,4.442275391761519
30,1,0.25,0.7001516904216765,7.4761321527542
30,1,0.0,0.7033092756493602,7.160373629985828
30,2,1.0,0.7749130119492185,0.0
30,2,0.75,0.7718643144615536,0.30486974876648976
30,2,0.5,0.7616051580627881,1.330785388643041
30,2,0.25,0.7648223437509513,1.0090668198267205
30,2,0.0,0.744710913210212,3.0202098739006478
30,3,1.0,0.7749130119492185,0.0
30,3,0.75,0.7434921654454795,3.1420846503738997
30,3,0.5,0.7474836223503393,2.7429389598879195
30,3,0.25,0.7408331931210371,3.407981882818134
30,3,0.0,0.7116390782203165,6.327393372890199
30,4,1.0,0.7749130119492185,0.0
30,4,0.75,0.7646560198631565,1.0256992086062011
30,4,0.5,0.758820447386833,1.6092564562385503
30,4,0.25,0.7137357307043994,6.117728124481903
30,4,0.0,0.6641723913080607,11.074062064115775
30,5,1.0,0.7749130119492185,0.0
30,5,0.75,0.7772800577527428,-0.23670458035243147
30,5,0.5,0.771654080719754,0.32589312294644124
30,5,0.25,0.7599726174284224,1.4940394520796096
30,5,0.0,0.6855973096702375,8.9315702278981
30,6,1.0,0.7749130119492185,0.0
30,6,0.75,0.7804454625488795,-0.553245059966101
30,6,0.5,0.7817071465803472,-0.6794134631128768
30,6,0.25,0.7817071465803472,-0.6794134631128768
30,6,0.0,0.7788848742296999,-0.39718622804814085
30,7,1.0,0.7749130119492185,0.0
30,7,0.75,0.7743825971389842,0.053041481023430315
30,7,0.5,0.7662473941877612,0.8665617761457245
30,7,0.25,0.7524172984998172,2.2495713449401267
30,7,0.0,0.7179465592134491,5.696645273576939
30,8,1.0,0.7749130119492185,0.0
30,8,0.75,0.7854531189229418,-1.0540106973723318
30,8,0.5,0.8101943867512331,-3.5281374802014653
30,8,0.25,0.8071052370878211,-3.219222513860265
30,8,0.0,0.8052891714336554,-3.037615948443695
31,0,1.0,0.7201078930281332,0.0
31,0,0.75,0.7160794861517192,0.4028406876413926
31,0,0.5,0.6966285671417787,2.3479325886354485
31,0,0.25,0.6633045287678285,5.680336426030463
31,0,0.0,0.6561349193044895,6.397297372364363
31,1,1.0,0.7201078930281332,0.0
31,1,0.75,0.7088641328408978,1.1243760187235385
31,1,0.5,0.6967117208680484,2.3396172160084716
31,1,0.25,0.6893001695483124,3.0807723479820748
31,1,0.0,0.6517915673835335,6.831632564459966
31,2,1.0,0.7201078930281332,0.0
31,2,0.75,0.7279924879035861,-0.7884594875452899
31,2,0.5,0.7317108801425809,-1.1602987114447738
31,2,0.25,0.7180189617030461,0.2088931325087029
31,2,0.0,0.6799303459020938,4.017754712603939
31,3,1.0,0.7201078930281332,0.0
31,3,0.75,0.7385245298801649,-1.8416636852031765
31,3,0.5,0.7493160657192801,-2.920817269114695
31,3,0.25,0.7253653094304615,-0.5257416402328352
31,3,0.0,0.7014476059287669,1.866028709936629
31,4,1.0,0.7201078930281332,0.0
31,4,0.75,0.7370543636060679,-1.6946470577934747
31,4,0.5,0.7247651081494931,-0.465721512135997
31,4,0.25,0.704336583302086,1.5771309726047122
31,4,0.0,0.6487837330327829,7.1324159995350245
31,5,1.0,0.7201078930281332,0.0
31,5,0.75,0.7227760318370365,-0.26681388089033753
31,5,0.5,0.7219814657583767,-0.18735727302435778
31,5,0.25,0.6391076699813651,8.100022304676802
31,5,0.0,0.5798129740729779,14.029491895515523
31,6,1.0,0.7201078930281332,0.0
31,6,0.75,0.7203482770732355,-0.024038404510229316
31,6,0.5,0.7289904049800837,-0.8882511951950556
31,6,0.25,0.7212218220948498,-0.11139290667165902
31,6,0.0,0.6982019163631036,2.190597666502958
31,7,1.0,0.7201078930281332,0.0
31,7,0.75,0.7240751404277476,-0.3967247399614404
31,7,0.5,0.6980910592921696,2.2016833735963526
31,7,0.25,0.6040399534606735,11.606793956745964
31,7,0.0,0.5370587046339215,18.30491883942117
31,8,1.0,0.7201078930281332,0.0
31,8,0.75,0.7164121179250497,0.36957751030834984
31,8,0.5,0.6835534107485881,3.6554482279545053
31,8,0.25,0.6423324549599827,7.777543806815046
31,8,0.0,0.6140879365464318,10.601995648170137
32,0,1.0,0.815994296816879,0.0
32,0,0.75,0.8144737842960215,0.15205125208574977
32,0,0.5,0.7773336216428982,3.866067517398075
32,0,0.25,0.7130794390808115,10.291485773606745
32,0,0.0,0.5920590453082551,22.39352515086238
32,1,1.0,0.815994296816879,0.0
32,1,0.75,0.8022611540387213,1.3733142778157625
32,1,0.5,0.7908350906817361,2.5159206135142886
32,1,0.25,0.7589593790275453,5.703491778933367
32,1,0.0,0.7335208768016883,8.247342001519065
32,2,1.0,0.815994296816879,0.0
32,2,0.75,0.80576583828481,1.0228458532068996
32,2,0.5,0.7749239854522834,4.10703113645956
32,2,0.25,0.73914935080343,7.684494601344893
32,2,0.0,0.6381836530928732,17.78106437240058
32,3,1.0,0.815994296816879,0.0
32,3,0.75,0.8123317943242675,0.36625024926114635
32,3,0.5,0.7877152479214713,2.8279048895407666
32,3,0.25,0.7543853165804385,6.160898023644046
32,3,0.0,0.7660615148614939,4.993278195538508
32,4,1.0,0.815994296816879,0.0
32,4,0.75,0.8089709151893898,0.7023381627489167
32,4,0.5,0.7795796370758632,3.6414659741015765
32,4,0.25,0.7526874245379719,6.330687227890708
32,4,0.0,0.6932664491785093,12.272784763836963
32,5,1.0,0.815994296816879,0.0
32,5,0.75,0.7996814027200558,1.6312894096823127
32,5,0.5,0.7437513429691749,7.224295384770407
32,5,0.25,0.6830117229531247,13.298257386375422
32,5,0.0,0.6111675678515133,20.48267289653657
32,6,1.0,0.815994296816879,0.0
32,6,0.75,0.8136675008968596,0.23267959200193866
32,6,0.5,0.7928902966653342,2.310400015154479
32,6,0.25,0.7758967446142943,4.009755220258471
32,6,0.0,0.7588895351823352,5.710476163454381
32,7,1.0,0.815994296816879,0.0
32,7,0.75,0.8081807682567851,0.7813528560093874
32,7,0.5,0.7705527045821763,4.544159223470268
32,7,0.25,0.7191732783156763,9.682101850120262
32,7,0.0,0.6067658771661044,20.922841965077453
32,8,1.0,0.815994296816879,0.0
32,8,0.75,0.8077639838285569,0.8230312988322108
32,8,0.5,0.8083385311040052,0.7655765712873741
32,8,0.25,0.78447350749088,3.1520789325999
32,8,0.0,0.7115996989941926,10.439459782268635
33,0,1.0,0.8977730368293101,0.0
33,0,0.75,0.8982073633654776,-0.04343265361674842
33,0,0.5,0.8917977291250949,0.5975307704215171
33,0,0.25,0.8489395676299107,4.883346919939935
33,0,0.0,0.7705393197624472,12.723371706686294
33,1,1.0,0.8977730368293101,0.0
33,1,0.75,0.9010960502062815,-0.33230133769713843
33,1,0.5,0.8888945563423402,0.8878480486969931
33,1,0.25,0.8360299870841492,6.174304974516087
33,1,0.0,0.7700143132436017,12.775872358570838
33,2,1.0,0.8977730368293101,0.0
33,2,0.75,0.8948978999246229,0.28751369046872144
33,2,0.5,0.8905709562634427,0.7202080565867353
33,2,0.25,0.8554431559494773,4.23298808798328
33,2,0.0,0.8306166818422674,6.715635498704264
33,3,1.0,0.8977730368293101,0.0
33,3,0.75,0.9033453714714121,-0.557233464210205
33,3,0.5,0.9040209105743338,-0.6247873745023669
33,3,0.25,0.8915445095802157,0.6228527249094395
33,3,0.0,0.8881666232573366,0.9606413571973449
33,4,1.0,0.8977730368293101,0.0
33,4,0.75,0.8918276530411033,0.5945383788206748
33,4,0.5,0.8579832451771432,3.9789791652166895
33,4,0.25,0.8263475478592963,7.142548897001378
33,4,0.0,0.8063268469339296,9.144618989538046
33,5,1.0,0.8977730368293101,0.0
33,5,0.75,0.8856604894785864,1.2112547350723646
33,5,0.5,0.7693198992334442,12.845313759586585
33,5,0.25,0.6486730737124272,24.90999631168829
33,5,0.0,0.6104812177075596,28.72918191217505
33,6,1.0,0.8977730368293101,0.0
33,6,0.75,0.893447976117124,0.43250607121860796
33,6,0.5,0.8840188368499003,1.3754199979409742
33,6,0.25,0.8777352713582132,2.0037765471096924
33,6,0.0,0.8559136800835382,4.18593567457719
33,7,1.0,0.8977730368293101,0.0
33,7,0.75,0.8802952845782516,1.747775225105852
33,7,0.5,0.8306171749500301,6.715586187928002
33,7,0.25,0.7449012670277995,15.287176980151063
33,7,0.0,0.6569444157620004,24.082862106730975
33,8,1.0,0.8977730368293101,0.0
33,8,0.75,0.8917222879495579,0.605074887975221
33,8,0.5,0.8757264647026437,2.2046572126666386
33,8,0.25,0.8599640527631986,3.780898406611144
33,8,0.0,0.8045696180086253,9.320341882068483
34,0,1.0,0.8900617962857268,0.0
34,0,0.75,0.9009291597696991,-1.0867363483972325
34,0,0.5,0.8941116580085858,-0.40498617228590383
34,0,0.25,0.860389940466747,2.9671855818979798
34,0,0.0,0.8214904093205164,6.857138696521037
34,1,1.0,0.8900617962857268,0.0
34,1,0.75,0.8938845416979102,-0.3822745412183415
34,1,0.5,0.8841881020230834,0.5873694262643392
34,1,0.25,0.8704682142330749,1.9593582052651937
34,1,0.0,0.8559931256563097,3.4068670629417097
34,2,1.0,0.8900617962857268,0.0
34,2,0.75,0.8938379761870022,-0.3776179901275434
34,2,0.5,0.8845180693241655,0.5543726961561246
34,2,0.25,0.82976972094339,6.029207534233683
34,2,0.0,0.7585158249458452,13.154597133988155
34,3,1.0,0.8900617962857268,0.0
34,3,0.75,0.8908276252155722,-0.07658289298454468
34,3,0.5,0.8707108417137346,1.9350954571992207
34,3,0.25,0.8407055927165448,4.935620356918202
34,3,0.0,0.8280099819177831,6.205181436794371
34,4,1.0,0.8900617962857268,0.0
34,4,0.75,0.8843574796894462,0.5704316596280568
34,4,0.5,0.8777691241056566,1.229267218007024
34,4,0.25,0.8412327650503372,4.882903123538962
34,4,0.0,0.806330398328543,8.373139795718377
34,5,1.0,0.8900617962857268,0.0
34,5,0.75,0.8822914368687068,0.7770359417019979
34,5,0.5,0.8578110136561283,3.2250782629598462
34,5,0.25,0.807918408762442,8.214338752328477
34,5,0.0,0.7554043176983777,13.465747858734911
34,6,1.0,0.8900617962857268,0.0
34,6,0.75,0.8809995427324248,0.9062253553302035
34,6,0.5,0.8653205553013872,2.4741240984339608
34,6,0.25,0.8545811662907612,3.5480629994965596
34,6,0.0,0.8533895020207419,3.667229426498486
34,7,1.0,0.8900617962857268,0.0
34,7,0.75,0.8744054104006629,1.5656385885063906
34,7,0.5,0.8617347577714101,2.8327038514316727
34,7,0.25,0.7507040774721968,13.935771881352998
34,7,0.0,0.6605846906247422,22.947710566098458
34,8,1.0,0.8900617962857268,0.0
34,8,0.75,0.8843951360036981,0.5666660282028668
34,8,0.5,0.8702854441182959,1.97763521674309
34,8,0.25,0.8580900925238946,3.1971703761832226
34,8,0.0,0.8113644688644688,7.869732742125802
35,0,1.0,0.7361998117317368,0.0
35,0,0.75,0.7389853080609156,-0.2785496329178794
35,0,0.5,0.7162002417738021,1.9999569957934615
35,0,0.25,0.6615786280894399,7.462118364229687
35,0,0.0,0.6358146271497873,10.038518458194945
35,1,1.0,0.7361998117317368,0.0
35,1,0.75,0.7448293709413871,-0.8629559209650361
35,1,0.5,0.7250737499410251,1.1126061790711628
35,1,0.25,0.6806322262230968,5.556758550863994
35,1,0.0,0.6578413313646773,7.835848036705951
35,2,1.0,0.7361998117317368,0.0
35,2,0.75,0.7439074818882072,-0.7707670156470448
35,2,0.5,0.7362764070781591,-0.007659534642234789
35,2,0.25,0.7256730002661146,1.0526811465622177
35,2,0.0,0.7024380161321345,3.376179559960224
35,3,1.0,0.7361998117317368,0.0
35,3,0.75,0.7123928995604603,2.3806912171276506
35,3,0.5,0.686237877390597,4.996193434113971
35,3,0.25,0.6719458769244351,6.425393480730168
35,3,0.0,0.6601192489184857,7.608056281325104
35,4,1.0,0.7361998117317368,0.0
35,4,0.75,0.7263621901086681,0.9837621623068671
35,4,0.5,0.7082830518736708,2.7916759858065965
35,4,0.25,0.710097637802622,2.6102173929114736
35,4,0.0,0.7062097015863196,2.9990110145417193
35,5,1.0,0.7361998117317368,0.0
35,5,0.75,0.7410918321444636,-0.48920204127268496
35,5,0.5,0.7307475917051044,0.5452220026632371
35,5,0.25,0.710338815251039,2.586099648069773
35,5,0.0,0.6817459940573796,5.44538176743572
35,6,1.0,0.7361998117317368,0.0
35,6,0.75,0.7314354142610549,0.47643974706819137
35,6,0.5,0.7075154988163943,2.868431291534246
35,6,0.25,0.69488285819592,4.1316953535816765
35,6,0.0,0.6752062044271687,6.099360730456804
35,7,1.0,0.7361998117317368,0.0
35,7,0.75,0.7490230093901571,-1.2823197658420327
35,7,0.5,0.7534991459305699,-1.7299334198833116
35,7,0.25,0.7399518001551516,-0.37519884234148426
35,7,0.0,0.7228191090325478,1.3380702699189007
35,8,1.0,0.7361998117317368,0.0
35,8,0.75,0.7411347334625621,-0.49349217308253257
35,8,0.5,0.7346506204870699,0.15491912446669032
35,8,0.25,0.714537327597477,2.166248413425975
35,8,0.0,0.6772015878266638,5.899822390507293
36,0,1.0,0.663512784181941,0.0
36,0,0.75,0.6580820356229669,0.5430748558974186
36,0,0.5,0.6394879147162915,2.4024869465649523
36,0,0.25,0.641995159430363,2.1517624751578035
36,0,0.0,0.6374867963661979,2.602598781574317
36,1,1.0,0.663512784181941,0.0
36,1,0.75,0.6517399927153671,1.177279146657395
36,1,0.5,0.6248051600909973,3.870762409094375
36,1,0.25,0.6008763157351886,6.263646844675241
36,1,0.0,0.5623486405917364,10.116414359020464
36,2,1.0,0.663512784181941,0.0
36,2,0.75,0.6634968469790112,0.0015937202929805494
36,2,0.5,0.6521818735869597,1.133091059498137
36,2,0.25,0.6463665234634801,1.7146260718460926
36,2,0.0,0.6331503317178594,3.0362452464081646
36,3,1.0,0.663512784181941,0.0
36,3,0.75,0.6602963560976619,0.32164280842791326
36,3,0.5,0.633582006127148,2.993077805479305
36,3,0.25,0.6148992993245721,4.861348485736894
36,3,0.0,0.5929056061525888,7.0607178029352236
36,4,1.0,0.663512784181941,0.0
36,4,0.75,0.6615894657992512,0.1923318382689887
36,4,0.5,0.6646769747182066,-0.11641905362655969
36,4,0.25,0.6527534650896606,1.075931909228045
36,4,0.0,0.6499525019824968,1.3560282199444273
36,5,1.0,0.663512784181941,0.0
36,5,0.75,0.6911375045113111,-2.7624720329370023
36,5,0.5,0.7062304391492212,-4.271765496728019
36,5,0.25,0.6522146352377497,1.1298148944191344
36,5,0.0,0.3852439455767574,27.826883860518365
36,6,1.0,0.663512784181941,0.0
36,6,0.75,0.6435681138653414,1.9944670316599633
36,6,0.5,0.6343229120320718,2.9189872149869234
36,6,0.25,0.6086086401688093,5.490414401313171
36,6,0.0,0.5914789960900236,7.20337880919174
36,7,1.0,0.663512784181941,0.0
36,7,0.75,0.6655457342570485,-0.2032950075107509
36,7,0.5,0.6639643352653797,-0.04515510834386394
36,7,0.25,0.6273451387536786,3.616764542826245
36,7,0.0,0.5902280377777965,7.32847464041445
36,8,1.0,0.663512784181941,0.0
36,8,0.75,0.6494432633994678,1.4069520782473255
36,8,0.5,0.630281470710428,3.323131347151309
36,8,0.25,0.6077360613551429,5.5776722826798135
36,8,0.0,0.5928638632563172,7.06489209256238
37,0,1.0,0.8235338100600513,0.0
37,0,0.75,0.8178209063824557,0.5712903677595582
37,0,0.5,0.8168073393560848,0.6726470703966481
37,0,0.25,0.7976505583241212,2.588325173593009
37,0,0.0,0.7581709981958442,6.5362811864207115
37,1,1.0,0.8235338100600513,0.0
37,1,0.75,0.8253767420469404,-0.1842931986889118
37,1,0.5,0.804306945697396,1.9226864362655305
37,1,0.25,0.7721037987506536,5.143001130939773
37,1,0.0,0.7152105826479951,10.832322741205624
37,2,1.0,0.8235338100600513,0.0
37,2,0.75,0.807379672317672,1.6154137742379282
37,2,0.5,0.7864128616278621,3.712094843218927
37,2,0.25,0.7513317053806768,7.220210467937449
37,2,0.0,0.7340479081690304,8.94859018910209
37,3,1.0,0.8235338100600513,0.0
37,3,0.75,0.8443913633165463,-2.0857553256494965
37,3,0.5,0.8477772254672107,-2.424341540715935
37,3,0.25,0.8689628236583495,-4.542901359829821
37,3,0.0,0.8635196334208907,-3.9985823360839334
37,4,1.0,0.8235338100600513,0.0
37,4,0.75,0.8294876035530164,-0.5953793492965098
37,4,0.5,0.8114118088956074,1.2122001164443952
37,4,0.25,0.7670340660930463,5.649974396700507
37,4,0.0,0.7562643483928733,6.7269461667178065
37,5,1.0,0.8235338100600513,0.0
37,5,0.75,0.8342108679099037,-1.06770578498524
37,5,0.5,0.8231142153831229,0.041959467692842534
37,5,0.25,0.7578262723292393,6.570753773081206
37,5,0.0,0.7239251695323614,9.960864052768992
37,6,1.0,0.8235338100600513,0.0
37,6,0.75,0.8142941974889719,0.9239612571079414
37,6,0.5,0.7989250395069653,2.460877055308608
37,6,0.25,0.7742396370430855,4.929417301696581
37,6,0.0,0.7671527020075604,5.638110805249097
37,7,1.0,0.8235338100600513,0.0
37,7,0.75,0.8169391445616511,0.6594665498400265
37,7,0.5,0.7771732099318306,4.636060012822075
37,7,0.25,0.7594966914457418,6.403711861430949
37,7,0.0,0.7378246947896228,8.570911527042856
37,8,1.0,0.8235338100600513,0.0
37,8,0.75,0.8104217238854853,1.311208617456605
37,8,0.5,0.7708925307784424,5.264127928160889
37,8,0.25,0.7658794858071317,5.76543242529196
37,8,0.0,0.7625693576080264,6.0964452452024975
38,0,1.0,0.8248694895591647,0.0
38,0,0.75,0.8165815840013105,0.8287905557854192
38,0,0.5,0.8017295230823487,2.3139966476816043
38,0,0.25,0.7862624374885537,3.860705207061099
38,0,0.0,0.7707422410521534,5.412724850701133
38,1,1.0,0.8248694895591647,0.0
38,1,0.75,0.8265469921400352,-0.16775025808705157
38,1,0.5,0.8039483789860296,2.092111057313517
38,1,0.25,0.7727280976137685,5.214139194539625
38,1,0.0,0.7391762245692977,8.569326498986706
38,2,1.0,0.8248694895591647,0.0
38,2,0.75,0.8257648347587372,-0.08953451995724615
38,2,0.5,0.8071792851564957,1.7690204402668996
38,2,0.25,0.7874454330328647,3.7424056526299987
38,2,0.0,0.7710220901677122,5.3847399391452555
38,3,1.0,0.8248694895591647,0.0
38,3,0.75,0.8304814412078784,-0.5611951648713642
38,3,0.5,0.839350538028593,-1.4481048469428326
38,3,0.25,0.7974904563494642,2.7379033209700476
38,3,0.0,0.7616159878959106,6.325350166325416
38,4,1.0,0.8248694895591647,0.0
38,4,0.75,0.8155499053258971,0.9319584233267619
38,4,0.5,0.7978169863889341,2.705250317023067
38,4,0.25,0.7574159532121033,6.745353634706142
38,4,0.0,0.6499319049066131,17.493758465255162
38,5,1.0,0.8248694895591647,0.0
38,5,0.75,0.8244968711314423,0.03726184277224043
38,5,0.5,0.811196899391726,1.3672590167438714
38,5,0.25,0.7247136096985249,10.015587986063979
38,5,0.0,0.6280591898512735,19.681029970789123
38,6,1.0,0.8248694895591647,0.0
38,6,0.75,0.8247485204244851,0.012096913467962711
38,6,0.5,0.8194722379070205,0.5397251652144219
38,6,0.25,0.8143085394051024,1.0560950154062332
38,6,0.0,0.7946693900128794,3.020009954628533
38,7,1.0,0.8248694895591647,0.0
38,7,0.75,0.839011772302434,-1.414228274326923
38,7,0.5,0.8465950808177394,-2.172559125857465
38,7,0.25,0.8235285691093646,0.13409204498001648
38,7,0.0,0.8008611626228727,2.400832693629207
38,8,1.0,0.8248694895591647,0.0
38,8,0.75,0.8399945000354836,-1.5125010476318868
38,8,0.5,0.8267534321354622,-0.1883942576297426
38,8,0.25,0.8143367049617051,1.0532784597459655
38,8,0.0,0.7889399281459941,3.5929561413170608
39,0,1.0,0.760165828477041,0.0
39,0,0.75,0.6982628574962069,6.190297098083408
39,0,0.5,0.6189330539099251,14.12327745671158
39,0,0.25,0.5805959625277197,17.956986594932122
39,0,0.0,0.557140307047169,20.302552142987196
39,1,1.0,0.760165828477041,0.0
39,1,0.75,0.7545761636435546,0.558966483348633
39,1,0.5,0.7565251659355815,0.36406625414594496
39,1,0.25,0.7558555315120726,0.43102969649683187
39,1,0.0,0.7335601368313501,2.660569164569082
39,2,1.0,0.760165828477041,0.0
39,2,0.75,0.7657813080214151,-0.5615479544374136
39,2,0.5,0.7524878428305803,0.7677985646460606
39,2,0.25,0.7361543489493838,2.4011479527657142
39,2,0.0,0.7196591913395001,4.050663713754088
39,3,1.0,0.760165828477041,0.0
39,3,0.75,0.7348598529058631,2.5305975571177863
39,3,0.5,0.6854479550415642,7.471787343547676
39,3,0.25,0.6677788891721548,9.238693930488617
39,3,0.0,0.6186729603129688,14.149286816407214
39,4,1.0,0.760165828477041,0.0
39,4,0.75,0.7613474718737876,-0.11816433967466455
39,4,0.5,0.7563428757993302,0.38229526777107115
39,4,0.25,0.6970046384172395,6.3161190059801475
39,4,0.0,0.6587504252798048,10.14154031972362
39,5,1.0,0.760165828477041,0.0
39,5,0.75,0.6907557354925776,6.941009298446332
39,5,0.5,0.6098659250697124,15.029990340732857
39,5,0.25,0.5394939372239249,22.067189125311604
39,5,0.0,0.46140508585109613,29.876074262594482
39,6,1.0,0.760165828477041,0.0
39,6,0.75,0.774347605697264,-1.4181777220223069
39,6,0.5,0.7854069724649971,-2.5241143987956183
39,6,0.25,0.7935367783016629,-3.3370949824621965
39,6,0.0,0.7801006192272698,-1.993479075022886
39,7,1.0,0.760165828477041,0.0
39,7,0.75,0.7729734946611728,-1.2807666184131872
39,7,0.5,0.7540248061416951,0.6141022335345858
39,7,0.25,0.7433108062000796,1.685502227696134
39,7,0.0,0.6995746271953521,6.059120128168882
39,8,1.0,0.760165828477041,0.0
39,8,0.75,0.7763251473486917,-1.6159318871650785
39,8,0.5,0.7822854786097193,-2.211965013267836
39,8,0.25,0.7506299608613072,0.9535867615733773
39,8,0.0,0.7433465732328375,1.6819255244203468
40,0,1.0,0.770923525629606,0.0
40,0,0.75,0.7991219020298033,-2.819837640019729
40,0,0.5,0.7855997341263102,-1.4676208496704257
40,0,0.25,0.7633530822598403,0.7570443369765645
40,0,0.0,0.7273113661153982,4.361215951420783
40,1,1.0,0.770923525629606,0.0
40,1,0.75,0.7640630489560212,0.6860476673584803
40,1,0.5,0.7595493648125227,1.1374160817083312
40,1,0.25,0.7362817878832169,3.4641737746389123
40,1,0.0,0.7090610858985655,6.186243973104045
40,2,1.0,0.770923525629606,0.0
40,2,0.75,0.7700658838442465,0.08576417853595197
40,2,0.5,0.7504981178752677,2.042540775433832
40,2,0.25,0.7368150774205038,3.4108448209102193
40,2,0.0,0.7304225600153191,4.050096561428685
40,3,1.0,0.770923525629606,0.0
40,3,0.75,0.7872592515266976,-1.6335725897091646
40,3,0.5,0.7860735623404466,-1.5150036710840586
40,3,0.25,0.7907010345110408,-1.9777508881434813
40,3,0.0,0.7544138745090623,1.65096511205437
40,4,1.0,0.770923525629606,0.0
40,4,0.75,0.7606184224553661,1.0305103174239827
40,4,0.5,0.7208177363500627,5.010578927954324
40,4,0.25,0.7083381760181803,6.25853496114257
40,4,0.0,0.6892253174535102,8.169820817609574
40,5,1.0,0.770923525629606,0.0
40,5,0.75,0.7738201320694095,-0.2896606439803495
40,5,0.5,0.7620959763567797,0.8827549272826252
40,5,0.25,0.7148148094234978,5.610871620610814
40,5,0.0,0.6973861776950232,7.353734793458278
40,6,1.0,0.770923525629606,0.0
40,6,0.75,0.7651711941308132,0.5752331498792729
40,6,0.5,0.7642155632009785,0.6707962428627479
40,6,0.25,0.7509886869283975,1.993483870120849
40,6,0.0,0.7342837853245162,3.6639740305089763
40,7,1.0,0.770923525629606,0.0
40,7,0.75,0.7629854257312005,0.7938099898405437
40,7,0.5,0.7704956518538777,0.042787377572828245
40,7,0.25,0.7430293970154905,2.7894128614115443
40,7,0.0,0.6676429273774407,10.32805982521653
40,8,1.0,0.770923525629606,0.0
40,8,0.75,0.7866608361013794,-1.5737310471773402
40,8,0.5,0.7881390969919433,-1.7215571362337312
40,8,0.25,0.7387872208436725,3.2136304785933434
40,8,0.0,0.688266417956999,8.265710767260693
