subject,channel,f1_full,f1_occluded,drop_pp
1,0,0.6896440514015243,0.6739590082676756,1.5685043133848664
1,1,0.6896440514015243,0.6717602946493328,1.7883756752191449
1,2,0.6896440514015243,0.6595668323900378,3.0077219011486522
1,3,0.6896440514015243,0.625885960463445,6.375809093807927
1,4,0.6896440514015243,0.7171136433561678,-2.746959195464349
1,5,0.6896440514015243,0.6879039484702352,0.17401029312891225
1,6,0.6896440514015243,0.6997890056071219,-1.0144954205597578
1,7,0.6896440514015243,0.5904474014913856,9.919664991013866
1,8,0.6896440514015243,0.5470799661253792,14.256408527614505
2,0,0.928188354608972,0.8647713088070081,6.341704580196383
2,1,0.928188354608972,0.8676126056092541,6.057574899971785
2,2,0.928188354608972,0.8454523834365217,8.273597117245025
2,3,0.928188354608972,0.9038812662057044,2.4307088403267563
2,4,0.928188354608972,0.9104530655391221,1.773528906984989
2,5,0.928188354608972,0.8776347081291859,5.05536464797861
2,6,0.928188354608972,0.8896687804957633,3.851957411320872
2,7,0.928188354608972,0.7823005241269974,14.588783048197463
2,8,0.928188354608972,0.780506319166113,14.768203544285896
3,0,0.8627048287408121,0.8973426602122875,-3.4637831471475367
3,1,0.8627048287408121,0.8251861608925357,3.75186678482764
3,2,0.8627048287408121,0.7962460579508354,6.645877078997675
3,3,0.8627048287408121,0.738168941178436,12.453588756237611
3,4,0.8627048287408121,0.854798410536614,0.7906418204198129
3,5,0.8627048287408121,0.8540618338387257,0.864299490208642
3,6,0.8627048287408121,0.8698691998051347,-0.716437106432255
3,7,0.8627048287408121,0.7760069144930217,8.669791424779039
3,8,0.8627048287408121,0.8822958323832482,-1.9591003642436045
4,0,0.8714552249778322,0.8182089575221383,5.324626745569394
4,1,0.8714552249778322,0.8142600605391166,5.719516443871564
4,2,0.8714552249778322,0.8072998312901928,6.415539368763945
4,3,0.8714552249778322,0.8316151064928752,3.9840118484957054
4,4,0.8714552249778322,0.8500070189971773,2.144820598065489
4,5,0.8714552249778322,0.8334185956824963,3.803662929533591
4,6,0.8714552249778322,0.8659802632673939,0.5474961710438375
4,7,0.8714552249778322,0.8297596503782008,4.169557459963147
4,8,0.8714552249778322,0.7943072506294817,7.714797434835052
5,0,0.6824341091988211,0.6633230540339488,1.9111055164872326
5,1,0.6824341091988211,0.6658271203512114,1.6606988847609694
5,2,0.6824341091988211,0.6644082874429112,1.8025821755909832
5,3,0.6824341091988211,0.7270363932421834,-4.460228404336231
5,4,0.6824341091988211,0.6145357601063508,6.789834909247028
5,5,0.6824341091988211,0.6351424696879687,4.729163951085235
5,6,0.6824341091988211,0.6949892527101404,-1.2555143511319367
5,7,0.6824341091988211,0.6573086024827113,2.5125506716109802
5,8,0.6824341091988211,0.6473631282472774,3.5070980951543707
6,0,0.7752926666886668,0.7612771582314729,1.4015508457193904
6,1,0.7752926666886668,0.7351594713830125,4.013319530565429
6,2,0.7752926666886668,0.8170533584558292,-4.176069176716235
6,3,0.7752926666886668,0.7890557595926516,-1.3763092903984808
6,4,0.7752926666886668,0.7302407550282359,4.505191166043088
6,5,0.7752926666886668,0.7108197368250806,6.4472929863586215
6,6,0.7752926666886668,0.7560218625999773,1.927080408868953
6,7,0.7752926666886668,0.6703488372093024,10.494382947936442
6,8,0.7752926666886668,0.7204859766676319,5.480669002103489
7,0,0.7933821756433007,0.7787285438194842,1.4653631823816515
7,1,0.7933821756433007,0.743941569792179,4.944060585112176
7,2,0.7933821756433007,0.7529724593560687,4.0409716287232005
7,3,0.7933821756433007,0.7872434162653141,0.613875937798658
7,4,0.7933821756433007,0.7539614027872317,3.942077285606904
7,5,0.7933821756433007,0.7676886169522813,2.5693558691019414
7,6,0.7933821756433007,0.7434792838060758,4.990289183722496
7,7,0.7933821756433007,0.7351817271538852,5.820044848941553
7,8,0.7933821756433007,0.6884457381804661,10.493643746283466
8,0,0.8518993853391724,0.8525066370712802,-0.060725173210773864
8,1,0.8518993853391724,0.8380887432956268,1.3810642043545651
8,2,0.8518993853391724,0.8874590290144263,-3.5559643675253882
8,3,0.8518993853391724,0.8540661942985783,-0.2166808959405908
8,4,0.8518993853391724,0.8324652932790635,1.9434092060108932
8,5,0.8518993853391724,0.8025766373309726,4.932274800819981
8,6,0.8518993853391724,0.8570715018804521,-0.5172116541279692
8,7,0.8518993853391724,0.7945837280526546,5.731565728651777
8,8,0.8518993853391724,0.7901429826840045,6.17564026551679
9,0,0.8635237684644556,0.7945686120050058,6.895515645944972
9,1,0.8635237684644556,0.7835874211404321,7.993634732402343
9,2,0.8635237684644556,0.8101053100995596,5.3418458364896
9,3,0.8635237684644556,0.8158334156396584,4.769035282479717
9,4,0.8635237684644556,0.8245109637051021,3.9012804759353426
9,5,0.8635237684644556,0.8415808782957406,2.194289016871498
9,6,0.8635237684644556,0.8511799410029499,1.234382746150564
9,7,0.8635237684644556,0.7614017926517926,10.212197581266292
9,8,0.8635237684644556,0.8267920305330081,3.673173793144746
10,0,0.7695794804162117,0.7080568304762034,6.152264994000833
10,1,0.7695794804162117,0.7632160030131333,0.636347740307841
10,2,0.7695794804162117,0.7215654341593711,4.801404625684058
10,3,0.7695794804162117,0.7303070116369828,3.9272468779228964
10,4,0.7695794804162117,0.7281352333521606,4.144424706405115
10,5,0.7695794804162117,0.7063793285953228,6.3200151820888895
10,6,0.7695794804162117,0.7751495375831239,-0.5570057166912168
10,7,0.7695794804162117,0.7405397632317391,2.9039717184472624
10,8,0.7695794804162117,0.7106839710499707,5.889550936624099
11,0,0.9162453522890901,0.8621714500455936,5.407390224349651
11,1,0.9162453522890901,0.8481122803711472,6.813307191794293
11,2,0.9162453522890901,0.8433968653450259,7.284848694406421
11,3,0.9162453522890901,0.8392559321530839,7.698942013600618
11,4,0.9162453522890901,0.8807033704403165,3.554198184877355
11,5,0.9162453522890901,0.8510207300898782,6.522462219921188
11,6,0.9162453522890901,0.89206798937902,2.417736291007011
11,7,0.9162453522890901,0.887421878414405,2.882347387468509
11,8,0.9162453522890901,0.8768255401269321,3.9419812162157952
12,0,0.917113381176261,0.8847295619006398,3.2383819275621173
12,1,0.917113381176261,0.9072281830954008,0.9885198080860191
12,2,0.917113381176261,0.8662619988706945,5.085138230556641
12,3,0.917113381176261,0.8488404897607034,6.8272891415557595
12,4,0.917113381176261,0.8784622493088811,3.8651131867379895
12,5,0.917113381176261,0.9070671264421124,1.0046254734148552
12,6,0.917113381176261,0.9006967493067413,1.6416631869519693
12,7,0.917113381176261,0.8722419522656815,4.48714289105795
12,8,0.917113381176261,0.8555864178980598,6.152696327820117
13,0,0.9479150461082575,0.9307978789520465,1.7117167156211033
13,1,0.9479150461082575,0.9214856903513117,2.6429355756945827
13,2,0.9479150461082575,0.9353614034672052,1.2553642641052298
13,3,0.9479150461082575,0.9134275159263491,3.448753018190842
13,4,0.9479150461082575,0.873975155503528,7.39398906047295
13,5,0.9479150461082575,0.8924559792005804,5.54590669076771
13,6,0.9479150461082575,0.9082105921379093,3.9704453970348164
13,7,0.9479150461082575,0.8814568866627357,6.64581594455218
13,8,0.9479150461082575,0.8986963940435727,4.921865206468478
14,0,0.838083535588429,0.8107210640474573,2.736247154097171
14,1,0.838083535588429,0.8043535528168972,3.372998277153172
14,2,0.838083535588429,0.8372306979335734,0.08528376548555539
14,3,0.838083535588429,0.7219976464591069,11.608588912932206
14,4,0.838083535588429,0.8290360852380629,0.9047450350366026
14,5,0.838083535588429,0.802582563419971,3.5500972168457934
14,6,0.838083535588429,0.817571635914629,2.051189967379996
14,7,0.838083535588429,0.8080137573877104,3.0069778200718544
14,8,0.838083535588429,0.7467525566538031,9.133097893462583
15,0,0.9097650443940948,0.8229326405582711,8.683240383582369
15,1,0.9097650443940948,0.8322307451546422,7.753429923945254
15,2,0.9097650443940948,0.8408281659409522,6.893687845314256
15,3,0.9097650443940948,0.8711085788234176,3.8656465570677145
15,4,0.9097650443940948,0.855373817152449,5.43912272416458
15,5,0.9097650443940948,0.8470649720649721,6.270007232912267
15,6,0.9097650443940948,0.8890347028222755,2.07303415718193
15,7,0.9097650443940948,0.803861537463828,10.590350693026673
15,8,0.9097650443940948,0.9160349033735437,-0.6269858979448872
16,0,0.8630017222106303,0.8397938493512646,2.3207872859365763
16,1,0.8630017222106303,0.8316263546894891,3.137536752114123
16,2,0.8630017222106303,0.8392001051656717,2.3801617044958645
16,3,0.8630017222106303,0.8405825998717971,2.2419122338833253
16,4,0.8630017222106303,0.7772899446744964,8.57117775361339
16,5,0.8630017222106303,0.79484112461645,6.816059759418036
16,6,0.8630017222106303,0.8491588492635498,1.3842872947080531
16,7,0.8630017222106303,0.7635991635600807,9.940255865054958
16,8,0.8630017222106303,0.8096902894144928,5.331143279613748
17,0,0.8474939591875076,0.8189931075672616,2.850085162024596
17,1,0.8474939591875076,0.8570763376918146,-0.9582378504306988
17,2,0.8474939591875076,0.8588336140114646,-1.1339654823957046
17,3,0.8474939591875076,0.828587961728787,1.890599745872057
17,4,0.8474939591875076,0.8234107457420888,2.408321344541875
17,5,0.8474939591875076,0.7873686797969002,6.012527939060741
17,6,0.8474939591875076,0.8509898857852292,-0.3495926597721577
17,7,0.8474939591875076,0.8346543369531905,1.2839622234317116
17,8,0.8474939591875076,0.7540780674466809,9.341589174082666
18,0,0.8602586241928802,0.7958566267611313,6.44019974317489
18,1,0.8602586241928802,0.8392773783704277,2.0981245822452532
18,2,0.8602586241928802,0.8092728433634432,5.098578082943705
18,3,0.8602586241928802,0.7195746807188586,14.068394347402169
18,4,0.8602586241928802,0.8123900111952269,4.786861299765333
18,5,0.8602586241928802,0.8023144996220447,5.794412457083553
18,6,0.8602586241928802,0.8609744813694453,-0.07158571765650823
18,7,0.8602586241928802,0.7680010961654706,9.22575280274096
18,8,0.8602586241928802,0.7506161469432858,10.964247724959442
19,0,0.8735129592881241,0.8420494159803336,3.1463543307790554
19,1,0.8735129592881241,0.8674541868507386,0.6058772437385507
19,2,0.8735129592881241,0.8620013072371071,1.1511652051017007
19,3,0.8735129592881241,0.8258351827687691,4.767777651935501
19,4,0.8735129592881241,0.8108498244231378,6.266313486498632
19,5,0.8735129592881241,0.818980765782389,5.453219350573512
19,6,0.8735129592881241,0.8636058451870288,0.9907114101095349
19,7,0.8735129592881241,0.8365549325088599,3.6958026779264186
19,8,0.8735129592881241,0.849850981972366,2.3661977315758143
20,0,0.8367310764492647,0.8037518106719268,3.2979265777337896
20,1,0.8367310764492647,0.7674005074140484,6.933056903521628
20,2,0.8367310764492647,0.7823095123497809,5.442156409948384
20,3,0.8367310764492647,0.79350033980912,4.323073664014466
20,4,0.8367310764492647,0.8344417536015897,0.22893228476750238
20,5,0.8367310764492647,0.8238945318320409,1.2836544617223833
20,6,0.8367310764492647,0.7961594886143962,4.057158783486847
20,7,0.8367310764492647,0.7760557088277295,6.067536762153525
20,8,0.8367310764492647,0.7528234546699539,8.390762177931077
21,0,0.8399138966048261,0.8201190947600541,1.9794801844772003
21,1,0.8399138966048261,0.8492142230026338,-0.9300326397807757
21,2,0.8399138966048261,0.8288920306514462,1.102186595337984
21,3,0.8399138966048261,0.815466080774168,2.4447815830658026
21,4,0.8399138966048261,0.8321677731296554,0.7746123475170674
21,5,0.8399138966048261,0.8656978571463301,-2.5783960541504003
21,6,0.8399138966048261,0.8123302981331654,2.7583598471660697
21,7,0.8399138966048261,0.7980855344372126,4.182836216761343
21,8,0.8399138966048261,0.8073458715560753,3.256802504875078
22,0,0.7934314701046985,0.7383252870398368,5.510618306486171
22,1,0.7934314701046985,0.7841582982642493,0.9273171840449179
22,2,0.7934314701046985,0.7748973934769966,1.85340766277019
22,3,0.7934314701046985,0.7520996384370335,4.133183166766496
22,4,0.7934314701046985,0.7462324192661272,4.719905083857134
22,5,0.7934314701046985,0.7596381665189497,3.3793303585748835
22,6,0.7934314701046985,0.782094024580178,1.133744552452054
22,7,0.7934314701046985,0.6890838213240117,10.43476487806868
22,8,0.7934314701046985,0.7318443798582572,6.158709024644127
23,0,0.819553888768434,0.7075611235812718,11.199276518716228
23,1,0.819553888768434,0.7791021398854123,4.0451748883021725
23,2,0.819553888768434,0.8389832947706874,-1.9429406002253402
23,3,0.819553888768434,0.785521599246895,3.4032289521539028
23,4,0.819553888768434,0.7727277335961771,4.682615517225697
23,5,0.819553888768434,0.785865514154866,3.3688374613567995
23,6,0.819553888768434,0.8009240602514818,1.8629828516952274
23,7,0.819553888768434,0.8021800741796105,1.7373814588823588
23,8,0.819553888768434,0.7732092602519431,4.63446285164909
24,0,0.8067804912799927,0.7573148704959382,4.946562078405458
24,1,0.8067804912799927,0.7985244868245163,0.8256004455476473
24,2,0.8067804912799927,0.7678619464551588,3.8918544824833923
24,3,0.8067804912799927,0.8395856041818774,-3.2805112901884703
24,4,0.8067804912799927,0.737219326568489,6.956116471150375
24,5,0.8067804912799927,0.7443369088769034,6.244358240308934
24,6,0.8067804912799927,0.7726424581742404,3.4138033105752363
24,7,0.8067804912799927,0.7455498109267835,6.123068035320922
24,8,0.8067804912799927,0.7623247718151364,4.445571946485638
25,0,0.8968832096823478,0.8644389043456009,3.2444305336746915
25,1,0.8968832096823478,0.8918848484979898,0.49983611843580356
25,2,0.8968832096823478,0.8892081947207204,0.7675014961627369
25,3,0.8968832096823478,0.8794909077968756,1.739230188547225
25,4,0.8968832096823478,0.8034514231292389,9.34317865531089
25,5,0.8968832096823478,0.8265471142310752,7.033609545127262
25,6,0.8968832096823478,0.9088723959991576,-1.1989186316809786
25,7,0.8968832096823478,0.8453028117134262,5.158039796892155
25,8,0.8968832096823478,0.8927885331077765,0.4094676574571299
26,0,0.7698675494145291,0.759300926760482,1.0566622654047064
26,1,0.7698675494145291,0.7497166199029552,2.0150929511573823
26,2,0.7698675494145291,0.749532994730955,2.0334554683574035
26,3,0.7698675494145291,0.7232462809534869,4.66212684610422
26,4,0.7698675494145291,0.7298905922276775,3.997695718685157
26,5,0.7698675494145291,0.7610804880569911,0.8787061357537929
26,6,0.7698675494145291,0.7644101149915973,0.5457434422931784
26,7,0.7698675494145291,0.7212868973517093,4.858065206281981
26,8,0.7698675494145291,0.7007140843302606,6.915346508426845
27,0,0.9049029241898274,0.8979354579659786,0.6967466223848806
27,1,0.9049029241898274,0.9084192002389835,-0.3516276049156053
27,2,0.9049029241898274,0.8705618928528362,3.434103133699118
27,3,0.9049029241898274,0.892468530901206,1.2434393288621393
27,4,0.9049029241898274,0.8450500389479192,5.985288524190824
27,5,0.9049029241898274,0.8537386188708461,5.11643053189813
27,6,0.9049029241898274,0.8852349521707248,1.9667972019102642
27,7,0.9049029241898274,0.8722051212657607,3.2697802924066766
27,8,0.9049029241898274,0.882357607983791,2.254531620603639
28,0,0.8571697486938014,0.854224394499179,0.2945354194622385
28,1,0.8571697486938014,0.8515580767972103,0.5611671896591064
28,2,0.8571697486938014,0.8365458044808619,2.062394421293945
28,3,0.8571697486938014,0.7794283879725388,7.774136072126259
28,4,0.8571697486938014,0.7510518923832229,10.611785631057845
28,5,0.8571697486938014,0.7820273897962968,7.514235889750454
28,6,0.8571697486938014,0.8535966309715337,0.3573117722267649
28,7,0.8571697486938014,0.7900388611878308,6.713088750597052
28,8,0.8571697486938014,0.8506348359741398,0.6534912719661556
29,0,0.8382267054625998,0.7989721679286896,3.925453753391017
29,1,0.8382267054625998,0.8223190268366899,1.5907678625909916
29,2,0.8382267054625998,0.7971470141829515,4.107969127964828
29,3,0.8382267054625998,0.7986822950096837,3.9544410452916123
29,4,0.8382267054625998,0.7209123120995098,11.731439336309002
29,5,0.8382267054625998,0.7685400158385005,6.96866896240993
29,6,0.8382267054625998,0.8536793369807743,-1.5452631518174442
29,7,0.8382267054625998,0.7932075960942643,4.5019109368335535
29,8,0.8382267054625998,0.7572315561961849,8.099514926641493
30,0,0.8710026257731743,0.8972205164702506,-2.621789069707625
30,1,0.8710026257731743,0.8441121497001085,2.6890476073065828
30,2,0.8710026257731743,0.8598648037656297,1.113782200754465
30,3,0.8710026257731743,0.8303669965888137,4.063562918436059
30,4,0.8710026257731743,0.817007896570592,5.39947292025823
30,5,0.8710026257731743,0.8078742596431275,6.31283661300468
30,6,0.8710026257731743,0.8595336386882368,1.1468987084937488
30,7,0.8710026257731743,0.759223947970959,11.17786778022153
30,8,0.8710026257731743,0.8363168180910049,3.4685807682169445
31,0,0.8172779437926228,0.810984924004829,0.629301978779373
31,1,0.8172779437926228,0.7984632834595544,1.8814660333068334
31,2,0.8172779437926228,0.762772470762491,5.450547303013176
31,3,0.8172779437926228,0.8018817512429691,1.5396192549653631
31,4,0.8172779437926228,0.8235099727389789,-0.6232028946356105
31,5,0.8172779437926228,0.8071798361148896,1.0098107677733115
31,6,0.8172779437926228,0.8195466877979725,-0.226874400534971
31,7,0.8172779437926228,0.7384453735628714,7.8832570229751315
31,8,0.8172779437926228,0.7331821293191219,8.409581447350089
32,0,0.8908476551236806,0.8650730325310962,2.577462259258434
32,1,0.8908476551236806,0.8565676133954297,3.428004172825083
32,2,0.8908476551236806,0.8680969427258267,2.2750712397853867
32,3,0.8908476551236806,0.8251756069606706,6.567204816300998
32,4,0.8908476551236806,0.8152511538504424,7.559650127323813
32,5,0.8908476551236806,0.8471415520418341,4.370610308184652
32,6,0.8908476551236806,0.8556513679674359,3.5196287156244677
32,7,0.8908476551236806,0.786166090801803,10.468156432187758
32,8,0.8908476551236806,0.8507069346507226,4.0140720472958025
33,0,0.9227395497846037,0.8864723463750416,3.626720340956213
33,1,0.9227395497846037,0.9287495409016415,-0.6009991117037816
33,2,0.9227395497846037,0.8734402562846979,4.92992934999058
33,3,0.9227395497846037,0.8824025915744883,4.03369582101154
33,4,0.9227395497846037,0.9254465428435608,-0.27069930589570523
33,5,0.9227395497846037,0.916762078115044,0.5977471669559753
33,6,0.9227395497846037,0.9124473882575028,1.0292161527100885
33,7,0.9227395497846037,0.8591453087058538,6.35942410787499
33,8,0.9227395497846037,0.9266443506195023,-0.3904800834898636
34,0,0.8897693961305453,0.8529238314768891,3.684556465365618
34,1,0.8897693961305453,0.8555060934384886,3.4263302692056685
34,2,0.8897693961305453,0.8935872004560426,-0.3817804325497276
34,3,0.8897693961305453,0.8090813062864598,8.068808984408548
34,4,0.8897693961305453,0.8650563489750316,2.47130471555137
34,5,0.8897693961305453,0.8663399652396291,2.3429430890916203
34,6,0.8897693961305453,0.9020940833235193,-1.232468719297397
34,7,0.8897693961305453,0.7859944658000715,10.37749303304738
34,8,0.8897693961305453,0.8237045651203821,6.606483101016314
35,0,0.7061615187012885,0.636115901534334,7.004561716695457
35,1,0.7061615187012885,0.7008982215227963,0.5263297178492166
35,2,0.7061615187012885,0.6901243437218441,1.6037174979444457
35,3,0.7061615187012885,0.6800059501396651,2.6155568561623377
35,4,0.7061615187012885,0.6912022480256647,1.495927067562386
35,5,0.7061615187012885,0.6847445803069212,2.1416938394367313
35,6,0.7061615187012885,0.6913241743051577,1.4837344396130825
35,7,0.7061615187012885,0.6815962399404223,2.4565278760866227
35,8,0.7061615187012885,0.6951521568662048,1.100936183508372
36,0,0.7702366163121976,0.7172218160982122,5.301480021398541
36,1,0.7702366163121976,0.7261964853059428,4.404013100625481
36,2,0.7702366163121976,0.7313054215427937,3.8931194769403987
36,3,0.7702366163121976,0.7105951971613057,5.9641419150891934
36,4,0.7702366163121976,0.7963733785741607,-2.6136762261963042
36,5,0.7702366163121976,0.8193772988183459,-4.9140682506148226
36,6,0.7702366163121976,0.723902579724172,4.6334036588025596
36,7,0.7702366163121976,0.7179360693414709,5.2300546970726725
36,8,0.7702366163121976,0.6497333980519577,12.05032182602399
37,0,0.8573639579688919,0.8197327958700575,3.7631162098834325
37,1,0.8573639579688919,0.8131881897212085,4.417576824768332
37,2,0.8573639579688919,0.7946523058447835,6.271165212410834
37,3,0.8573639579688919,0.8590510533715401,-0.168709540264822
37,4,0.8573639579688919,0.842551483182809,1.481247478608283
37,5,0.8573639579688919,0.869695708472068,-1.2331750503176142
37,6,0.8573639579688919,0.8280411626680924,2.932279530079951
37,7,0.8573639579688919,0.7861491338299973,7.121482413889457
37,8,0.8573639579688919,0.826963763398793,3.0400194570098904
38,0,0.8643259060215998,0.8235653619940463,4.0760544027553465
38,1,0.8643259060215998,0.8503192478650241,1.4006658156575647
38,2,0.8643259060215998,0.8400275350331913,2.429837098840848
38,3,0.8643259060215998,0.8443594476836891,1.9966458337910664
38,4,0.8643259060215998,0.8337177462002965,3.060815982130327
38,5,0.8643259060215998,0.8385036171726755,2.5822288848924235
38,6,0.8643259060215998,0.8582415378390446,0.60843681825552
38,7,0.8643259060215998,0.7977625649961645,6.656334102543527
38,8,0.8643259060215998,0.7990919827925558,6.523392322904398
39,0,0.8497288620190622,0.7959418200063424,5.378704201271978
39,1,0.8497288620190622,0.8154463373227581,3.4282524696304106
39,2,0.8497288620190622,0.8221368995362796,2.7591962482782617
39,3,0.8497288620190622,0.7638165377508696,8.591232426819262
39,4,0.8497288620190622,0.7760109783695989,7.37178836494633
39,5,0.8497288620190622,0.8088880443284509,4.084081769061132
39,6,0.8497288620190622,0.830297730393595,1.9431131625467168
39,7,0.8497288620190622,0.7535136078665251,9.621525415253707
39,8,0.8497288620190622,0.7705785612795222,7.915030073953999
40,0,0.8314369022101821,0.7806361883908352,5.080071381934692
40,1,0.8314369022101821,0.8296543896037175,0.1782512606464559
40,2,0.8314369022101821,0.8694139451011822,-3.7977042891000123
40,3,0.8314369022101821,0.8683156001704389,-3.687869796025678
40,4,0.8314369022101821,0.8264449132059046,0.4991989004277442
40,5,0.8314369022101821,0.8261673036838805,0.52695985263016
40,6,0.8314369022101821,0.8059417193866802,2.5495182823501827
40,7,0.8314369022101821,0.7347312525370184,9.670564967316365
40,8,0.8314369022101821,0.799684569902164,3.1752332308018105
