subject,channel,alpha,f1,drop_pp
156,0,1.0,0.7071547780642414,0.0
156,0,0.75,0.7258285279020068,-1.8673749837765374
156,0,0.5,0.7422420657702149,-3.508728770597347
156,0,0.25,0.7335791774457345,-2.64243993814931
156,0,0.0,0.6916309494754284,1.5523828588813071
156,1,1.0,0.7071547780642414,0.0
156,1,0.75,0.7013007430870836,0.5854034977157863
156,1,0.5,0.69616674511691,1.0988032947331416
156,1,0.25,0.677644923445962,2.9509854618279374
156,1,0.0,0.6316627770044154,7.549200105982601
156,2,1.0,0.7071547780642414,0.0
156,2,0.75,0.7151274028514566,-0.7972624787215166
156,2,0.5,0.7205336757598906,-1.337889769564915
156,2,0.25,0.7026389304320794,0.4515847632162062
156,2,0.0,0.6416672097339848,6.54875683302566
156,3,1.0,0.7071547780642414,0.0
156,3,0.75,0.7078721107083763,-0.07173326441348715
156,3,0.5,0.7020218982566305,0.5132879807610902
156,3,0.25,0.6908002202896083,1.6354557774633127
156,3,0.0,0.679118040066081,2.803673799816042
156,4,1.0,0.7071547780642414,0.0
156,4,0.75,0.7093323234329805,-0.21775453687390423
156,4,0.5,0.7075767829309321,-0.04220048666906395
156,4,0.25,0.7096546578414963,-0.24998797772548542
156,4,0.0,0.6981598829355612,0.8994895128680236
156,5,1.0,0.7071547780642414,0.0
156,5,0.75,0.7047563874767049,0.23983905875365474
156,5,0.5,0.6901517061344961,1.7003071929745373
156,5,0.25,0.6518207972011519,5.533398086308949
156,5,0.0,0.5112595150754798,19.58952629887616
156,6,1.0,0.7071547780642414,0.0
156,6,0.75,0.7071321459999741,0.0022632064267336105
156,6,0.5,0.7047581846168316,0.23965934474098338
156,6,0.25,0.6999819393210795,0.717283874316188
156,6,0.0,0.6977522326910353,0.9402545373206173
185,0,1.0,0.6938921946968281,0.0
185,0,0.75,0.7012296396776153,-0.7337444980787255
185,0,0.5,0.7036442118882797,-0.975201719145169
185,0,0.25,0.6931950672938703,0.06971274029577978
185,0,0.0,0.659178485401748,3.471370929508011
185,1,1.0,0.6938921946968281,0.0
185,1,0.75,0.6995056174613808,-0.5613422764552789
185,1,0.5,0.6933089553578432,0.058323933898485336
185,1,0.25,0.6746860980801113,1.9206096616716795
185,1,0.0,0.5752741741945332,11.861802050229485
185,2,1.0,0.6938921946968281,0.0
185,2,0.75,0.6877454459741803,0.6146748722647755
185,2,0.5,0.6738490918212419,2.0043102875586194
185,2,0.25,0.6435450788246888,5.034711587213925
185,2,0.0,0.5806409717998111,11.325122289701694
185,3,1.0,0.6938921946968281,0.0
185,3,0.75,0.6899584447613513,0.39337499354767935
185,3,0.5,0.6859898098229056,0.7902384873922474
185,3,0.25,0.6756979616670896,1.8194233029738438
185,3,0.0,0.6577044941503374,3.6187700546490675
185,4,1.0,0.6938921946968281,0.0
185,4,0.75,0.6909357927720443,0.2956401924783747
185,4,0.5,0.6766227198503764,1.7269474846451693
185,4,0.25,0.6568173261325113,3.7074868564316743
185,4,0.0,0.6225627696203355,7.132942507649254
185,5,1.0,0.6938921946968281,0.0
185,5,0.75,0.7000701199944639,-0.6177925297635833
185,5,0.5,0.7036100331727564,-0.9717838475928331
185,5,0.25,0.6811173371707193,1.277485752610874
185,5,0.0,0.5801252169089571,11.376697778787094
185,6,1.0,0.6938921946968281,0.0
185,6,0.75,0.6974487890950742,-0.35565943982461823
185,6,0.5,0.6943171243663716,-0.042492966954355005
185,6,0.25,0.6916479477493986,0.2244246947429418
185,6,0.0,0.6777361940136183,1.615600068320977
186,0,1.0,0.7663468489806928,0.0
186,0,0.75,0.7608192123806372,0.5527636600055619
186,0,0.5,0.7399054269638285,2.644142201686428
186,0,0.25,0.7048270429642962,6.151980601639662
186,0,0.0,0.676976299178419,8.937054980227387
186,1,1.0,0.7663468489806928,0.0
186,1,0.75,0.7671110630397967,-0.07642140591038737
186,1,0.5,0.7629464895172021,0.34003594634907097
186,1,0.25,0.739288645840888,2.705820313980478
186,1,0.0,0.6437358435778384,12.26110054028544
186,2,1.0,0.7663468489806928,0.0
186,2,0.75,0.7641384087151325,0.22084402655603297
186,2,0.5,0.7663983736145027,-0.005152463380986294
186,2,0.25,0.749509861454619,1.6836987526073877
186,2,0.0,0.6986654047490022,6.768144423169065
186,3,1.0,0.7663468489806928,0.0
186,3,0.75,0.7696307253992155,-0.328387641852268
186,3,0.5,0.7738363032706139,-0.7489454289921094
186,3,0.25,0.7726881828633697,-0.6341333882676881
186,3,0.0,0.7624275594655388,0.39192895151540785
186,4,1.0,0.7663468489806928,0.0
186,4,0.75,0.7586285658598902,0.7718283120802583
186,4,0.5,0.7468717616236149,1.9475087357077925
186,4,0.25,0.7208604746688761,4.5486374311816675
186,4,0.0,0.6786742397892616,8.767260919143126
186,5,1.0,0.7663468489806928,0.0
186,5,0.75,0.7621195361430398,0.42273128376529856
186,5,0.5,0.7516579068534891,1.468894212720373
186,5,0.25,0.7173318714618346,4.901497751885819
186,5,0.0,0.6086781629883672,15.766868599232565
186,6,1.0,0.7663468489806928,0.0
186,6,0.75,0.76539989822723,0.09469507534628496
186,6,0.5,0.7682191660325559,-0.18723170518630816
186,6,0.25,0.772211301958188,-0.586445297749516
186,6,0.0,0.7698861432449463,-0.35392942642534786
188,0,1.0,0.6288222652943825,0.0
188,0,0.75,0.6195391011002047,0.928316419417774
188,0,0.5,0.6037254887504336,2.5096776543948818
188,0,0.25,0.5912858259168797,3.753643937750273
188,0,0.0,0.5726624220129082,5.6159843281474275
188,1,1.0,0.6288222652943825,0.0
188,1,0.75,0.6270038270246836,0.18184382696988521
188,1,0.5,0.625530924403169,0.32913408912134123
188,1,0.25,0.6121812168780191,1.664104841636338
188,1,0.0,0.5308488316944372,9.797343359994526
188,2,1.0,0.6288222652943825,0.0
188,2,0.75,0.6229847189393489,0.5837546355033529
188,2,0.5,0.6159078121786516,1.2914453115730806
188,2,0.25,0.6001939368725895,2.862832842179297
188,2,0.0,0.5380415124291368,9.078075286524568
188,3,1.0,0.6288222652943825,0.0
188,3,0.75,0.6155820277912394,1.324023750314307
188,3,0.5,0.597966068186547,3.0856197107835492
188,3,0.25,0.5835275569126146,4.529470838176786
188,3,0.0,0.5669684703848497,6.18537949095328
188,4,1.0,0.6288222652943825,0.0
188,4,0.75,0.6176641774427264,1.1158087851656062
188,4,0.5,0.5954591561730759,3.336310912130658
188,4,0.25,0.5710497833064969,5.777248198788554
188,4,0.0,0.5446118355868561,8.421042970752634
188,5,1.0,0.6288222652943825,0.0
188,5,0.75,0.6443399516753124,-1.5517686380929985
188,5,0.5,0.6442386263638494,-1.5416361069466977
188,5,0.25,0.6310818447913555,-0.22595794969730854
188,5,0.0,0.5314889902924681,9.733327500191436
188,6,1.0,0.6288222652943825,0.0
188,6,0.75,0.6277699204915714,0.10523448028110227
188,6,0.5,0.6266653871010133,0.21568781933691827
188,6,0.25,0.6222865722832718,0.6535693011110677
188,6,0.0,0.6198668529625688,0.8955412331813628
189,0,1.0,0.6508450447625345,0.0
189,0,0.75,0.6507528919633465,0.009215279918795005
189,0,0.5,0.6534574515385408,-0.2612406776006382
189,0,0.25,0.6280027356070726,2.2842309155461815
189,0,0.0,0.6066495944721454,4.419545029038908
189,1,1.0,0.6508450447625345,0.0
189,1,0.75,0.6451871979466324,0.565784681590209
189,1,0.5,0.6324124150755879,1.8432629686946589
189,1,0.25,0.6092556186911688,4.158942607136562
189,1,0.0,0.5363748725486742,11.447017221386025
189,2,1.0,0.6508450447625345,0.0
189,2,0.75,0.6552176718255815,-0.43726270630470854
189,2,0.5,0.6548667023562527,-0.40216575937181975
189,2,0.25,0.6332360278591982,1.7609016903336272
189,2,0.0,0.5673694776105427,8.347556715199179
189,3,1.0,0.6508450447625345,0.0
189,3,0.75,0.646004822320674,0.4840222441860442
189,3,0.5,0.6381639442322793,1.2681100530255174
189,3,0.25,0.6302958986213062,2.054914614122827
189,3,0.0,0.6221451607167037,2.8699884045830792
189,4,1.0,0.6508450447625345,0.0
189,4,0.75,0.6499730945408771,0.08719502216573138
189,4,0.5,0.6461017001321129,0.47433446304215865
189,4,0.25,0.6402134084227593,1.0631636339775152
189,4,0.0,0.6230312420672734,2.7813802695261014
189,5,1.0,0.6508450447625345,0.0
189,5,0.75,0.6421707560456433,0.8674288716891132
189,5,0.5,0.6326260597866553,1.821898497587915
189,5,0.25,0.6029300455192088,4.791499924332565
189,5,0.0,0.48570047520398246,16.5144569558552
189,6,1.0,0.6508450447625345,0.0
189,6,0.75,0.6614012384517954,-1.0556193689260973
189,6,0.5,0.6742612874311065,-2.3416242668572007
189,6,0.25,0.6808781153181132,-3.003307055557869
189,6,0.0,0.6907085033612915,-3.986345859875706
190,0,1.0,0.6226393906120803,0.0
190,0,0.75,0.6370428647666116,-1.440347415453136
190,0,0.5,0.6360702032235287,-1.3430812611448406
190,0,0.25,0.6374629410319843,-1.482355041990402
190,0,0.0,0.5944197412333814,2.821964937869892
190,1,1.0,0.6226393906120803,0.0
190,1,0.75,0.6198494685426246,0.2789922069455719
190,1,0.5,0.6116917463228174,1.094764428926287
190,1,0.25,0.5765949527815143,4.6044437830566
190,1,0.0,0.5050156615546437,11.762372905743657
190,2,1.0,0.6226393906120803,0.0
190,2,0.75,0.6066647242176499,1.5974666394430348
190,2,0.5,0.5888029723537811,3.3836418258299195
190,2,0.25,0.5475777866490689,7.5061603963011425
190,2,0.0,0.485188824258699,13.745056635338127
190,3,1.0,0.6226393906120803,0.0
190,3,0.75,0.6409650863997151,-1.8325695787634766
190,3,0.5,0.6524614784266652,-2.982208781458495
190,3,0.25,0.6601882580090344,-3.7548867396954066
190,3,0.0,0.6478815688128414,-2.5242178200761134
190,4,1.0,0.6226393906120803,0.0
190,4,0.75,0.6254136684605849,-0.27742778485045916
190,4,0.5,0.6200112099426216,0.26281806694586907
190,4,0.25,0.6075644259746835,1.507496463739677
190,4,0.0,0.5807733186681954,4.1866071943884915
190,5,1.0,0.6226393906120803,0.0
190,5,0.75,0.6295211459555035,-0.6881755343423168
190,5,0.5,0.6327396455463183,-1.010025493423805
190,5,0.25,0.6171214481741668,0.5517942437913481
190,5,0.0,0.5541881511700613,6.845123944201903
190,6,1.0,0.6226393906120803,0.0
190,6,0.75,0.618606156079835,0.40332345322452445
190,6,0.5,0.6066236865542507,1.6015704057829594
190,6,0.25,0.5844576184098744,3.8181772202205866
190,6,0.0,0.5587469527513054,6.3892437860774915
191,0,1.0,0.642113343620778,0.0
191,0,0.75,0.6412748883742573,0.08384552465207085
191,0,0.5,0.6347677305154587,0.7345613105319337
191,0,0.25,0.620249042760772,2.1864300860006014
191,0,0.0,0.5653636065860819,7.674973703469612
191,1,1.0,0.642113343620778,0.0
191,1,0.75,0.6374415873440242,0.4671756276753758
191,1,0.5,0.6280780323836836,1.403531123709434
191,1,0.25,0.5999249144055168,4.2188429215261225
191,1,0.0,0.5184759247181248,12.363741890265324
191,2,1.0,0.642113343620778,0.0
191,2,0.75,0.6614598919141237,-1.93465482933457
191,2,0.5,0.6717858333834472,-2.967248976266923
191,2,0.25,0.6735943561797171,-3.148101255893909
191,2,0.0,0.5811861311353125,6.092721248546551
191,3,1.0,0.642113343620778,0.0
191,3,0.75,0.6446300831972938,-0.25167395765157696
191,3,0.5,0.6541574152596874,-1.2044071638909415
191,3,0.25,0.6661457213154632,-2.4032377694685247
191,3,0.0,0.6665764905795701,-2.446314695879215
191,4,1.0,0.642113343620778,0.0
191,4,0.75,0.6404596038505652,0.16537397702127699
191,4,0.5,0.6293956463694729,1.2717697251305116
191,4,0.25,0.6157551696678836,2.6358173952894415
191,4,0.0,0.6016318953077345,4.048144831304345
191,5,1.0,0.642113343620778,0.0
191,5,0.75,0.6438881996062125,-0.1774855985434476
191,5,0.5,0.64075259926032,0.1360744360457966
191,5,0.25,0.5981065788927366,4.400676472804143
191,5,0.0,0.5017423755484578,14.037096807232018
191,6,1.0,0.642113343620778,0.0
191,6,0.75,0.6442575514180462,-0.2144207797268205
191,6,0.5,0.6446482879585729,-0.25349443377948866
191,6,0.25,0.6506699404889676,-0.8556596868189659
191,6,0.0,0.6466462867199085,-0.45329430991305486
192,0,1.0,0.42790778417004804,0.0
192,0,0.75,0.43090931133157634,-0.30015271615282946
192,0,0.5,0.42892504018932354,-0.1017256019275492
192,0,0.25,0.42764322268020327,0.026456148984477235
192,0,0.0,0.414793262496285,1.3114521673763035
192,1,1.0,0.42790778417004804,0.0
192,1,0.75,0.41877093195738424,0.9136852212663804
192,1,0.5,0.4136881334791993,1.421965069084874
192,1,0.25,0.41589775736631307,1.2010026803734974
192,1,0.0,0.41151176128823286,1.6396022881815187
192,2,1.0,0.42790778417004804,0.0
192,2,0.75,0.42730353529338394,0.06042488766641041
192,2,0.5,0.4138505186190198,1.4057265551028264
192,2,0.25,0.39478007585359975,3.312770831644829
192,2,0.0,0.37293001555755523,5.497776861249282
192,3,1.0,0.42790778417004804,0.0
192,3,0.75,0.42911756947198587,-0.12097853019378269
192,3,0.5,0.43162281067285874,-0.3715026502810692
192,3,0.25,0.43540088725949805,-0.7493103089450004
192,3,0.0,0.43502550929843,-0.7117725128381935
192,4,1.0,0.42790778417004804,0.0
192,4,0.75,0.4267982618977776,0.11095222722704579
192,4,0.5,0.4233095926746897,0.4598191495358339
192,4,0.25,0.4111421640293383,1.6765620140709758
192,4,0.0,0.3777896543751822,5.011812979486585
192,5,1.0,0.42790778417004804,0.0
192,5,0.75,0.43659330219642795,-0.8685518026379901
192,5,0.5,0.44256113586033596,-1.465335169028792
192,5,0.25,0.4291558681369485,-0.12480839669004595
192,5,0.0,0.41538866378147654,1.2519120388571503
192,6,1.0,0.42790778417004804,0.0
192,6,0.75,0.42962465850087317,-0.17168743308251244
192,6,0.5,0.43017033089056994,-0.22625467205218963
192,6,0.25,0.43283166318738764,-0.4923879017339594
192,6,0.0,0.427002248992177,0.09055351778710641
193,0,1.0,0.6360167196654379,0.0
193,0,0.75,0.6298094063578823,0.620731330755564
193,0,0.5,0.6084498236514562,2.7566896013981768
193,0,0.25,0.5702058624310545,6.58108572343834
193,0,0.0,0.5277999683404322,10.821675132500575
193,1,1.0,0.6360167196654379,0.0
193,1,0.75,0.6296494493828981,0.6367270282539805
193,1,0.5,0.6160882271920829,1.9928492473355042
193,1,0.25,0.5917608473796744,4.425587228576355
193,1,0.0,0.546154029984594,8.9862689680844
193,2,1.0,0.6360167196654379,0.0
193,2,0.75,0.6312281245143462,0.4788595151091757
193,2,0.5,0.6305659735072418,0.5450746158196185
193,2,0.25,0.6026393028597506,3.3377416805687288
193,2,0.0,0.5744755632206655,6.154115644477242
193,3,1.0,0.6360167196654379,0.0
193,3,0.75,0.6389791422464748,-0.296242258103685
193,3,0.5,0.6337039127019636,0.23128069634743564
193,3,0.25,0.6245120744353955,1.1504645230042465
193,3,0.0,0.6165360402188673,1.9480679446570615
193,4,1.0,0.6360167196654379,0.0
193,4,0.75,0.6522965212762926,-1.6279801610854627
193,4,0.5,0.6621762455879041,-2.6159525922466176
193,4,0.25,0.655744180466576,-1.9727460801138075
193,4,0.0,0.6203341543978748,1.5682565267563175
193,5,1.0,0.6360167196654379,0.0
193,5,0.75,0.6259205219425155,1.0096197722922473
193,5,0.5,0.6049202871255863,3.1096432539851615
193,5,0.25,0.5747434879748686,6.127323169056931
193,5,0.0,0.5180893816137565,11.792733805168144
193,6,1.0,0.6360167196654379,0.0
193,6,0.75,0.6442608005110703,-0.8244080845632329
193,6,0.5,0.6375015067006509,-0.1484787035212931
193,6,0.25,0.6270603078146162,0.8956411850821744
193,6,0.0,0.6281330250898219,0.7883694575615996
194,0,1.0,0.7644667430773386,0.0
194,0,0.75,0.7654968973372908,-0.10301542599521207
194,0,0.5,0.7569021194020503,0.7564623675288318
194,0,0.25,0.7396874914220033,2.4779251655335344
194,0,0.0,0.6946322412636824,6.983450181365624
194,1,1.0,0.7644667430773386,0.0
194,1,0.75,0.763096197279874,0.13705457974646507
194,1,0.5,0.7522874335311394,1.217930954619928
194,1,0.25,0.7183671485697156,4.609959450762302
194,1,0.0,0.6155157712007551,14.895097187658358
194,2,1.0,0.7644667430773386,0.0
194,2,0.75,0.7697945690107785,-0.5327825933439834
194,2,0.5,0.7689258380657857,-0.4459094988447099
194,2,0.25,0.7532447516390053,1.1221991438333356
194,2,0.0,0.6920755924917247,7.239115058561396
194,3,1.0,0.7644667430773386,0.0
194,3,0.75,0.7618164360597833,0.2650307017555309
194,3,0.5,0.7546217458215991,0.9844997255739507
194,3,0.25,0.747087927476494,1.7378815600844644
194,3,0.0,0.7343439499506622,3.012279312667643
194,4,1.0,0.7644667430773386,0.0
194,4,0.75,0.7670780104932448,-0.26112674159061156
194,4,0.5,0.7620481250656921,0.2418618011646556
194,4,0.25,0.7493546823239821,1.5112060753356582
194,4,0.0,0.7113037907306976,5.3162952346641035
194,5,1.0,0.7644667430773386,0.0
194,5,0.75,0.765247484410698,-0.07807413333593693
194,5,0.5,0.760605668232532,0.3861074844806689
194,5,0.25,0.7402010649071209,2.426567817021774
194,5,0.0,0.6771915835991595,8.72751594781791
194,6,1.0,0.7644667430773386,0.0
194,6,0.75,0.7710027172299558,-0.6535974152617197
194,6,0.5,0.7719275203908518,-0.7460777313513134
194,6,0.25,0.7756626818028706,-1.1195938725531929
194,6,0.0,0.7764877280275087,-1.202098495017001
