subject,block,block_width,feature_channel,gate_mean,gate_sd
1,0,32,0,0.5271717309951782,0.21189486980438232
1,0,32,1,0.4358115494251251,0.16509296000003815
1,0,32,2,0.3645991086959839,0.10569026321172714
1,0,32,3,0.37657302618026733,0.14807115495204926
1,0,32,4,0.48465031385421753,0.08914457261562347
1,0,32,5,0.39631760120391846,0.13070261478424072
1,0,32,6,0.527001678943634,0.10338640213012695
1,0,32,7,0.39372488856315613,0.20037034153938293
1,0,32,8,0.387836217880249,0.0970950797200203
1,0,32,9,0.4227583706378937,0.16565725207328796
1,0,32,10,0.5183156132698059,0.10976598411798477
1,0,32,11,0.42310264706611633,0.11080655455589294
1,0,32,12,0.5422893166542053,0.12222222238779068
1,0,32,13,0.27022385597229004,0.08131567388772964
1,0,32,14,0.4830646812915802,0.10565952956676483
1,0,32,15,0.5007956624031067,0.09333448857069016
1,0,32,16,0.403934121131897,0.08969326317310333
1,0,32,17,0.41460105776786804,0.14510750770568848
1,0,32,18,0.5463359355926514,0.13446111977100372
1,0,32,19,0.4445232152938843,0.08409170061349869
1,0,32,20,0.4532192647457123,0.11721092462539673
1,0,32,21,0.4772520065307617,0.1101875975728035
1,0,32,22,0.42264872789382935,0.12169739603996277
1,0,32,23,0.3910191059112549,0.14351485669612885
1,0,32,24,0.6478492617607117,0.0415365993976593
1,0,32,25,0.3503204882144928,0.11612008512020111
1,0,32,26,0.5500775575637817,0.12763124704360962
1,0,32,27,0.48174434900283813,0.02811059169471264
1,0,32,28,0.41352999210357666,0.048359889537096024
1,0,32,29,0.4320890009403229,0.10708348453044891
1,0,32,30,0.5096018314361572,0.09898360818624496
1,0,32,31,0.5171305537223816,0.08237936347723007
1,1,32,0,0.592189371585846,0.08886349946260452
1,1,32,1,0.47273051738739014,0.04554687812924385
1,1,32,2,0.552268385887146,0.14236943423748016
1,1,32,3,0.47485509514808655,0.05998998135328293
1,1,32,4,0.5135644674301147,0.05847398564219475
1,1,32,5,0.546954333782196,0.07009822875261307
1,1,32,6,0.5396233201026917,0.0682993084192276
1,1,32,7,0.5249412655830383,0.10345154255628586
1,1,32,8,0.43417367339134216,0.05738183483481407
1,1,32,9,0.48125505447387695,0.09118290990591049
1,1,32,10,0.4431672990322113,0.13502879440784454
1,1,32,11,0.3887064754962921,0.08948410302400589
1,1,32,12,0.35780423879623413,0.04070751741528511
1,1,32,13,0.5327874422073364,0.1305023580789566
1,1,32,14,0.38380083441734314,0.0987759605050087
1,1,32,15,0.621735155582428,0.09060339629650116
1,1,32,16,0.39999106526374817,0.08666127175092697
1,1,32,17,0.527100682258606,0.11240096390247345
1,1,32,18,0.4488930404186249,0.09187459945678711
1,1,32,19,0.3304518461227417,0.08211178332567215
1,1,32,20,0.5896511673927307,0.0441041961312294
1,1,32,21,0.6152113676071167,0.04673183336853981
1,1,32,22,0.3776092529296875,0.08922291547060013
1,1,32,23,0.5746819376945496,0.07683496177196503
1,1,32,24,0.48037683963775635,0.037704359740018845
1,1,32,25,0.5018508434295654,0.05088045075535774
1,1,32,26,0.636891782283783,0.09368397295475006
1,1,32,27,0.5447494983673096,0.09242028743028641
1,1,32,28,0.4392751455307007,0.13882580399513245
1,1,32,29,0.5370189547538757,0.12111029773950577
1,1,32,30,0.6480915546417236,0.06276585161685944
1,1,32,31,0.6110172867774963,0.10729626566171646
1,2,64,0,0.537213921546936,0.1774418205022812
1,2,64,1,0.4753202199935913,0.06453970074653625
1,2,64,2,0.517120361328125,0.15861386060714722
1,2,64,3,0.4308774173259735,0.12780988216400146
1,2,64,4,0.4975806176662445,0.20532958209514618
1,2,64,5,0.6566320657730103,0.1211029440164566
1,2,64,6,0.2357751429080963,0.07534437626600266
1,2,64,7,0.6476796269416809,0.08893772214651108
1,2,64,8,0.616051197052002,0.10311952978372574
1,2,64,9,0.467238187789917,0.07492649555206299
1,2,64,10,0.5288167595863342,0.07505258172750473
1,2,64,11,0.4266798794269562,0.08190198987722397
1,2,64,12,0.5636666417121887,0.12948483228683472
1,2,64,13,0.5441210865974426,0.13841810822486877
1,2,64,14,0.42032456398010254,0.0829537957906723
1,2,64,15,0.5649617314338684,0.11561593413352966
1,2,64,16,0.5432709455490112,0.2521989345550537
1,2,64,17,0.5443462133407593,0.26295191049575806
1,2,64,18,0.44183093309402466,0.14468690752983093
1,2,64,19,0.34034520387649536,0.07022062689065933
1,2,64,20,0.3547936975955963,0.11672055721282959
1,2,64,21,0.5247904062271118,0.18410974740982056
1,2,64,22,0.6112368106842041,0.10211676359176636
1,2,64,23,0.3980458676815033,0.1511201709508896
1,2,64,24,0.4532332718372345,0.10014523565769196
1,2,64,25,0.5620946884155273,0.12397109717130661
1,2,64,26,0.5308502316474915,0.295512318611145
1,2,64,27,0.385715514421463,0.16883106529712677
1,2,64,28,0.4577815532684326,0.15627416968345642
1,2,64,29,0.4332777261734009,0.1977272480726242
1,2,64,30,0.521998405456543,0.09081295132637024
1,2,64,31,0.5913898348808289,0.14961296319961548
1,2,64,32,0.5641917586326599,0.14884208142757416
1,2,64,33,0.582666277885437,0.15928292274475098
1,2,64,34,0.5570252537727356,0.22198402881622314
1,2,64,35,0.35775959491729736,0.12491296231746674
1,2,64,36,0.5210244655609131,0.16924166679382324
1,2,64,37,0.4949010908603668,0.2539842128753662
1,2,64,38,0.5068852305412292,0.09302691370248795
1,2,64,39,0.6619405150413513,0.10275178402662277
1,2,64,40,0.5181115865707397,0.10943710803985596
1,2,64,41,0.5305516719818115,0.18552933633327484
1,2,64,42,0.7131115198135376,0.08343975991010666
1,2,64,43,0.4225706160068512,0.20669332146644592
1,2,64,44,0.5576391220092773,0.07603173702955246
1,2,64,45,0.736179530620575,0.1348256915807724
1,2,64,46,0.5287889838218689,0.12588337063789368
1,2,64,47,0.5824249982833862,0.14120043814182281
1,2,64,48,0.49804219603538513,0.11716103553771973
1,2,64,49,0.6101859211921692,0.11868973821401596
1,2,64,50,0.6176937222480774,0.08515568822622299
1,2,64,51,0.5059077143669128,0.15244917571544647
1,2,64,52,0.41591349244117737,0.08169008791446686
1,2,64,53,0.5895218849182129,0.08428433537483215
1,2,64,54,0.6331942677497864,0.049940258264541626
1,2,64,55,0.42219942808151245,0.09749486297369003
1,2,64,56,0.5032325387001038,0.1122315376996994
1,2,64,57,0.30569252371788025,0.09905000776052475
1,2,64,58,0.435314804315567,0.10571799427270889
1,2,64,59,0.6668381094932556,0.10031315684318542
1,2,64,60,0.5530874729156494,0.13039888441562653
1,2,64,61,0.43396398425102234,0.16082081198692322
1,2,64,62,0.45832788944244385,0.319783091545105
1,2,64,63,0.4923204481601715,0.10516688972711563
1,3,64,0,0.5025784969329834,0.12396359443664551
1,3,64,1,0.6177409887313843,0.16496305167675018
1,3,64,2,0.6253488659858704,0.06693245470523834
1,3,64,3,0.54465651512146,0.11083574593067169
1,3,64,4,0.5217359662055969,0.1018272340297699
1,3,64,5,0.47456809878349304,0.11617515981197357
1,3,64,6,0.6170697808265686,0.13757969439029694
1,3,64,7,0.5491741895675659,0.17902664840221405
1,3,64,8,0.3988352417945862,0.13285233080387115
1,3,64,9,0.6791792511940002,0.1304740309715271
1,3,64,10,0.531648576259613,0.16388338804244995
1,3,64,11,0.4721713364124298,0.07888046652078629
1,3,64,12,0.43382301926612854,0.06524443626403809
1,3,64,13,0.6611559987068176,0.07320646196603775
1,3,64,14,0.5816943049430847,0.10726495087146759
1,3,64,15,0.4492681920528412,0.10715048015117645
1,3,64,16,0.5438054800033569,0.11173601448535919
1,3,64,17,0.5885252356529236,0.1425957828760147
1,3,64,18,0.6315696239471436,0.06599321961402893
1,3,64,19,0.4033487141132355,0.10022731870412827
1,3,64,20,0.542029082775116,0.07270361483097076
1,3,64,21,0.5061240196228027,0.09476736932992935
1,3,64,22,0.525275468826294,0.05076010897755623
1,3,64,23,0.48962244391441345,0.18390777707099915
1,3,64,24,0.6327881217002869,0.11788886785507202
1,3,64,25,0.49024516344070435,0.14300402998924255
1,3,64,26,0.43328502774238586,0.14333373308181763
1,3,64,27,0.6064011454582214,0.08883976191282272
1,3,64,28,0.5389588475227356,0.15398801863193512
1,3,64,29,0.5427161455154419,0.1101112887263298
1,3,64,30,0.3982175886631012,0.05592862889170647
1,3,64,31,0.5994670987129211,0.09123516827821732
1,3,64,32,0.6069367527961731,0.12879370152950287
1,3,64,33,0.5977609157562256,0.09492018818855286
1,3,64,34,0.4455174505710602,0.04875078797340393
1,3,64,35,0.5517874956130981,0.13288143277168274
1,3,64,36,0.5166875720024109,0.07302345335483551
1,3,64,37,0.4747965931892395,0.16473038494586945
1,3,64,38,0.39141663908958435,0.10503577440977097
1,3,64,39,0.5174893736839294,0.1392931342124939
1,3,64,40,0.5300126671791077,0.1354939192533493
1,3,64,41,0.3862822949886322,0.13630978763103485
1,3,64,42,0.5201430320739746,0.1761784702539444
1,3,64,43,0.5754393935203552,0.2021254003047943
1,3,64,44,0.3872815668582916,0.10588397085666656
1,3,64,45,0.4613800346851349,0.11835111677646637
1,3,64,46,0.5148999691009521,0.08599187433719635
1,3,64,47,0.5763713121414185,0.08298613876104355
1,3,64,48,0.6140614748001099,0.08561874181032181
1,3,64,49,0.44356247782707214,0.04604891687631607
1,3,64,50,0.561762809753418,0.07313159853219986
1,3,64,51,0.5204330086708069,0.1073102056980133
1,3,64,52,0.3562198281288147,0.07830474525690079
1,3,64,53,0.41512778401374817,0.09358056634664536
1,3,64,54,0.3663750886917114,0.09984453022480011
1,3,64,55,0.531032383441925,0.07354245334863663
1,3,64,56,0.39738717675209045,0.07937519997358322
1,3,64,57,0.6010054349899292,0.08943364769220352
1,3,64,58,0.5406650900840759,0.20742517709732056
1,3,64,59,0.31515589356422424,0.09074021130800247
1,3,64,60,0.5683150887489319,0.1080152839422226
1,3,64,61,0.47170570492744446,0.126506507396698
1,3,64,62,0.4522438049316406,0.1646973341703415
1,3,64,63,0.36214450001716614,0.08103001117706299
1,4,128,0,0.4876643419265747,0.10901042073965073
1,4,128,1,0.306453138589859,0.29770949482917786
1,4,128,2,0.701723039150238,0.2463725358247757
1,4,128,3,0.6301699876785278,0.09806042909622192
1,4,128,4,0.4865122437477112,0.1133083775639534
1,4,128,5,0.496127188205719,0.10761087387800217
1,4,128,6,0.7331362366676331,0.12881484627723694
1,4,128,7,0.6948846578598022,0.1876257359981537
1,4,128,8,0.40481895208358765,0.24625681340694427
1,4,128,9,0.41655609011650085,0.06773554533720016
1,4,128,10,0.5017575621604919,0.06348615884780884
1,4,128,11,0.7532870769500732,0.12237697839736938
1,4,128,12,0.3718957304954529,0.2773675322532654
1,4,128,13,0.777108907699585,0.10836680233478546
1,4,128,14,0.6855953335762024,0.2987750470638275
1,4,128,15,0.2967820465564728,0.18715767562389374
1,4,128,16,0.5697388052940369,0.06361153721809387
1,4,128,17,0.6791446208953857,0.21726445853710175
1,4,128,18,0.6387305855751038,0.2664613127708435
1,4,128,19,0.3954211175441742,0.10621515661478043
1,4,128,20,0.5422155261039734,0.1353209912776947
1,4,128,21,0.24932409822940826,0.2050943672657013
1,4,128,22,0.5094234347343445,0.08236952871084213
1,4,128,23,0.6035907864570618,0.10151060670614243
1,4,128,24,0.4305364191532135,0.2784094512462616
1,4,128,25,0.7121752500534058,0.12140688300132751
1,4,128,26,0.5985890030860901,0.12404554337263107
1,4,128,27,0.5265206098556519,0.07048402726650238
1,4,128,28,0.6491637229919434,0.17924249172210693
1,4,128,29,0.6554418802261353,0.23136021196842194
1,4,128,30,0.6888232827186584,0.3337087333202362
1,4,128,31,0.6932379007339478,0.11734750121831894
1,4,128,32,0.4393174350261688,0.3135712742805481
1,4,128,33,0.36059004068374634,0.1863737553358078
1,4,128,34,0.6653079986572266,0.20280148088932037
1,4,128,35,0.6585214734077454,0.2947503626346588
1,4,128,36,0.6776772141456604,0.2742161154747009
1,4,128,37,0.5971935987472534,0.13365887105464935
1,4,128,38,0.5749001502990723,0.09494607895612717
1,4,128,39,0.29470640420913696,0.17116697132587433
1,4,128,40,0.6916583776473999,0.13029268383979797
1,4,128,41,0.4987247586250305,0.2202364057302475
1,4,128,42,0.45421841740608215,0.07622388005256653
1,4,128,43,0.4937083423137665,0.20607537031173706
1,4,128,44,0.4659961760044098,0.213158518075943
1,4,128,45,0.383841872215271,0.30982157588005066
1,4,128,46,0.6089540719985962,0.14165222644805908
1,4,128,47,0.6781994104385376,0.11196794360876083
1,4,128,48,0.6422740817070007,0.16458427906036377
1,4,128,49,0.6669309735298157,0.09106556326150894
1,4,128,50,0.5356715321540833,0.1172565296292305
1,4,128,51,0.668661892414093,0.11934836953878403
1,4,128,52,0.35945621132850647,0.2619156539440155
1,4,128,53,0.6994699835777283,0.16934585571289062
1,4,128,54,0.2345801293849945,0.18178121745586395
1,4,128,55,0.6903164386749268,0.3064119219779968
1,4,128,56,0.3628169000148773,0.140045627951622
1,4,128,57,0.6963403820991516,0.15805992484092712
1,4,128,58,0.43944022059440613,0.24192245304584503
1,4,128,59,0.2443031370639801,0.19827868044376373
1,4,128,60,0.6524636745452881,0.24232742190361023
1,4,128,61,0.4999384880065918,0.23046807944774628
1,4,128,62,0.6496617197990417,0.1068374440073967
1,4,128,63,0.7184333205223083,0.09214170277118683
1,4,128,64,0.7014366388320923,0.252693235874176
1,4,128,65,0.6964808106422424,0.13803020119667053
1,4,128,66,0.2362353354692459,0.10677167773246765
1,4,128,67,0.684782087802887,0.1572340577840805
1,4,128,68,0.4373023509979248,0.07574532926082611
1,4,128,69,0.40582337975502014,0.30185890197753906
1,4,128,70,0.7603834271430969,0.13608819246292114
1,4,128,71,0.32510364055633545,0.19166269898414612
1,4,128,72,0.5046984553337097,0.19686351716518402
1,4,128,73,0.3802650272846222,0.1242799386382103
1,4,128,74,0.6097991466522217,0.17062899470329285
1,4,128,75,0.6865062713623047,0.33442431688308716
1,4,128,76,0.5852836966514587,0.2021888792514801
1,4,128,77,0.541181743144989,0.15712514519691467
1,4,128,78,0.4103626310825348,0.22788019478321075
1,4,128,79,0.721185028553009,0.20701858401298523
1,4,128,80,0.5307644605636597,0.18464021384716034
1,4,128,81,0.725757896900177,0.09167947620153427
1,4,128,82,0.5107294917106628,0.0754106342792511
1,4,128,83,0.7187750339508057,0.24413451552391052
1,4,128,84,0.575752317905426,0.11506239324808121
1,4,128,85,0.7101236581802368,0.22288626432418823
1,4,128,86,0.6940343379974365,0.2065483182668686
1,4,128,87,0.33577245473861694,0.24183477461338043
1,4,128,88,0.7030143141746521,0.2667483389377594
1,4,128,89,0.5528388619422913,0.20151473581790924
1,4,128,90,0.4843398928642273,0.1448514610528946
1,4,128,91,0.44851988554000854,0.08556518703699112
1,4,128,92,0.561165988445282,0.13779129087924957
1,4,128,93,0.5653859376907349,0.22095026075839996
1,4,128,94,0.5325192213058472,0.1806340366601944
1,4,128,95,0.5386236906051636,0.13279318809509277
1,4,128,96,0.6260787844657898,0.15876559913158417
1,4,128,97,0.6556804180145264,0.06410729140043259
1,4,128,98,0.4473489820957184,0.25872695446014404
1,4,128,99,0.6938840746879578,0.16012628376483917
1,4,128,100,0.6964185833930969,0.19938288629055023
1,4,128,101,0.39775121212005615,0.3008579909801483
1,4,128,102,0.6342937350273132,0.07485518604516983
1,4,128,103,0.6659416556358337,0.12921136617660522
1,4,128,104,0.35091090202331543,0.17786957323551178
1,4,128,105,0.7273051142692566,0.14948585629463196
1,4,128,106,0.41550561785697937,0.29864493012428284
1,4,128,107,0.6695166826248169,0.2644657790660858
1,4,128,108,0.6846784949302673,0.21956239640712738
1,4,128,109,0.7393506765365601,0.1776346117258072
1,4,128,110,0.32280996441841125,0.16147156059741974
1,4,128,111,0.3607870638370514,0.28897374868392944
1,4,128,112,0.6847221255302429,0.2145175188779831
1,4,128,113,0.35246631503105164,0.23714523017406464
1,4,128,114,0.7390470504760742,0.22555720806121826
1,4,128,115,0.4961897134780884,0.22580161690711975
1,4,128,116,0.41281455755233765,0.11486712843179703
1,4,128,117,0.31828340888023376,0.08401753008365631
1,4,128,118,0.6117678284645081,0.19572298228740692
1,4,128,119,0.635504424571991,0.29063767194747925
1,4,128,120,0.34470343589782715,0.25180256366729736
1,4,128,121,0.7038703560829163,0.15150132775306702
1,4,128,122,0.6022658348083496,0.12384027242660522
1,4,128,123,0.45118066668510437,0.1512371301651001
1,4,128,124,0.4367789328098297,0.1376100480556488
1,4,128,125,0.40886813402175903,0.1174122765660286
1,4,128,126,0.4868628978729248,0.14537906646728516
1,4,128,127,0.7322618365287781,0.080818310379982
1,5,128,0,0.6480318307876587,0.2186015397310257
1,5,128,1,0.6449059247970581,0.11935264617204666
1,5,128,2,0.7133366465568542,0.14600448310375214
1,5,128,3,0.5369229316711426,0.14339837431907654
1,5,128,4,0.578107476234436,0.14816662669181824
1,5,128,5,0.6196008324623108,0.11849047988653183
1,5,128,6,0.7444507479667664,0.1280161440372467
1,5,128,7,0.6416955590248108,0.19774070382118225
1,5,128,8,0.4290175139904022,0.21000808477401733
1,5,128,9,0.506837785243988,0.1680881828069687
1,5,128,10,0.5606603026390076,0.12933753430843353
1,5,128,11,0.6642167568206787,0.14785757660865784
1,5,128,12,0.4226052165031433,0.07681883126497269
1,5,128,13,0.7357578277587891,0.10309271514415741
1,5,128,14,0.7105429172515869,0.18967455625534058
1,5,128,15,0.7071033716201782,0.1319323182106018
1,5,128,16,0.7173305153846741,0.154059037566185
1,5,128,17,0.5128013491630554,0.03417981043457985
1,5,128,18,0.7293538451194763,0.11462131887674332
1,5,128,19,0.6686419248580933,0.13566119968891144
1,5,128,20,0.4087146818637848,0.07594802230596542
1,5,128,21,0.3058462142944336,0.08882836252450943
1,5,128,22,0.6324089169502258,0.15492194890975952
1,5,128,23,0.5125654339790344,0.07927694916725159
1,5,128,24,0.6286220550537109,0.1281435638666153
1,5,128,25,0.6329091191291809,0.16033031046390533
1,5,128,26,0.7015426754951477,0.10479526221752167
1,5,128,27,0.6052492260932922,0.070529043674469
1,5,128,28,0.6210771799087524,0.08739341795444489
1,5,128,29,0.665404200553894,0.14666850864887238
1,5,128,30,0.7193595767021179,0.123466856777668
1,5,128,31,0.7101038098335266,0.10469305515289307
1,5,128,32,0.7415453195571899,0.15187112987041473
1,5,128,33,0.6703732013702393,0.20706525444984436
1,5,128,34,0.6559849977493286,0.10874201357364655
1,5,128,35,0.6908392906188965,0.11673588305711746
1,5,128,36,0.6103031039237976,0.12711495161056519
1,5,128,37,0.6037586331367493,0.10668045282363892
1,5,128,38,0.40433061122894287,0.10270734131336212
1,5,128,39,0.2966499328613281,0.17901405692100525
1,5,128,40,0.6889313459396362,0.12060673534870148
1,5,128,41,0.6104478240013123,0.03924359753727913
1,5,128,42,0.6382258534431458,0.15792331099510193
1,5,128,43,0.44370731711387634,0.2392846643924713
1,5,128,44,0.4240572154521942,0.09760721027851105
1,5,128,45,0.530296266078949,0.1316332072019577
1,5,128,46,0.6218452453613281,0.05571316182613373
1,5,128,47,0.7409348487854004,0.09716979414224625
1,5,128,48,0.6186788082122803,0.22550269961357117
1,5,128,49,0.6644032001495361,0.0763385146856308
1,5,128,50,0.6303403377532959,0.2546086311340332
1,5,128,51,0.7713517546653748,0.10584850609302521
1,5,128,52,0.6131551265716553,0.11395609378814697
1,5,128,53,0.6094833612442017,0.10259759426116943
1,5,128,54,0.6718279123306274,0.058763716369867325
1,5,128,55,0.6600572466850281,0.07834227383136749
1,5,128,56,0.5126563906669617,0.12914426624774933
1,5,128,57,0.6784363389015198,0.18219362199306488
1,5,128,58,0.460512638092041,0.1610603779554367
1,5,128,59,0.7005339860916138,0.08086586743593216
1,5,128,60,0.7784897089004517,0.11901003867387772
1,5,128,61,0.4839809238910675,0.1033676415681839
1,5,128,62,0.730640172958374,0.09174200147390366
1,5,128,63,0.7783154249191284,0.10060270875692368
1,5,128,64,0.6926673650741577,0.13898205757141113
1,5,128,65,0.6735340356826782,0.159703329205513
1,5,128,66,0.44693922996520996,0.24388957023620605
1,5,128,67,0.7311638593673706,0.1453007310628891
1,5,128,68,0.6349385380744934,0.18626736104488373
1,5,128,69,0.6913051605224609,0.11958517134189606
1,5,128,70,0.7459225654602051,0.12598569691181183
1,5,128,71,0.6435216069221497,0.10576442629098892
1,5,128,72,0.6414003968238831,0.07661783695220947
1,5,128,73,0.4146638810634613,0.07734812051057816
1,5,128,74,0.7204481959342957,0.14563195407390594
1,5,128,75,0.7104440927505493,0.1207982525229454
1,5,128,76,0.5025331377983093,0.155134916305542
1,5,128,77,0.6538661122322083,0.13563323020935059
1,5,128,78,0.42109596729278564,0.05833343043923378
1,5,128,79,0.4643460810184479,0.11225788295269012
1,5,128,80,0.5206030011177063,0.13258320093154907
1,5,128,81,0.6812875270843506,0.17030346393585205
1,5,128,82,0.6124506592750549,0.13769659399986267
1,5,128,83,0.6771999001502991,0.0838407576084137
1,5,128,84,0.36921143531799316,0.1840459406375885
1,5,128,85,0.7503644227981567,0.12576885521411896
1,5,128,86,0.6195566654205322,0.1256759762763977
1,5,128,87,0.3854384124279022,0.19775651395320892
1,5,128,88,0.6461045145988464,0.17073753476142883
1,5,128,89,0.49357959628105164,0.1007780209183693
1,5,128,90,0.4233700931072235,0.16044625639915466
1,5,128,91,0.6189342737197876,0.04991881921887398
1,5,128,92,0.7135308980941772,0.13822084665298462
1,5,128,93,0.7263587117195129,0.1622551828622818
1,5,128,94,0.6085016131401062,0.09661251306533813
1,5,128,95,0.4342922866344452,0.2321208268404007
1,5,128,96,0.664036750793457,0.09603504091501236
1,5,128,97,0.7419010996818542,0.11486440151929855
1,5,128,98,0.6245036125183105,0.16662989556789398
1,5,128,99,0.6570671200752258,0.16936823725700378
1,5,128,100,0.631249189376831,0.17333808541297913
1,5,128,101,0.48397892713546753,0.10370698571205139
1,5,128,102,0.6146196722984314,0.14791713654994965
1,5,128,103,0.4916192889213562,0.11879181861877441
1,5,128,104,0.7827858924865723,0.1058226227760315
1,5,128,105,0.6147177219390869,0.08665069937705994
1,5,128,106,0.5689781904220581,0.058923449367284775
1,5,128,107,0.7166099548339844,0.0947640910744667
1,5,128,108,0.5963214635848999,0.04356420412659645
1,5,128,109,0.6457089781761169,0.20185884833335876
1,5,128,110,0.38504940271377563,0.13613566756248474
1,5,128,111,0.6750310659408569,0.09316559880971909
1,5,128,112,0.617676317691803,0.07844939082860947
1,5,128,113,0.49731773138046265,0.056682053953409195
1,5,128,114,0.5629733204841614,0.07764264196157455
1,5,128,115,0.5796454548835754,0.0973333939909935
1,5,128,116,0.5637000799179077,0.053795505315065384
1,5,128,117,0.42904672026634216,0.08949017524719238
1,5,128,118,0.6678013205528259,0.19143614172935486
1,5,128,119,0.5048908591270447,0.10575512051582336
1,5,128,120,0.7162187099456787,0.0973701924085617
1,5,128,121,0.4087553918361664,0.14742006361484528
1,5,128,122,0.46615391969680786,0.12461137026548386
1,5,128,123,0.48395103216171265,0.06182865798473358
1,5,128,124,0.7389436364173889,0.15174716711044312
1,5,128,125,0.6641851663589478,0.20219923555850983
1,5,128,126,0.47656723856925964,0.11411010473966599
1,5,128,127,0.7304354906082153,0.17087310552597046
2,0,32,0,0.4959851801395416,0.09807097166776657
2,0,32,1,0.48736080527305603,0.11539322137832642
2,0,32,2,0.6504377722740173,0.10353241860866547
2,0,32,3,0.4493698179721832,0.10132189840078354
2,0,32,4,0.428842157125473,0.057719308882951736
2,0,32,5,0.42097634077072144,0.12447347491979599
2,0,32,6,0.3891313970088959,0.04781142622232437
2,0,32,7,0.5642866492271423,0.1562477946281433
2,0,32,8,0.5453290343284607,0.10719608515501022
2,0,32,9,0.3637908399105072,0.10726748406887054
2,0,32,10,0.4185389578342438,0.12474837154150009
2,0,32,11,0.6480797529220581,0.06316854059696198
2,0,32,12,0.5812771916389465,0.07748734205961227
2,0,32,13,0.6423194408416748,0.05420251935720444
2,0,32,14,0.5121108889579773,0.12629733979701996
2,0,32,15,0.4781644344329834,0.09234930574893951
2,0,32,16,0.4237830638885498,0.10417895764112473
2,0,32,17,0.6085320115089417,0.1135769709944725
2,0,32,18,0.6545551419258118,0.05877172574400902
2,0,32,19,0.42299139499664307,0.1295936405658722
2,0,32,20,0.5415100455284119,0.14397232234477997
2,0,32,21,0.6518243551254272,0.0975923165678978
2,0,32,22,0.5508701801300049,0.11870124191045761
2,0,32,23,0.4583609700202942,0.0672682672739029
2,0,32,24,0.6351375579833984,0.07311690598726273
2,0,32,25,0.4946383535861969,0.07921962440013885
2,0,32,26,0.5279554128646851,0.09435712546110153
2,0,32,27,0.49405330419540405,0.1384827345609665
2,0,32,28,0.4551635980606079,0.08142458647489548
2,0,32,29,0.44602784514427185,0.06581045687198639
2,0,32,30,0.42632102966308594,0.0965527668595314
2,0,32,31,0.5380074977874756,0.1663433462381363
2,1,32,0,0.4814966917037964,0.11454641819000244
2,1,32,1,0.5575496554374695,0.08692292124032974
2,1,32,2,0.5402100086212158,0.14171689748764038
2,1,32,3,0.6797375679016113,0.05760860815644264
2,1,32,4,0.582730770111084,0.08250533789396286
2,1,32,5,0.5490795373916626,0.09570285677909851
2,1,32,6,0.43307143449783325,0.08519861847162247
2,1,32,7,0.4094702899456024,0.04523855075240135
2,1,32,8,0.5371407270431519,0.11348514258861542
2,1,32,9,0.3722371757030487,0.09510068595409393
2,1,32,10,0.6022526025772095,0.1350180208683014
2,1,32,11,0.3741838335990906,0.08324211835861206
2,1,32,12,0.5193334817886353,0.12586170434951782
2,1,32,13,0.3628695607185364,0.12001936882734299
2,1,32,14,0.5857493281364441,0.09458429366350174
2,1,32,15,0.5863711833953857,0.11258742213249207
2,1,32,16,0.5371941924095154,0.10157371312379837
2,1,32,17,0.5305466651916504,0.05893398076295853
2,1,32,18,0.4963148832321167,0.0811721459031105
2,1,32,19,0.530015230178833,0.07668137550354004
2,1,32,20,0.5994284749031067,0.11807937920093536
2,1,32,21,0.2775927484035492,0.08745723217725754
2,1,32,22,0.553310215473175,0.16964906454086304
2,1,32,23,0.6161251068115234,0.0908750370144844
2,1,32,24,0.5070943832397461,0.029090607538819313
2,1,32,25,0.48906123638153076,0.10745076090097427
2,1,32,26,0.4396466314792633,0.14300860464572906
2,1,32,27,0.31404706835746765,0.10177254676818848
2,1,32,28,0.49652522802352905,0.12228482216596603
2,1,32,29,0.39848729968070984,0.13650794327259064
2,1,32,30,0.5886898040771484,0.09459438920021057
2,1,32,31,0.45544248819351196,0.10673514753580093
2,2,64,0,0.5480142831802368,0.04154523089528084
2,2,64,1,0.5929685831069946,0.18647071719169617
2,2,64,2,0.5095683336257935,0.08033646643161774
2,2,64,3,0.5135932564735413,0.07309781759977341
2,2,64,4,0.3686691224575043,0.10633442550897598
2,2,64,5,0.4666039049625397,0.14002695679664612
2,2,64,6,0.670799732208252,0.08933805674314499
2,2,64,7,0.6655083894729614,0.10004349052906036
2,2,64,8,0.5945568084716797,0.0885450467467308
2,2,64,9,0.5406745672225952,0.10326766967773438
2,2,64,10,0.6311442852020264,0.04322288930416107
2,2,64,11,0.5343565940856934,0.125357523560524
2,2,64,12,0.5064858198165894,0.1627519726753235
2,2,64,13,0.3864794671535492,0.09816646575927734
2,2,64,14,0.4573538601398468,0.13993148505687714
2,2,64,15,0.48706313967704773,0.11392450332641602
2,2,64,16,0.32560843229293823,0.13730713725090027
2,2,64,17,0.6593876481056213,0.06997392326593399
2,2,64,18,0.6174125075340271,0.074299156665802
2,2,64,19,0.48008260130882263,0.10944253951311111
2,2,64,20,0.5611431002616882,0.0526103638112545
2,2,64,21,0.5197466611862183,0.052621353417634964
2,2,64,22,0.5675467848777771,0.09403234720230103
2,2,64,23,0.4075204133987427,0.0859554335474968
2,2,64,24,0.5457072854042053,0.07887472212314606
2,2,64,25,0.4278569221496582,0.033090680837631226
2,2,64,26,0.4671561121940613,0.13404178619384766
2,2,64,27,0.40972164273262024,0.08632345497608185
2,2,64,28,0.3946070671081543,0.11395370960235596
2,2,64,29,0.3483027219772339,0.08783601224422455
2,2,64,30,0.5640350580215454,0.11756016314029694
2,2,64,31,0.5011847019195557,0.1270638108253479
2,2,64,32,0.4048139452934265,0.08908937126398087
2,2,64,33,0.6961844563484192,0.12501639127731323
2,2,64,34,0.6198928356170654,0.10481130331754684
2,2,64,35,0.4865550696849823,0.08664160221815109
2,2,64,36,0.38346198201179504,0.125596284866333
2,2,64,37,0.46019282937049866,0.06616631895303726
2,2,64,38,0.7016797065734863,0.14402076601982117
2,2,64,39,0.41010504961013794,0.12573614716529846
2,2,64,40,0.5610438585281372,0.023511936888098717
2,2,64,41,0.48557326197624207,0.06803078204393387
2,2,64,42,0.4485134482383728,0.024189181625843048
2,2,64,43,0.5254364013671875,0.08149878680706024
2,2,64,44,0.5882186889648438,0.21512511372566223
2,2,64,45,0.4761584997177124,0.041578877717256546
2,2,64,46,0.5310337543487549,0.13322491943836212
2,2,64,47,0.6816663146018982,0.14238621294498444
2,2,64,48,0.5480256080627441,0.1620870679616928
2,2,64,49,0.5374851226806641,0.10076892375946045
2,2,64,50,0.5179142951965332,0.09935291111469269
2,2,64,51,0.4008941948413849,0.10914065688848495
2,2,64,52,0.4101085662841797,0.14272795617580414
2,2,64,53,0.4752935767173767,0.11394103616476059
2,2,64,54,0.5843515396118164,0.05174769461154938
2,2,64,55,0.5430101752281189,0.07645902782678604
2,2,64,56,0.5780789256095886,0.1618170291185379
2,2,64,57,0.6261652112007141,0.15794001519680023
2,2,64,58,0.48361045122146606,0.06078990921378136
2,2,64,59,0.6477373242378235,0.09656395763158798
2,2,64,60,0.41194820404052734,0.18855972588062286
2,2,64,61,0.5760447382926941,0.15172170102596283
2,2,64,62,0.5669907331466675,0.08718795329332352
2,2,64,63,0.6178690791130066,0.1457582712173462
2,3,64,0,0.44501590728759766,0.10711544007062912
2,3,64,1,0.3955235183238983,0.06855666637420654
2,3,64,2,0.4466911554336548,0.0954928770661354
2,3,64,3,0.5673427581787109,0.03516264259815216
2,3,64,4,0.4185880720615387,0.06060376390814781
2,3,64,5,0.5456028580665588,0.1624198853969574
2,3,64,6,0.5133599638938904,0.1476304978132248
2,3,64,7,0.5230222940444946,0.07280772924423218
2,3,64,8,0.4576664865016937,0.2106059193611145
2,3,64,9,0.26078131794929504,0.08726949244737625
2,3,64,10,0.5696259140968323,0.1541435271501541
2,3,64,11,0.4187887907028198,0.09966165572404861
2,3,64,12,0.5015909075737,0.20847973227500916
2,3,64,13,0.43053141236305237,0.05367041379213333
2,3,64,14,0.6176929473876953,0.12267538160085678
2,3,64,15,0.5181945562362671,0.14978472888469696
2,3,64,16,0.48441967368125916,0.12870410084724426
2,3,64,17,0.48319095373153687,0.07173292338848114
2,3,64,18,0.4218024015426636,0.15678952634334564
2,3,64,19,0.4043433964252472,0.1023983359336853
2,3,64,20,0.45884546637535095,0.07701226323843002
2,3,64,21,0.45039427280426025,0.08344276249408722
2,3,64,22,0.4869937002658844,0.09802397340536118
2,3,64,23,0.4569912254810333,0.1696714609861374
2,3,64,24,0.5144545435905457,0.12728244066238403
2,3,64,25,0.5066550374031067,0.13790667057037354
2,3,64,26,0.48895061016082764,0.10981392860412598
2,3,64,27,0.5575478076934814,0.05325458571314812
2,3,64,28,0.5830914378166199,0.09048313647508621
2,3,64,29,0.43960878252983093,0.16436773538589478
2,3,64,30,0.4571351408958435,0.13091911375522614
2,3,64,31,0.43753528594970703,0.11150404810905457
2,3,64,32,0.41880595684051514,0.08112413436174393
2,3,64,33,0.5499297380447388,0.10446012020111084
2,3,64,34,0.4349999725818634,0.10032223910093307
2,3,64,35,0.5987293720245361,0.09327849000692368
2,3,64,36,0.5709602236747742,0.1154259517788887
2,3,64,37,0.5464645028114319,0.17799979448318481
2,3,64,38,0.6449321508407593,0.05770302191376686
2,3,64,39,0.5387383103370667,0.19720473885536194
2,3,64,40,0.493812620639801,0.06761624664068222
2,3,64,41,0.4620857238769531,0.18079963326454163
2,3,64,42,0.35607680678367615,0.1821693331003189
2,3,64,43,0.47244924306869507,0.04275404289364815
2,3,64,44,0.4762563705444336,0.22918497025966644
2,3,64,45,0.43283623456954956,0.12850065529346466
2,3,64,46,0.5102643370628357,0.18045680224895477
2,3,64,47,0.4029031991958618,0.09241631627082825
2,3,64,48,0.608463704586029,0.16199734807014465
2,3,64,49,0.488768994808197,0.13864566385746002
2,3,64,50,0.47459208965301514,0.08989114314317703
2,3,64,51,0.6190395355224609,0.10797606408596039
2,3,64,52,0.4467075765132904,0.1588745415210724
2,3,64,53,0.6320077180862427,0.1434778869152069
2,3,64,54,0.4977666437625885,0.07606277614831924
2,3,64,55,0.4863679111003876,0.12562015652656555
2,3,64,56,0.4087672829627991,0.2173222303390503
2,3,64,57,0.4661523401737213,0.2114553153514862
2,3,64,58,0.5106911063194275,0.11230622977018356
2,3,64,59,0.4585243761539459,0.07608050107955933
2,3,64,60,0.5981525182723999,0.05864066258072853
2,3,64,61,0.5215087532997131,0.1416425108909607
2,3,64,62,0.5253456234931946,0.12520666420459747
2,3,64,63,0.38819581270217896,0.11910352110862732
2,4,128,0,0.5794391632080078,0.39674410223960876
2,4,128,1,0.5600275993347168,0.188357874751091
2,4,128,2,0.4264362156391144,0.3804744780063629
2,4,128,3,0.6536346673965454,0.12253562361001968
2,4,128,4,0.6938895583152771,0.09368835389614105
2,4,128,5,0.6913803815841675,0.19382598996162415
2,4,128,6,0.5827236175537109,0.14095288515090942
2,4,128,7,0.49102264642715454,0.29090437293052673
2,4,128,8,0.24801518023014069,0.1787848323583603
2,4,128,9,0.5215979218482971,0.16098201274871826
2,4,128,10,0.4722875952720642,0.349774569272995
2,4,128,11,0.6975110173225403,0.0976272001862526
2,4,128,12,0.7684491276741028,0.11004991084337234
2,4,128,13,0.7211269736289978,0.23648487031459808
2,4,128,14,0.5742992162704468,0.3169867992401123
2,4,128,15,0.6309446096420288,0.10032892972230911
2,4,128,16,0.6965351104736328,0.06125400587916374
2,4,128,17,0.7369397282600403,0.2064642608165741
2,4,128,18,0.7219381928443909,0.0799194723367691
2,4,128,19,0.4024796187877655,0.26698607206344604
2,4,128,20,0.7979714274406433,0.09881193935871124
2,4,128,21,0.7566510438919067,0.1606685072183609
2,4,128,22,0.24520409107208252,0.224534809589386
2,4,128,23,0.6447408199310303,0.2661687731742859
2,4,128,24,0.371024489402771,0.19567766785621643
2,4,128,25,0.3085934519767761,0.1325942575931549
2,4,128,26,0.7588782906532288,0.09724841266870499
2,4,128,27,0.3195846676826477,0.16604702174663544
2,4,128,28,0.621467113494873,0.22951163351535797
2,4,128,29,0.7659636735916138,0.1568681001663208
2,4,128,30,0.5986444354057312,0.09145309776067734
2,4,128,31,0.7480490803718567,0.08990970999002457
2,4,128,32,0.7300455570220947,0.1489534229040146
2,4,128,33,0.5958892107009888,0.3725525140762329
2,4,128,34,0.6292479038238525,0.3312802314758301
2,4,128,35,0.672393798828125,0.19821608066558838
2,4,128,36,0.6899533271789551,0.24629740417003632
2,4,128,37,0.4879418909549713,0.1501627415418625
2,4,128,38,0.5139185786247253,0.23577235639095306
2,4,128,39,0.5189401507377625,0.06311332434415817
2,4,128,40,0.43053722381591797,0.37644994258880615
2,4,128,41,0.5542733669281006,0.14884407818317413
2,4,128,42,0.6766899228096008,0.17826630175113678
2,4,128,43,0.5180671215057373,0.06461569666862488
2,4,128,44,0.7296398282051086,0.11335499584674835
2,4,128,45,0.63075190782547,0.17673331499099731
2,4,128,46,0.5933694243431091,0.35375216603279114
2,4,128,47,0.5251433849334717,0.047809284180402756
2,4,128,48,0.5944342613220215,0.34370535612106323
2,4,128,49,0.6847069263458252,0.07831007242202759
2,4,128,50,0.4565310776233673,0.34581810235977173
2,4,128,51,0.45706599950790405,0.32241708040237427
2,4,128,52,0.3591631054878235,0.33446672558784485
2,4,128,53,0.6037190556526184,0.18336538970470428
2,4,128,54,0.7000246047973633,0.13286800682544708
2,4,128,55,0.708299458026886,0.26107293367385864
2,4,128,56,0.6986901760101318,0.1419321596622467
2,4,128,57,0.2207653969526291,0.09371449798345566
2,4,128,58,0.5100566744804382,0.23753494024276733
2,4,128,59,0.6430991291999817,0.1694190502166748
2,4,128,60,0.6333102583885193,0.1026252955198288
2,4,128,61,0.6712962985038757,0.2764768898487091
2,4,128,62,0.7796666026115417,0.11430449783802032
2,4,128,63,0.4518031179904938,0.3281034529209137
2,4,128,64,0.4941559433937073,0.14910125732421875
2,4,128,65,0.7438896894454956,0.0925808921456337
2,4,128,66,0.2417392134666443,0.11856335401535034
2,4,128,67,0.3199481666088104,0.12791946530342102
2,4,128,68,0.6091486811637878,0.3958422839641571
2,4,128,69,0.4398781359195709,0.26448121666908264
2,4,128,70,0.6296016573905945,0.3640735149383545
2,4,128,71,0.5397422909736633,0.13821977376937866
2,4,128,72,0.7588759660720825,0.0750269666314125
2,4,128,73,0.41292011737823486,0.26869672536849976
2,4,128,74,0.6751146912574768,0.1875053346157074
2,4,128,75,0.8515017628669739,0.12438517808914185
2,4,128,76,0.6366066336631775,0.22723166644573212
2,4,128,77,0.5573875308036804,0.3205508589744568
2,4,128,78,0.6507282257080078,0.2892090976238251
2,4,128,79,0.6667205691337585,0.28515133261680603
2,4,128,80,0.5034032464027405,0.2592475414276123
2,4,128,81,0.5372905731201172,0.2153109312057495
2,4,128,82,0.4401931166648865,0.35285958647727966
2,4,128,83,0.7090449333190918,0.07617805153131485
2,4,128,84,0.7427110075950623,0.14938291907310486
2,4,128,85,0.40786615014076233,0.3560720384120941
2,4,128,86,0.6194471120834351,0.34883439540863037
2,4,128,87,0.2705034911632538,0.1161663830280304
2,4,128,88,0.7205665111541748,0.12371835112571716
2,4,128,89,0.8066707849502563,0.1905050426721573
2,4,128,90,0.6929406523704529,0.2312178760766983
2,4,128,91,0.5550736784934998,0.23325283825397491
2,4,128,92,0.7983946800231934,0.08370140939950943
2,4,128,93,0.5656688809394836,0.2217644453048706
2,4,128,94,0.41060715913772583,0.27589404582977295
2,4,128,95,0.45669811964035034,0.13714629411697388
2,4,128,96,0.46123701333999634,0.1351354867219925
2,4,128,97,0.5971449017524719,0.3654911518096924
2,4,128,98,0.6856465339660645,0.22988922894001007
2,4,128,99,0.5494292378425598,0.13093841075897217
2,4,128,100,0.6377748250961304,0.22648179531097412
2,4,128,101,0.4197741448879242,0.315806120634079
2,4,128,102,0.571171224117279,0.18172553181648254
2,4,128,103,0.8113414645195007,0.13436394929885864
2,4,128,104,0.4971421957015991,0.19200104475021362
2,4,128,105,0.41578397154808044,0.08425436168909073
2,4,128,106,0.4246719479560852,0.07272139191627502
2,4,128,107,0.3754323720932007,0.2009892612695694
2,4,128,108,0.6788964867591858,0.31268537044525146
2,4,128,109,0.2734210789203644,0.1883113533258438
2,4,128,110,0.5646698474884033,0.1849118322134018
2,4,128,111,0.6041620969772339,0.22771650552749634
2,4,128,112,0.7088510394096375,0.14753243327140808
2,4,128,113,0.6091163158416748,0.36886733770370483
2,4,128,114,0.5535567998886108,0.32257649302482605
2,4,128,115,0.6393277645111084,0.07202982902526855
2,4,128,116,0.6284664869308472,0.3950354754924774
2,4,128,117,0.559516429901123,0.05530455335974693
2,4,128,118,0.6133555173873901,0.34057098627090454
2,4,128,119,0.4956058859825134,0.14947080612182617
2,4,128,120,0.627920925617218,0.13046029210090637
2,4,128,121,0.6787839531898499,0.19208447635173798
2,4,128,122,0.6298738718032837,0.27281802892684937
2,4,128,123,0.45369774103164673,0.20554977655410767
2,4,128,124,0.3504621982574463,0.17014247179031372
2,4,128,125,0.6383790373802185,0.28727293014526367
2,4,128,126,0.6981653571128845,0.23013952374458313
2,4,128,127,0.6635503172874451,0.28317081928253174
2,5,128,0,0.6762659549713135,0.23830750584602356
2,5,128,1,0.7179635167121887,0.21568547189235687
2,5,128,2,0.8038244843482971,0.06559368222951889
2,5,128,3,0.6578169465065002,0.06832104176282883
2,5,128,4,0.7350509762763977,0.07368379831314087
2,5,128,5,0.7849657535552979,0.1436745524406433
2,5,128,6,0.6520412564277649,0.1136227548122406
2,5,128,7,0.36900046467781067,0.2655946910381317
2,5,128,8,0.7348566651344299,0.14432567358016968
2,5,128,9,0.36914893984794617,0.2825999855995178
2,5,128,10,0.764652669429779,0.07562850415706635
2,5,128,11,0.5470381379127502,0.18728287518024445
2,5,128,12,0.8599583506584167,0.07834532111883163
2,5,128,13,0.8091089129447937,0.11288197338581085
2,5,128,14,0.6648367047309875,0.2820005714893341
2,5,128,15,0.7310119867324829,0.18055300414562225
2,5,128,16,0.3554989695549011,0.2636551558971405
2,5,128,17,0.6055423617362976,0.28711986541748047
2,5,128,18,0.7390233874320984,0.1943429410457611
2,5,128,19,0.6200630068778992,0.0706031396985054
2,5,128,20,0.4364866614341736,0.08194237947463989
2,5,128,21,0.49261772632598877,0.2831789553165436
2,5,128,22,0.39707517623901367,0.2780522108078003
2,5,128,23,0.6618989109992981,0.19929859042167664
2,5,128,24,0.4911317229270935,0.10620938241481781
2,5,128,25,0.4037809669971466,0.21446174383163452
2,5,128,26,0.45646795630455017,0.24430948495864868
2,5,128,27,0.6321008801460266,0.12013325095176697
2,5,128,28,0.6691797971725464,0.08714387565851212
2,5,128,29,0.4129502475261688,0.3135523200035095
2,5,128,30,0.8378869295120239,0.12340967357158661
2,5,128,31,0.7680063247680664,0.12483471632003784
2,5,128,32,0.432626336812973,0.3027189075946808
2,5,128,33,0.7713350057601929,0.13855662941932678
2,5,128,34,0.7495957612991333,0.27660226821899414
2,5,128,35,0.42017704248428345,0.18807271122932434
2,5,128,36,0.44749534130096436,0.17576664686203003
2,5,128,37,0.43276768922805786,0.23805950582027435
2,5,128,38,0.6977091431617737,0.26784592866897583
2,5,128,39,0.781755805015564,0.10115253180265427
2,5,128,40,0.7796666026115417,0.20414608716964722
2,5,128,41,0.48747768998146057,0.07596401870250702
2,5,128,42,0.31185099482536316,0.2631858289241791
2,5,128,43,0.798904299736023,0.06609169393777847
2,5,128,44,0.7933404445648193,0.0834086462855339
2,5,128,45,0.7290197014808655,0.2456500232219696
2,5,128,46,0.7991897463798523,0.09178632497787476
2,5,128,47,0.7285173535346985,0.17282697558403015
2,5,128,48,0.6590908765792847,0.27355822920799255
2,5,128,49,0.8034986257553101,0.08192705363035202
2,5,128,50,0.7636726498603821,0.07625392824411392
2,5,128,51,0.5200833082199097,0.184335857629776
2,5,128,52,0.5909627676010132,0.10626789927482605
2,5,128,53,0.7065878510475159,0.1707739382982254
2,5,128,54,0.6715869903564453,0.26251035928726196
2,5,128,55,0.4597662091255188,0.09733985364437103
2,5,128,56,0.7524596452713013,0.17974752187728882
2,5,128,57,0.5455579161643982,0.05701189860701561
2,5,128,58,0.710851788520813,0.25388625264167786
2,5,128,59,0.7717307209968567,0.08821620792150497
2,5,128,60,0.7922036647796631,0.20480695366859436
2,5,128,61,0.6675875186920166,0.2732274532318115
2,5,128,62,0.827775239944458,0.08906597644090652
2,5,128,63,0.6981423497200012,0.10658370703458786
2,5,128,64,0.8217817544937134,0.12448162585496902
2,5,128,65,0.6533061861991882,0.12616467475891113
2,5,128,66,0.646957516670227,0.13308458030223846
2,5,128,67,0.3628765940666199,0.3030525743961334
2,5,128,68,0.3658946752548218,0.2719566524028778
2,5,128,69,0.7546643614768982,0.1064118891954422
2,5,128,70,0.8123127222061157,0.1438588798046112
2,5,128,71,0.6728773713111877,0.11061149090528488
2,5,128,72,0.7946520447731018,0.08065032958984375
2,5,128,73,0.3790615200996399,0.14145474135875702
2,5,128,74,0.38461363315582275,0.3165304958820343
2,5,128,75,0.7542412281036377,0.18438738584518433
2,5,128,76,0.7728665471076965,0.15140469372272491
2,5,128,77,0.6327072381973267,0.07405565679073334
2,5,128,78,0.6664581894874573,0.29788458347320557
2,5,128,79,0.6831566095352173,0.25912243127822876
2,5,128,80,0.6486802101135254,0.2875013053417206
2,5,128,81,0.577089250087738,0.21237801015377045
2,5,128,82,0.5529783964157104,0.23641543090343475
2,5,128,83,0.495250940322876,0.1835963875055313
2,5,128,84,0.8491765260696411,0.07740101963281631
2,5,128,85,0.5586709380149841,0.18443837761878967
2,5,128,86,0.7961406707763672,0.205501526594162
2,5,128,87,0.42043203115463257,0.16990402340888977
2,5,128,88,0.7009443640708923,0.26084402203559875
2,5,128,89,0.7852711081504822,0.12435848265886307
2,5,128,90,0.34360507130622864,0.242029070854187
2,5,128,91,0.8351008892059326,0.13485585153102875
2,5,128,92,0.8393023610115051,0.09798627346754074
2,5,128,93,0.7683808207511902,0.19290588796138763
2,5,128,94,0.6434157490730286,0.11044974625110626
2,5,128,95,0.7149311900138855,0.2755078375339508
2,5,128,96,0.6957513093948364,0.23192515969276428
2,5,128,97,0.602540910243988,0.2097792774438858
2,5,128,98,0.4489194452762604,0.09275183826684952
2,5,128,99,0.7422112822532654,0.10772710293531418
2,5,128,100,0.6535009741783142,0.2528305649757385
2,5,128,101,0.8446816205978394,0.12176737934350967
2,5,128,102,0.6794150471687317,0.1458321064710617
2,5,128,103,0.5409469604492188,0.2789549231529236
2,5,128,104,0.3941408097743988,0.1666071116924286
2,5,128,105,0.7307106256484985,0.08725838363170624
2,5,128,106,0.5551046133041382,0.11701273918151855
2,5,128,107,0.6301822066307068,0.29462361335754395
2,5,128,108,0.7346405386924744,0.2794492244720459
2,5,128,109,0.706265389919281,0.0869707241654396
2,5,128,110,0.8410749435424805,0.1523999124765396
2,5,128,111,0.7287938594818115,0.22232680022716522
2,5,128,112,0.7546416521072388,0.2333214282989502
2,5,128,113,0.7297307252883911,0.1922447830438614
2,5,128,114,0.3782283365726471,0.23914828896522522
2,5,128,115,0.40593698620796204,0.24974578619003296
2,5,128,116,0.8542991280555725,0.12530340254306793
2,5,128,117,0.7231811285018921,0.2616630792617798
2,5,128,118,0.23644962906837463,0.12074671685695648
2,5,128,119,0.7324374318122864,0.12663881480693817
2,5,128,120,0.6309992671012878,0.3382710814476013
2,5,128,121,0.6698726415634155,0.2880207300186157
2,5,128,122,0.8342041373252869,0.13355420529842377
2,5,128,123,0.8044325113296509,0.15897272527217865
2,5,128,124,0.7548621296882629,0.09184732288122177
2,5,128,125,0.7339801788330078,0.11068412661552429
2,5,128,126,0.6627683639526367,0.29221925139427185
2,5,128,127,0.47361403703689575,0.24954727292060852
3,0,32,0,0.5549716353416443,0.2046918421983719
3,0,32,1,0.447356253862381,0.06403256207704544
3,0,32,2,0.42884117364883423,0.21179857850074768
3,0,32,3,0.39459022879600525,0.0908065065741539
3,0,32,4,0.534504234790802,0.1509455442428589
3,0,32,5,0.5657133460044861,0.15757383406162262
3,0,32,6,0.4314073622226715,0.16241121292114258
3,0,32,7,0.3714917004108429,0.1020396277308464
3,0,32,8,0.6806406378746033,0.08234860748052597
3,0,32,9,0.6182485222816467,0.022950567305088043
3,0,32,10,0.6301483511924744,0.049087539315223694
3,0,32,11,0.4094786047935486,0.1777200549840927
3,0,32,12,0.46727314591407776,0.1735350638628006
3,0,32,13,0.45839667320251465,0.14158298075199127
3,0,32,14,0.4194346070289612,0.15527606010437012
3,0,32,15,0.6663332581520081,0.08017069846391678
3,0,32,16,0.5703396201133728,0.09177523851394653
3,0,32,17,0.5537304878234863,0.1539248377084732
3,0,32,18,0.4618712067604065,0.03214831277728081
3,0,32,19,0.6329266428947449,0.1100844293832779
3,0,32,20,0.47205379605293274,0.05023932829499245
3,0,32,21,0.4456324577331543,0.1300109624862671
3,0,32,22,0.44457006454467773,0.10944532603025436
3,0,32,23,0.6206145286560059,0.08140507340431213
3,0,32,24,0.4759921133518219,0.1580282747745514
3,0,32,25,0.3493366837501526,0.12078532576560974
3,0,32,26,0.41050124168395996,0.13239413499832153
3,0,32,27,0.42661210894584656,0.09213108569383621
3,0,32,28,0.4397616386413574,0.2115430384874344
3,0,32,29,0.39961686730384827,0.056932318955659866
3,0,32,30,0.32814133167266846,0.04777397960424423
3,0,32,31,0.38445085287094116,0.06636099517345428
3,1,32,0,0.6893689036369324,0.07554440945386887
3,1,32,1,0.4584895670413971,0.06781940907239914
3,1,32,2,0.47606369853019714,0.124735027551651
3,1,32,3,0.4011533856391907,0.12314663827419281
3,1,32,4,0.38663798570632935,0.06303812563419342
3,1,32,5,0.3729846477508545,0.09319382905960083
3,1,32,6,0.5016864538192749,0.17234595119953156
3,1,32,7,0.6082414388656616,0.10542363673448563
3,1,32,8,0.4032309055328369,0.18000151216983795
3,1,32,9,0.39670559763908386,0.16272063553333282
3,1,32,10,0.505243718624115,0.1328074038028717
3,1,32,11,0.6019109487533569,0.09196685999631882
3,1,32,12,0.5255507230758667,0.07523930817842484
3,1,32,13,0.5877735614776611,0.1010059118270874
3,1,32,14,0.5072968006134033,0.09866442531347275
3,1,32,15,0.37496495246887207,0.1486995816230774
3,1,32,16,0.5660488605499268,0.0792701467871666
3,1,32,17,0.5747302174568176,0.11790274828672409
3,1,32,18,0.3737736940383911,0.08397893607616425
3,1,32,19,0.46819359064102173,0.2107677459716797
3,1,32,20,0.5695524215698242,0.07030799984931946
3,1,32,21,0.5590327978134155,0.06622753292322159
3,1,32,22,0.5719770193099976,0.04733151197433472
3,1,32,23,0.47234445810317993,0.15954965353012085
3,1,32,24,0.38993024826049805,0.11689010262489319
3,1,32,25,0.3592785894870758,0.09734511375427246
3,1,32,26,0.31606632471084595,0.0868091806769371
3,1,32,27,0.6417406797409058,0.06645906716585159
3,1,32,28,0.34977418184280396,0.06298775970935822
3,1,32,29,0.5893706679344177,0.05758228898048401
3,1,32,30,0.6367647647857666,0.09276281297206879
3,1,32,31,0.5146137475967407,0.18740074336528778
3,2,64,0,0.6277610659599304,0.12675060331821442
3,2,64,1,0.2766319215297699,0.1300513744354248
3,2,64,2,0.49541229009628296,0.32161399722099304
3,2,64,3,0.548359751701355,0.059703558683395386
3,2,64,4,0.45796629786491394,0.15486489236354828
3,2,64,5,0.6676458120346069,0.14653627574443817
3,2,64,6,0.6986426711082458,0.17425785958766937
3,2,64,7,0.5724027156829834,0.07700139284133911
3,2,64,8,0.5668280720710754,0.23551243543624878
3,2,64,9,0.5521491765975952,0.25880101323127747
3,2,64,10,0.6603705883026123,0.08387494832277298
3,2,64,11,0.3716616928577423,0.08677876740694046
3,2,64,12,0.4859810769557953,0.24646782875061035
3,2,64,13,0.5351898074150085,0.2280144840478897
3,2,64,14,0.3784777820110321,0.19859586656093597
3,2,64,15,0.5204487442970276,0.13266323506832123
3,2,64,16,0.617638349533081,0.14653420448303223
3,2,64,17,0.38788190484046936,0.17817124724388123
3,2,64,18,0.4679136872291565,0.3167880177497864
3,2,64,19,0.5056691765785217,0.06312955170869827
3,2,64,20,0.7339594960212708,0.14779220521450043
3,2,64,21,0.4444096088409424,0.14232343435287476
3,2,64,22,0.44484755396842957,0.1330501139163971
3,2,64,23,0.497283011674881,0.2802520990371704
3,2,64,24,0.4873300790786743,0.2560809552669525
3,2,64,25,0.48749226331710815,0.2213360071182251
3,2,64,26,0.3657877743244171,0.16603800654411316
3,2,64,27,0.29835397005081177,0.10798339545726776
3,2,64,28,0.540784478187561,0.102151058614254
3,2,64,29,0.6493468880653381,0.057494595646858215
3,2,64,30,0.2736830413341522,0.115683913230896
3,2,64,31,0.5576746463775635,0.08482442796230316
3,2,64,32,0.6724048256874084,0.13066630065441132
3,2,64,33,0.6042161583900452,0.07921846956014633
3,2,64,34,0.4013565182685852,0.16767948865890503
3,2,64,35,0.4792862832546234,0.16408462822437286
3,2,64,36,0.5285631418228149,0.05935521796345711
3,2,64,37,0.5160490870475769,0.2669375240802765
3,2,64,38,0.4776706397533417,0.213034525513649
3,2,64,39,0.5604174733161926,0.18367956578731537
3,2,64,40,0.43231236934661865,0.16118116676807404
3,2,64,41,0.47633644938468933,0.13972730934619904
3,2,64,42,0.7049416899681091,0.1116815060377121
3,2,64,43,0.4261040985584259,0.26921573281288147
3,2,64,44,0.35581836104393005,0.10056786984205246
3,2,64,45,0.6088644862174988,0.2428388148546219
3,2,64,46,0.5354500412940979,0.26271331310272217
3,2,64,47,0.5404025912284851,0.19143430888652802
3,2,64,48,0.555345892906189,0.19046327471733093
3,2,64,49,0.42743006348609924,0.22742798924446106
3,2,64,50,0.3533579707145691,0.13914234936237335
3,2,64,51,0.2946368157863617,0.15478871762752533
3,2,64,52,0.6057729721069336,0.061749011278152466
3,2,64,53,0.636292040348053,0.19972088932991028
3,2,64,54,0.6210864186286926,0.11382264643907547
3,2,64,55,0.7684996724128723,0.1435142457485199
3,2,64,56,0.4713497459888458,0.22920897603034973
3,2,64,57,0.47673431038856506,0.20160356163978577
3,2,64,58,0.47142553329467773,0.1462007761001587
3,2,64,59,0.5851964950561523,0.14066378772258759
3,2,64,60,0.7284329533576965,0.11853760480880737
3,2,64,61,0.6904317140579224,0.15286007523536682
3,2,64,62,0.26773878931999207,0.12514860928058624
3,2,64,63,0.33124402165412903,0.1018679291009903
3,3,64,0,0.43498867750167847,0.19198444485664368
3,3,64,1,0.2763068675994873,0.10300513356924057
3,3,64,2,0.4531501233577728,0.13202370703220367
3,3,64,3,0.4940488636493683,0.06846839189529419
3,3,64,4,0.49531155824661255,0.06832089275121689
3,3,64,5,0.38580623269081116,0.07708664983510971
3,3,64,6,0.4416953921318054,0.11040252447128296
3,3,64,7,0.4176451861858368,0.11171624064445496
3,3,64,8,0.22506485879421234,0.07682466506958008
3,3,64,9,0.5526917576789856,0.31939390301704407
3,3,64,10,0.4703202545642853,0.1312667727470398
3,3,64,11,0.5637289881706238,0.06834223866462708
3,3,64,12,0.48474135994911194,0.1295299381017685
3,3,64,13,0.6751266717910767,0.09258279204368591
3,3,64,14,0.32390397787094116,0.16335344314575195
3,3,64,15,0.34028342366218567,0.17292729020118713
3,3,64,16,0.5509441494941711,0.10497581213712692
3,3,64,17,0.35203155875205994,0.167377308011055
3,3,64,18,0.4489016532897949,0.2718704044818878
3,3,64,19,0.5174119472503662,0.15128891170024872
3,3,64,20,0.39908459782600403,0.1578228771686554
3,3,64,21,0.5314503312110901,0.20365124940872192
3,3,64,22,0.6433589458465576,0.06717117875814438
3,3,64,23,0.5735042095184326,0.07932201027870178
3,3,64,24,0.464163213968277,0.17731688916683197
3,3,64,25,0.5104937553405762,0.1791388988494873
3,3,64,26,0.5315737724304199,0.07985623925924301
3,3,64,27,0.5165415406227112,0.15849605202674866
3,3,64,28,0.5070396065711975,0.13718760013580322
3,3,64,29,0.6415344476699829,0.13905087113380432
3,3,64,30,0.44337961077690125,0.1514589786529541
3,3,64,31,0.3720439076423645,0.06630830466747284
3,3,64,32,0.6959788799285889,0.07054198533296585
3,3,64,33,0.4146784245967865,0.11817999184131622
3,3,64,34,0.5514699220657349,0.1255447268486023
3,3,64,35,0.5475007891654968,0.1663151979446411
3,3,64,36,0.6128035187721252,0.09947554022073746
3,3,64,37,0.6087487936019897,0.2077389806509018
3,3,64,38,0.5779019594192505,0.2244105190038681
3,3,64,39,0.43652698397636414,0.16352702677249908
3,3,64,40,0.3957318663597107,0.10787026584148407
3,3,64,41,0.46017882227897644,0.20370283722877502
3,3,64,42,0.5346633195877075,0.06134352833032608
3,3,64,43,0.39631175994873047,0.2704063057899475
3,3,64,44,0.32833296060562134,0.18785303831100464
3,3,64,45,0.48499011993408203,0.08015275746583939
3,3,64,46,0.7266040444374084,0.11132694035768509
3,3,64,47,0.6039832830429077,0.06425416469573975
3,3,64,48,0.47177037596702576,0.06557055562734604
3,3,64,49,0.5669301152229309,0.052384376525878906
3,3,64,50,0.4681698977947235,0.12644663453102112
3,3,64,51,0.5136780738830566,0.23392049968242645
3,3,64,52,0.5723428130149841,0.0915294885635376
3,3,64,53,0.5039395093917847,0.18512174487113953
3,3,64,54,0.33762842416763306,0.172577902674675
3,3,64,55,0.4306725859642029,0.09366419166326523
3,3,64,56,0.6484652161598206,0.15482130646705627
3,3,64,57,0.44968730211257935,0.16631948947906494
3,3,64,58,0.5092625021934509,0.2169133573770523
3,3,64,59,0.509361743927002,0.1738719493150711
3,3,64,60,0.35451459884643555,0.07529518753290176
3,3,64,61,0.5771756172180176,0.08215475082397461
3,3,64,62,0.35875648260116577,0.11476205289363861
3,3,64,63,0.367171972990036,0.14923906326293945
3,4,128,0,0.7741484642028809,0.09063167870044708
3,4,128,1,0.6941429376602173,0.155389666557312
3,4,128,2,0.6798229217529297,0.18470145761966705
3,4,128,3,0.5143754482269287,0.0534246563911438
3,4,128,4,0.4231354296207428,0.15444642305374146
3,4,128,5,0.8389034867286682,0.0821508914232254
3,4,128,6,0.4890885651111603,0.06485632807016373
3,4,128,7,0.33567023277282715,0.25092464685440063
3,4,128,8,0.5508301258087158,0.16260120272636414
3,4,128,9,0.4686416983604431,0.09958227723836899
3,4,128,10,0.41384488344192505,0.1542665958404541
3,4,128,11,0.4375002086162567,0.1294507086277008
3,4,128,12,0.5557901263237,0.2376611977815628
3,4,128,13,0.4188377261161804,0.1887521594762802
3,4,128,14,0.7314869165420532,0.2817971110343933
3,4,128,15,0.5675560235977173,0.19973798096179962
3,4,128,16,0.5086965560913086,0.23586736619472504
3,4,128,17,0.7361684441566467,0.16632869839668274
3,4,128,18,0.6643986105918884,0.35743600130081177
3,4,128,19,0.47426700592041016,0.16046708822250366
3,4,128,20,0.42577067017555237,0.15399810671806335
3,4,128,21,0.6532976031303406,0.22883297502994537
3,4,128,22,0.7457066774368286,0.26233792304992676
3,4,128,23,0.4787038266658783,0.24397358298301697
3,4,128,24,0.5122027397155762,0.24482257664203644
3,4,128,25,0.6457406282424927,0.24271859228610992
3,4,128,26,0.6798477172851562,0.13815803825855255
3,4,128,27,0.618495762348175,0.29534411430358887
3,4,128,28,0.7295411229133606,0.3058503568172455
3,4,128,29,0.3310944736003876,0.15917478501796722
3,4,128,30,0.35282981395721436,0.12783005833625793
3,4,128,31,0.6732653379440308,0.08548735827207565
3,4,128,32,0.7020597457885742,0.1397372931241989
3,4,128,33,0.6469027996063232,0.3186413645744324
3,4,128,34,0.7261732220649719,0.23486365377902985
3,4,128,35,0.6811696290969849,0.07460705935955048
3,4,128,36,0.4149608612060547,0.19124746322631836
3,4,128,37,0.4406670928001404,0.1292588710784912
3,4,128,38,0.31206339597702026,0.11285154521465302
3,4,128,39,0.39514467120170593,0.07546492666006088
3,4,128,40,0.3939395546913147,0.343330055475235
3,4,128,41,0.3766048848628998,0.29992038011550903
3,4,128,42,0.684273362159729,0.33365774154663086
3,4,128,43,0.391556054353714,0.18056990206241608
3,4,128,44,0.768842339515686,0.12277308851480484
3,4,128,45,0.3744050860404968,0.24308077991008759
3,4,128,46,0.6723690629005432,0.29138144850730896
3,4,128,47,0.2870940864086151,0.23390847444534302
3,4,128,48,0.7009846568107605,0.30184271931648254
3,4,128,49,0.6893066167831421,0.20472334325313568
3,4,128,50,0.5680038332939148,0.160535529255867
3,4,128,51,0.39929434657096863,0.13696427643299103
3,4,128,52,0.594778835773468,0.24491021037101746
3,4,128,53,0.5238829255104065,0.09171205013990402
3,4,128,54,0.48180216550827026,0.17827187478542328
3,4,128,55,0.48464447259902954,0.18091747164726257
3,4,128,56,0.437863290309906,0.37028738856315613
3,4,128,57,0.5481839776039124,0.2114967703819275
3,4,128,58,0.7015898823738098,0.2721390426158905
3,4,128,59,0.35882368683815,0.27887457609176636
3,4,128,60,0.5258798003196716,0.11803380399942398
3,4,128,61,0.7710135579109192,0.10230556130409241
3,4,128,62,0.2721240222454071,0.22206103801727295
3,4,128,63,0.9008188247680664,0.07251668721437454
3,4,128,64,0.5765864849090576,0.2396896481513977
3,4,128,65,0.3635466396808624,0.22613035142421722
3,4,128,66,0.53211510181427,0.12488777935504913
3,4,128,67,0.4605039358139038,0.20419073104858398
3,4,128,68,0.7915838360786438,0.12688985466957092
3,4,128,69,0.7600014209747314,0.09126254916191101
3,4,128,70,0.2890602946281433,0.1039809137582779
3,4,128,71,0.5556220412254333,0.1835635006427765
3,4,128,72,0.7695826292037964,0.11123854666948318
3,4,128,73,0.33748868107795715,0.31576576828956604
3,4,128,74,0.7339568138122559,0.25436827540397644
3,4,128,75,0.395236611366272,0.1694110631942749
3,4,128,76,0.36764535307884216,0.32320865988731384
3,4,128,77,0.48352816700935364,0.12498104572296143
3,4,128,78,0.3963545560836792,0.32775765657424927
3,4,128,79,0.6649348139762878,0.08159701526165009
3,4,128,80,0.728312611579895,0.09147149324417114
3,4,128,81,0.5704959630966187,0.1722959727048874
3,4,128,82,0.3848211169242859,0.27588769793510437
3,4,128,83,0.6715670824050903,0.3760506510734558
3,4,128,84,0.7658835649490356,0.09179893881082535
3,4,128,85,0.2498045116662979,0.14700032770633698
3,4,128,86,0.5436133742332458,0.2495446503162384
3,4,128,87,0.42331165075302124,0.28113630414009094
3,4,128,88,0.681253969669342,0.079090416431427
3,4,128,89,0.6477659344673157,0.36402150988578796
3,4,128,90,0.5658344626426697,0.26107338070869446
3,4,128,91,0.5085540413856506,0.22570425271987915
3,4,128,92,0.42091768980026245,0.13625364005565643
3,4,128,93,0.6082620620727539,0.10213416814804077
3,4,128,94,0.29828372597694397,0.08225975930690765
3,4,128,95,0.6081663370132446,0.3036706745624542
3,4,128,96,0.6481940746307373,0.2781916558742523
3,4,128,97,0.808281660079956,0.08488377928733826
3,4,128,98,0.6765862107276917,0.3129735589027405
3,4,128,99,0.7219870686531067,0.2081741839647293
3,4,128,100,0.7386907935142517,0.29121533036231995
3,4,128,101,0.7486898303031921,0.11720249801874161
3,4,128,102,0.8066263198852539,0.09145256876945496
3,4,128,103,0.5940155386924744,0.15255992114543915
3,4,128,104,0.6804254651069641,0.3391054570674896
3,4,128,105,0.44594869017601013,0.20319384336471558
3,4,128,106,0.7131025791168213,0.0680120512843132
3,4,128,107,0.4472135305404663,0.20962312817573547
3,4,128,108,0.3632354736328125,0.2222329080104828
3,4,128,109,0.48707863688468933,0.12169693410396576
3,4,128,110,0.551751971244812,0.3131216764450073
3,4,128,111,0.5928947925567627,0.11913074553012848
3,4,128,112,0.6242963671684265,0.09819004684686661
3,4,128,113,0.6029580235481262,0.23542574048042297
3,4,128,114,0.4781057834625244,0.12952162325382233
3,4,128,115,0.5627611875534058,0.12553554773330688
3,4,128,116,0.3631944954395294,0.10062626004219055
3,4,128,117,0.5778656005859375,0.18892884254455566
3,4,128,118,0.5231295824050903,0.2368542104959488
3,4,128,119,0.6578943729400635,0.19882820546627045
3,4,128,120,0.8000311255455017,0.07662259787321091
3,4,128,121,0.5040762424468994,0.23271211981773376
3,4,128,122,0.49876338243484497,0.21651406586170197
3,4,128,123,0.5189999938011169,0.18916648626327515
3,4,128,124,0.6348235607147217,0.23437419533729553
3,4,128,125,0.6886887550354004,0.29994863271713257
3,4,128,126,0.5275870561599731,0.20946386456489563
3,4,128,127,0.5019345283508301,0.10384956747293472
3,5,128,0,0.8480345606803894,0.09148431569337845
3,5,128,1,0.6913451552391052,0.1233089491724968
3,5,128,2,0.7563089728355408,0.2356891632080078
3,5,128,3,0.7625142335891724,0.20022515952587128
3,5,128,4,0.5990861654281616,0.12294478714466095
3,5,128,5,0.6869528889656067,0.26815420389175415
3,5,128,6,0.4717661142349243,0.1362607777118683
3,5,128,7,0.4699130058288574,0.16805307567119598
3,5,128,8,0.7822234630584717,0.13379362225532532
3,5,128,9,0.4949904978275299,0.20052260160446167
3,5,128,10,0.6279579401016235,0.16021662950515747
3,5,128,11,0.7362849116325378,0.12743601202964783
3,5,128,12,0.6434252262115479,0.10278753191232681
3,5,128,13,0.48562929034233093,0.1583513468503952
3,5,128,14,0.44457581639289856,0.21552520990371704
3,5,128,15,0.7073860764503479,0.08954039216041565
3,5,128,16,0.6509513854980469,0.08845502883195877
3,5,128,17,0.7183203101158142,0.09420301765203476
3,5,128,18,0.7773557305335999,0.12821565568447113
3,5,128,19,0.8311191201210022,0.10465263575315475
3,5,128,20,0.4556317627429962,0.200275257229805
3,5,128,21,0.7362046837806702,0.17986424267292023
3,5,128,22,0.7679151296615601,0.1628735065460205
3,5,128,23,0.5560510754585266,0.22049853205680847
3,5,128,24,0.25974294543266296,0.12959235906600952
3,5,128,25,0.6141383051872253,0.11426061391830444
3,5,128,26,0.8593822717666626,0.08766061812639236
3,5,128,27,0.8124004602432251,0.14514198899269104
3,5,128,28,0.6066235899925232,0.18337780237197876
3,5,128,29,0.6666699051856995,0.11965414136648178
3,5,128,30,0.6895514726638794,0.054595623165369034
3,5,128,31,0.47591546177864075,0.10161230713129044
3,5,128,32,0.821511447429657,0.13703769445419312
3,5,128,33,0.5805324912071228,0.08760116994380951
3,5,128,34,0.5713093280792236,0.15556298196315765
3,5,128,35,0.8415711522102356,0.11404997855424881
3,5,128,36,0.5774111747741699,0.21554408967494965
3,5,128,37,0.5209121704101562,0.23719792068004608
3,5,128,38,0.5321449041366577,0.10522093623876572
3,5,128,39,0.3209841549396515,0.12341490387916565
3,5,128,40,0.4162752330303192,0.11215835064649582
3,5,128,41,0.6105076670646667,0.0978226512670517
3,5,128,42,0.8016623258590698,0.12058563530445099
3,5,128,43,0.8265050649642944,0.1261136829853058
3,5,128,44,0.7544836401939392,0.17602483928203583
3,5,128,45,0.4134933650493622,0.05291883647441864
3,5,128,46,0.708000898361206,0.2230173796415329
3,5,128,47,0.7912276983261108,0.1853775978088379
3,5,128,48,0.7465010285377502,0.1873348206281662
3,5,128,49,0.7526793479919434,0.22378572821617126
3,5,128,50,0.5965003371238708,0.15431630611419678
3,5,128,51,0.5928671956062317,0.051296815276145935
3,5,128,52,0.7076779007911682,0.1514301747083664
3,5,128,53,0.5840399861335754,0.14262862503528595
3,5,128,54,0.5601140856742859,0.10495719313621521
3,5,128,55,0.4131144881248474,0.13409413397312164
3,5,128,56,0.28248363733291626,0.09570325165987015
3,5,128,57,0.6331078410148621,0.1220492273569107
3,5,128,58,0.7382717728614807,0.08512019366025925
3,5,128,59,0.6145334243774414,0.12418366223573685
3,5,128,60,0.7594387531280518,0.19794386625289917
3,5,128,61,0.4373821020126343,0.2006615698337555
3,5,128,62,0.44433438777923584,0.1368699073791504
3,5,128,63,0.8481365442276001,0.09408548474311829
3,5,128,64,0.7489041686058044,0.07429741322994232
3,5,128,65,0.6650184988975525,0.21169288456439972
3,5,128,66,0.8004974722862244,0.18634861707687378
3,5,128,67,0.7737786173820496,0.17771218717098236
3,5,128,68,0.8024230599403381,0.10856489837169647
3,5,128,69,0.7046194672584534,0.05943267419934273
3,5,128,70,0.4798280894756317,0.10313621163368225
3,5,128,71,0.7720516324043274,0.24516071379184723
3,5,128,72,0.7790278792381287,0.10977109521627426
3,5,128,73,0.7797801494598389,0.06875316798686981
3,5,128,74,0.4600955545902252,0.0911417081952095
3,5,128,75,0.3851090371608734,0.1545730084180832
3,5,128,76,0.8556737303733826,0.10652222484350204
3,5,128,77,0.7951738238334656,0.18275995552539825
3,5,128,78,0.2901844382286072,0.2178148478269577
3,5,128,79,0.6845407485961914,0.1835600882768631
3,5,128,80,0.6197186708450317,0.05300583690404892
3,5,128,81,0.7686310410499573,0.05532281473278999
3,5,128,82,0.3626682162284851,0.121129609644413
3,5,128,83,0.8512647151947021,0.07110565155744553
3,5,128,84,0.6191193461418152,0.11005569249391556
3,5,128,85,0.4792139232158661,0.08249818533658981
3,5,128,86,0.7723020315170288,0.19105836749076843
3,5,128,87,0.6159054040908813,0.11699990183115005
3,5,128,88,0.6320266127586365,0.12323756515979767
3,5,128,89,0.572096586227417,0.07135837525129318
3,5,128,90,0.4990655183792114,0.1475876271724701
3,5,128,91,0.8273606300354004,0.12426809221506119
3,5,128,92,0.3782362639904022,0.18956556916236877
3,5,128,93,0.709224283695221,0.1815963089466095
3,5,128,94,0.5200729370117188,0.15489405393600464
3,5,128,95,0.5222779512405396,0.13523569703102112
3,5,128,96,0.8003668785095215,0.07043454796075821
3,5,128,97,0.6139589548110962,0.20540723204612732
3,5,128,98,0.6539347171783447,0.1686287373304367
3,5,128,99,0.720669686794281,0.0780864730477333
3,5,128,100,0.7361668944358826,0.10241463780403137
3,5,128,101,0.6989407539367676,0.11319804936647415
3,5,128,102,0.6696968674659729,0.05280003324151039
3,5,128,103,0.7376898527145386,0.06639419496059418
3,5,128,104,0.7450271844863892,0.08492686599493027
3,5,128,105,0.6930637359619141,0.24390214681625366
3,5,128,106,0.4528842568397522,0.16630598902702332
3,5,128,107,0.5687909126281738,0.15333278477191925
3,5,128,108,0.8191432356834412,0.12564122676849365
3,5,128,109,0.7551970481872559,0.16626772284507751
3,5,128,110,0.7944594621658325,0.1845630705356598
3,5,128,111,0.7165830731391907,0.10719253122806549
3,5,128,112,0.73095703125,0.2221444696187973
3,5,128,113,0.7951479554176331,0.1213110089302063
3,5,128,114,0.7193315625190735,0.26834702491760254
3,5,128,115,0.7359632253646851,0.2635827362537384
3,5,128,116,0.3596409559249878,0.18416273593902588
3,5,128,117,0.6919006109237671,0.20120801031589508
3,5,128,118,0.8699776530265808,0.08592762053012848
3,5,128,119,0.5987213253974915,0.16971558332443237
3,5,128,120,0.7371376156806946,0.16003766655921936
3,5,128,121,0.6825581789016724,0.08890446275472641
3,5,128,122,0.8024523258209229,0.11051741242408752
3,5,128,123,0.5527039766311646,0.1989080011844635
3,5,128,124,0.7692297697067261,0.18733884394168854
3,5,128,125,0.7824844121932983,0.07226619869470596
3,5,128,126,0.8209845423698425,0.10345279425382614
3,5,128,127,0.3664380609989166,0.2310861349105835
4,0,32,0,0.537334680557251,0.07501789927482605
4,0,32,1,0.5569169521331787,0.09856941550970078
4,0,32,2,0.6570113301277161,0.0594482347369194
4,0,32,3,0.3405471444129944,0.06959951668977737
4,0,32,4,0.4800950884819031,0.022340402007102966
4,0,32,5,0.4460194408893585,0.12021537125110626
4,0,32,6,0.33755290508270264,0.07380135357379913
4,0,32,7,0.39921075105667114,0.11871317774057388
4,0,32,8,0.318219393491745,0.07891751080751419
4,0,32,9,0.4995115101337433,0.08135803788900375
4,0,32,10,0.423659086227417,0.1137346550822258
4,0,32,11,0.3926233947277069,0.046487126499414444
4,0,32,12,0.504865825176239,0.06312060356140137
4,0,32,13,0.5341666340827942,0.060813721269369125
4,0,32,14,0.5325661301612854,0.04712683707475662
4,0,32,15,0.4847852885723114,0.13358047604560852
4,0,32,16,0.43798932433128357,0.1516375094652176
4,0,32,17,0.4460637867450714,0.03543190658092499
4,0,32,18,0.45063167810440063,0.19335748255252838
4,0,32,19,0.407524973154068,0.06359653174877167
4,0,32,20,0.2959195673465729,0.07867146283388138
4,0,32,21,0.44445714354515076,0.1010277271270752
4,0,32,22,0.5601288676261902,0.08681432157754898
4,0,32,23,0.3978904187679291,0.029380621388554573
4,0,32,24,0.539219856262207,0.07618674635887146
4,0,32,25,0.5101773142814636,0.05661465600132942
4,0,32,26,0.5809202194213867,0.05882267281413078
4,0,32,27,0.5141410827636719,0.05483471229672432
4,0,32,28,0.6220222115516663,0.06377338618040085
4,0,32,29,0.5313576459884644,0.014296619221568108
4,0,32,30,0.5645792484283447,0.10212524235248566
4,0,32,31,0.39724916219711304,0.0903937891125679
4,1,32,0,0.42282578349113464,0.14720763266086578
4,1,32,1,0.39773592352867126,0.07905242592096329
4,1,32,2,0.30912166833877563,0.09401281923055649
4,1,32,3,0.4818558096885681,0.1221933513879776
4,1,32,4,0.388247549533844,0.16315540671348572
4,1,32,5,0.556556224822998,0.13122068345546722
4,1,32,6,0.6646491885185242,0.07762956619262695
4,1,32,7,0.5447801947593689,0.12379994988441467
4,1,32,8,0.5974427461624146,0.09943322092294693
4,1,32,9,0.48086047172546387,0.09945078939199448
4,1,32,10,0.3990475833415985,0.0867781713604927
4,1,32,11,0.6517417430877686,0.094114288687706
4,1,32,12,0.474692702293396,0.12106519937515259
4,1,32,13,0.5237044095993042,0.18237560987472534
4,1,32,14,0.41135528683662415,0.13336172699928284
4,1,32,15,0.629181981086731,0.07387834042310715
4,1,32,16,0.6138107776641846,0.0707709789276123
4,1,32,17,0.5004611015319824,0.05153859779238701
4,1,32,18,0.49407145380973816,0.19388018548488617
4,1,32,19,0.34778204560279846,0.062372006475925446
4,1,32,20,0.3576514422893524,0.15884815156459808
4,1,32,21,0.4961511492729187,0.08789358288049698
4,1,32,22,0.48908567428588867,0.053659841418266296
4,1,32,23,0.6274235248565674,0.0728614404797554
4,1,32,24,0.5637279748916626,0.1475546509027481
4,1,32,25,0.4731743335723877,0.09110675752162933
4,1,32,26,0.4405956566333771,0.0460432767868042
4,1,32,27,0.518976092338562,0.15304069221019745
4,1,32,28,0.46245867013931274,0.0774059072136879
4,1,32,29,0.32031193375587463,0.06684189289808273
4,1,32,30,0.4657987952232361,0.05544564500451088
4,1,32,31,0.5355928540229797,0.12671710550785065
4,2,64,0,0.47357437014579773,0.14975492656230927
4,2,64,1,0.40081292390823364,0.12490206956863403
4,2,64,2,0.4040240943431854,0.11388611048460007
4,2,64,3,0.6454248428344727,0.15531636774539948
4,2,64,4,0.6058303713798523,0.1080670952796936
4,2,64,5,0.6090416312217712,0.051730602979660034
4,2,64,6,0.3164847791194916,0.12576618790626526
4,2,64,7,0.416118323802948,0.07671383768320084
4,2,64,8,0.44002988934516907,0.19288431107997894
4,2,64,9,0.39519938826560974,0.11452622711658478
4,2,64,10,0.4892893135547638,0.19206099212169647
4,2,64,11,0.4564482271671295,0.19968721270561218
4,2,64,12,0.5806218385696411,0.1592349261045456
4,2,64,13,0.6288348436355591,0.1531345397233963
4,2,64,14,0.4197675287723541,0.09741272032260895
4,2,64,15,0.3886408805847168,0.15454496443271637
4,2,64,16,0.5304097533226013,0.1284894496202469
4,2,64,17,0.47638800740242004,0.15832044184207916
4,2,64,18,0.48466062545776367,0.22646304965019226
4,2,64,19,0.4507507085800171,0.09355328977108002
4,2,64,20,0.47523269057273865,0.05820061266422272
4,2,64,21,0.43528133630752563,0.12835820019245148
4,2,64,22,0.6311728358268738,0.07982543110847473
4,2,64,23,0.45959076285362244,0.15762324631214142
4,2,64,24,0.4226904809474945,0.152169868350029
4,2,64,25,0.3800147771835327,0.16579881310462952
4,2,64,26,0.594321072101593,0.1284448653459549
4,2,64,27,0.4033668637275696,0.12456224858760834
4,2,64,28,0.599229633808136,0.19408868253231049
4,2,64,29,0.5028458833694458,0.11827223002910614
4,2,64,30,0.5249643921852112,0.18498772382736206
4,2,64,31,0.4610770344734192,0.1637462079524994
4,2,64,32,0.5526570677757263,0.0927407518029213
4,2,64,33,0.635246217250824,0.11443151533603668
4,2,64,34,0.516075849533081,0.10610256344079971
4,2,64,35,0.5078968405723572,0.13256913423538208
4,2,64,36,0.45196422934532166,0.15008263289928436
4,2,64,37,0.4148218631744385,0.16956894099712372
4,2,64,38,0.4567832946777344,0.21223774552345276
4,2,64,39,0.5397060513496399,0.16773220896720886
4,2,64,40,0.5632338523864746,0.12418551743030548
4,2,64,41,0.2971203923225403,0.1256684511899948
4,2,64,42,0.6320053935050964,0.12255760282278061
4,2,64,43,0.4767836928367615,0.1201448068022728
4,2,64,44,0.3947662115097046,0.11982081085443497
4,2,64,45,0.5058029294013977,0.0775739923119545
4,2,64,46,0.3589482307434082,0.13343964517116547
4,2,64,47,0.36532753705978394,0.15991592407226562
4,2,64,48,0.5319463014602661,0.10395708680152893
4,2,64,49,0.6159889698028564,0.06909245252609253
4,2,64,50,0.509697675704956,0.19974613189697266
4,2,64,51,0.5789021849632263,0.12939974665641785
4,2,64,52,0.6497107148170471,0.1684630960226059
4,2,64,53,0.4966665506362915,0.06605816632509232
4,2,64,54,0.6904822587966919,0.1272498369216919
4,2,64,55,0.42759647965431213,0.11859603971242905
4,2,64,56,0.4572502672672272,0.16420899331569672
4,2,64,57,0.6596094965934753,0.12721911072731018
4,2,64,58,0.6298214793205261,0.1452954262495041
4,2,64,59,0.40329504013061523,0.1164465844631195
4,2,64,60,0.5202137231826782,0.07180815935134888
4,2,64,61,0.4987582266330719,0.1742701232433319
4,2,64,62,0.5254600644111633,0.16344287991523743
4,2,64,63,0.5302892923355103,0.07385993748903275
4,3,64,0,0.29195910692214966,0.1085103377699852
4,3,64,1,0.5588180422782898,0.16413046419620514
4,3,64,2,0.477340430021286,0.21984539926052094
4,3,64,3,0.6627530455589294,0.08789096772670746
4,3,64,4,0.30594921112060547,0.12074229121208191
4,3,64,5,0.34366074204444885,0.09031878411769867
4,3,64,6,0.468968003988266,0.10886236280202866
4,3,64,7,0.41589438915252686,0.04109073057770729
4,3,64,8,0.6195750832557678,0.13212406635284424
4,3,64,9,0.4020806849002838,0.11546733975410461
4,3,64,10,0.7074335813522339,0.1347556710243225
4,3,64,11,0.44926512241363525,0.12543955445289612
4,3,64,12,0.5125563144683838,0.20632527768611908
4,3,64,13,0.3274742364883423,0.13248345255851746
4,3,64,14,0.4199555516242981,0.09416095912456512
4,3,64,15,0.4827001094818115,0.17298243939876556
4,3,64,16,0.5632207989692688,0.20050831139087677
4,3,64,17,0.3988046646118164,0.13568828999996185
4,3,64,18,0.4738805890083313,0.13683663308620453
4,3,64,19,0.5890969038009644,0.1767575740814209
4,3,64,20,0.5507383942604065,0.11769695580005646
4,3,64,21,0.4801141619682312,0.18352264165878296
4,3,64,22,0.5541878938674927,0.1372876912355423
4,3,64,23,0.5256606936454773,0.1461421251296997
4,3,64,24,0.5551204681396484,0.11525942385196686
4,3,64,25,0.4236566722393036,0.11407139897346497
4,3,64,26,0.619350790977478,0.12654951214790344
4,3,64,27,0.6357123851776123,0.08964936435222626
4,3,64,28,0.3672143816947937,0.20683658123016357
4,3,64,29,0.5832575559616089,0.12771941721439362
4,3,64,30,0.5725460052490234,0.16898927092552185
4,3,64,31,0.6056564450263977,0.13584774732589722
4,3,64,32,0.6193691492080688,0.13955877721309662
4,3,64,33,0.6358930468559265,0.08900768309831619
4,3,64,34,0.6428062319755554,0.17661704123020172
4,3,64,35,0.597442626953125,0.12002906203269958
4,3,64,36,0.3523856997489929,0.1112290769815445
4,3,64,37,0.4969049394130707,0.22560694813728333
4,3,64,38,0.35084471106529236,0.14881615340709686
4,3,64,39,0.4138491451740265,0.1345207542181015
4,3,64,40,0.4422021210193634,0.18228144943714142
4,3,64,41,0.33513322472572327,0.11700335890054703
4,3,64,42,0.4681967794895172,0.14024238288402557
4,3,64,43,0.5488181710243225,0.2113495022058487
4,3,64,44,0.6200008988380432,0.13465037941932678
4,3,64,45,0.47482359409332275,0.05859307572245598
4,3,64,46,0.5008968710899353,0.13732539117336273
4,3,64,47,0.3410000503063202,0.1841575801372528
4,3,64,48,0.5446265339851379,0.17657750844955444
4,3,64,49,0.6056709289550781,0.07310633361339569
4,3,64,50,0.4836212694644928,0.07519106566905975
4,3,64,51,0.33381640911102295,0.118492990732193
4,3,64,52,0.46262869238853455,0.0696643516421318
4,3,64,53,0.5572668313980103,0.21962395310401917
4,3,64,54,0.33132484555244446,0.14051571488380432
4,3,64,55,0.4220271706581116,0.11423753201961517
4,3,64,56,0.5739134550094604,0.11404161155223846
4,3,64,57,0.44990697503089905,0.10343840718269348
4,3,64,58,0.5118647813796997,0.19350950419902802
4,3,64,59,0.3679463565349579,0.1061488464474678
4,3,64,60,0.3686630427837372,0.19136768579483032
4,3,64,61,0.4001678228378296,0.13762710988521576
4,3,64,62,0.3133507966995239,0.11042392998933792
4,3,64,63,0.5675747990608215,0.22585266828536987
4,4,128,0,0.5365745425224304,0.2271292507648468
4,4,128,1,0.6267250180244446,0.30148446559906006
4,4,128,2,0.7548180818557739,0.11911627650260925
4,4,128,3,0.641158401966095,0.16763287782669067
4,4,128,4,0.6644088625907898,0.2509864866733551
4,4,128,5,0.44480040669441223,0.04985051602125168
4,4,128,6,0.3205423951148987,0.245948925614357
4,4,128,7,0.3791835308074951,0.18822237849235535
4,4,128,8,0.6309364438056946,0.2293250858783722
4,4,128,9,0.6472139954566956,0.24963371455669403
4,4,128,10,0.5818607211112976,0.2040688544511795
4,4,128,11,0.5915995240211487,0.13694831728935242
4,4,128,12,0.4343603849411011,0.08408116549253464
4,4,128,13,0.41181010007858276,0.23457744717597961
4,4,128,14,0.440121054649353,0.07220202684402466
4,4,128,15,0.4965217709541321,0.17368297278881073
4,4,128,16,0.505878210067749,0.23687423765659332
4,4,128,17,0.6252094507217407,0.22021077573299408
4,4,128,18,0.5602776408195496,0.0979747474193573
4,4,128,19,0.477020800113678,0.23718053102493286
4,4,128,20,0.31468066573143005,0.12507732212543488
4,4,128,21,0.6203920245170593,0.2706330418586731
4,4,128,22,0.6254847049713135,0.2540215849876404
4,4,128,23,0.4802795946598053,0.11740414798259735
4,4,128,24,0.5934597253799438,0.20473025739192963
4,4,128,25,0.6265738010406494,0.205499529838562
4,4,128,26,0.7434167265892029,0.09999731183052063
4,4,128,27,0.5329461693763733,0.19036436080932617
4,4,128,28,0.5996854901313782,0.1938951313495636
4,4,128,29,0.6145187020301819,0.06346209347248077
4,4,128,30,0.5196904540061951,0.1516326665878296
4,4,128,31,0.5925331115722656,0.255504310131073
4,4,128,32,0.6180534362792969,0.30013900995254517
4,4,128,33,0.6792526841163635,0.12868282198905945
4,4,128,34,0.562849223613739,0.21303965151309967
4,4,128,35,0.4271130859851837,0.11512181907892227
4,4,128,36,0.6320528388023376,0.2400238960981369
4,4,128,37,0.5144181251525879,0.18471695482730865
4,4,128,38,0.7022403478622437,0.08602871745824814
4,4,128,39,0.748313307762146,0.09540639072656631
4,4,128,40,0.4809128940105438,0.15285015106201172
4,4,128,41,0.4178900122642517,0.28356245160102844
4,4,128,42,0.7260435819625854,0.07692340761423111
4,4,128,43,0.6737555861473083,0.07797618955373764
4,4,128,44,0.60198974609375,0.1373932808637619
4,4,128,45,0.39447471499443054,0.28032276034355164
4,4,128,46,0.32537010312080383,0.17983166873455048
4,4,128,47,0.5769046545028687,0.26572123169898987
4,4,128,48,0.6929519772529602,0.14258085191249847
4,4,128,49,0.46363985538482666,0.12273562699556351
4,4,128,50,0.6815810799598694,0.19020579755306244
4,4,128,51,0.5767419934272766,0.09068479388952255
4,4,128,52,0.7547357678413391,0.10815084725618362
4,4,128,53,0.5996734499931335,0.13956554234027863
4,4,128,54,0.6054743528366089,0.21623378992080688
4,4,128,55,0.6585861444473267,0.3560856878757477
4,4,128,56,0.7202181220054626,0.12740226089954376
4,4,128,57,0.6459113955497742,0.19185833632946014
4,4,128,58,0.5168061852455139,0.20342856645584106
4,4,128,59,0.7790168523788452,0.12416039407253265
4,4,128,60,0.6210820078849792,0.27406325936317444
4,4,128,61,0.46066778898239136,0.04894718527793884
4,4,128,62,0.5735941529273987,0.2690575122833252
4,4,128,63,0.38678422570228577,0.27048173546791077
4,4,128,64,0.6347861886024475,0.30582770705223083
4,4,128,65,0.6273132562637329,0.21428649127483368
4,4,128,66,0.5031927227973938,0.15976078808307648
4,4,128,67,0.7426215410232544,0.09087758511304855
4,4,128,68,0.36402830481529236,0.14786648750305176
4,4,128,69,0.3828025162220001,0.2843244671821594
4,4,128,70,0.7015469074249268,0.09818901121616364
4,4,128,71,0.6391884088516235,0.2693646252155304
4,4,128,72,0.682998776435852,0.251743882894516
4,4,128,73,0.5021198987960815,0.23417089879512787
4,4,128,74,0.5673809051513672,0.1314116269350052
4,4,128,75,0.4971155822277069,0.23099970817565918
4,4,128,76,0.6350868344306946,0.28062042593955994
4,4,128,77,0.7544254064559937,0.10508832335472107
4,4,128,78,0.42935022711753845,0.08552052080631256
4,4,128,79,0.5485343933105469,0.2135280966758728
4,4,128,80,0.7024056315422058,0.2370721846818924
4,4,128,81,0.5967113375663757,0.25302499532699585
4,4,128,82,0.6402511596679688,0.049813397228717804
4,4,128,83,0.6554550528526306,0.3210037350654602
4,4,128,84,0.588057816028595,0.1107768565416336
4,4,128,85,0.611007809638977,0.14865481853485107
4,4,128,86,0.6356108784675598,0.1299668252468109
4,4,128,87,0.5839459300041199,0.11867251992225647
4,4,128,88,0.33673372864723206,0.054398637264966965
4,4,128,89,0.4896431863307953,0.2887763977050781
4,4,128,90,0.6006700992584229,0.16927264630794525
4,4,128,91,0.5818960070610046,0.18322543799877167
4,4,128,92,0.3706193268299103,0.0747523084282875
4,4,128,93,0.40682345628738403,0.24963141977787018
4,4,128,94,0.39860811829566956,0.19043347239494324
4,4,128,95,0.614234209060669,0.23665861785411835
4,4,128,96,0.7122575044631958,0.0933854952454567
4,4,128,97,0.3609890937805176,0.12325014919042587
4,4,128,98,0.42833858728408813,0.2785477936267853
4,4,128,99,0.5650320649147034,0.23525716364383698
4,4,128,100,0.6219449639320374,0.26659825444221497
4,4,128,101,0.6439504623413086,0.32186615467071533
4,4,128,102,0.6203714609146118,0.12558920681476593
4,4,128,103,0.2902906835079193,0.09588097780942917
4,4,128,104,0.5769131183624268,0.0626182109117508
4,4,128,105,0.4055308401584625,0.0786137506365776
4,4,128,106,0.4284662902355194,0.31448715925216675
4,4,128,107,0.3814559876918793,0.22524012625217438
4,4,128,108,0.40352290868759155,0.1911158412694931
4,4,128,109,0.667988657951355,0.16633965075016022
4,4,128,110,0.6675281524658203,0.09083326905965805
4,4,128,111,0.6694872975349426,0.07514378428459167
4,4,128,112,0.527201235294342,0.19919353723526
4,4,128,113,0.5838609933853149,0.27152010798454285
4,4,128,114,0.4344462752342224,0.12206069380044937
4,4,128,115,0.6263553500175476,0.23045016825199127
4,4,128,116,0.6000311374664307,0.2011299878358841
4,4,128,117,0.4845089316368103,0.08595850318670273
4,4,128,118,0.6258314847946167,0.15313206613063812
4,4,128,119,0.5522334575653076,0.15759886801242828
4,4,128,120,0.6887390613555908,0.06897251307964325
4,4,128,121,0.45533204078674316,0.17231079936027527
4,4,128,122,0.627466082572937,0.2117292433977127
4,4,128,123,0.5716289281845093,0.16798456013202667
4,4,128,124,0.6428609490394592,0.08058400452136993
4,4,128,125,0.37427404522895813,0.3162471652030945
4,4,128,126,0.6144825220108032,0.18893946707248688
4,4,128,127,0.7077766060829163,0.10293024033308029
4,5,128,0,0.6986324191093445,0.15433090925216675
4,5,128,1,0.5273491144180298,0.36334988474845886
4,5,128,2,0.7809022068977356,0.13544316589832306
4,5,128,3,0.7515438795089722,0.14700067043304443
4,5,128,4,0.5204570889472961,0.07736639678478241
4,5,128,5,0.5543173551559448,0.2807016670703888
4,5,128,6,0.5726256370544434,0.2576647102832794
4,5,128,7,0.6686273217201233,0.15081241726875305
4,5,128,8,0.8402483463287354,0.09877470880746841
4,5,128,9,0.48389962315559387,0.3682405650615692
4,5,128,10,0.8709326982498169,0.10122334957122803
4,5,128,11,0.5432855486869812,0.3481009602546692
4,5,128,12,0.5951387882232666,0.1891675889492035
4,5,128,13,0.499584436416626,0.28393518924713135
4,5,128,14,0.704706072807312,0.1739591658115387
4,5,128,15,0.49885931611061096,0.1265137642621994
4,5,128,16,0.6197075247764587,0.21658751368522644
4,5,128,17,0.5218546390533447,0.29929497838020325
4,5,128,18,0.7690973281860352,0.13083571195602417
4,5,128,19,0.5967035889625549,0.2765946388244629
4,5,128,20,0.6116010546684265,0.16732047498226166
4,5,128,21,0.5606040954589844,0.2358378767967224
4,5,128,22,0.6871407628059387,0.11578013747930527
4,5,128,23,0.693150520324707,0.2153603434562683
4,5,128,24,0.753672182559967,0.11496391147375107
4,5,128,25,0.6596242189407349,0.22949941456317902
4,5,128,26,0.7342090010643005,0.17642012238502502
4,5,128,27,0.6079889535903931,0.20915740728378296
4,5,128,28,0.8270431160926819,0.11274263262748718
4,5,128,29,0.6782874464988708,0.17581132054328918
4,5,128,30,0.6251040101051331,0.2445017695426941
4,5,128,31,0.5641226768493652,0.3456697165966034
4,5,128,32,0.4578847885131836,0.2653983235359192
4,5,128,33,0.7747678160667419,0.11191930621862411
4,5,128,34,0.6609299778938293,0.0948190838098526
4,5,128,35,0.5335554480552673,0.2978447675704956
4,5,128,36,0.7125240564346313,0.19517983496189117
4,5,128,37,0.56582111120224,0.1928553432226181
4,5,128,38,0.5245144963264465,0.29311421513557434
4,5,128,39,0.8277315497398376,0.12518475949764252
4,5,128,40,0.7150614261627197,0.10493399947881699
4,5,128,41,0.6397945284843445,0.23288023471832275
4,5,128,42,0.8037985563278198,0.11362861841917038
4,5,128,43,0.8365247845649719,0.09899597615003586
4,5,128,44,0.8476232886314392,0.10577206313610077
4,5,128,45,0.5062093138694763,0.08072371035814285
4,5,128,46,0.5595552325248718,0.13411156833171844
4,5,128,47,0.6657311320304871,0.24672521650791168
4,5,128,48,0.802402138710022,0.12243194133043289
4,5,128,49,0.5792620778083801,0.030304117128252983
4,5,128,50,0.8252763152122498,0.10772223770618439
4,5,128,51,0.48872095346450806,0.14344972372055054
4,5,128,52,0.803977370262146,0.10274863243103027
4,5,128,53,0.7969760298728943,0.10485240072011948
4,5,128,54,0.4957502484321594,0.29763737320899963
4,5,128,55,0.7349404096603394,0.11285048723220825
4,5,128,56,0.7185027599334717,0.17891205847263336
4,5,128,57,0.7290557026863098,0.12003592401742935
4,5,128,58,0.7026774287223816,0.08294196426868439
4,5,128,59,0.6898456811904907,0.13828788697719574
4,5,128,60,0.6202181577682495,0.20268544554710388
4,5,128,61,0.6390295624732971,0.20632025599479675
4,5,128,62,0.7663792371749878,0.14184974133968353
4,5,128,63,0.4891708791255951,0.23111452162265778
4,5,128,64,0.7115633487701416,0.14717070758342743
4,5,128,65,0.687956690788269,0.086395263671875
4,5,128,66,0.7074360847473145,0.16681645810604095
4,5,128,67,0.7763732671737671,0.12115968018770218
4,5,128,68,0.40993982553482056,0.09429287910461426
4,5,128,69,0.830366313457489,0.12339364737272263
4,5,128,70,0.6077232360839844,0.15901458263397217
4,5,128,71,0.6853750944137573,0.10259071737527847
4,5,128,72,0.6953304409980774,0.11725598573684692
4,5,128,73,0.705375075340271,0.13809114694595337
4,5,128,74,0.7256385684013367,0.13445575535297394
4,5,128,75,0.7005987167358398,0.1625799983739853
4,5,128,76,0.6684896349906921,0.16187188029289246
4,5,128,77,0.777791440486908,0.13801869750022888
4,5,128,78,0.5178425312042236,0.266903817653656
4,5,128,79,0.6559323668479919,0.06091411039233208
4,5,128,80,0.6636113524436951,0.17907333374023438
4,5,128,81,0.6878790259361267,0.07839633524417877
4,5,128,82,0.6430878639221191,0.17116636037826538
4,5,128,83,0.4811462163925171,0.25471383333206177
4,5,128,84,0.8294617533683777,0.11304132640361786
4,5,128,85,0.8303176760673523,0.11309178918600082
4,5,128,86,0.8184152245521545,0.11359415203332901
4,5,128,87,0.7216997742652893,0.15033681690692902
4,5,128,88,0.6301344037055969,0.14763769507408142
4,5,128,89,0.8157567381858826,0.11188232153654099
4,5,128,90,0.6313117742538452,0.27853795886039734
4,5,128,91,0.6144686341285706,0.23528431355953217
4,5,128,92,0.6411729454994202,0.1820816695690155
4,5,128,93,0.7845309376716614,0.12992936372756958
4,5,128,94,0.7780802249908447,0.11979932337999344
4,5,128,95,0.7686768174171448,0.13868995010852814
4,5,128,96,0.5932702422142029,0.1714683324098587
4,5,128,97,0.7085679173469543,0.19638292491436005
4,5,128,98,0.7179868221282959,0.11718791723251343
4,5,128,99,0.6885870099067688,0.19617299735546112
4,5,128,100,0.7068117260932922,0.19403159618377686
4,5,128,101,0.8013142943382263,0.1056760922074318
4,5,128,102,0.6881659030914307,0.15082788467407227
4,5,128,103,0.44489219784736633,0.19517458975315094
4,5,128,104,0.3540480136871338,0.1233830600976944
4,5,128,105,0.7533957362174988,0.14837463200092316
4,5,128,106,0.552397608757019,0.2998516261577606
4,5,128,107,0.46113964915275574,0.17868608236312866
4,5,128,108,0.6146588921546936,0.14292992651462555
4,5,128,109,0.6517115235328674,0.17004406452178955
4,5,128,110,0.7602722644805908,0.16995808482170105
4,5,128,111,0.544863224029541,0.0722852423787117
4,5,128,112,0.8313252925872803,0.11463895440101624
4,5,128,113,0.6426383852958679,0.2115505188703537
4,5,128,114,0.6608164310455322,0.18189771473407745
4,5,128,115,0.5717136859893799,0.31616854667663574
4,5,128,116,0.5030871629714966,0.2879534363746643
4,5,128,117,0.7993987202644348,0.15436458587646484
4,5,128,118,0.8616547584533691,0.09845192730426788
4,5,128,119,0.7566418647766113,0.10281018167734146
4,5,128,120,0.8171027898788452,0.0915185809135437
4,5,128,121,0.49761396646499634,0.14484290778636932
4,5,128,122,0.7940414547920227,0.13275745511054993
4,5,128,123,0.6045203804969788,0.1506795436143875
4,5,128,124,0.8136107921600342,0.13788273930549622
4,5,128,125,0.5050865411758423,0.29678207635879517
4,5,128,126,0.7581650018692017,0.13401204347610474
4,5,128,127,0.7370262145996094,0.1639154553413391
5,0,32,0,0.505031168460846,0.13640277087688446
5,0,32,1,0.6194038987159729,0.09574505686759949
5,0,32,2,0.30699485540390015,0.08619005978107452
5,0,32,3,0.4422571361064911,0.15274670720100403
5,0,32,4,0.45735040307044983,0.08587444573640823
5,0,32,5,0.44982531666755676,0.108144611120224
5,0,32,6,0.6496880650520325,0.1241387128829956
5,0,32,7,0.49830183386802673,0.1424703449010849
5,0,32,8,0.5489161610603333,0.06203281134366989
5,0,32,9,0.5674629807472229,0.08675678074359894
5,0,32,10,0.6339892148971558,0.1686800867319107
5,0,32,11,0.5630723237991333,0.15699347853660583
5,0,32,12,0.5389694571495056,0.13063976168632507
5,0,32,13,0.443575918674469,0.12230077385902405
5,0,32,14,0.35556408762931824,0.1635511815547943
5,0,32,15,0.37809279561042786,0.13111843168735504
5,0,32,16,0.41476941108703613,0.13455086946487427
5,0,32,17,0.4989817440509796,0.17326396703720093
5,0,32,18,0.6190493702888489,0.08955330401659012
5,0,32,19,0.556032657623291,0.06998678296804428
5,0,32,20,0.40022048354148865,0.08291904628276825
5,0,32,21,0.5643166899681091,0.12976451218128204
5,0,32,22,0.4632958769798279,0.13696908950805664
5,0,32,23,0.6582441926002502,0.09105805307626724
5,0,32,24,0.4899705648422241,0.14563694596290588
5,0,32,25,0.47806617617607117,0.12047208100557327
5,0,32,26,0.42506101727485657,0.14374293386936188
5,0,32,27,0.5604316592216492,0.1595466434955597
5,0,32,28,0.3952188491821289,0.19895458221435547
5,0,32,29,0.4261455535888672,0.1587376743555069
5,0,32,30,0.3750053346157074,0.09314044564962387
5,0,32,31,0.3139655590057373,0.13180184364318848
5,1,32,0,0.6644371151924133,0.10886883735656738
5,1,32,1,0.4941531717777252,0.11559043824672699
5,1,32,2,0.6084848642349243,0.14407013356685638
5,1,32,3,0.5005325675010681,0.059916798025369644
5,1,32,4,0.47992512583732605,0.1052471175789833
5,1,32,5,0.5334095358848572,0.0796065703034401
5,1,32,6,0.5227702856063843,0.12978674471378326
5,1,32,7,0.4335569441318512,0.06593641638755798
5,1,32,8,0.2792074978351593,0.11702890694141388
5,1,32,9,0.6674755811691284,0.10252497345209122
5,1,32,10,0.5166823863983154,0.07619797438383102
5,1,32,11,0.48724058270454407,0.06684049218893051
5,1,32,12,0.48538610339164734,0.10552693903446198
5,1,32,13,0.32857823371887207,0.1460598111152649
5,1,32,14,0.3958078920841217,0.14101512730121613
5,1,32,15,0.23802538216114044,0.15945960581302643
5,1,32,16,0.7144114375114441,0.11499641835689545
5,1,32,17,0.381238728761673,0.0634477511048317
5,1,32,18,0.5878729820251465,0.03451940789818764
5,1,32,19,0.47736871242523193,0.0654948353767395
5,1,32,20,0.41965487599372864,0.09185303002595901
5,1,32,21,0.5841369032859802,0.09580552577972412
5,1,32,22,0.4504759907722473,0.11352545768022537
5,1,32,23,0.5964581966400146,0.1060066968202591
5,1,32,24,0.5746642351150513,0.09493611007928848
5,1,32,25,0.3527339994907379,0.06888774782419205
5,1,32,26,0.6107807755470276,0.14148901402950287
5,1,32,27,0.348042368888855,0.11019632965326309
5,1,32,28,0.36702293157577515,0.11471159756183624
5,1,32,29,0.6445527076721191,0.172775998711586
5,1,32,30,0.7587102651596069,0.11842900514602661
5,1,32,31,0.545985996723175,0.08760979026556015
5,2,64,0,0.5567426085472107,0.09431688487529755
5,2,64,1,0.6264241337776184,0.14487315714359283
5,2,64,2,0.5024352669715881,0.1729733645915985
5,2,64,3,0.5801742076873779,0.17504391074180603
5,2,64,4,0.38954266905784607,0.21334803104400635
5,2,64,5,0.5837008953094482,0.1457868069410324
5,2,64,6,0.48374101519584656,0.10396534949541092
5,2,64,7,0.3715338706970215,0.14507603645324707
5,2,64,8,0.5223824381828308,0.2107384204864502
5,2,64,9,0.4844992756843567,0.19105418026447296
5,2,64,10,0.7453765869140625,0.11637506633996964
5,2,64,11,0.6060597896575928,0.11447516828775406
5,2,64,12,0.33233442902565,0.12933999300003052
5,2,64,13,0.48618072271347046,0.13718804717063904
5,2,64,14,0.49638572335243225,0.17619949579238892
5,2,64,15,0.5650250911712646,0.2205466628074646
5,2,64,16,0.6401033401489258,0.12316359579563141
5,2,64,17,0.3952297866344452,0.1930488646030426
5,2,64,18,0.4146029055118561,0.1266515552997589
5,2,64,19,0.46125850081443787,0.09020761400461197
5,2,64,20,0.4124513566493988,0.07711122930049896
5,2,64,21,0.3911725878715515,0.12327657639980316
5,2,64,22,0.42879822850227356,0.20203934609889984
5,2,64,23,0.38724324107170105,0.11060746014118195
5,2,64,24,0.5259861946105957,0.10576877743005753
5,2,64,25,0.34802088141441345,0.10207150131464005
5,2,64,26,0.5551996827125549,0.10189922153949738
5,2,64,27,0.5888055562973022,0.1508016288280487
5,2,64,28,0.5923358798027039,0.10629545152187347
5,2,64,29,0.38672035932540894,0.0906972587108612
5,2,64,30,0.479627788066864,0.2040766030550003
5,2,64,31,0.6044716835021973,0.05280080810189247
5,2,64,32,0.5821648836135864,0.11575736105442047
5,2,64,33,0.46988630294799805,0.11261722445487976
5,2,64,34,0.3616621792316437,0.12816885113716125
5,2,64,35,0.461624413728714,0.13260582089424133
5,2,64,36,0.5594148635864258,0.20882610976696014
5,2,64,37,0.5882647037506104,0.13953104615211487
5,2,64,38,0.38549891114234924,0.07210135459899902
5,2,64,39,0.39684104919433594,0.10511919111013412
5,2,64,40,0.6016899943351746,0.12656912207603455
5,2,64,41,0.5674894452095032,0.17963574826717377
5,2,64,42,0.4561431407928467,0.10942920297384262
5,2,64,43,0.3956746757030487,0.23446999490261078
5,2,64,44,0.38185226917266846,0.16349229216575623
5,2,64,45,0.5141205191612244,0.1309027522802353
5,2,64,46,0.3630330562591553,0.12148786336183548
5,2,64,47,0.6778839826583862,0.12650880217552185
5,2,64,48,0.45747894048690796,0.12268488854169846
5,2,64,49,0.3673383593559265,0.14324529469013214
5,2,64,50,0.6877806186676025,0.15133875608444214
5,2,64,51,0.3703460991382599,0.16416603326797485
5,2,64,52,0.6670761704444885,0.1442531943321228
5,2,64,53,0.46040987968444824,0.23712895810604095
5,2,64,54,0.7242215871810913,0.1359480619430542
5,2,64,55,0.6722979545593262,0.13661165535449982
5,2,64,56,0.6517791152000427,0.1283259093761444
5,2,64,57,0.3901293873786926,0.2143409699201584
5,2,64,58,0.584645688533783,0.085344098508358
5,2,64,59,0.5945641398429871,0.21534451842308044
5,2,64,60,0.6414474844932556,0.07676415145397186
5,2,64,61,0.37433499097824097,0.09237793833017349
5,2,64,62,0.5576621890068054,0.0800335630774498
5,2,64,63,0.33586400747299194,0.10051971673965454
5,3,64,0,0.43675869703292847,0.22844530642032623
5,3,64,1,0.5926849246025085,0.05560772120952606
5,3,64,2,0.34766438603401184,0.2021179497241974
5,3,64,3,0.3599417805671692,0.19936425983905792
5,3,64,4,0.5521548390388489,0.09334692358970642
5,3,64,5,0.6126537322998047,0.13184526562690735
5,3,64,6,0.5426798462867737,0.10359150171279907
5,3,64,7,0.6444801092147827,0.16461889445781708
5,3,64,8,0.5587563514709473,0.1663997918367386
5,3,64,9,0.4565693438053131,0.12809544801712036
5,3,64,10,0.44273579120635986,0.1245371475815773
5,3,64,11,0.4623221755027771,0.20185138285160065
5,3,64,12,0.4022054672241211,0.14425764977931976
5,3,64,13,0.5409222841262817,0.22148564457893372
5,3,64,14,0.6283487677574158,0.17844460904598236
5,3,64,15,0.4689609408378601,0.16082516312599182
5,3,64,16,0.529505729675293,0.16034549474716187
5,3,64,17,0.45947712659835815,0.1714763194322586
5,3,64,18,0.554193377494812,0.11138786375522614
5,3,64,19,0.47963133454322815,0.09183312952518463
5,3,64,20,0.5519906282424927,0.15989132225513458
5,3,64,21,0.515666663646698,0.18018554151058197
5,3,64,22,0.4757359027862549,0.16257263720035553
5,3,64,23,0.4755476713180542,0.16692806780338287
5,3,64,24,0.5667021870613098,0.11906526982784271
5,3,64,25,0.39790499210357666,0.18789981305599213
5,3,64,26,0.5037193298339844,0.06636618822813034
5,3,64,27,0.3521516025066376,0.09034498780965805
5,3,64,28,0.671239972114563,0.12537537515163422
5,3,64,29,0.5272445678710938,0.09476809203624725
5,3,64,30,0.4833529591560364,0.23000752925872803
5,3,64,31,0.6603368520736694,0.10538353025913239
5,3,64,32,0.4859578609466553,0.19020161032676697
5,3,64,33,0.6056583523750305,0.14186254143714905
5,3,64,34,0.41206154227256775,0.08279090374708176
5,3,64,35,0.4213767945766449,0.226405531167984
5,3,64,36,0.48472198843955994,0.22159625589847565
5,3,64,37,0.3483169972896576,0.18689875304698944
5,3,64,38,0.5117197036743164,0.1894257813692093
5,3,64,39,0.5072954893112183,0.06989500671625137
5,3,64,40,0.42751196026802063,0.07023324817419052
5,3,64,41,0.6660113334655762,0.12555022537708282
5,3,64,42,0.42177504301071167,0.10596325248479843
5,3,64,43,0.5313549041748047,0.10671375691890717
5,3,64,44,0.5278754234313965,0.117523692548275
5,3,64,45,0.5136008262634277,0.1488567441701889
5,3,64,46,0.6453127861022949,0.14230696856975555
5,3,64,47,0.4559222161769867,0.20912796258926392
5,3,64,48,0.3035238981246948,0.13315072655677795
5,3,64,49,0.3396526873111725,0.17318195104599
5,3,64,50,0.6548965573310852,0.12757685780525208
5,3,64,51,0.40544313192367554,0.16404907405376434
5,3,64,52,0.46415191888809204,0.2374376803636551
5,3,64,53,0.4352671205997467,0.1335381269454956
5,3,64,54,0.4547230899333954,0.10999782383441925
5,3,64,55,0.6322038769721985,0.12992745637893677
5,3,64,56,0.36389702558517456,0.19900554418563843
5,3,64,57,0.49461227655410767,0.2606032192707062
5,3,64,58,0.4037127196788788,0.1817680448293686
5,3,64,59,0.361124187707901,0.1123424768447876
5,3,64,60,0.43701598048210144,0.16224674880504608
5,3,64,61,0.43861985206604004,0.08829684555530548
5,3,64,62,0.3676421642303467,0.1646525263786316
5,3,64,63,0.41430914402008057,0.16404351592063904
5,4,128,0,0.5367476940155029,0.081741563975811
5,4,128,1,0.7154852747917175,0.1860518902540207
5,4,128,2,0.7649580240249634,0.14158836007118225
5,4,128,3,0.5597209930419922,0.15569938719272614
5,4,128,4,0.3947819471359253,0.22925150394439697
5,4,128,5,0.40764716267585754,0.11393898725509644
5,4,128,6,0.6126440763473511,0.10226994007825851
5,4,128,7,0.6434305310249329,0.2673700451850891
5,4,128,8,0.7045762538909912,0.08291807770729065
5,4,128,9,0.49454742670059204,0.12015467882156372
5,4,128,10,0.6738700866699219,0.21669358015060425
5,4,128,11,0.5507624745368958,0.253844678401947
5,4,128,12,0.498426616191864,0.048780035227537155
5,4,128,13,0.59611576795578,0.13208170235157013
5,4,128,14,0.6723729968070984,0.22327972948551178
5,4,128,15,0.5808677673339844,0.1533316969871521
5,4,128,16,0.6651358604431152,0.22576406598091125
5,4,128,17,0.36764654517173767,0.2018260657787323
5,4,128,18,0.792072594165802,0.11775051057338715
5,4,128,19,0.297701895236969,0.2451869547367096
5,4,128,20,0.4524696469306946,0.2833106815814972
5,4,128,21,0.6990466117858887,0.1343223750591278
5,4,128,22,0.3979361951351166,0.22849859297275543
5,4,128,23,0.45898497104644775,0.3279060423374176
5,4,128,24,0.721163272857666,0.11057361215353012
5,4,128,25,0.720299243927002,0.16006113588809967
5,4,128,26,0.7874862551689148,0.09734287112951279
5,4,128,27,0.5255827903747559,0.19571883976459503
5,4,128,28,0.7277559638023376,0.13322223722934723
5,4,128,29,0.7675425410270691,0.10680682212114334
5,4,128,30,0.6293835043907166,0.19336073100566864
5,4,128,31,0.37759971618652344,0.16694636642932892
5,4,128,32,0.6523095965385437,0.33174610137939453
5,4,128,33,0.4292868971824646,0.3032478392124176
5,4,128,34,0.6529862880706787,0.2062995731830597
5,4,128,35,0.6005064249038696,0.2873780131340027
5,4,128,36,0.2959878444671631,0.1571761965751648
5,4,128,37,0.6653608083724976,0.31861749291419983
5,4,128,38,0.7411618232727051,0.0755097046494484
5,4,128,39,0.45543140172958374,0.18109354376792908
5,4,128,40,0.4495333731174469,0.13481935858726501
5,4,128,41,0.4919220805168152,0.2556038796901703
5,4,128,42,0.504197359085083,0.1817575991153717
5,4,128,43,0.39272019267082214,0.21457704901695251
5,4,128,44,0.6853964924812317,0.11796439439058304
5,4,128,45,0.39449453353881836,0.2441500574350357
5,4,128,46,0.6675025224685669,0.09718729555606842
5,4,128,47,0.6111409664154053,0.35856765508651733
5,4,128,48,0.4875481426715851,0.041989780962467194
5,4,128,49,0.657151997089386,0.14392705261707306
5,4,128,50,0.41745710372924805,0.1541031002998352
5,4,128,51,0.5398484468460083,0.2256043255329132
5,4,128,52,0.3186294436454773,0.1688293069601059
5,4,128,53,0.3970867991447449,0.3046235144138336
5,4,128,54,0.6145801544189453,0.3374612629413605
5,4,128,55,0.6326255202293396,0.11216405779123306
5,4,128,56,0.6522489190101624,0.22679409384727478
5,4,128,57,0.6515088677406311,0.14523831009864807
5,4,128,58,0.6667194962501526,0.2983887195587158
5,4,128,59,0.7254941463470459,0.1890103965997696
5,4,128,60,0.6515911817550659,0.21687965095043182
5,4,128,61,0.5753395557403564,0.25850850343704224
5,4,128,62,0.6097080707550049,0.24672247469425201
5,4,128,63,0.38824281096458435,0.25374290347099304
5,4,128,64,0.3712826669216156,0.21978621184825897
5,4,128,65,0.6646394729614258,0.23230168223381042
5,4,128,66,0.6351135969161987,0.2420233190059662
5,4,128,67,0.477222204208374,0.2545498311519623
5,4,128,68,0.6309078931808472,0.25773683190345764
5,4,128,69,0.7104059457778931,0.12533101439476013
5,4,128,70,0.35552623867988586,0.19000351428985596
5,4,128,71,0.6620227098464966,0.2078075408935547
5,4,128,72,0.6596739292144775,0.24700717628002167
5,4,128,73,0.5931008458137512,0.11216620355844498
5,4,128,74,0.3121671974658966,0.2505223751068115
5,4,128,75,0.5838750600814819,0.0892961174249649
5,4,128,76,0.7446098327636719,0.11782032996416092
5,4,128,77,0.6378268003463745,0.34146395325660706
5,4,128,78,0.6750582456588745,0.10045532882213593
5,4,128,79,0.5357317924499512,0.14182183146476746
5,4,128,80,0.6648622155189514,0.16093438863754272
5,4,128,81,0.6217533946037292,0.11603132635354996
5,4,128,82,0.6731866598129272,0.1486305296421051
5,4,128,83,0.6593148708343506,0.07594386488199234
5,4,128,84,0.42432183027267456,0.22023893892765045
5,4,128,85,0.4205090403556824,0.26184168457984924
5,4,128,86,0.44183599948883057,0.33242499828338623
5,4,128,87,0.5603187680244446,0.08250761032104492
5,4,128,88,0.6237592697143555,0.24402256309986115
5,4,128,89,0.7221134305000305,0.08161143213510513
5,4,128,90,0.7003655433654785,0.17338930070400238
5,4,128,91,0.4086986184120178,0.094245046377182
5,4,128,92,0.4683160185813904,0.19045215845108032
5,4,128,93,0.3198924958705902,0.09861968457698822
5,4,128,94,0.6497462391853333,0.2299594283103943
5,4,128,95,0.6361408233642578,0.2610657811164856
5,4,128,96,0.528697669506073,0.08138847351074219
5,4,128,97,0.5959270000457764,0.30620062351226807
5,4,128,98,0.6507803797721863,0.06314527243375778
5,4,128,99,0.7837196588516235,0.12119660526514053
5,4,128,100,0.4608738422393799,0.3618020713329315
5,4,128,101,0.741448163986206,0.10950113832950592
5,4,128,102,0.6148212552070618,0.3287067115306854
5,4,128,103,0.3782411515712738,0.2696405053138733
5,4,128,104,0.5264406204223633,0.18321260809898376
5,4,128,105,0.4216369390487671,0.12848852574825287
5,4,128,106,0.6494552493095398,0.14249540865421295
5,4,128,107,0.44907787442207336,0.29619866609573364
5,4,128,108,0.3907177150249481,0.22786228358745575
5,4,128,109,0.6643475294113159,0.22530032694339752
5,4,128,110,0.4430282413959503,0.21759231388568878
5,4,128,111,0.4080701470375061,0.28215715289115906
5,4,128,112,0.461108535528183,0.08629904687404633
5,4,128,113,0.5726534724235535,0.24643996357917786
5,4,128,114,0.4600873291492462,0.09642563760280609
5,4,128,115,0.6536504030227661,0.24061039090156555
5,4,128,116,0.6455497741699219,0.2706689238548279
5,4,128,117,0.7687337398529053,0.08818049728870392
5,4,128,118,0.6994595527648926,0.14487619698047638
5,4,128,119,0.6147480607032776,0.3473275303840637
5,4,128,120,0.6399142146110535,0.21562404930591583
5,4,128,121,0.3071652948856354,0.20877531170845032
5,4,128,122,0.6793467998504639,0.1482599377632141
5,4,128,123,0.6310513615608215,0.056390199810266495
5,4,128,124,0.705165684223175,0.19063878059387207
5,4,128,125,0.6165306568145752,0.1041584461927414
5,4,128,126,0.376552551984787,0.3184264302253723
5,4,128,127,0.681822657585144,0.26379066705703735
5,5,128,0,0.6815245747566223,0.20251895487308502
5,5,128,1,0.7694101929664612,0.1258881837129593
5,5,128,2,0.7470977902412415,0.1905050426721573
5,5,128,3,0.7731442451477051,0.09392707794904709
5,5,128,4,0.6995322704315186,0.21666234731674194
5,5,128,5,0.7803020477294922,0.16197721660137177
5,5,128,6,0.6477150917053223,0.13026559352874756
5,5,128,7,0.7454006671905518,0.22803032398223877
5,5,128,8,0.8076005578041077,0.1189458966255188
5,5,128,9,0.7429379224777222,0.14219844341278076
5,5,128,10,0.6915918588638306,0.23786881566047668
5,5,128,11,0.6017508506774902,0.10516071319580078
5,5,128,12,0.510743260383606,0.14862434566020966
5,5,128,13,0.7103948593139648,0.16363753378391266
5,5,128,14,0.3409970700740814,0.2937769293785095
5,5,128,15,0.7066223621368408,0.10292987525463104
5,5,128,16,0.7800496220588684,0.17381666600704193
5,5,128,17,0.7327101826667786,0.0934622585773468
5,5,128,18,0.6885159611701965,0.18272164463996887
5,5,128,19,0.433663547039032,0.1965758055448532
5,5,128,20,0.38178420066833496,0.22124269604682922
5,5,128,21,0.7475976347923279,0.147047758102417
5,5,128,22,0.636292576789856,0.2080095410346985
5,5,128,23,0.6441994905471802,0.16343224048614502
5,5,128,24,0.7671263217926025,0.11328087002038956
5,5,128,25,0.8068516850471497,0.10124482214450836
5,5,128,26,0.8011847138404846,0.09576147049665451
5,5,128,27,0.4815063774585724,0.2824823558330536
5,5,128,28,0.7496069073677063,0.11870789527893066
5,5,128,29,0.791195273399353,0.11708501726388931
5,5,128,30,0.7470420598983765,0.1145501434803009
5,5,128,31,0.47328513860702515,0.19679348170757294
5,5,128,32,0.8665087223052979,0.10556034743785858
5,5,128,33,0.37444007396698,0.17587652802467346
5,5,128,34,0.7992119193077087,0.09829438477754593
5,5,128,35,0.805630624294281,0.10700678080320358
5,5,128,36,0.4601941406726837,0.12362850457429886
5,5,128,37,0.8327093720436096,0.104371078312397
5,5,128,38,0.6408963799476624,0.09963904321193695
5,5,128,39,0.8383032083511353,0.0812891349196434
5,5,128,40,0.7299397587776184,0.13894790410995483
5,5,128,41,0.7898637056350708,0.17148658633232117
5,5,128,42,0.5333685278892517,0.15323607623577118
5,5,128,43,0.576911211013794,0.18452969193458557
5,5,128,44,0.7375982403755188,0.1985328495502472
5,5,128,45,0.4125644564628601,0.23939186334609985
5,5,128,46,0.7751147747039795,0.1173882856965065
5,5,128,47,0.7896303534507751,0.18698731064796448
5,5,128,48,0.5918152332305908,0.12042149901390076
5,5,128,49,0.7414475083351135,0.1774112582206726
5,5,128,50,0.7522497773170471,0.16463623940944672
5,5,128,51,0.7134434580802917,0.09752960503101349
5,5,128,52,0.44064831733703613,0.12994369864463806
5,5,128,53,0.5166933536529541,0.20509913563728333
5,5,128,54,0.741979718208313,0.09979833662509918
5,5,128,55,0.8134545087814331,0.1108734980225563
5,5,128,56,0.7864329218864441,0.1942395120859146
5,5,128,57,0.771571695804596,0.1302846223115921
5,5,128,58,0.766428530216217,0.19435133039951324
5,5,128,59,0.3062494099140167,0.24133504927158356
5,5,128,60,0.7503652572631836,0.09953022003173828
5,5,128,61,0.7747613191604614,0.14820851385593414
5,5,128,62,0.8248783349990845,0.08808088302612305
5,5,128,63,0.8476725220680237,0.09962017834186554
5,5,128,64,0.720329761505127,0.13369391858577728
5,5,128,65,0.6320228576660156,0.16611222922801971
5,5,128,66,0.6465514302253723,0.1250302642583847
5,5,128,67,0.7269702553749084,0.2246483713388443
5,5,128,68,0.8231969475746155,0.0868772491812706
5,5,128,69,0.7571356892585754,0.19653135538101196
5,5,128,70,0.6251521706581116,0.14544665813446045
5,5,128,71,0.6122892498970032,0.2210393249988556
5,5,128,72,0.70401930809021,0.14525721967220306
5,5,128,73,0.7698640823364258,0.1628381311893463
5,5,128,74,0.4213913679122925,0.21506179869174957
5,5,128,75,0.5191280841827393,0.1370651125907898
5,5,128,76,0.6426048278808594,0.09861426055431366
5,5,128,77,0.8453989028930664,0.08214893937110901
5,5,128,78,0.8159337639808655,0.12432420253753662
5,5,128,79,0.6248982548713684,0.1321040391921997
5,5,128,80,0.7959644794464111,0.1009199321269989
5,5,128,81,0.6952101588249207,0.08657572418451309
5,5,128,82,0.6954312324523926,0.1843813955783844
5,5,128,83,0.7610535025596619,0.09018050879240036
5,5,128,84,0.4882890582084656,0.2515428066253662
5,5,128,85,0.3856410086154938,0.2158619910478592
5,5,128,86,0.4018508493900299,0.07963677495718002
5,5,128,87,0.718981146812439,0.12412375956773758
5,5,128,88,0.44631755352020264,0.2523399889469147
5,5,128,89,0.640437126159668,0.22368119657039642
5,5,128,90,0.4748007655143738,0.21324659883975983
5,5,128,91,0.39481303095817566,0.21941286325454712
5,5,128,92,0.7954719066619873,0.12548980116844177
5,5,128,93,0.7097387909889221,0.2006143480539322
5,5,128,94,0.8368421792984009,0.09761669486761093
5,5,128,95,0.6945617198944092,0.13895632326602936
5,5,128,96,0.7200696468353271,0.10147453844547272
5,5,128,97,0.7195899486541748,0.15234288573265076
5,5,128,98,0.7253188490867615,0.106687992811203
5,5,128,99,0.759808361530304,0.1295594722032547
5,5,128,100,0.8030146360397339,0.1045181155204773
5,5,128,101,0.7337325811386108,0.13325804471969604
5,5,128,102,0.793676495552063,0.138291135430336
5,5,128,103,0.6311477422714233,0.2782345712184906
5,5,128,104,0.7831092476844788,0.14858853816986084
5,5,128,105,0.6463282704353333,0.090626060962677
5,5,128,106,0.6768827438354492,0.18710485100746155
5,5,128,107,0.6425332427024841,0.09938842058181763
5,5,128,108,0.8091164231300354,0.11385916918516159
5,5,128,109,0.7044656276702881,0.21120554208755493
5,5,128,110,0.6831001043319702,0.14230097830295563
5,5,128,111,0.8321971893310547,0.08792421966791153
5,5,128,112,0.6015628576278687,0.1489039808511734
5,5,128,113,0.6373253464698792,0.22287636995315552
5,5,128,114,0.3313673138618469,0.1631331592798233
5,5,128,115,0.8072234988212585,0.122491255402565
5,5,128,116,0.7288609743118286,0.15310156345367432
5,5,128,117,0.6829865574836731,0.1797865480184555
5,5,128,118,0.8245154619216919,0.08609350025653839
5,5,128,119,0.6245463490486145,0.15889395773410797
5,5,128,120,0.6711272597312927,0.09757206588983536
5,5,128,121,0.4358309209346771,0.18909257650375366
5,5,128,122,0.8082727193832397,0.12238350510597229
5,5,128,123,0.8074883818626404,0.08610808849334717
5,5,128,124,0.7004876136779785,0.15177680552005768
5,5,128,125,0.7568333745002747,0.09206866472959518
5,5,128,126,0.6479270458221436,0.25469163060188293
5,5,128,127,0.8704225420951843,0.07452284544706345
6,0,32,0,0.5555920600891113,0.0761912390589714
6,0,32,1,0.5294982194900513,0.11958958953619003
6,0,32,2,0.4826010465621948,0.10699106007814407
6,0,32,3,0.5447626113891602,0.10055883973836899
6,0,32,4,0.588188886642456,0.07322040945291519
6,0,32,5,0.49531087279319763,0.12045539915561676
6,0,32,6,0.5096946358680725,0.0753098800778389
6,0,32,7,0.5335498452186584,0.07166668772697449
6,0,32,8,0.41754359006881714,0.03563500568270683
6,0,32,9,0.5800010561943054,0.11365508288145065
6,0,32,10,0.521197497844696,0.11151755601167679
6,0,32,11,0.6333436369895935,0.06302861124277115
6,0,32,12,0.48555293679237366,0.16515202820301056
6,0,32,13,0.5122248530387878,0.09383642673492432
6,0,32,14,0.34013113379478455,0.09957387298345566
6,0,32,15,0.5144748687744141,0.11300712823867798
6,0,32,16,0.46770790219306946,0.1331530660390854
6,0,32,17,0.5857512354850769,0.021486418321728706
6,0,32,18,0.4854353070259094,0.023154104128479958
6,0,32,19,0.4456886649131775,0.07045213133096695
6,0,32,20,0.5905879735946655,0.04631750285625458
6,0,32,21,0.4878906011581421,0.10810459405183792
6,0,32,22,0.5017677545547485,0.10601060092449188
6,0,32,23,0.6470638513565063,0.0439179353415966
6,0,32,24,0.4559200406074524,0.1256108582019806
6,0,32,25,0.3910706341266632,0.11725350469350815
6,0,32,26,0.4680681824684143,0.10931351035833359
6,0,32,27,0.40338918566703796,0.0959659144282341
6,0,32,28,0.35291439294815063,0.08079316467046738
6,0,32,29,0.48705464601516724,0.1124403104186058
6,0,32,30,0.3717903792858124,0.12001956254243851
6,0,32,31,0.3552165627479553,0.08433817327022552
6,1,32,0,0.6265370845794678,0.10113659501075745
6,1,32,1,0.579550564289093,0.06482965499162674
6,1,32,2,0.5028176307678223,0.06487208604812622
6,1,32,3,0.5171398520469666,0.060387589037418365
6,1,32,4,0.46170634031295776,0.0608428493142128
6,1,32,5,0.426788330078125,0.1377401202917099
6,1,32,6,0.3186904489994049,0.06749739497900009
6,1,32,7,0.4997297525405884,0.09830279648303986
6,1,32,8,0.6060729026794434,0.06994113326072693
6,1,32,9,0.495596319437027,0.03087378479540348
6,1,32,10,0.6037120819091797,0.08290062099695206
6,1,32,11,0.39872580766677856,0.13278409838676453
6,1,32,12,0.44414660334587097,0.0583990141749382
6,1,32,13,0.43656226992607117,0.1349741816520691
6,1,32,14,0.3451891541481018,0.09990418702363968
6,1,32,15,0.6028950214385986,0.06734135746955872
6,1,32,16,0.6013861298561096,0.03614603728055954
6,1,32,17,0.583701491355896,0.09812725335359573
6,1,32,18,0.5205110907554626,0.043883804231882095
6,1,32,19,0.44273698329925537,0.11151479929685593
6,1,32,20,0.43938031792640686,0.16167956590652466
6,1,32,21,0.4108065068721771,0.07923734933137894
6,1,32,22,0.4725869297981262,0.09265834093093872
6,1,32,23,0.36811861395835876,0.06968953460454941
6,1,32,24,0.6664248108863831,0.09339368343353271
6,1,32,25,0.6784317493438721,0.09053027629852295
6,1,32,26,0.3772229552268982,0.15845930576324463
6,1,32,27,0.45225250720977783,0.14568603038787842
6,1,32,28,0.5222153663635254,0.06147047132253647
6,1,32,29,0.6676440834999084,0.09514715522527695
6,1,32,30,0.6519891023635864,0.029377201572060585
6,1,32,31,0.35579097270965576,0.059122174978256226
6,2,64,0,0.7985386252403259,0.14110544323921204
6,2,64,1,0.5466040968894958,0.18885166943073273
6,2,64,2,0.6638513207435608,0.12815922498703003
6,2,64,3,0.41350215673446655,0.25295302271842957
6,2,64,4,0.4956488013267517,0.24374863505363464
6,2,64,5,0.37635576725006104,0.17075644433498383
6,2,64,6,0.5462888479232788,0.0651458129286766
6,2,64,7,0.6620434522628784,0.1716490387916565
6,2,64,8,0.38620105385780334,0.11169146746397018
6,2,64,9,0.38412559032440186,0.07453739643096924
6,2,64,10,0.7436351776123047,0.16057835519313812
6,2,64,11,0.6086914539337158,0.3078170418739319
6,2,64,12,0.5439804196357727,0.2690134644508362
6,2,64,13,0.5021870136260986,0.08052832633256912
6,2,64,14,0.7624761462211609,0.13877759873867035
6,2,64,15,0.3370092213153839,0.11647740751504898
6,2,64,16,0.5453038811683655,0.18905755877494812
6,2,64,17,0.3442295491695404,0.15002398192882538
6,2,64,18,0.4017636477947235,0.10942088067531586
6,2,64,19,0.49028363823890686,0.18956921994686127
6,2,64,20,0.34775659441947937,0.11956286430358887
6,2,64,21,0.27391955256462097,0.17832516133785248
6,2,64,22,0.5053264498710632,0.1055770069360733
6,2,64,23,0.38412943482398987,0.29773297905921936
6,2,64,24,0.3359762728214264,0.18198786675930023
6,2,64,25,0.7780206799507141,0.1932174414396286
6,2,64,26,0.521070659160614,0.16163291037082672
6,2,64,27,0.4692040979862213,0.18022896349430084
6,2,64,28,0.24263519048690796,0.12990576028823853
6,2,64,29,0.5899197459220886,0.19795049726963043
6,2,64,30,0.5615060925483704,0.06747806817293167
6,2,64,31,0.6018683314323425,0.21226826310157776
6,2,64,32,0.3905038833618164,0.19940398633480072
6,2,64,33,0.6020939350128174,0.10128981620073318
6,2,64,34,0.4720953106880188,0.11185525357723236
6,2,64,35,0.343456894159317,0.18555457890033722
6,2,64,36,0.6632038354873657,0.12930504977703094
6,2,64,37,0.5561298131942749,0.1794610321521759
6,2,64,38,0.3514367640018463,0.1712394654750824
6,2,64,39,0.8550101518630981,0.10221964865922928
6,2,64,40,0.7207720279693604,0.2092505544424057
6,2,64,41,0.3225175142288208,0.11705552041530609
6,2,64,42,0.553948700428009,0.07981780916452408
6,2,64,43,0.3855673670768738,0.17281214892864227
6,2,64,44,0.4159438908100128,0.11106090992689133
6,2,64,45,0.3911539316177368,0.17811031639575958
6,2,64,46,0.6221869587898254,0.16227050125598907
6,2,64,47,0.450266033411026,0.2826288640499115
6,2,64,48,0.48243674635887146,0.19176572561264038
6,2,64,49,0.6270154714584351,0.2072513848543167
6,2,64,50,0.34525740146636963,0.25869694352149963
6,2,64,51,0.6232012510299683,0.08352354913949966
6,2,64,52,0.3962446451187134,0.2553997039794922
6,2,64,53,0.6882236003875732,0.2388230562210083
6,2,64,54,0.7366029620170593,0.06809114664793015
6,2,64,55,0.7771807312965393,0.11685457080602646
6,2,64,56,0.3831019103527069,0.15031948685646057
6,2,64,57,0.447980672121048,0.20423462986946106
6,2,64,58,0.6821326613426208,0.12708225846290588
6,2,64,59,0.426215261220932,0.13961215317249298
6,2,64,60,0.32697054743766785,0.09695896506309509
6,2,64,61,0.371278315782547,0.22119607031345367
6,2,64,62,0.5958214998245239,0.19914042949676514
6,2,64,63,0.643901526927948,0.23922570049762726
6,3,64,0,0.5821738243103027,0.052385490387678146
6,3,64,1,0.4269335865974426,0.11758387833833694
6,3,64,2,0.42284446954727173,0.0896901860833168
6,3,64,3,0.4336007833480835,0.16082917153835297
6,3,64,4,0.49142012000083923,0.02053254283964634
6,3,64,5,0.5365945100784302,0.08608141541481018
6,3,64,6,0.5984572768211365,0.149556964635849
6,3,64,7,0.713293731212616,0.09630722552537918
6,3,64,8,0.4353131949901581,0.07834845781326294
6,3,64,9,0.4362381398677826,0.10245893895626068
6,3,64,10,0.5771145820617676,0.23918470740318298
6,3,64,11,0.3174188733100891,0.0961032286286354
6,3,64,12,0.32771340012550354,0.0740843340754509
6,3,64,13,0.44094428420066833,0.15956313908100128
6,3,64,14,0.517051637172699,0.1065981388092041
6,3,64,15,0.5133795738220215,0.10175531357526779
6,3,64,16,0.6131516695022583,0.14128930866718292
6,3,64,17,0.6012678742408752,0.14193695783615112
6,3,64,18,0.5127272009849548,0.21858073770999908
6,3,64,19,0.490864098072052,0.19165141880512238
6,3,64,20,0.5599097609519958,0.08051930367946625
6,3,64,21,0.5020315051078796,0.047670044004917145
6,3,64,22,0.5665270090103149,0.11770308017730713
6,3,64,23,0.40099626779556274,0.1516222208738327
6,3,64,24,0.532866895198822,0.12980137765407562
6,3,64,25,0.5412406921386719,0.2650764286518097
6,3,64,26,0.5708480477333069,0.09892619401216507
6,3,64,27,0.5529165863990784,0.2397204488515854
6,3,64,28,0.4892839789390564,0.11106040328741074
6,3,64,29,0.6075490117073059,0.07280135899782181
6,3,64,30,0.5636293888092041,0.11203630268573761
6,3,64,31,0.4039490818977356,0.14689099788665771
6,3,64,32,0.5956123471260071,0.054735589772462845
6,3,64,33,0.40204864740371704,0.13692113757133484
6,3,64,34,0.5656899809837341,0.08294151723384857
6,3,64,35,0.404327392578125,0.07443824410438538
6,3,64,36,0.39231231808662415,0.2074981927871704
6,3,64,37,0.5698864459991455,0.08512745797634125
6,3,64,38,0.4013350307941437,0.10208452492952347
6,3,64,39,0.478283166885376,0.18296629190444946
6,3,64,40,0.5405182242393494,0.08224576711654663
6,3,64,41,0.5258191823959351,0.1309722512960434
6,3,64,42,0.382622092962265,0.10280103981494904
6,3,64,43,0.5505337119102478,0.1512625366449356
6,3,64,44,0.4877292215824127,0.07207991182804108
6,3,64,45,0.6047710180282593,0.10142585635185242
6,3,64,46,0.6185051202774048,0.08188469707965851
6,3,64,47,0.32041069865226746,0.08448399603366852
6,3,64,48,0.31096380949020386,0.10391725599765778
6,3,64,49,0.5136346817016602,0.14706368744373322
6,3,64,50,0.42773306369781494,0.1815226823091507
6,3,64,51,0.39857667684555054,0.21029961109161377
6,3,64,52,0.4318697452545166,0.11710581928491592
6,3,64,53,0.6658020615577698,0.15835927426815033
6,3,64,54,0.4508373737335205,0.08941765129566193
6,3,64,55,0.5391896963119507,0.10838836431503296
6,3,64,56,0.3639785051345825,0.10128150135278702
6,3,64,57,0.44151371717453003,0.12337388843297958
6,3,64,58,0.4166441559791565,0.11596408486366272
6,3,64,59,0.46542948484420776,0.12213654071092606
6,3,64,60,0.38858461380004883,0.07446198165416718
6,3,64,61,0.3098911643028259,0.1567518711090088
6,3,64,62,0.5263594388961792,0.13103896379470825
6,3,64,63,0.593107283115387,0.096473827958107
