subject,block,block_width,feature_channel,gate_mean,gate_sd
1,0,32,0,0.5353125929832458,0.03265396133065224
1,0,32,1,0.4389692544937134,0.033704325556755066
1,0,32,2,0.6363345980644226,0.04987236112356186
1,0,32,3,0.4773012101650238,0.051156118512153625
1,0,32,4,0.5491216778755188,0.043614476919174194
1,0,32,5,0.6304301619529724,0.034238748252391815
1,0,32,6,0.4110639989376068,0.0428372398018837
1,0,32,7,0.6369152665138245,0.03117433190345764
1,0,32,8,0.45166656374931335,0.015296705067157745
1,0,32,9,0.3740440607070923,0.02608678862452507
1,0,32,10,0.5519080758094788,0.02180766500532627
1,0,32,11,0.523608386516571,0.04115132614970207
1,0,32,12,0.40713247656822205,0.05315576121211052
1,0,32,13,0.47159144282341003,0.05530906841158867
1,0,32,14,0.5310955047607422,0.060749780386686325
1,0,32,15,0.5391896963119507,0.03349123150110245
1,0,32,16,0.5203627347946167,0.045327648520469666
1,0,32,17,0.5702622532844543,0.046159740537405014
1,0,32,18,0.523612380027771,0.029974037781357765
1,0,32,19,0.4333329498767853,0.039665479212999344
1,0,32,20,0.5323415398597717,0.030634142458438873
1,0,32,21,0.6390559673309326,0.04012839123606682
1,0,32,22,0.5332514643669128,0.04683630168437958
1,0,32,23,0.47696197032928467,0.04194100946187973
1,0,32,24,0.6041328310966492,0.03517813980579376
1,0,32,25,0.43730318546295166,0.04327498748898506
1,0,32,26,0.6368155479431152,0.0389426052570343
1,0,32,27,0.5999138355255127,0.03599594160914421
1,0,32,28,0.5732314586639404,0.0340147502720356
1,0,32,29,0.5306105017662048,0.03257054090499878
1,0,32,30,0.5397344827651978,0.034722987562417984
1,0,32,31,0.5410268902778625,0.043496232479810715
1,1,32,0,0.4791374206542969,0.016182394698262215
1,1,32,1,0.43657559156417847,0.04768004268407822
1,1,32,2,0.40506768226623535,0.027195099741220474
1,1,32,3,0.6338313221931458,0.0337207093834877
1,1,32,4,0.5904466509819031,0.01044149324297905
1,1,32,5,0.41660913825035095,0.035143133252859116
1,1,32,6,0.5356771945953369,0.02886022999882698
1,1,32,7,0.5194100141525269,0.0377865694463253
1,1,32,8,0.4010958969593048,0.022448578849434853
1,1,32,9,0.6329177021980286,0.02901742234826088
1,1,32,10,0.5734715461730957,0.025059223175048828
1,1,32,11,0.551412045955658,0.024741556495428085
1,1,32,12,0.3716121017932892,0.049416434019804
1,1,32,13,0.41181907057762146,0.024313120171427727
1,1,32,14,0.5523577332496643,0.029783740639686584
1,1,32,15,0.5547868609428406,0.035587288439273834
1,1,32,16,0.4709247648715973,0.03280388563871384
1,1,32,17,0.5850599408149719,0.02467356249690056
1,1,32,18,0.4745451509952545,0.019829275086522102
1,1,32,19,0.37407076358795166,0.02546085976064205
1,1,32,20,0.44123393297195435,0.0326964296400547
1,1,32,21,0.45621001720428467,0.040432658046483994
1,1,32,22,0.4603421092033386,0.049788132309913635
1,1,32,23,0.5501392483711243,0.02655133791267872
1,1,32,24,0.5670213103294373,0.03196011483669281
1,1,32,25,0.5762351751327515,0.025508156046271324
1,1,32,26,0.524970293045044,0.04178056865930557
1,1,32,27,0.46172818541526794,0.013722678646445274
1,1,32,28,0.6094757914543152,0.024674588814377785
1,1,32,29,0.5961042046546936,0.03208290413022041
1,1,32,30,0.4688035249710083,0.029777051880955696
1,1,32,31,0.5546743869781494,0.03475777804851532
1,2,64,0,0.4527692198753357,0.03047492355108261
1,2,64,1,0.5150964856147766,0.04303475096821785
1,2,64,2,0.46463334560394287,0.03532326966524124
1,2,64,3,0.4122021794319153,0.03552195429801941
1,2,64,4,0.40852978825569153,0.030675822868943214
1,2,64,5,0.546497106552124,0.025265535339713097
1,2,64,6,0.6064234972000122,0.03419219329953194
1,2,64,7,0.42807555198669434,0.05041718855500221
1,2,64,8,0.5830755233764648,0.03850425034761429
1,2,64,9,0.5719485878944397,0.038710229098796844
1,2,64,10,0.6155101656913757,0.023770024999976158
1,2,64,11,0.42967715859413147,0.03126763924956322
1,2,64,12,0.5606356263160706,0.024623125791549683
1,2,64,13,0.5165425539016724,0.049749214202165604
1,2,64,14,0.5219789147377014,0.0077656349167227745
1,2,64,15,0.4484696090221405,0.02366326004266739
1,2,64,16,0.5514602661132812,0.04930521920323372
1,2,64,17,0.5748477578163147,0.033151593059301376
1,2,64,18,0.5460382103919983,0.04988643527030945
1,2,64,19,0.46382251381874084,0.04973712936043739
1,2,64,20,0.6021847724914551,0.021923506632447243
1,2,64,21,0.557349681854248,0.05067962408065796
1,2,64,22,0.4364561140537262,0.02999132312834263
1,2,64,23,0.5307913422584534,0.025941627100110054
1,2,64,24,0.4934779405593872,0.05583902820944786
1,2,64,25,0.5540207028388977,0.03329236060380936
1,2,64,26,0.48220524191856384,0.02142159268260002
1,2,64,27,0.6316405534744263,0.0308124627918005
1,2,64,28,0.5013957619667053,0.045592572540044785
1,2,64,29,0.43956872820854187,0.02366807498037815
1,2,64,30,0.4930785596370697,0.0370040126144886
1,2,64,31,0.47378310561180115,0.06713984906673431
1,2,64,32,0.548031747341156,0.037162911146879196
1,2,64,33,0.4727950394153595,0.03356693312525749
1,2,64,34,0.4836185574531555,0.041890647262334824
1,2,64,35,0.49905112385749817,0.05498487502336502
1,2,64,36,0.5271665453910828,0.038047920912504196
1,2,64,37,0.4989386200904846,0.047937747091054916
1,2,64,38,0.5361565947532654,0.07224009931087494
1,2,64,39,0.44829848408699036,0.037486009299755096
1,2,64,40,0.4584941565990448,0.038121335208415985
1,2,64,41,0.5410159826278687,0.042469825595617294
1,2,64,42,0.5271590352058411,0.03347533568739891
1,2,64,43,0.3861566185951233,0.03688283637166023
1,2,64,44,0.3996073305606842,0.03483045846223831
1,2,64,45,0.5230252742767334,0.03353571891784668
1,2,64,46,0.4113540053367615,0.025307737290859222
1,2,64,47,0.47511228919029236,0.02551991678774357
1,2,64,48,0.4789777994155884,0.015846362337470055
1,2,64,49,0.454004168510437,0.05917036905884743
1,2,64,50,0.49707481265068054,0.03308162838220596
1,2,64,51,0.5186976194381714,0.0326392687857151
1,2,64,52,0.4206489026546478,0.02211742289364338
1,2,64,53,0.5649864077568054,0.03692170977592468
1,2,64,54,0.43063437938690186,0.040237367153167725
1,2,64,55,0.5668516755104065,0.024427609518170357
1,2,64,56,0.4785110652446747,0.05828412249684334
1,2,64,57,0.5666494965553284,0.03157826140522957
1,2,64,58,0.5233601927757263,0.03178958222270012
1,2,64,59,0.4528283476829529,0.03502701222896576
1,2,64,60,0.48138919472694397,0.04126865044236183
1,2,64,61,0.5204818248748779,0.016578370705246925
1,2,64,62,0.4844420850276947,0.03825854882597923
1,2,64,63,0.4109814763069153,0.03705482557415962
1,3,64,0,0.5419619679450989,0.079572394490242
1,3,64,1,0.4891435205936432,0.02854030951857567
1,3,64,2,0.47093045711517334,0.037124887108802795
1,3,64,3,0.37885892391204834,0.12242545932531357
1,3,64,4,0.456221342086792,0.048446182161569595
1,3,64,5,0.36660799384117126,0.03022647276520729
1,3,64,6,0.4526188373565674,0.034979406744241714
1,3,64,7,0.47199052572250366,0.08467347919940948
1,3,64,8,0.5772057771682739,0.024846816435456276
1,3,64,9,0.47758302092552185,0.05969849228858948
1,3,64,10,0.4701891541481018,0.018510250374674797
1,3,64,11,0.43721747398376465,0.1142461970448494
1,3,64,12,0.46392518281936646,0.04666037857532501
1,3,64,13,0.5070450901985168,0.02377195656299591
1,3,64,14,0.6619083881378174,0.1111956313252449
1,3,64,15,0.4657958149909973,0.026500798761844635
1,3,64,16,0.4086122512817383,0.029225321486592293
1,3,64,17,0.46943482756614685,0.12149574607610703
1,3,64,18,0.5093692541122437,0.08090037852525711
1,3,64,19,0.5263300538063049,0.09461558610200882
1,3,64,20,0.47082599997520447,0.09855785965919495
1,3,64,21,0.4545625150203705,0.06537903845310211
1,3,64,22,0.5546654462814331,0.03172953054308891
1,3,64,23,0.48742127418518066,0.08891035616397858
1,3,64,24,0.5460830330848694,0.03331729397177696
1,3,64,25,0.46588125824928284,0.05151424556970596
1,3,64,26,0.531794011592865,0.038465309888124466
1,3,64,27,0.4402799606323242,0.08035073429346085
1,3,64,28,0.4872635006904602,0.0889967754483223
1,3,64,29,0.48299720883369446,0.08883652091026306
1,3,64,30,0.5330874919891357,0.02420629747211933
1,3,64,31,0.4887325167655945,0.09720808267593384
1,3,64,32,0.6030166745185852,0.02718636952340603
1,3,64,33,0.5812201499938965,0.08678991347551346
1,3,64,34,0.3983296751976013,0.063628651201725
1,3,64,35,0.5040765404701233,0.08190605789422989
1,3,64,36,0.41316014528274536,0.09034813195466995
1,3,64,37,0.3798002302646637,0.07224208861589432
1,3,64,38,0.4324537515640259,0.09954272210597992
1,3,64,39,0.47253087162971497,0.0963299497961998
1,3,64,40,0.5245639085769653,0.06360427290201187
1,3,64,41,0.4940834939479828,0.03350592404603958
1,3,64,42,0.5169262290000916,0.04115915298461914
1,3,64,43,0.5107561349868774,0.03641306236386299
1,3,64,44,0.5307498574256897,0.13879941403865814
1,3,64,45,0.594314455986023,0.04213128238916397
1,3,64,46,0.4609915614128113,0.03610914945602417
1,3,64,47,0.5647823810577393,0.08953168243169785
1,3,64,48,0.5351095199584961,0.07760567218065262
1,3,64,49,0.5739966034889221,0.0298065934330225
1,3,64,50,0.47642916440963745,0.1345899999141693
1,3,64,51,0.4421818256378174,0.0241048913449049
1,3,64,52,0.48663368821144104,0.11451622098684311
1,3,64,53,0.47695082426071167,0.12361156940460205
1,3,64,54,0.5455445051193237,0.042885057628154755
1,3,64,55,0.5021671652793884,0.09784261137247086
1,3,64,56,0.6699715256690979,0.04879281297326088
1,3,64,57,0.613759458065033,0.04304087907075882
1,3,64,58,0.5824506878852844,0.08481379598379135
1,3,64,59,0.5309957265853882,0.02408187836408615
1,3,64,60,0.5488390326499939,0.024619920179247856
1,3,64,61,0.39854130148887634,0.10517209768295288
1,3,64,62,0.5092073082923889,0.05516831576824188
1,3,64,63,0.5995357632637024,0.060411907732486725
1,4,128,0,0.4379035532474518,0.053522177040576935
1,4,128,1,0.4467431604862213,0.04902125895023346
1,4,128,2,0.4863012731075287,0.10271193832159042
1,4,128,3,0.53547203540802,0.04854012280702591
1,4,128,4,0.4108836352825165,0.09204234927892685
1,4,128,5,0.5320735573768616,0.09759954363107681
1,4,128,6,0.5932904481887817,0.055807821452617645
1,4,128,7,0.5007679462432861,0.08533497154712677
1,4,128,8,0.47271931171417236,0.09775085002183914
1,4,128,9,0.6604383587837219,0.200260728597641
1,4,128,10,0.5059870481491089,0.05061763525009155
1,4,128,11,0.5768001675605774,0.11070863902568817
1,4,128,12,0.4283979833126068,0.14557860791683197
1,4,128,13,0.6162135601043701,0.11124677211046219
1,4,128,14,0.5082235932350159,0.05240154638886452
1,4,128,15,0.6228556036949158,0.06910795718431473
1,4,128,16,0.3776330351829529,0.18965572118759155
1,4,128,17,0.4919128715991974,0.18280068039894104
1,4,128,18,0.47953876852989197,0.06987231224775314
1,4,128,19,0.3545759916305542,0.1688271462917328
1,4,128,20,0.5973173975944519,0.11100132018327713
1,4,128,21,0.6073647737503052,0.1627180427312851
1,4,128,22,0.6018603444099426,0.11219897866249084
1,4,128,23,0.4061678647994995,0.1096629872918129
1,4,128,24,0.5095804929733276,0.048530928790569305
1,4,128,25,0.6231650710105896,0.07536578923463821
1,4,128,26,0.45694780349731445,0.12068330496549606
1,4,128,27,0.7113850116729736,0.15354503691196442
1,4,128,28,0.56951904296875,0.0783308669924736
1,4,128,29,0.5473295450210571,0.07897847890853882
1,4,128,30,0.6551832556724548,0.16598007082939148
1,4,128,31,0.4472182095050812,0.07268915325403214
1,4,128,32,0.6138411164283752,0.16615545749664307
1,4,128,33,0.5207135677337646,0.04643359035253525
1,4,128,34,0.5977917909622192,0.08554992079734802
1,4,128,35,0.5033442974090576,0.11937253177165985
1,4,128,36,0.6105116605758667,0.11923284083604813
1,4,128,37,0.576450526714325,0.13941365480422974
1,4,128,38,0.6340200901031494,0.12097383290529251
1,4,128,39,0.41202497482299805,0.11110646277666092
1,4,128,40,0.36496663093566895,0.10202572494745255
1,4,128,41,0.592340886592865,0.07376082986593246
1,4,128,42,0.3675999045372009,0.06366673856973648
1,4,128,43,0.5000147819519043,0.19123099744319916
1,4,128,44,0.6181804537773132,0.053543493151664734
1,4,128,45,0.4653628170490265,0.0748942568898201
1,4,128,46,0.38547995686531067,0.025014176964759827
1,4,128,47,0.551579475402832,0.045423246920108795
1,4,128,48,0.3945324420928955,0.13954810798168182
1,4,128,49,0.4991653561592102,0.11903152614831924
1,4,128,50,0.6041890382766724,0.11638420820236206
1,4,128,51,0.5730463862419128,0.10283175855875015
1,4,128,52,0.43510398268699646,0.0862756073474884
1,4,128,53,0.6326445937156677,0.22621306777000427
1,4,128,54,0.4795200526714325,0.14121706783771515
1,4,128,55,0.5227194428443909,0.08345359563827515
1,4,128,56,0.6284626126289368,0.1874343305826187
1,4,128,57,0.5296100378036499,0.08161082118749619
1,4,128,58,0.6968487501144409,0.14903290569782257
1,4,128,59,0.40556836128234863,0.09357408434152603
1,4,128,60,0.5094068646430969,0.07203197479248047
1,4,128,61,0.35237041115760803,0.125583216547966
1,4,128,62,0.6242795586585999,0.03863729536533356
1,4,128,63,0.6114122271537781,0.12899149954319
1,4,128,64,0.5934557914733887,0.025779981166124344
1,4,128,65,0.6041334867477417,0.14781416952610016
1,4,128,66,0.3587397038936615,0.12997989356517792
1,4,128,67,0.6237807273864746,0.057355254888534546
1,4,128,68,0.5449557900428772,0.19897115230560303
1,4,128,69,0.4918532073497772,0.07147389650344849
1,4,128,70,0.435017466545105,0.1106681376695633
1,4,128,71,0.7015625834465027,0.10238217562437057
1,4,128,72,0.3580075800418854,0.1188974678516388
1,4,128,73,0.42870280146598816,0.0770382508635521
1,4,128,74,0.3620810806751251,0.15579552948474884
1,4,128,75,0.5179979801177979,0.1774212121963501
1,4,128,76,0.5010848045349121,0.1723664402961731
1,4,128,77,0.6256397366523743,0.21688391268253326
1,4,128,78,0.5780530571937561,0.09363418072462082
1,4,128,79,0.5551684498786926,0.05877692997455597
1,4,128,80,0.3423469662666321,0.05573221668601036
1,4,128,81,0.5343104004859924,0.07229398936033249
1,4,128,82,0.5468264818191528,0.07610485702753067
1,4,128,83,0.516828715801239,0.03506695479154587
1,4,128,84,0.5482361912727356,0.0776059627532959
1,4,128,85,0.6628435850143433,0.07859262824058533
1,4,128,86,0.6265676617622375,0.12226184457540512
1,4,128,87,0.441447377204895,0.086435467004776
1,4,128,88,0.6097731590270996,0.12605205178260803
1,4,128,89,0.43034255504608154,0.10332728177309036
1,4,128,90,0.5644824504852295,0.050401195883750916
1,4,128,91,0.49314919114112854,0.11079380661249161
1,4,128,92,0.5425752401351929,0.060006894171237946
1,4,128,93,0.6150928735733032,0.2236415296792984
1,4,128,94,0.6261959075927734,0.058848634362220764
1,4,128,95,0.39358463883399963,0.05317528173327446
1,4,128,96,0.3233112692832947,0.13252079486846924
1,4,128,97,0.4750743508338928,0.05354173481464386
1,4,128,98,0.5825079679489136,0.09592369943857193
1,4,128,99,0.5863962769508362,0.09602044522762299
1,4,128,100,0.5819454193115234,0.15647314488887787
1,4,128,101,0.4043518900871277,0.10994026064872742
1,4,128,102,0.5194128155708313,0.07824815809726715
1,4,128,103,0.6394950151443481,0.1738263964653015
1,4,128,104,0.4395560026168823,0.06439653784036636
1,4,128,105,0.4366912543773651,0.05721841752529144
1,4,128,106,0.4363040328025818,0.035427238792181015
1,4,128,107,0.5978347063064575,0.14050987362861633
1,4,128,108,0.45827120542526245,0.04298905283212662
1,4,128,109,0.5946061015129089,0.20596610009670258
1,4,128,110,0.4975905120372772,0.13556894659996033
1,4,128,111,0.6339864134788513,0.09502380341291428
1,4,128,112,0.6548236608505249,0.14444158971309662
1,4,128,113,0.583470344543457,0.1414952427148819
1,4,128,114,0.3846517503261566,0.045749254524707794
1,4,128,115,0.4398978054523468,0.04693024605512619
1,4,128,116,0.5929086208343506,0.05767292529344559
1,4,128,117,0.5801301002502441,0.16141696274280548
1,4,128,118,0.3856782913208008,0.05628652125597
1,4,128,119,0.4618171155452728,0.13713353872299194
1,4,128,120,0.3377447724342346,0.17806801199913025
1,4,128,121,0.589686930179596,0.0802125483751297
1,4,128,122,0.5522218346595764,0.05641531944274902
1,4,128,123,0.5163424611091614,0.11626474559307098
1,4,128,124,0.378471702337265,0.10417100042104721
1,4,128,125,0.6236936450004578,0.1644088178873062
1,4,128,126,0.4375564754009247,0.08402116596698761
1,4,128,127,0.5870622396469116,0.09979540854692459
1,5,128,0,0.49596527218818665,0.09269063174724579
1,5,128,1,0.6590479016304016,0.09846507012844086
1,5,128,2,0.5739894509315491,0.07192254066467285
1,5,128,3,0.26698875427246094,0.08595766872167587
1,5,128,4,0.6427531838417053,0.11054041981697083
1,5,128,5,0.6306798458099365,0.16947826743125916
1,5,128,6,0.6805146932601929,0.08541588485240936
1,5,128,7,0.5886478424072266,0.06776947528123856
1,5,128,8,0.6050664782524109,0.1464005410671234
1,5,128,9,0.4800426661968231,0.06890445947647095
1,5,128,10,0.626773476600647,0.16973842680454254
1,5,128,11,0.41413670778274536,0.020361853763461113
1,5,128,12,0.3908199965953827,0.13633182644844055
1,5,128,13,0.6005021333694458,0.10820206254720688
1,5,128,14,0.6861693263053894,0.10411930084228516
1,5,128,15,0.3786141276359558,0.10916152596473694
1,5,128,16,0.2519325911998749,0.14900416135787964
1,5,128,17,0.5038714408874512,0.05092909559607506
1,5,128,18,0.40924522280693054,0.09210838377475739
1,5,128,19,0.5099292993545532,0.035320695489645004
1,5,128,20,0.5346731543540955,0.03679022565484047
1,5,128,21,0.5890863537788391,0.08210291713476181
1,5,128,22,0.6121429204940796,0.10925307124853134
1,5,128,23,0.39884456992149353,0.045837920159101486
1,5,128,24,0.38738322257995605,0.04767850786447525
1,5,128,25,0.6542729735374451,0.12955930829048157
1,5,128,26,0.41843608021736145,0.08702738583087921
1,5,128,27,0.639999508857727,0.11464735865592957
1,5,128,28,0.6001511216163635,0.15673013031482697
1,5,128,29,0.616634726524353,0.09009002894163132
1,5,128,30,0.5205557346343994,0.06540383398532867
1,5,128,31,0.40956830978393555,0.07506323605775833
1,5,128,32,0.4826958179473877,0.07660778611898422
1,5,128,33,0.4258683919906616,0.046627480536699295
1,5,128,34,0.5008459687232971,0.058249179273843765
1,5,128,35,0.5712992548942566,0.0795980766415596
1,5,128,36,0.5114477872848511,0.04354136064648628
1,5,128,37,0.5695814490318298,0.14233234524726868
1,5,128,38,0.38708654046058655,0.13499018549919128
1,5,128,39,0.5918534994125366,0.11431049555540085
1,5,128,40,0.6649801135063171,0.08321840316057205
1,5,128,41,0.5462784767150879,0.03689510002732277
1,5,128,42,0.5345766544342041,0.04409793019294739
1,5,128,43,0.5693655014038086,0.1345977783203125
1,5,128,44,0.46933621168136597,0.06169416755437851
1,5,128,45,0.5556958913803101,0.029449841007590294
1,5,128,46,0.44766977429389954,0.05804723873734474
1,5,128,47,0.652019202709198,0.16596566140651703
1,5,128,48,0.49199819564819336,0.06646868586540222
1,5,128,49,0.4128308594226837,0.08318918943405151
1,5,128,50,0.47511357069015503,0.07242728769779205
1,5,128,51,0.5554547905921936,0.09595541656017303
1,5,128,52,0.6851204037666321,0.055747222155332565
1,5,128,53,0.6244187355041504,0.048010826110839844
1,5,128,54,0.40507572889328003,0.05733749270439148
1,5,128,55,0.5423563718795776,0.05874336510896683
1,5,128,56,0.4592130482196808,0.07120494544506073
1,5,128,57,0.46901988983154297,0.03326264023780823
1,5,128,58,0.6027319431304932,0.05309604853391647
1,5,128,59,0.5877075791358948,0.03255082294344902
1,5,128,60,0.6075589656829834,0.14473825693130493
1,5,128,61,0.5899734497070312,0.10675109177827835
1,5,128,62,0.4913119077682495,0.06303524971008301
1,5,128,63,0.5248912572860718,0.09519195556640625
1,5,128,64,0.4053662419319153,0.03612988442182541
1,5,128,65,0.6874496936798096,0.12723040580749512
1,5,128,66,0.33565405011177063,0.08888927847146988
1,5,128,67,0.46193167567253113,0.03159366920590401
1,5,128,68,0.5394992828369141,0.04741499200463295
1,5,128,69,0.6576816439628601,0.15188747644424438
1,5,128,70,0.607842206954956,0.07745293527841568
1,5,128,71,0.5168802738189697,0.09317787736654282
1,5,128,72,0.36330196261405945,0.0984032079577446
1,5,128,73,0.550635039806366,0.06943672895431519
1,5,128,74,0.5917700529098511,0.0416051410138607
1,5,128,75,0.358686238527298,0.0772421658039093
1,5,128,76,0.599791407585144,0.032602738589048386
1,5,128,77,0.4479949176311493,0.02943269908428192
1,5,128,78,0.5803258419036865,0.08660861849784851
1,5,128,79,0.4732048511505127,0.09515494108200073
1,5,128,80,0.43624454736709595,0.07900959998369217
1,5,128,81,0.5269523859024048,0.0873880460858345
1,5,128,82,0.540030300617218,0.10485631972551346
1,5,128,83,0.6321936845779419,0.12157657742500305
1,5,128,84,0.5474724173545837,0.11208081990480423
1,5,128,85,0.4832339882850647,0.06473346054553986
1,5,128,86,0.5795518159866333,0.13230817019939423
1,5,128,87,0.5242271423339844,0.02597709186375141
1,5,128,88,0.4848101735115051,0.10055531561374664
1,5,128,89,0.3141714930534363,0.09961330145597458
1,5,128,90,0.534837543964386,0.044823043048381805
1,5,128,91,0.7097549438476562,0.115561842918396
1,5,128,92,0.47951093316078186,0.04777306690812111
1,5,128,93,0.6838696599006653,0.10581406950950623
1,5,128,94,0.5692553520202637,0.027976350858807564
1,5,128,95,0.5187583565711975,0.10406093299388885
1,5,128,96,0.5465976595878601,0.06504038721323013
1,5,128,97,0.5343511700630188,0.05323114991188049
1,5,128,98,0.516337513923645,0.03777545318007469
1,5,128,99,0.5330986380577087,0.1032506600022316
1,5,128,100,0.482293039560318,0.033176932483911514
1,5,128,101,0.6234583854675293,0.06588558107614517
1,5,128,102,0.35306674242019653,0.06851515918970108
1,5,128,103,0.5899121165275574,0.11661377549171448
1,5,128,104,0.547052800655365,0.06290236115455627
1,5,128,105,0.5282163023948669,0.055476609617471695
1,5,128,106,0.5805767774581909,0.060927554965019226
1,5,128,107,0.4258610010147095,0.061191193759441376
1,5,128,108,0.507020115852356,0.049349844455718994
1,5,128,109,0.5974958539009094,0.14271017909049988
1,5,128,110,0.6438269019126892,0.06807854026556015
1,5,128,111,0.6900051236152649,0.19376510381698608
1,5,128,112,0.6256223917007446,0.05814095586538315
1,5,128,113,0.5784287452697754,0.0612790547311306
1,5,128,114,0.5574721693992615,0.09328943490982056
1,5,128,115,0.45829537510871887,0.050293028354644775
1,5,128,116,0.38138920068740845,0.08061646670103073
1,5,128,117,0.6109033226966858,0.0818415954709053
1,5,128,118,0.4324263036251068,0.1233956441283226
1,5,128,119,0.57793128490448,0.03035774640738964
1,5,128,120,0.5918778777122498,0.172899067401886
1,5,128,121,0.5700266361236572,0.1157306656241417
1,5,128,122,0.5989261865615845,0.13740010559558868
1,5,128,123,0.6998052000999451,0.10532832145690918
1,5,128,124,0.446318119764328,0.07561632245779037
1,5,128,125,0.6079514622688293,0.0498201847076416
1,5,128,126,0.41214776039123535,0.06680278480052948
1,5,128,127,0.4561185836791992,0.09403897821903229
