subject,channel,f1_full,f1_occluded,drop_pp
1,0,0.586347079698704,0.5058445066383299,8.050257306037413
1,1,0.586347079698704,0.5722488549009981,1.409822479770595
1,2,0.586347079698704,0.40418660859505506,18.216047110364897
1,3,0.586347079698704,0.5404233045485,4.592377515020408
1,4,0.586347079698704,0.5347648489120058,5.158223078669821
1,5,0.586347079698704,0.40474191109347546,18.160516860522858
1,6,0.586347079698704,0.6528648304902487,-6.651775079154465
1,7,0.586347079698704,0.5606885700488823,2.565850964982175
1,8,0.586347079698704,0.5274942699451748,5.8852809753529245
2,0,0.7931635000708602,0.7562032268974272,3.696027317343298
2,1,0.7931635000708602,0.7566691427528867,3.649435731797357
2,2,0.7931635000708602,0.7107121565626306,8.245134350822958
2,3,0.7931635000708602,0.7006374889916639,9.252601107919634
2,4,0.7931635000708602,0.6899362453466932,10.322725472416705
2,5,0.7931635000708602,0.6703674821777039,12.279601789315631
2,6,0.7931635000708602,0.7473562757301695,4.580722434069074
2,7,0.7931635000708602,0.6626623382303067,13.05011618405535
2,8,0.7931635000708602,0.7649750226303971,2.8188477440463156
3,0,0.792352974645133,0.6384243936907142,15.392858095441875
3,1,0.792352974645133,0.7639485949638614,2.840437968127163
3,2,0.792352974645133,0.7703294731608445,2.2023501484288444
3,3,0.792352974645133,0.5816605577376431,21.069241690748985
3,4,0.792352974645133,0.7114488161434014,8.09041585017316
3,5,0.792352974645133,0.5811707873134809,21.118218733165207
3,6,0.792352974645133,0.6630365524136076,12.93164222315254
3,7,0.792352974645133,0.7093320636303232,8.302091101480979
3,8,0.792352974645133,0.7406405875983131,5.171238704681991
4,0,0.7963748408884097,0.6816723493317046,11.470249155670508
4,1,0.7963748408884097,0.6679813552795925,12.839348560881724
4,2,0.7963748408884097,0.7032884555756911,9.308638531271862
4,3,0.7963748408884097,0.6573510374640342,13.902380342437548
4,4,0.7963748408884097,0.7089228743606624,8.745196652774734
4,5,0.7963748408884097,0.6218266035607585,17.454823732765124
4,6,0.7963748408884097,0.6749747802187832,12.14000606696265
4,7,0.7963748408884097,0.5921549351667741,20.421990572163562
4,8,0.7963748408884097,0.7391418484696435,5.723299241876623
5,0,0.57757382978233,0.5431618054270068,3.44120243553232
5,1,0.57757382978233,0.4575207883626893,12.005304141964068
5,2,0.57757382978233,0.5167478370950498,6.082599268728018
5,3,0.57757382978233,0.6467651701341017,-6.919134035177176
5,4,0.57757382978233,0.5398239620586633,3.774986772366662
5,5,0.57757382978233,0.45732476285402446,12.02490669283055
5,6,0.57757382978233,0.576530824286797,0.10430054955329338
5,7,0.57757382978233,0.5056212002956328,7.195262948669711
5,8,0.57757382978233,0.5129312917517963,6.464253803053365
6,0,0.6742357550926,0.5776488055068161,9.658694958578396
6,1,0.6742357550926,0.6065451390541495,6.76906160384505
6,2,0.6742357550926,0.5524113856475281,12.182436944507192
6,3,0.6742357550926,0.5913164141556129,8.291934093698716
6,4,0.6742357550926,0.5499592385010594,12.42765165915406
6,5,0.6742357550926,0.38294227506864714,29.12934800239529
6,6,0.6742357550926,0.6510843279929638,2.3151427099636246
6,7,0.6742357550926,0.42037076009172375,25.386499500087627
6,8,0.6742357550926,0.5725162938846583,10.171946120794173
7,0,0.6437498521794195,0.4515110217101138,19.223883046930567
7,1,0.6437498521794195,0.48220920216611934,16.154065001330014
7,2,0.6437498521794195,0.5926451966553602,5.1104655524059295
7,3,0.6437498521794195,0.4694865567833997,17.42632953960198
7,4,0.6437498521794195,0.5799324609493658,6.38173912300537
7,5,0.6437498521794195,0.48830384011925654,15.544601206016296
7,6,0.6437498521794195,0.6105759867424143,3.317386543700518
7,7,0.6437498521794195,0.554090384007038,8.965946817238146
7,8,0.6437498521794195,0.5156009714833244,12.814888069609509
8,0,0.795572868983533,0.6040262286666889,19.15466403168441
8,1,0.795572868983533,0.7148649599127438,8.070790907078917
8,2,0.795572868983533,0.8123760774910904,-1.6803208507557454
8,3,0.795572868983533,0.7032178526841448,9.235501629938813
8,4,0.795572868983533,0.6982062373831005,9.736663160043246
8,5,0.795572868983533,0.5948285446429282,20.074432434060473
8,6,0.795572868983533,0.8121272688190657,-1.6554399835532752
8,7,0.795572868983533,0.728488463614634,6.708440536889892
8,8,0.795572868983533,0.6583582042900288,13.721466469350418
9,0,0.7867621642983962,0.7024188988233588,8.434326547503733
9,1,0.7867621642983962,0.7134096009282288,7.335256337016737
9,2,0.7867621642983962,0.7572812118469585,2.948095245143767
9,3,0.7867621642983962,0.7676249574491252,1.9137206849271005
9,4,0.7867621642983962,0.7614521421510849,2.531002214731126
9,5,0.7867621642983962,0.7327733011012623,5.398886319713392
9,6,0.7867621642983962,0.770852643647124,1.5909520651272158
9,7,0.7867621642983962,0.7005680946480203,8.61940696503759
9,8,0.7867621642983962,0.642416454462203,14.434570983619322
10,0,0.7107293981354104,0.6040701993941932,10.665919874121721
10,1,0.7107293981354104,0.5959965475576905,11.473285057771987
10,2,0.7107293981354104,0.6437480669015785,6.698133123383188
10,3,0.7107293981354104,0.5067344784431067,20.399491969230365
10,4,0.7107293981354104,0.6622060485753137,4.852334956009663
10,5,0.7107293981354104,0.6332336263422328,7.7495771793177575
10,6,0.7107293981354104,0.6814785646358111,2.9250833499599227
10,7,0.7107293981354104,0.5691110646563363,14.161833347907404
10,8,0.7107293981354104,0.5908995926235674,11.982980551184298
11,0,0.8775426105680593,0.745070643180795,13.24719673872643
11,1,0.8775426105680593,0.7546214476060887,12.292116296197053
11,2,0.8775426105680593,0.8059823315531964,7.156027901486284
11,3,0.8775426105680593,0.6265806124507316,25.096199811732767
11,4,0.8775426105680593,0.7939240010310743,8.361860953698496
11,5,0.8775426105680593,0.7380653063568338,13.94773042112255
11,6,0.8775426105680593,0.8683528419636892,0.9189768604370041
11,7,0.8775426105680593,0.7197913090289163,15.775130153914297
11,8,0.8775426105680593,0.7466412893074743,13.090132126058496
12,0,0.8744560331343474,0.7921587868577886,8.229724627655877
12,1,0.8744560331343474,0.7819778898194951,9.247814331485227
12,2,0.8744560331343474,0.805256890559287,6.9199142575060435
12,3,0.8744560331343474,0.7636215694548637,11.083446367948369
12,4,0.8744560331343474,0.7619754402715857,11.248059286276169
12,5,0.8744560331343474,0.6965018399011677,17.795419323317972
12,6,0.8744560331343474,0.8239762581500306,5.047977498431678
12,7,0.8744560331343474,0.7767996576726961,9.765637546165129
12,8,0.8744560331343474,0.7619042977929383,11.255173534140905
13,0,0.8837857459273062,0.7530273387757249,13.075840715158126
13,1,0.8837857459273062,0.7802717982571645,10.351394767014167
13,2,0.8837857459273062,0.7669050701293908,11.68806757979154
13,3,0.8837857459273062,0.7758201062466862,10.796563968062001
13,4,0.8837857459273062,0.8139510632492979,6.98346826780083
13,5,0.8837857459273062,0.504583860075851,37.92018858514552
13,6,0.8837857459273062,0.8458864037719701,3.789934215533608
13,7,0.8837857459273062,0.8375130540606379,4.627269186666827
13,8,0.8837857459273062,0.836254375342626,4.753137058468015
14,0,0.7838868126720216,0.7293703375269008,5.451647514512081
14,1,0.7838868126720216,0.752280148123853,3.160666454816863
14,2,0.7838868126720216,0.6451428678354053,13.874394483661634
14,3,0.7838868126720216,0.6938943575767024,8.999245509531928
14,4,0.7838868126720216,0.6993442376621559,8.454257500986573
14,5,0.7838868126720216,0.6393870224371859,14.449979023483571
14,6,0.7838868126720216,0.773495385471029,1.039142720099262
14,7,0.7838868126720216,0.7040071319750214,7.987968069700024
14,8,0.7838868126720216,0.7095751639060002,7.431164876602148
15,0,0.8884153858994354,0.8107766917085839,7.763869419085145
15,1,0.8884153858994354,0.7916804535977291,9.673493230170626
15,2,0.8884153858994354,0.7749419169142047,11.34734689852307
15,3,0.8884153858994354,0.8282963163776474,6.011906952178792
15,4,0.8884153858994354,0.8434041584795978,4.501122741983754
15,5,0.8884153858994354,0.6542305338672705,23.418485203216488
15,6,0.8884153858994354,0.8425128580680014,4.5902527831434
15,7,0.8884153858994354,0.7846901959834012,10.37251899160342
15,8,0.8884153858994354,0.82748579590043,6.092958999900533
16,0,0.8052959882178604,0.758241206897587,4.705478132027341
16,1,0.8052959882178604,0.7714266160544336,3.386937216342678
16,2,0.8052959882178604,0.731447830630205,7.384815758765539
16,3,0.8052959882178604,0.6657881673608277,13.950782085703272
16,4,0.8052959882178604,0.7018616755351291,10.343431268273129
16,5,0.8052959882178604,0.574431880087179,23.086410813068138
16,6,0.8052959882178604,0.7972604215543766,0.8035566663483817
16,7,0.8052959882178604,0.7765678403212958,2.8728147896564638
16,8,0.8052959882178604,0.6915653061474837,11.373068207037672
17,0,0.7775911876717447,0.6788250226921057,9.876616497963909
17,1,0.7775911876717447,0.679662351654458,9.792883601728676
17,2,0.7775911876717447,0.7667117267292887,1.0879460942456065
17,3,0.7775911876717447,0.7552768298345935,2.231435783715119
17,4,0.7775911876717447,0.7451497639635959,3.244142370814884
17,5,0.7775911876717447,0.6341568976203951,14.343429005134967
17,6,0.7775911876717447,0.725633141316228,5.195804635551671
17,7,0.7775911876717447,0.7671001613959517,1.0491026275793014
17,8,0.7775911876717447,0.6772062944572921,10.038489321445265
18,0,0.7193835733584147,0.6643113078871593,5.507226547125543
18,1,0.7193835733584147,0.6894684622381718,2.991511112024292
18,2,0.7193835733584147,0.6430319400020518,7.635163335636297
18,3,0.7193835733584147,0.6347400701908898,8.464350316752489
18,4,0.7193835733584147,0.5911382380497632,12.824533530865157
18,5,0.7193835733584147,0.546646905120662,17.27366682377527
18,6,0.7193835733584147,0.7934662388366092,-7.4082665478194425
18,7,0.7193835733584147,0.6093928781548451,10.999069520356963
18,8,0.7193835733584147,0.6825471875599445,3.683638579847026
19,0,0.8109893538297508,0.6764787682156486,13.451058561410223
19,1,0.8109893538297508,0.7387114613734094,7.227789245634142
19,2,0.8109893538297508,0.7401303835682622,7.085897026148857
19,3,0.8109893538297508,0.6232323580850797,18.775699574467108
19,4,0.8109893538297508,0.6641392580727219,14.685009575702889
19,5,0.8109893538297508,0.5710879263381452,23.990142749160558
19,6,0.8109893538297508,0.8140199767846018,-0.30306229548510144
19,7,0.8109893538297508,0.6471301872844197,16.385916654533105
19,8,0.8109893538297508,0.7082718795683375,10.271747426141332
20,0,0.7693476470704632,0.6851599679618906,8.41876791085726
20,1,0.7693476470704632,0.6649809172777592,10.436672979270401
20,2,0.7693476470704632,0.6723072399434691,9.704040712699413
20,3,0.7693476470704632,0.7629528378518379,0.6394809218625341
20,4,0.7693476470704632,0.6833652931651648,8.59823539052984
20,5,0.7693476470704632,0.7263565082328881,4.29911388375751
20,6,0.7693476470704632,0.7410902038641289,2.8257443206334276
20,7,0.7693476470704632,0.6490192766295707,12.03283704408925
20,8,0.7693476470704632,0.7182678229704136,5.107982410004963
21,0,0.7350791468824521,0.6604480647472002,7.463108213525194
21,1,0.7350791468824521,0.6781467255932268,5.693242128922538
21,2,0.7350791468824521,0.7520394504829423,-1.6960303600490167
21,3,0.7350791468824521,0.7010784515692153,3.4000695313236795
21,4,0.7350791468824521,0.7288291080394224,0.625003884302977
21,5,0.7350791468824521,0.5093464405126646,22.573270636978748
21,6,0.7350791468824521,0.7334144046797687,0.16647422026834224
21,7,0.7350791468824521,0.6934069440926425,4.167220278980965
21,8,0.7350791468824521,0.6924411907865293,4.263795609592281
22,0,0.7392600254174222,0.6829354209312536,5.632460448616861
22,1,0.7392600254174222,0.6614287329800389,7.78312924373833
22,2,0.7392600254174222,0.6046784445564171,13.458158086100514
22,3,0.7392600254174222,0.6101799253768353,12.90801000405869
22,4,0.7392600254174222,0.6586659016586153,8.059412375880692
22,5,0.7392600254174222,0.5493197404541859,18.994028496323633
22,6,0.7392600254174222,0.7396584653684847,-0.03984399510624792
22,7,0.7392600254174222,0.5684423251249047,17.081770029251754
22,8,0.7392600254174222,0.6200315353608573,11.922849005656488
23,0,0.7531976163932685,0.5824083253295377,17.078929106373085
23,1,0.7531976163932685,0.6727425863335115,8.045503005975707
23,2,0.7531976163932685,0.7496673036522971,0.35303127409714863
23,3,0.7531976163932685,0.6405670938502166,11.263052254305194
23,4,0.7531976163932685,0.6831330751570139,7.006454123625461
23,5,0.7531976163932685,0.5826659184337838,17.053169795948474
23,6,0.7531976163932685,0.7020707979977658,5.1126818395502704
23,7,0.7531976163932685,0.5726035367713294,18.05940796219392
23,8,0.7531976163932685,0.6465217027504693,10.667591364279927
24,0,0.6779985322098804,0.5335602457958584,14.4438286414022
24,1,0.6779985322098804,0.6222475567617267,5.575097544815366
24,2,0.6779985322098804,0.6046634227902047,7.333510941967569
24,3,0.6779985322098804,0.7126577582147783,-3.4659226004897903
24,4,0.6779985322098804,0.5213745784443624,15.662395376551796
24,5,0.6779985322098804,0.36473531950544336,31.326321270443703
24,6,0.6779985322098804,0.5837705079722975,9.422802423758291
24,7,0.6779985322098804,0.5105869928983137,16.74115393115667
24,8,0.6779985322098804,0.6407807277345622,3.7217804475318195
25,0,0.7958469986086265,0.7254610753104506,7.038592329817595
25,1,0.7958469986086265,0.7262275324476282,6.9619466160998345
25,2,0.7958469986086265,0.6927310508908346,10.311594771779188
25,3,0.7958469986086265,0.6849938533976007,11.085314521102585
25,4,0.7958469986086265,0.6052053112490122,19.064168735961427
25,5,0.7958469986086265,0.5485829700579195,24.726402855070706
25,6,0.7958469986086265,0.7874249157446775,0.8422082863948965
25,7,0.7958469986086265,0.7117490749056734,8.40979237029531
25,8,0.7958469986086265,0.7882281382691414,0.7618860339485112
26,0,0.7232895570738469,0.6537709832709457,6.951857380290116
26,1,0.7232895570738469,0.6579953850184099,6.529417205543697
26,2,0.7232895570738469,0.652987314023292,7.030224305055488
26,3,0.7232895570738469,0.6946428881464324,2.864666892741452
26,4,0.7232895570738469,0.6052929999074689,11.799655716637803
26,5,0.7232895570738469,0.5533175934486857,16.99719636251612
26,6,0.7232895570738469,0.7022820864760437,2.100747059780317
26,7,0.7232895570738469,0.6624256796204847,6.08638774533622
26,8,0.7232895570738469,0.624301018927807,9.898853814603992
27,0,0.8527019168462037,0.7941520873673646,5.854982947883903
27,1,0.8527019168462037,0.8458051513493348,0.6896765496868906
27,2,0.8527019168462037,0.7996538383707636,5.3048078475440015
27,3,0.8527019168462037,0.83748529122733,1.5216625618873714
27,4,0.8527019168462037,0.8095674246849173,4.31344921612864
27,5,0.8527019168462037,0.6200319211531915,23.266999569301216
27,6,0.8527019168462037,0.8298313548423297,2.287056200387394
27,7,0.8527019168462037,0.8159782742077566,3.6723642638447074
27,8,0.8527019168462037,0.8098954129976028,4.280650384860085
28,0,0.8046308077223652,0.758571316960955,4.605949076141014
28,1,0.8046308077223652,0.8142756909299843,-0.9644883207619137
28,2,0.8046308077223652,0.7921471750755638,1.2483632646801412
28,3,0.8046308077223652,0.7625393851156774,4.2091422606687745
28,4,0.8046308077223652,0.7038025890379098,10.082821868445535
28,5,0.8046308077223652,0.6329142628837607,17.171654483860443
28,6,0.8046308077223652,0.7763251611935823,2.830564652878287
28,7,0.8046308077223652,0.665672645904204,13.895816181816112
28,8,0.8046308077223652,0.7390883343270565,6.554247339530872
29,0,0.8229486751929451,0.5268707187987631,29.6077956394182
29,1,0.8229486751929451,0.7551915717821699,6.775710341077524
29,2,0.8229486751929451,0.6913611406978375,13.158753449510762
29,3,0.8229486751929451,0.7591551975706738,6.379347762227128
29,4,0.8229486751929451,0.7009029963606072,12.204567883233796
29,5,0.8229486751929451,0.6989592590997291,12.3989416093216
29,6,0.8229486751929451,0.7460169187339133,7.6931756459031835
29,7,0.8229486751929451,0.7190924306230223,10.385624456992282
29,8,0.8229486751929451,0.6675619934012375,15.538668179170767
30,0,0.7749130119492185,0.7953933345118418,-2.048032256262333
30,1,0.7749130119492185,0.7033092756493602,7.160373629985828
30,2,0.7749130119492185,0.744710913210212,3.0202098739006478
30,3,0.7749130119492185,0.7116390782203165,6.327393372890199
30,4,0.7749130119492185,0.6641723913080607,11.074062064115775
30,5,0.7749130119492185,0.6855973096702375,8.9315702278981
30,6,0.7749130119492185,0.7788848742296999,-0.39718622804814085
30,7,0.7749130119492185,0.7179465592134491,5.696645273576939
30,8,0.7749130119492185,0.8052891714336554,-3.037615948443695
31,0,0.7201078930281332,0.6561349193044895,6.397297372364363
31,1,0.7201078930281332,0.6517915673835335,6.831632564459966
31,2,0.7201078930281332,0.6799303459020938,4.017754712603939
31,3,0.7201078930281332,0.7014476059287669,1.866028709936629
31,4,0.7201078930281332,0.6487837330327829,7.1324159995350245
31,5,0.7201078930281332,0.5798129740729779,14.029491895515523
31,6,0.7201078930281332,0.6982019163631036,2.190597666502958
31,7,0.7201078930281332,0.5370587046339215,18.30491883942117
31,8,0.7201078930281332,0.6140879365464318,10.601995648170137
32,0,0.815994296816879,0.5920590453082551,22.39352515086238
32,1,0.815994296816879,0.7335208768016883,8.247342001519065
32,2,0.815994296816879,0.6381836530928732,17.78106437240058
32,3,0.815994296816879,0.7660615148614939,4.993278195538508
32,4,0.815994296816879,0.6932664491785093,12.272784763836963
32,5,0.815994296816879,0.6111675678515133,20.48267289653657
32,6,0.815994296816879,0.7588895351823352,5.710476163454381
32,7,0.815994296816879,0.6067658771661044,20.922841965077453
32,8,0.815994296816879,0.7115996989941926,10.439459782268635
33,0,0.8977730368293101,0.7705393197624472,12.723371706686294
33,1,0.8977730368293101,0.7700143132436017,12.775872358570838
33,2,0.8977730368293101,0.8306166818422674,6.715635498704264
33,3,0.8977730368293101,0.8881666232573366,0.9606413571973449
33,4,0.8977730368293101,0.8063268469339296,9.144618989538046
33,5,0.8977730368293101,0.6104812177075596,28.72918191217505
33,6,0.8977730368293101,0.8559136800835382,4.18593567457719
33,7,0.8977730368293101,0.6569444157620004,24.082862106730975
33,8,0.8977730368293101,0.8045696180086253,9.320341882068483
34,0,0.8900617962857268,0.8214904093205164,6.857138696521037
34,1,0.8900617962857268,0.8559931256563097,3.4068670629417097
34,2,0.8900617962857268,0.7585158249458452,13.154597133988155
34,3,0.8900617962857268,0.8280099819177831,6.205181436794371
34,4,0.8900617962857268,0.806330398328543,8.373139795718377
34,5,0.8900617962857268,0.7554043176983777,13.465747858734911
34,6,0.8900617962857268,0.8533895020207419,3.667229426498486
34,7,0.8900617962857268,0.6605846906247422,22.947710566098458
34,8,0.8900617962857268,0.8113644688644688,7.869732742125802
35,0,0.7361998117317368,0.6358146271497873,10.038518458194945
35,1,0.7361998117317368,0.6578413313646773,7.835848036705951
35,2,0.7361998117317368,0.7024380161321345,3.376179559960224
35,3,0.7361998117317368,0.6601192489184857,7.608056281325104
35,4,0.7361998117317368,0.7062097015863196,2.9990110145417193
35,5,0.7361998117317368,0.6817459940573796,5.44538176743572
35,6,0.7361998117317368,0.6752062044271687,6.099360730456804
35,7,0.7361998117317368,0.7228191090325478,1.3380702699189007
35,8,0.7361998117317368,0.6772015878266638,5.899822390507293
36,0,0.663512784181941,0.6374867963661979,2.602598781574317
36,1,0.663512784181941,0.5623486405917364,10.116414359020464
36,2,0.663512784181941,0.6331503317178594,3.0362452464081646
36,3,0.663512784181941,0.5929056061525888,7.0607178029352236
36,4,0.663512784181941,0.6499525019824968,1.3560282199444273
36,5,0.663512784181941,0.3852439455767574,27.826883860518365
36,6,0.663512784181941,0.5914789960900236,7.20337880919174
36,7,0.663512784181941,0.5902280377777965,7.32847464041445
36,8,0.663512784181941,0.5928638632563172,7.06489209256238
37,0,0.8235338100600513,0.7581709981958442,6.5362811864207115
37,1,0.8235338100600513,0.7152105826479951,10.832322741205624
37,2,0.8235338100600513,0.7340479081690304,8.94859018910209
37,3,0.8235338100600513,0.8635196334208907,-3.9985823360839334
37,4,0.8235338100600513,0.7562643483928733,6.7269461667178065
37,5,0.8235338100600513,0.7239251695323614,9.960864052768992
37,6,0.8235338100600513,0.7671527020075604,5.638110805249097
37,7,0.8235338100600513,0.7378246947896228,8.570911527042856
37,8,0.8235338100600513,0.7625693576080264,6.0964452452024975
38,0,0.8248694895591647,0.7707422410521534,5.412724850701133
38,1,0.8248694895591647,0.7391762245692977,8.569326498986706
38,2,0.8248694895591647,0.7710220901677122,5.3847399391452555
38,3,0.8248694895591647,0.7616159878959106,6.325350166325416
38,4,0.8248694895591647,0.6499319049066131,17.493758465255162
38,5,0.8248694895591647,0.6280591898512735,19.681029970789123
38,6,0.8248694895591647,0.7946693900128794,3.020009954628533
38,7,0.8248694895591647,0.8008611626228727,2.400832693629207
38,8,0.8248694895591647,0.7889399281459941,3.5929561413170608
39,0,0.760165828477041,0.557140307047169,20.302552142987196
39,1,0.760165828477041,0.7335601368313501,2.660569164569082
39,2,0.760165828477041,0.7196591913395001,4.050663713754088
39,3,0.760165828477041,0.6186729603129688,14.149286816407214
39,4,0.760165828477041,0.6587504252798048,10.14154031972362
39,5,0.760165828477041,0.46140508585109613,29.876074262594482
39,6,0.760165828477041,0.7801006192272698,-1.993479075022886
39,7,0.760165828477041,0.6995746271953521,6.059120128168882
39,8,0.760165828477041,0.7433465732328375,1.6819255244203468
40,0,0.770923525629606,0.7273113661153982,4.361215951420783
40,1,0.770923525629606,0.7090610858985655,6.186243973104045
40,2,0.770923525629606,0.7304225600153191,4.050096561428685
40,3,0.770923525629606,0.7544138745090623,1.65096511205437
40,4,0.770923525629606,0.6892253174535102,8.169820817609574
40,5,0.770923525629606,0.6973861776950232,7.353734793458278
40,6,0.770923525629606,0.7342837853245162,3.6639740305089763
40,7,0.770923525629606,0.6676429273774407,10.32805982521653
40,8,0.770923525629606,0.688266417956999,8.265710767260693
