subject,channel,r,f1_drop_mean,f1_drop_sd
1,0,5,0.12239623789472423,0.011955608722712037
1,1,5,0.09232019357697996,0.009965553587191534
1,2,5,0.1377372224023371,0.006993368598813425
1,3,5,0.06318054286010552,0.00873441183471837
1,4,5,0.035366168238331365,0.009170545379799612
1,5,5,0.06234267682261181,0.009759520242712314
1,6,5,-0.0005998681468417644,0.007374512928821143
1,7,5,0.09702190050056941,0.008128251901053719
1,8,5,0.1267924227260432,0.010372064955482794
2,0,5,0.06694682226572904,0.018599173063723305
2,1,5,0.07591982124283222,0.009953619690788349
2,2,5,0.13924867259980228,0.016286772449399838
2,3,5,0.09160763711608974,0.01247660015381976
2,4,5,0.10879777710698765,0.00772670941313637
2,5,5,0.14519753632543184,0.00910917071929984
2,6,5,0.051764777515522706,0.008970503802926567
2,7,5,0.14889353562049043,0.011011387127109574
2,8,5,0.11055620122767769,0.022115932499478484
3,0,5,0.14316596257869782,0.01509544501187558
3,1,5,0.15847541214007904,0.01711747559817274
3,2,5,0.13880835697500002,0.009145820891340778
3,3,5,0.20908376983972018,0.007608053748587553
3,4,5,0.08756227391171123,0.0161463353435498
3,5,5,0.16171693776533821,0.01177907565191166
3,6,5,0.029341209243888056,0.011915918611684237
3,7,5,0.12172234503089827,0.014171658827430152
3,8,5,0.12013812521399661,0.013625582102121876
4,0,5,0.12359711728447786,0.016326306919358567
4,1,5,0.1683668696529062,0.017755636759793296
4,2,5,0.13192063393854245,0.019559784957658304
4,3,5,0.14264748448732648,0.016445032134239174
4,4,5,0.10040104606847382,0.0249453587956784
4,5,5,0.1602163607789295,0.009249615591626912
4,6,5,0.10524228133615025,0.008615825129170154
4,7,5,0.15203145414646085,0.007323667641832732
4,8,5,0.11476891111188244,0.020599687840944934
5,0,5,0.08589146527802233,0.014304079356245147
5,1,5,0.12548234054345947,0.01697596814873595
5,2,5,0.09926892939798283,0.01028306065887432
5,3,5,0.019694076257786342,0.01036185563591465
5,4,5,0.05482673899229758,0.010891408305236697
5,5,5,0.08964908128275031,0.006978378726847051
5,6,5,0.02998635207265148,0.001560727899817552
5,7,5,0.09675054809708004,0.014709341063408163
5,8,5,0.13677840107901776,0.01669077291606952
6,0,5,0.07853834323152224,0.017979002188106122
6,1,5,0.12050880515608856,0.013291398301735506
6,2,5,0.07021832958464821,0.005042798721251754
6,3,5,0.07450916127561025,0.004528911240614671
6,4,5,0.11014621569725454,0.013873991657961472
6,5,5,0.15783614555950792,0.004813164500185541
6,6,5,0.04326461372838404,0.01714456687050997
6,7,5,0.15485697108204136,0.009219137235114569
6,8,5,0.09971848242088406,0.019265088145572772
7,0,5,0.13348619674114282,0.014727839647283102
7,1,5,0.08506317209965186,0.009118905888090566
7,2,5,0.09256557009277115,0.009702524630838807
7,3,5,0.1302366089421963,0.015136672096467177
7,4,5,0.1307472552577308,0.016487910481832506
7,5,5,0.09349310610107171,0.0124910546798143
7,6,5,0.07511564179218791,0.006933708293085363
7,7,5,0.11067073817712517,0.014097779857582373
7,8,5,0.20054852254969915,0.012534035446902002
8,0,5,0.165953968179184,0.014674462808859826
8,1,5,0.13717031573906852,0.01041650389639159
8,2,5,0.055783982448857,0.006530856696349714
8,3,5,0.15733211708814773,0.012038278685617191
8,4,5,0.13784765411041422,0.021572819305464255
8,5,5,0.22024853727598498,0.018659669649725263
8,6,5,0.07174552627583879,0.013976662710808739
8,7,5,0.17560754857805555,0.0028905609546496292
8,8,5,0.15763890761387614,0.009383792039228166
9,0,5,0.0667667287520021,0.02232018880427879
9,1,5,0.12084278842174542,0.008505959594414523
9,2,5,0.12072125830562075,0.007118641561670759
9,3,5,0.046838361468774535,0.012688657412010572
9,4,5,0.09173658223148036,0.011281857809376366
9,5,5,0.09148471461899359,0.011728198940647985
9,6,5,0.03810803338292294,0.007650999026416682
9,7,5,0.13721278603363332,0.017072315008216928
9,8,5,0.13789254088556244,0.013012900704171087
10,0,5,0.15100241796983663,0.01453198699326428
10,1,5,0.0991612864299501,0.01976927099613348
10,2,5,0.05488537265749773,0.017689977831759084
10,3,5,0.14668568495822643,0.01563848447765619
10,4,5,0.12650469129409242,0.014135899644808164
10,5,5,0.10974257787396158,0.011315942774280253
10,6,5,0.0218485754059331,0.013315108454968224
10,7,5,0.16919283857633066,0.012939844190847094
10,8,5,0.153255591305725,0.01791711649798083
11,0,5,0.14304624588680295,0.011421959111743173
11,1,5,0.21335628818925975,0.006078335832144415
11,2,5,0.15792904641916777,0.013422249032755266
11,3,5,0.20634001222068613,0.008788029153434795
11,4,5,0.13496057957468302,0.010289727428628355
11,5,5,0.13938210144073565,0.020726013668507445
11,6,5,0.06476362313112531,0.009843175408775167
11,7,5,0.23622509520729862,0.012753159990368756
11,8,5,0.1947680655463723,0.014017275407183269
12,0,5,0.09566538137618304,0.014705531001384782
12,1,5,0.1467469691937703,0.0075860118688474
12,2,5,0.13705573437580448,0.006897385234021808
12,3,5,0.18272519125188275,0.01992331098188335
12,4,5,0.132037122901297,0.01371496371555942
12,5,5,0.12068229602934191,0.018414456556982536
12,6,5,0.06557489861116299,0.004141515955342734
12,7,5,0.18028075984425115,0.005740054551227627
12,8,5,0.18193908891241045,0.017095364337359358
13,0,5,0.19148559800029294,0.015925671295123078
13,1,5,0.10087748505323639,0.012887802378871408
13,2,5,0.12416767234209329,0.011378716888511588
13,3,5,0.10145395402684212,0.011445630252163191
13,4,5,0.1431467083974598,0.014454094561053628
13,5,5,0.24246365429620242,0.01537166949499722
13,6,5,0.09458980900523506,0.012590333596614598
13,7,5,0.12110866821038606,0.006737232035740342
13,8,5,0.1056546642680142,0.00572931904743648
14,0,5,0.13335565279269398,0.007679771447532534
14,1,5,0.12131990088935866,0.009372950137801699
14,2,5,0.1029464252324708,0.0158383255667931
14,3,5,0.13354861596012702,0.009367548231421765
14,4,5,0.11464245324529627,0.008737531290555024
14,5,5,0.15155291105763302,0.01786686368451626
14,6,5,0.012990366270809428,0.0029715218122892163
14,7,5,0.1314158976002398,0.01011782706203777
14,8,5,0.1593300903839558,0.02030139371718916
15,0,5,0.12762856178734308,0.014057078061857657
15,1,5,0.1600163898426328,0.006170363265807402
15,2,5,0.17778032977505717,0.01591833389888921
15,3,5,0.0631212347422044,0.011285399632121447
15,4,5,0.1493846293469248,0.018826707544474994
15,5,5,0.22035447276411552,0.019490645335029425
15,6,5,0.08852987831330261,0.0193733373205028
15,7,5,0.1302546441984618,0.010754847252492164
15,8,5,0.12836939450045698,0.012728835135703612
16,0,5,0.1530763698546122,0.019150447615858986
16,1,5,0.11597093730447225,0.011958600212311902
16,2,5,0.1507382780506356,0.012967323621553773
16,3,5,0.1205133103203679,0.012266366555503096
16,4,5,0.1188614963133822,0.00820701914129598
16,5,5,0.20516184371639962,0.011780054449513803
16,6,5,0.040170444820712616,0.00477987911418435
16,7,5,0.09300723205288841,0.0036700620593777427
16,8,5,0.20006121221968068,0.01462539210411896
17,0,5,0.17503754475236338,0.02425049958807856
17,1,5,0.10668537984280098,0.009867786327584022
17,2,5,0.10815989660000222,0.004436574106587195
17,3,5,0.0857564789665192,0.008757473920633576
17,4,5,0.10718603930592899,0.014708753852136283
17,5,5,0.21458381791792439,0.009383249332016381
17,6,5,0.0995905121273237,0.010602925358798075
17,7,5,0.09829684382846937,0.0036291230479089643
17,8,5,0.18649713449263988,0.01043390627829576
18,0,5,0.09437155095149821,0.0072458866550994695
18,1,5,0.06403238344214453,0.01379010873498174
18,2,5,0.10888399578570684,0.026334808994427354
18,3,5,0.11968309339142402,0.012601397484869712
18,4,5,0.08333100217473219,0.01214688349317283
18,5,5,0.14801411769572886,0.012037822363342015
18,6,5,-0.003927117558676208,0.014810404630666811
18,7,5,0.1468228735733329,0.01600152644153685
18,8,5,0.08877355099193225,0.01862498133603107
19,0,5,0.14293697077070572,0.02085405608915443
19,1,5,0.0946873703807952,0.013825529744888878
19,2,5,0.1405453379693242,0.01183448934493116
19,3,5,0.11029515689862332,0.012647423988443327
19,4,5,0.16178560884821208,0.006160878914623317
19,5,5,0.13892464093380588,0.010193804817244115
19,6,5,0.036185768040784924,0.010168783994040597
19,7,5,0.2087300297803866,0.01707188932204273
19,8,5,0.17333882527355154,0.012499538981005476
20,0,5,0.11255566625971702,0.01768575957419485
20,1,5,0.09649379082541072,0.013173797105586332
20,2,5,0.11525797784986969,0.005312217263844469
20,3,5,0.06557408862379648,0.015902723346808072
20,4,5,0.1319837670663772,0.00799597371497122
20,5,5,0.11420718244294384,0.014419571344803175
20,6,5,0.04222989619163142,0.016205070174562682
20,7,5,0.09939291870464281,0.015570790824805598
20,8,5,0.134205756988636,0.013169323232625553
21,0,5,0.11422379032763375,0.028547087475565287
21,1,5,0.098098109363792,0.018050147954631786
21,2,5,0.08476837003617395,0.010472520891415394
21,3,5,0.044992668467451605,0.016410228656612735
21,4,5,0.07906170526078618,0.011066199500294631
21,5,5,0.16680016764250008,0.015443788285028147
21,6,5,0.039593751933144294,0.01106285605430633
21,7,5,0.07825108516220965,0.008468474256323383
21,8,5,0.10607153533257989,0.002405320461766664
22,0,5,0.133859124476432,0.013044142917444936
22,1,5,0.10090420116973413,0.01332204442898694
22,2,5,0.15134545232969068,0.010079249540861765
22,3,5,0.09729577490648147,0.009728602861824578
22,4,5,0.07193114673665683,0.0055809804808208555
22,5,5,0.10972923938719811,0.00984636305305471
22,6,5,0.013821595536164378,0.01044043983515521
22,7,5,0.17581966067176188,0.01061789091228386
22,8,5,0.17135023894546592,0.013270080595537064
23,0,5,0.14044706534552953,0.018699043431476953
23,1,5,0.10434834591645872,0.01574171695194157
23,2,5,0.07672730734213362,0.010589683337898339
23,3,5,0.10142267577751077,0.018609490639963918
23,4,5,0.042988564218931935,0.01219326353299076
23,5,5,0.1468707364946895,0.009831038652869368
23,6,5,0.10518576138224126,0.019718577097289403
23,7,5,0.1573043855204786,0.006805008635433303
23,8,5,0.13348923347370648,0.006146703929076582
24,0,5,0.114991481806817,0.010028458852090123
24,1,5,0.09076160981950657,0.005991363842466223
24,2,5,0.1328921240960928,0.006336214493025792
24,3,5,0.059196415416422156,0.012484857344288471
24,4,5,0.14456983523743822,0.02111515001444293
24,5,5,0.15621063794586057,0.015386216968584008
24,6,5,0.07251202800702931,0.005075610219053607
24,7,5,0.14537347718213958,0.0020049922901101713
24,8,5,0.08226615093493894,0.015046481717450105
25,0,5,0.12756517582848725,0.01978328451223115
25,1,5,0.1557282812463789,0.01577906392452375
25,2,5,0.13906466671254353,0.009503462734429006
25,3,5,0.1736758162846366,0.008686957588533916
25,4,5,0.16767101238073784,0.009734242165199622
25,5,5,0.16956277723426916,0.005106379200907693
25,6,5,0.03159968676629932,0.00715801337803764
25,7,5,0.14233313831121785,0.015269418296717616
25,8,5,0.07367885348919631,0.008090447406741563
26,0,5,0.10498517800378755,0.006294936241047057
26,1,5,0.12397335503662862,0.01357324623721226
26,2,5,0.12593018695960648,0.006227955509556452
26,3,5,0.05546594485568927,0.010363686926455246
26,4,5,0.11875456028576234,0.018185139643439197
26,5,5,0.11319743436700114,0.009504660956224181
26,6,5,0.04061335180132033,0.009187133334295735
26,7,5,0.12973827599689694,0.01062704030292521
26,8,5,0.12024014271200442,0.010873714129779617
27,0,5,0.11048410892912734,0.008590168529719756
27,1,5,0.045912178950902716,0.020430334969844234
27,2,5,0.13936073586510328,0.009130902268159673
27,3,5,0.07170553291612765,0.015698347187432203
27,4,5,0.0995055878515358,0.013341096712987244
27,5,5,0.2334564127876467,0.009627089368470645
27,6,5,0.06908642689626869,0.01027640857819459
27,7,5,0.11489681219655494,0.011753441068526552
27,8,5,0.14739315079860035,0.019395563718210412
28,0,5,0.15180879764349361,0.010801271912208555
28,1,5,0.05249538801016167,0.013215420910826415
28,2,5,0.0822420340689392,0.008433883214513877
28,3,5,0.09834291806785025,0.013346515302016164
28,4,5,0.14391860989282929,0.01194498229469146
28,5,5,0.2125489390200718,0.014951386289430576
28,6,5,0.0367375252132915,0.0078002818365359525
28,7,5,0.15379304776286368,0.011811060178273679
28,8,5,0.1477692170123392,0.009709959780884824
29,0,5,0.20607461635750646,0.01792122647758009
29,1,5,0.08422188962233967,0.009667600160065523
29,2,5,0.2016597044547131,0.015126960756018633
29,3,5,0.10048307320850207,0.008135211779231221
29,4,5,0.16244770705539185,0.009667792635495625
29,5,5,0.20866796732109613,0.01536779004210371
29,6,5,0.0680734705416447,0.005302867818443598
29,7,5,0.13799929827344432,0.0092031448977634
29,8,5,0.2128611879741759,0.007758527866685509
30,0,5,0.020475586121134936,0.013657236584890528
30,1,5,0.014842399176839317,0.019610562733759662
30,2,5,0.11763339047462329,0.021204230269454057
30,3,5,0.06595101138693679,0.014083911060859875
30,4,5,0.10164485562605322,0.005609923905297832
30,5,5,0.1618107194520087,0.013403041673784456
30,6,5,0.01929757922183739,0.020281042117797913
30,7,5,0.13057863665823116,0.004526341322127841
30,8,5,0.07259962673680201,0.014335172808893274
31,0,5,0.09267030068220627,0.006707024005497081
31,1,5,0.0802343571974619,0.017780673963072893
31,2,5,0.09078213265365671,0.010961569094186292
31,3,5,0.08353300248993603,0.01306165655763096
31,4,5,0.13555223094162056,0.020531733191401745
31,5,5,0.14162091710998112,0.023509194391235028
31,6,5,0.09028424804483659,0.011134402436133624
31,7,5,0.19486865549615798,0.017712242748153417
31,8,5,0.1606705238578421,0.015787550380484443
32,0,5,0.1691402681161492,0.00996773975312132
32,1,5,0.15987672317216478,0.009703437934227028
32,2,5,0.17176684326187594,0.009046478004555748
32,3,5,0.04873113896237265,0.008134218880087609
32,4,5,0.23693385596828134,0.0116865455226886
32,5,5,0.2512776662637259,0.008390686189900819
32,6,5,0.07574388384921202,0.010172994984234962
32,7,5,0.18839257394966533,0.011913453902214835
32,8,5,0.1719886471257301,0.014492154950823065
33,0,5,0.17079644837429572,0.014247328295201317
33,1,5,0.20220005875205996,0.012644364970895801
33,2,5,0.18591375705312593,0.002540773800163544
33,3,5,0.04086475929453846,0.008253803156060864
33,4,5,0.09776912608117865,0.01592262821942768
33,5,5,0.19569716493994188,0.011221802433712383
33,6,5,0.1126833057499195,0.011678985880361523
33,7,5,0.17430302298868325,0.010821498109733839
33,8,5,0.180243544991466,0.014244064973875821
34,0,5,0.1467720577020361,0.008880677259455969
34,1,5,0.11840081333567816,0.01053336818047921
34,2,5,0.14052474725624575,0.006673552556680848
34,3,5,0.1144182440863917,0.00681459984318142
34,4,5,0.14092797612912913,0.011418312176844858
34,5,5,0.12437258319657925,0.011796234537650056
34,6,5,0.046563144550156935,0.006904779648948031
34,7,5,0.19237208547675905,0.0037562695174355215
34,8,5,0.14482608650057327,0.011770982529571986
35,0,5,0.14717943947810036,0.01380509707613062
35,1,5,0.10178584468090886,0.006006508491392607
35,2,5,0.09749674947972249,0.0033331859793651547
35,3,5,0.0728868800830776,0.00733405015188566
35,4,5,0.05042072174350436,0.022628773774246897
35,5,5,0.1651341426947845,0.012217510895602081
35,6,5,0.05265699553991203,0.008041632279734121
35,7,5,0.08891734641155428,0.010285965541449551
35,8,5,0.10876729950085776,0.015576637183947003
36,0,5,0.025673678756437557,0.007927087020110898
36,1,5,0.1159255554251289,0.007614629977566408
36,2,5,0.05375523744079529,0.009563506563361317
36,3,5,0.06638824694183673,0.015227083893987206
36,4,5,0.11353924629184017,0.01789233978134984
36,5,5,0.1428760518425427,0.021987376541655817
36,6,5,0.08666322136619879,0.014631134289109674
36,7,5,0.0971079573749218,0.008874222541877962
36,8,5,0.0671635144321038,0.007207681782712236
37,0,5,0.07866374569907442,0.016909292872237143
37,1,5,0.14172033902454292,0.011803789953517597
37,2,5,0.14727051128683594,0.011454602922699722
37,3,5,0.0021405792437911185,0.016909380332728107
37,4,5,0.14075260587998567,0.008130983999930085
37,5,5,0.17655269645927324,0.014546812594323106
37,6,5,0.06604016377601776,0.014230013359007474
37,7,5,0.1300128209317412,0.017045723075069616
37,8,5,0.07852277973915309,0.01837009353571045
38,0,5,0.13033024685367828,0.012347515650521142
38,1,5,0.15693340483562515,0.004519853847794682
38,2,5,0.18571501940708043,0.01482013843144317
38,3,5,0.13901755877384925,0.009740146451328206
38,4,5,0.20372409916522677,0.007776302816416609
38,5,5,0.20251436393760008,0.007341344152584339
38,6,5,0.05089184093006194,0.009077101523921204
38,7,5,0.08395024822272705,0.01495588717032659
38,8,5,0.0720978049127935,0.011784290911576888
39,0,5,0.15224515270845904,0.013280603476326884
39,1,5,0.052743958037985594,0.018553585861855057
39,2,5,0.08204573228817298,0.011073934257945558
39,3,5,0.1267668358996895,0.0038937655188086714
39,4,5,0.07226520094520021,0.01628794916921169
39,5,5,0.2060378038627908,0.021284381270591488
39,6,5,0.0555633219159142,0.007651609397810496
39,7,5,0.113366203719828,0.009303633299868812
39,8,5,0.07953905658434632,0.0036153420396369132
40,0,5,0.0951185828023329,0.019995937431302683
40,1,5,0.09431934148184004,0.01939925806240071
40,2,5,0.12371241430194982,0.01915157438364247
40,3,5,0.012511514738572881,0.008445807517346157
40,4,5,0.07288348291309035,0.008439437811052507
40,5,5,0.11717922373654585,0.017745626284386733
40,6,5,0.08058385582582812,0.01608394269490097
40,7,5,0.1595321544967524,0.016691395631252166
40,8,5,0.1636333525958546,0.017656764331521597
