subject,block,block_width,feature_channel,gate_mean,gate_sd
1,0,32,0,0.39979326725006104,0.32571178674697876
1,0,32,1,0.5856001973152161,0.2970086634159088
1,0,32,2,0.3454356789588928,0.1475151777267456
1,0,32,3,0.4392135739326477,0.22227612137794495
1,0,32,4,0.40884363651275635,0.13289186358451843
1,0,32,5,0.39774391055107117,0.1677551567554474
1,0,32,6,0.5218695402145386,0.17880626022815704
1,0,32,7,0.5203359127044678,0.25172311067581177
1,0,32,8,0.23790353536605835,0.12952549755573273
1,0,32,9,0.5134722590446472,0.25830182433128357
1,0,32,10,0.6433709859848022,0.11739245057106018
1,0,32,11,0.6113302111625671,0.2660127878189087
1,0,32,12,0.7440172433853149,0.1840347945690155
1,0,32,13,0.2416216880083084,0.08019237220287323
1,0,32,14,0.662886381149292,0.15495151281356812
1,0,32,15,0.5927072167396545,0.16107499599456787
1,0,32,16,0.2926531434059143,0.0735427588224411
1,0,32,17,0.4082813262939453,0.1629755049943924
1,0,32,18,0.4790935218334198,0.2530909776687622
1,0,32,19,0.556117594242096,0.08631916344165802
1,0,32,20,0.6421194672584534,0.28340449929237366
1,0,32,21,0.4406939148902893,0.13582348823547363
1,0,32,22,0.3531399071216583,0.09539246559143066
1,0,32,23,0.5906898975372314,0.33135712146759033
1,0,32,24,0.5945329666137695,0.1460055410861969
1,0,32,25,0.25864654779434204,0.08053528517484665
1,0,32,26,0.44712674617767334,0.16508321464061737
1,0,32,27,0.45730060338974,0.027794508263468742
1,0,32,28,0.30295851826667786,0.10772578418254852
1,0,32,29,0.5457190275192261,0.1498195081949234
1,0,32,30,0.6391643285751343,0.07602283358573914
1,0,32,31,0.6200185418128967,0.10733017325401306
1,1,32,0,0.7460677623748779,0.16750195622444153
1,1,32,1,0.6464716196060181,0.24159616231918335
1,1,32,2,0.4460090100765228,0.18022604286670685
1,1,32,3,0.5413541793823242,0.11833732575178146
1,1,32,4,0.5685861110687256,0.13521096110343933
1,1,32,5,0.5128669738769531,0.05880284309387207
1,1,32,6,0.7229105830192566,0.2555024325847626
1,1,32,7,0.6426011919975281,0.1321236789226532
1,1,32,8,0.5766398906707764,0.12281094491481781
1,1,32,9,0.3186439573764801,0.2316039502620697
1,1,32,10,0.28673994541168213,0.22887182235717773
1,1,32,11,0.6583223938941956,0.27273666858673096
1,1,32,12,0.18619157373905182,0.137018084526062
1,1,32,13,0.6304140090942383,0.08477585017681122
1,1,32,14,0.24935880303382874,0.19111831486225128
1,1,32,15,0.7526722550392151,0.209904283285141
1,1,32,16,0.3950572609901428,0.11077536642551422
1,1,32,17,0.6567789316177368,0.09402283281087875
1,1,32,18,0.5481532216072083,0.1522955596446991
1,1,32,19,0.5223485827445984,0.2472127079963684
1,1,32,20,0.7652403116226196,0.17068162560462952
1,1,32,21,0.6458278298377991,0.05788557603955269
1,1,32,22,0.25119951367378235,0.18492953479290009
1,1,32,23,0.4389180541038513,0.19519639015197754
1,1,32,24,0.5863600373268127,0.16427940130233765
1,1,32,25,0.6311583518981934,0.09475769847631454
1,1,32,26,0.718213677406311,0.09178779274225235
1,1,32,27,0.517423689365387,0.07657043635845184
1,1,32,28,0.6070229411125183,0.26248568296432495
1,1,32,29,0.3762233555316925,0.09085208922624588
1,1,32,30,0.629883348941803,0.0657040998339653
1,1,32,31,0.6604337096214294,0.14088870584964752
1,2,64,0,0.4392344057559967,0.15760332345962524
1,2,64,1,0.5224274396896362,0.25644537806510925
1,2,64,2,0.4796125888824463,0.17823849618434906
1,2,64,3,0.401045560836792,0.10296469926834106
1,2,64,4,0.5210924744606018,0.06524670869112015
1,2,64,5,0.5832908153533936,0.23581497371196747
1,2,64,6,0.26675015687942505,0.09167683869600296
1,2,64,7,0.4895663559436798,0.0899575799703598
1,2,64,8,0.6212146878242493,0.13536930084228516
1,2,64,9,0.5949740409851074,0.14191268384456635
1,2,64,10,0.46077394485473633,0.21538560092449188
1,2,64,11,0.480766236782074,0.22466948628425598
1,2,64,12,0.524256706237793,0.15023228526115417
1,2,64,13,0.5159544944763184,0.21029424667358398
1,2,64,14,0.44386768341064453,0.13375121355056763
1,2,64,15,0.581969141960144,0.23234979808330536
1,2,64,16,0.5804961919784546,0.1485116183757782
1,2,64,17,0.4347909986972809,0.14401739835739136
1,2,64,18,0.523140013217926,0.16174755990505219
1,2,64,19,0.4363952577114105,0.06437455117702484
1,2,64,20,0.3657480478286743,0.10229773819446564
1,2,64,21,0.5142927765846252,0.20978371798992157
1,2,64,22,0.6048697829246521,0.2524352967739105
1,2,64,23,0.38546669483184814,0.15877123177051544
1,2,64,24,0.38525062799453735,0.0656294897198677
1,2,64,25,0.49214211106300354,0.16367821395397186
1,2,64,26,0.48463451862335205,0.18110215663909912
1,2,64,27,0.362650990486145,0.2110203206539154
1,2,64,28,0.5573741793632507,0.27812984585762024
1,2,64,29,0.27805668115615845,0.08952629566192627
1,2,64,30,0.5053883194923401,0.1408415138721466
1,2,64,31,0.5341872572898865,0.18424487113952637
1,2,64,32,0.5761476159095764,0.07528809458017349
1,2,64,33,0.6551393866539001,0.1389676332473755
1,2,64,34,0.5314318537712097,0.22709864377975464
1,2,64,35,0.42358309030532837,0.1825304627418518
1,2,64,36,0.46568286418914795,0.17939919233322144
1,2,64,37,0.5240674614906311,0.0863054022192955
1,2,64,38,0.3792622983455658,0.09228383004665375
1,2,64,39,0.5921530723571777,0.09912711381912231
1,2,64,40,0.44363364577293396,0.10265355557203293
1,2,64,41,0.41584181785583496,0.12141101807355881
1,2,64,42,0.5490382313728333,0.11365313082933426
1,2,64,43,0.37137797474861145,0.1395881623029709
1,2,64,44,0.5242123007774353,0.1564125418663025
1,2,64,45,0.6350229978561401,0.16639229655265808
1,2,64,46,0.4368143379688263,0.10026491433382034
1,2,64,47,0.5739850997924805,0.09686177223920822
1,2,64,48,0.5329294204711914,0.23652531206607819
1,2,64,49,0.4549641013145447,0.08065124601125717
1,2,64,50,0.544792652130127,0.06374064087867737
1,2,64,51,0.4922485649585724,0.1277085393667221
1,2,64,52,0.3673740029335022,0.07340697199106216
1,2,64,53,0.5784482359886169,0.1592954695224762
1,2,64,54,0.6061868667602539,0.14017188549041748
1,2,64,55,0.3968144953250885,0.18601328134536743
1,2,64,56,0.494748592376709,0.13837745785713196
1,2,64,57,0.2959590256214142,0.06656969338655472
1,2,64,58,0.5289668440818787,0.23461733758449554
1,2,64,59,0.583280622959137,0.24675427377223969
1,2,64,60,0.4909800589084625,0.15900863707065582
1,2,64,61,0.4367450177669525,0.08506502211093903
1,2,64,62,0.441631019115448,0.1284434199333191
1,2,64,63,0.4553503394126892,0.22482524812221527
1,3,64,0,0.6631307601928711,0.2515564560890198
1,3,64,1,0.6163034439086914,0.10388409346342087
1,3,64,2,0.6753007769584656,0.1303919553756714
1,3,64,3,0.5234077572822571,0.16356392204761505
1,3,64,4,0.6203340888023376,0.23679670691490173
1,3,64,5,0.42116105556488037,0.2178386002779007
1,3,64,6,0.5994499921798706,0.12650837004184723
1,3,64,7,0.6254839301109314,0.2611835300922394
1,3,64,8,0.4738295376300812,0.16470091044902802
1,3,64,9,0.46335074305534363,0.1758274883031845
1,3,64,10,0.5827421545982361,0.21521411836147308
1,3,64,11,0.4741894602775574,0.1558261662721634
1,3,64,12,0.3839980959892273,0.2176903486251831
1,3,64,13,0.6623490452766418,0.13213634490966797
1,3,64,14,0.5195433497428894,0.11955755949020386
1,3,64,15,0.5025117993354797,0.20167025923728943
1,3,64,16,0.48880836367607117,0.0634727030992508
1,3,64,17,0.6038252115249634,0.22123900055885315
1,3,64,18,0.5426139235496521,0.19181707501411438
1,3,64,19,0.3246003985404968,0.24427162110805511
1,3,64,20,0.6032466888427734,0.2477182000875473
1,3,64,21,0.48433244228363037,0.23223787546157837
1,3,64,22,0.45869940519332886,0.16608121991157532
1,3,64,23,0.5466299057006836,0.20414280891418457
1,3,64,24,0.4533248245716095,0.11675059050321579
1,3,64,25,0.6540555357933044,0.2519545555114746
1,3,64,26,0.44399866461753845,0.16403983533382416
1,3,64,27,0.6501504182815552,0.1725589632987976
1,3,64,28,0.4124183654785156,0.17825157940387726
1,3,64,29,0.5157667994499207,0.15073131024837494
1,3,64,30,0.437190443277359,0.19815288484096527
1,3,64,31,0.6211768984794617,0.1284501701593399
1,3,64,32,0.510564923286438,0.11957020312547684
1,3,64,33,0.48721614480018616,0.1455860584974289
1,3,64,34,0.4772990345954895,0.0884534940123558
1,3,64,35,0.4219326376914978,0.20884276926517487
1,3,64,36,0.5274278521537781,0.1276082545518875
1,3,64,37,0.509818971157074,0.11077775061130524
1,3,64,38,0.5712859034538269,0.2631104588508606
1,3,64,39,0.4158558249473572,0.264915406703949
1,3,64,40,0.5100704431533813,0.1765592247247696
1,3,64,41,0.3018932342529297,0.25592681765556335
1,3,64,42,0.46571260690689087,0.16053952276706696
1,3,64,43,0.4023144841194153,0.12444964051246643
1,3,64,44,0.41540929675102234,0.17875872552394867
1,3,64,45,0.47622060775756836,0.16061963140964508
1,3,64,46,0.44544023275375366,0.15461689233779907
1,3,64,47,0.6297736763954163,0.21328260004520416
1,3,64,48,0.5677772760391235,0.1141599491238594
1,3,64,49,0.37431737780570984,0.07110259681940079
1,3,64,50,0.5368990898132324,0.05441546067595482
1,3,64,51,0.486655056476593,0.1350148767232895
1,3,64,52,0.4834402799606323,0.21036061644554138
1,3,64,53,0.49216189980506897,0.21949753165245056
1,3,64,54,0.3949679732322693,0.21365880966186523
1,3,64,55,0.46335166692733765,0.11540571600198746
1,3,64,56,0.3929497003555298,0.18528595566749573
1,3,64,57,0.6103420257568359,0.12745393812656403
1,3,64,58,0.619635283946991,0.28143689036369324
1,3,64,59,0.4543437063694,0.200385183095932
1,3,64,60,0.5041195154190063,0.12365226447582245
1,3,64,61,0.4680536985397339,0.0904863029718399
1,3,64,62,0.49305349588394165,0.23484599590301514
1,3,64,63,0.31115958094596863,0.17620648443698883
1,4,128,0,0.4707932770252228,0.11213108152151108
1,4,128,1,0.5266381502151489,0.1230277568101883
1,4,128,2,0.7597551941871643,0.19252347946166992
1,4,128,3,0.6205710172653198,0.20831362903118134
1,4,128,4,0.31454432010650635,0.20550738275051117
1,4,128,5,0.3187779188156128,0.24615970253944397
1,4,128,6,0.6953525543212891,0.21876999735832214
1,4,128,7,0.7566694021224976,0.15613266825675964
1,4,128,8,0.34774020314216614,0.1588347852230072
1,4,128,9,0.5112913250923157,0.13328863680362701
1,4,128,10,0.48020845651626587,0.0922481045126915
1,4,128,11,0.8127582669258118,0.22735318541526794
1,4,128,12,0.48218464851379395,0.09857551008462906
1,4,128,13,0.29991278052330017,0.11740344017744064
1,4,128,14,0.7836950421333313,0.26562899351119995
1,4,128,15,0.2940881550312042,0.2057904750108719
1,4,128,16,0.33056119084358215,0.2116948515176773
1,4,128,17,0.717354953289032,0.14956070482730865
1,4,128,18,0.547537088394165,0.09046587347984314
1,4,128,19,0.38421061635017395,0.10622867196798325
1,4,128,20,0.6177505254745483,0.11626819521188736
1,4,128,21,0.2388925999403,0.22452841699123383
1,4,128,22,0.6088848114013672,0.09194643050432205
1,4,128,23,0.338305801153183,0.09793975949287415
1,4,128,24,0.42660632729530334,0.10545330494642258
1,4,128,25,0.6693674325942993,0.10920871049165726
1,4,128,26,0.5282413959503174,0.19614453613758087
1,4,128,27,0.5906662940979004,0.13389326632022858
1,4,128,28,0.5873566269874573,0.07477687299251556
1,4,128,29,0.6618447303771973,0.17580723762512207
1,4,128,30,0.781497597694397,0.295497864484787
1,4,128,31,0.4931037425994873,0.15552817285060883
1,4,128,32,0.34291723370552063,0.22376799583435059
1,4,128,33,0.39076656103134155,0.13087448477745056
1,4,128,34,0.6879299283027649,0.21573908627033234
1,4,128,35,0.7807283997535706,0.2782689929008484
1,4,128,36,0.8098762035369873,0.18424634635448456
1,4,128,37,0.4370332956314087,0.0627833753824234
1,4,128,38,0.6342695951461792,0.16382886469364166
1,4,128,39,0.3142050504684448,0.10985293239355087
1,4,128,40,0.34237152338027954,0.2186550498008728
1,4,128,41,0.6378242373466492,0.07964640110731125
1,4,128,42,0.686500072479248,0.15950368344783783
1,4,128,43,0.5400598049163818,0.12678039073944092
1,4,128,44,0.41290658712387085,0.11642521619796753
1,4,128,45,0.33657628297805786,0.22178862988948822
1,4,128,46,0.7472882866859436,0.23940490186214447
1,4,128,47,0.7423263788223267,0.19327494502067566
1,4,128,48,0.6924129128456116,0.22205424308776855
1,4,128,49,0.5723472237586975,0.14072030782699585
1,4,128,50,0.48920947313308716,0.09751568734645844
1,4,128,51,0.40458011627197266,0.13069865107536316
1,4,128,52,0.2678544521331787,0.11334691941738129
1,4,128,53,0.3505905866622925,0.16290339827537537
1,4,128,54,0.2980165481567383,0.1660461723804474
1,4,128,55,0.783989667892456,0.25035780668258667
1,4,128,56,0.27828311920166016,0.15225140750408173
1,4,128,57,0.7188147306442261,0.26270392537117004
1,4,128,58,0.42445239424705505,0.08488871902227402
1,4,128,59,0.24781560897827148,0.13058103621006012
1,4,128,60,0.6664510369300842,0.19378353655338287
1,4,128,61,0.4229387938976288,0.10874022543430328
1,4,128,62,0.7435145378112793,0.2646509110927582
1,4,128,63,0.7264511585235596,0.16619157791137695
1,4,128,64,0.8000161647796631,0.265500009059906
1,4,128,65,0.6034098863601685,0.06258154660463333
1,4,128,66,0.46415865421295166,0.10089949518442154
1,4,128,67,0.7300755381584167,0.15341490507125854
1,4,128,68,0.6581760048866272,0.13424791395664215
1,4,128,69,0.3829957842826843,0.19808365404605865
1,4,128,70,0.7251726388931274,0.22067037224769592
1,4,128,71,0.3059137463569641,0.20397041738033295
1,4,128,72,0.4163574278354645,0.18150869011878967
1,4,128,73,0.4876749813556671,0.11946961283683777
1,4,128,74,0.6883062720298767,0.21730393171310425
1,4,128,75,0.7198018431663513,0.19027581810951233
1,4,128,76,0.6583582162857056,0.15931081771850586
1,4,128,77,0.6896255016326904,0.23804445564746857
1,4,128,78,0.37921592593193054,0.1451372653245926
1,4,128,79,0.7098342776298523,0.12755414843559265
1,4,128,80,0.6499977707862854,0.09710242599248886
1,4,128,81,0.6944779753684998,0.11565177887678146
1,4,128,82,0.34546419978141785,0.1580503284931183
1,4,128,83,0.764556884765625,0.1142568364739418
1,4,128,84,0.4267178177833557,0.14560441672801971
1,4,128,85,0.6851332783699036,0.1691817194223404
1,4,128,86,0.7144386172294617,0.2263587862253189
1,4,128,87,0.4510059654712677,0.07941494882106781
1,4,128,88,0.7831006050109863,0.20461848378181458
1,4,128,89,0.4849419593811035,0.16577962040901184
1,4,128,90,0.7531843781471252,0.21539375185966492
1,4,128,91,0.5455812215805054,0.10898394882678986
1,4,128,92,0.503842294216156,0.10598427057266235
1,4,128,93,0.6983384490013123,0.1857338696718216
1,4,128,94,0.3213139772415161,0.18975059688091278
1,4,128,95,0.6370824575424194,0.06013477221131325
1,4,128,96,0.6712403893470764,0.18885767459869385
1,4,128,97,0.6826310157775879,0.15242402255535126
1,4,128,98,0.4800422191619873,0.1337973177433014
1,4,128,99,0.7346347570419312,0.20654690265655518
1,4,128,100,0.26064079999923706,0.16220267117023468
1,4,128,101,0.2682603597640991,0.19256693124771118
1,4,128,102,0.7947113513946533,0.25186318159103394
1,4,128,103,0.788740873336792,0.08602700382471085
1,4,128,104,0.5872169137001038,0.13594114780426025
1,4,128,105,0.744631826877594,0.10986457020044327
1,4,128,106,0.7544949054718018,0.07997257262468338
1,4,128,107,0.6643009185791016,0.19592316448688507
1,4,128,108,0.6609495282173157,0.1643868386745453
1,4,128,109,0.7339544892311096,0.22599069774150848
1,4,128,110,0.24596162140369415,0.14725659787654877
1,4,128,111,0.3876749277114868,0.12456324696540833
1,4,128,112,0.7115645408630371,0.16804857552051544
1,4,128,113,0.2767915427684784,0.15619345009326935
1,4,128,114,0.7929186820983887,0.25516054034233093
1,4,128,115,0.6189736127853394,0.06439896672964096
1,4,128,116,0.6208659410476685,0.14842796325683594
1,4,128,117,0.39018431305885315,0.05411407724022865
1,4,128,118,0.4366989731788635,0.05516315996646881
1,4,128,119,0.7546205520629883,0.23046515882015228
1,4,128,120,0.24928440153598785,0.17655183374881744
1,4,128,121,0.610108494758606,0.06545234471559525
1,4,128,122,0.717645525932312,0.12961319088935852
1,4,128,123,0.34536662697792053,0.15461646020412445
1,4,128,124,0.37835320830345154,0.11264369636774063
1,4,128,125,0.2421986162662506,0.12229103595018387
1,4,128,126,0.6780372858047485,0.2029283195734024
1,4,128,127,0.6838155388832092,0.18307340145111084
1,5,128,0,0.6447721123695374,0.2601904273033142
1,5,128,1,0.6894881129264832,0.15846364200115204
1,5,128,2,0.7392368316650391,0.12396019697189331
1,5,128,3,0.5074942111968994,0.17392148077487946
1,5,128,4,0.4277516305446625,0.1538512408733368
1,5,128,5,0.5055605173110962,0.23243866860866547
1,5,128,6,0.6929160952568054,0.196442112326622
1,5,128,7,0.6890900135040283,0.22260847687721252
1,5,128,8,0.4114932715892792,0.2954334318637848
1,5,128,9,0.4166446030139923,0.2374448925256729
1,5,128,10,0.5577122569084167,0.07899307459592819
1,5,128,11,0.6775686144828796,0.3159446716308594
1,5,128,12,0.510493278503418,0.1434517353773117
1,5,128,13,0.7860192060470581,0.0814438909292221
1,5,128,14,0.7333372235298157,0.24770019948482513
1,5,128,15,0.6315799355506897,0.08405546844005585
1,5,128,16,0.772182822227478,0.11040440201759338
1,5,128,17,0.7378299236297607,0.19669154286384583
1,5,128,18,0.727849006652832,0.15739360451698303
1,5,128,19,0.6019339561462402,0.2583436965942383
1,5,128,20,0.5146043300628662,0.09204550087451935
1,5,128,21,0.39245375990867615,0.194917231798172
1,5,128,22,0.6568692922592163,0.20068161189556122
1,5,128,23,0.4493071734905243,0.12014173716306686
1,5,128,24,0.6806026697158813,0.1130746454000473
1,5,128,25,0.6178184151649475,0.22905564308166504
1,5,128,26,0.6314963698387146,0.1446843147277832
1,5,128,27,0.7309507727622986,0.10284985601902008
1,5,128,28,0.5743445754051208,0.10651325434446335
1,5,128,29,0.67011958360672,0.1561179757118225
1,5,128,30,0.7325616478919983,0.21678155660629272
1,5,128,31,0.6423351168632507,0.11842601746320724
1,5,128,32,0.7720540165901184,0.15076002478599548
1,5,128,33,0.7037492394447327,0.21922358870506287
1,5,128,34,0.5193172693252563,0.22971031069755554
1,5,128,35,0.7683684229850769,0.1994742751121521
1,5,128,36,0.69874107837677,0.20436051487922668
1,5,128,37,0.6512981057167053,0.1361916959285736
1,5,128,38,0.6692935824394226,0.14279991388320923
1,5,128,39,0.39480361342430115,0.1535634994506836
1,5,128,40,0.7597569823265076,0.09644870460033417
1,5,128,41,0.4724915325641632,0.17924948036670685
1,5,128,42,0.7019544243812561,0.15608887374401093
1,5,128,43,0.652067244052887,0.09360580891370773
1,5,128,44,0.5966249108314514,0.2676919400691986
1,5,128,45,0.6649681925773621,0.19800695776939392
1,5,128,46,0.687135636806488,0.2497875839471817
1,5,128,47,0.7393583655357361,0.09315181523561478
1,5,128,48,0.6962910294532776,0.11913225799798965
1,5,128,49,0.7550317049026489,0.08084551244974136
1,5,128,50,0.6312590837478638,0.2552156150341034
1,5,128,51,0.7676575779914856,0.10919389128684998
1,5,128,52,0.49409762024879456,0.05620444938540459
1,5,128,53,0.5572986602783203,0.14376962184906006
1,5,128,54,0.7372620701789856,0.07254420965909958
1,5,128,55,0.7055639028549194,0.2593041956424713
1,5,128,56,0.6522948145866394,0.25226956605911255
1,5,128,57,0.710318922996521,0.1605297327041626
1,5,128,58,0.4620950520038605,0.267136812210083
1,5,128,59,0.7395933270454407,0.07729411870241165
1,5,128,60,0.7709028720855713,0.13671530783176422
1,5,128,61,0.43847227096557617,0.10030058026313782
1,5,128,62,0.6797353029251099,0.13446904718875885
1,5,128,63,0.7642178535461426,0.13413484394550323
1,5,128,64,0.7789461612701416,0.155220165848732
1,5,128,65,0.6512253284454346,0.1820189207792282
1,5,128,66,0.5956701040267944,0.06014097109436989
1,5,128,67,0.6510574221611023,0.23890259861946106
1,5,128,68,0.5864449739456177,0.32123032212257385
1,5,128,69,0.7623957991600037,0.16375060379505157
1,5,128,70,0.7572527527809143,0.11800980567932129
1,5,128,71,0.6557979583740234,0.20634494721889496
1,5,128,72,0.7340930700302124,0.20581987500190735
1,5,128,73,0.5820341110229492,0.1818227916955948
1,5,128,74,0.6289573311805725,0.15571944415569305
1,5,128,75,0.7706519365310669,0.16047537326812744
1,5,128,76,0.6127550005912781,0.08760488778352737
1,5,128,77,0.671535313129425,0.2668241858482361
1,5,128,78,0.4769439399242401,0.19793109595775604
1,5,128,79,0.6777297854423523,0.2856057584285736
1,5,128,80,0.6456019878387451,0.04261871799826622
1,5,128,81,0.7293744683265686,0.10458587855100632
1,5,128,82,0.3945205509662628,0.20984306931495667
1,5,128,83,0.7890607118606567,0.13488887250423431
1,5,128,84,0.6069751977920532,0.18346869945526123
1,5,128,85,0.7661328315734863,0.17460007965564728
1,5,128,86,0.6776771545410156,0.09260578453540802
1,5,128,87,0.6022430658340454,0.12059420347213745
1,5,128,88,0.7013686299324036,0.23140904307365417
1,5,128,89,0.5790637731552124,0.2727959454059601
1,5,128,90,0.5355513691902161,0.0633445680141449
1,5,128,91,0.648603081703186,0.21289536356925964
1,5,128,92,0.6479504704475403,0.17203651368618011
1,5,128,93,0.7773159742355347,0.1656556874513626
1,5,128,94,0.623243510723114,0.21232978999614716
1,5,128,95,0.5110021829605103,0.13788561522960663
1,5,128,96,0.73008131980896,0.0993572399020195
1,5,128,97,0.7761332988739014,0.14677445590496063
1,5,128,98,0.6333144307136536,0.22041985392570496
1,5,128,99,0.757878839969635,0.147724449634552
1,5,128,100,0.5657633543014526,0.19514402747154236
1,5,128,101,0.4535039961338043,0.22284133732318878
1,5,128,102,0.5551122426986694,0.22838349640369415
1,5,128,103,0.3664020597934723,0.21314392983913422
1,5,128,104,0.8410041332244873,0.07334733009338379
1,5,128,105,0.7015787959098816,0.14702586829662323
1,5,128,106,0.4227701723575592,0.3143119215965271
1,5,128,107,0.7087852358818054,0.1455880105495453
1,5,128,108,0.6384556293487549,0.08716687560081482
1,5,128,109,0.6703458428382874,0.21487918496131897
1,5,128,110,0.47441786527633667,0.06810665875673294
1,5,128,111,0.6146227121353149,0.12402200698852539
1,5,128,112,0.41284501552581787,0.1589444875717163
1,5,128,113,0.6179713010787964,0.13866978883743286
1,5,128,114,0.7090122103691101,0.1765599101781845
1,5,128,115,0.6895135641098022,0.18318724632263184
1,5,128,116,0.6253281831741333,0.21779340505599976
1,5,128,117,0.3059946298599243,0.13602429628372192
1,5,128,118,0.6651757955551147,0.22897449135780334
1,5,128,119,0.33343976736068726,0.09981031715869904
1,5,128,120,0.798174262046814,0.11275246739387512
1,5,128,121,0.48859965801239014,0.05605776235461235
1,5,128,122,0.6522842049598694,0.13416635990142822
1,5,128,123,0.4533790349960327,0.18523991107940674
1,5,128,124,0.7177959680557251,0.16175146400928497
1,5,128,125,0.6641637682914734,0.21011115610599518
1,5,128,126,0.4630019962787628,0.22414274513721466
1,5,128,127,0.7999297380447388,0.16351161897182465
2,0,32,0,0.42693284153938293,0.23864230513572693
2,0,32,1,0.4816088378429413,0.17111825942993164
2,0,32,2,0.4948804974555969,0.06500142067670822
2,0,32,3,0.6460598111152649,0.13813689351081848
2,0,32,4,0.36677560210227966,0.05922001227736473
2,0,32,5,0.6613832712173462,0.09867463260889053
2,0,32,6,0.2820313572883606,0.18143148720264435
2,0,32,7,0.3421536684036255,0.10200624167919159
2,0,32,8,0.25021782517433167,0.09280645847320557
2,0,32,9,0.4123992323875427,0.11451833695173264
2,0,32,10,0.5277551412582397,0.13862158358097076
2,0,32,11,0.513748824596405,0.06117536872625351
2,0,32,12,0.4511030316352844,0.03279005363583565
2,0,32,13,0.42424947023391724,0.14338773488998413
2,0,32,14,0.632422924041748,0.10911379009485245
2,0,32,15,0.5473232269287109,0.1948639452457428
2,0,32,16,0.6250683665275574,0.12517094612121582
2,0,32,17,0.44949737191200256,0.12248250842094421
2,0,32,18,0.5185918211936951,0.15470503270626068
2,0,32,19,0.316642165184021,0.10513871908187866
2,0,32,20,0.6682915091514587,0.10293568670749664
2,0,32,21,0.4164486825466156,0.15171825885772705
2,0,32,22,0.2529430091381073,0.16430163383483887
2,0,32,23,0.589460551738739,0.041242267936468124
2,0,32,24,0.4493471384048462,0.19903746247291565
2,0,32,25,0.3058914244174957,0.10462149977684021
2,0,32,26,0.6063058376312256,0.09952295571565628
2,0,32,27,0.4200783669948578,0.08696361631155014
2,0,32,28,0.5019058585166931,0.14542043209075928
2,0,32,29,0.5491140484809875,0.15695489943027496
2,0,32,30,0.5563056468963623,0.23075707256793976
2,0,32,31,0.5189891457557678,0.11715113371610641
2,1,32,0,0.46385979652404785,0.15157099068164825
2,1,32,1,0.6863940358161926,0.10027313977479935
2,1,32,2,0.47898995876312256,0.21978037059307098
2,1,32,3,0.4762387275695801,0.03450264409184456
2,1,32,4,0.47518569231033325,0.04281017929315567
2,1,32,5,0.47493675351142883,0.1590031534433365
2,1,32,6,0.49518173933029175,0.2429509162902832
2,1,32,7,0.3855854868888855,0.03738458454608917
2,1,32,8,0.6065360307693481,0.03059324249625206
2,1,32,9,0.4833030700683594,0.10744231939315796
2,1,32,10,0.47323083877563477,0.10801279544830322
2,1,32,11,0.5247660279273987,0.07089481502771378
2,1,32,12,0.40472695231437683,0.057699497789144516
2,1,32,13,0.5587866306304932,0.12698383629322052
2,1,32,14,0.571661651134491,0.04085575416684151
2,1,32,15,0.6784780621528625,0.08388730138540268
2,1,32,16,0.6774984002113342,0.14250965416431427
2,1,32,17,0.31511032581329346,0.12426209449768066
2,1,32,18,0.5627562999725342,0.1015138328075409
2,1,32,19,0.5920506715774536,0.1159340888261795
2,1,32,20,0.5049047470092773,0.1700611412525177
2,1,32,21,0.5433635711669922,0.15969373285770416
2,1,32,22,0.45197156071662903,0.09324464201927185
2,1,32,23,0.5301281213760376,0.2208973616361618
2,1,32,24,0.4855394661426544,0.12503556907176971
2,1,32,25,0.5656018853187561,0.09701830893754959
2,1,32,26,0.47537529468536377,0.18033921718597412
2,1,32,27,0.5319522619247437,0.17382653057575226
2,1,32,28,0.45283761620521545,0.12378322333097458
2,1,32,29,0.3481975793838501,0.09779465198516846
2,1,32,30,0.442780077457428,0.10862573236227036
2,1,32,31,0.3530476689338684,0.05026337504386902
2,2,64,0,0.5454964637756348,0.18382520973682404
2,2,64,1,0.46823850274086,0.12043105810880661
2,2,64,2,0.3561300039291382,0.22217944264411926
2,2,64,3,0.4097490906715393,0.12058772891759872
2,2,64,4,0.49696865677833557,0.10073359310626984
2,2,64,5,0.3902464807033539,0.10834519565105438
2,2,64,6,0.5425122380256653,0.19880205392837524
2,2,64,7,0.6569371223449707,0.08404532819986343
2,2,64,8,0.38530686497688293,0.16182167828083038
2,2,64,9,0.44415587186813354,0.15109653770923615
2,2,64,10,0.3893145024776459,0.0839935764670372
2,2,64,11,0.4811200797557831,0.1439085155725479
2,2,64,12,0.36855584383010864,0.1778893768787384
2,2,64,13,0.4477837085723877,0.07998358458280563
2,2,64,14,0.4021275043487549,0.16461658477783203
2,2,64,15,0.5067352652549744,0.12819670140743256
2,2,64,16,0.5514618754386902,0.09452114254236221
2,2,64,17,0.45131298899650574,0.05880017206072807
2,2,64,18,0.49061092734336853,0.22331450879573822
2,2,64,19,0.5961121320724487,0.28095972537994385
2,2,64,20,0.5463768839836121,0.10377031564712524
2,2,64,21,0.47661012411117554,0.16541218757629395
2,2,64,22,0.618644118309021,0.15047848224639893
2,2,64,23,0.4779025912284851,0.16123934090137482
2,2,64,24,0.5966401696205139,0.14001969993114471
2,2,64,25,0.43520376086235046,0.14019359648227692
2,2,64,26,0.4802279770374298,0.13998538255691528
2,2,64,27,0.5036869049072266,0.05805746465921402
2,2,64,28,0.5711203217506409,0.19932156801223755
2,2,64,29,0.5136917233467102,0.08385618776082993
2,2,64,30,0.5271535515785217,0.11421678960323334
2,2,64,31,0.34197425842285156,0.13168473541736603
2,2,64,32,0.65980464220047,0.21172553300857544
2,2,64,33,0.6298695802688599,0.12121694535017014
2,2,64,34,0.5815283060073853,0.15836414694786072
2,2,64,35,0.5671321749687195,0.21663258969783783
2,2,64,36,0.5947521924972534,0.11604335159063339
2,2,64,37,0.6204341650009155,0.19405199587345123
2,2,64,38,0.496060311794281,0.15942922234535217
2,2,64,39,0.653805673122406,0.25039249658584595
2,2,64,40,0.49285489320755005,0.15416555106639862
2,2,64,41,0.5826868414878845,0.3029579818248749
2,2,64,42,0.4839014708995819,0.1849137395620346
2,2,64,43,0.5399993062019348,0.11744125187397003
2,2,64,44,0.487471342086792,0.08960628509521484
2,2,64,45,0.46938803791999817,0.11012003570795059
2,2,64,46,0.6167761087417603,0.1914650797843933
2,2,64,47,0.4628904461860657,0.07604680955410004
2,2,64,48,0.7000226974487305,0.07304926216602325
2,2,64,49,0.5305408239364624,0.25345492362976074
2,2,64,50,0.5251355767250061,0.14554636180400848
2,2,64,51,0.5412197709083557,0.14497287571430206
2,2,64,52,0.5657269954681396,0.1489901840686798
2,2,64,53,0.4343813955783844,0.13002873957157135
2,2,64,54,0.44041934609413147,0.09884276986122131
2,2,64,55,0.6324173212051392,0.14412537217140198
2,2,64,56,0.4081367254257202,0.1509612500667572
2,2,64,57,0.39042454957962036,0.06220162659883499
2,2,64,58,0.5485349297523499,0.1533852368593216
2,2,64,59,0.3962736129760742,0.04135766252875328
2,2,64,60,0.5899211168289185,0.09747742861509323
2,2,64,61,0.5826878547668457,0.16694118082523346
2,2,64,62,0.5288606882095337,0.1758348047733307
2,2,64,63,0.4026409685611725,0.1332879662513733
2,3,64,0,0.5575931072235107,0.2778850495815277
2,3,64,1,0.4146040976047516,0.0942225381731987
2,3,64,2,0.5262696743011475,0.16651271283626556
2,3,64,3,0.46750807762145996,0.11632952839136124
2,3,64,4,0.43186187744140625,0.27454623579978943
2,3,64,5,0.5207552909851074,0.12929962575435638
2,3,64,6,0.5211889147758484,0.07562397420406342
2,3,64,7,0.4465223252773285,0.041253022849559784
2,3,64,8,0.4818222224712372,0.160561203956604
2,3,64,9,0.4619608223438263,0.1333003044128418
2,3,64,10,0.5873764753341675,0.19289447367191315
2,3,64,11,0.5260968804359436,0.14933077991008759
2,3,64,12,0.34837865829467773,0.17792673408985138
2,3,64,13,0.5471786856651306,0.15007992088794708
2,3,64,14,0.5671903491020203,0.07285534590482712
2,3,64,15,0.5921929478645325,0.05839060992002487
2,3,64,16,0.47724634408950806,0.09945860505104065
2,3,64,17,0.43527770042419434,0.10213708877563477
2,3,64,18,0.40483373403549194,0.11145304888486862
2,3,64,19,0.4143200218677521,0.01035564299672842
2,3,64,20,0.6601225733757019,0.20795242488384247
2,3,64,21,0.5284952521324158,0.16060501337051392
2,3,64,22,0.6069971323013306,0.2359938621520996
2,3,64,23,0.6203544735908508,0.0979834794998169
2,3,64,24,0.6337149739265442,0.14243973791599274
2,3,64,25,0.47515788674354553,0.06684727221727371
2,3,64,26,0.5960178971290588,0.07830274850130081
2,3,64,27,0.6465916633605957,0.14094306528568268
2,3,64,28,0.6734270453453064,0.14337098598480225
2,3,64,29,0.5800357460975647,0.14070463180541992
2,3,64,30,0.5855346918106079,0.13896721601486206
2,3,64,31,0.3934439718723297,0.10946548730134964
2,3,64,32,0.5361066460609436,0.2730361223220825
2,3,64,33,0.333689421415329,0.20430909097194672
2,3,64,34,0.5359534621238708,0.1649070680141449
2,3,64,35,0.434988796710968,0.16532813012599945
2,3,64,36,0.47938796877861023,0.13169851899147034
2,3,64,37,0.5958521366119385,0.14050163328647614
2,3,64,38,0.5378461480140686,0.14806312322616577
2,3,64,39,0.606714129447937,0.28985482454299927
2,3,64,40,0.4405518174171448,0.11354812234640121
2,3,64,41,0.41653844714164734,0.09398087859153748
2,3,64,42,0.6001004576683044,0.07298040390014648
2,3,64,43,0.4914948642253876,0.09059835225343704
2,3,64,44,0.5295368432998657,0.11233106255531311
2,3,64,45,0.522781252861023,0.13328589498996735
2,3,64,46,0.417256623506546,0.1460946649312973
2,3,64,47,0.670078694820404,0.14564843475818634
2,3,64,48,0.4091411828994751,0.179949089884758
2,3,64,49,0.45051664113998413,0.08493398129940033
2,3,64,50,0.48926085233688354,0.11490689963102341
2,3,64,51,0.40298527479171753,0.2806391716003418
2,3,64,52,0.44771409034729004,0.17519794404506683
2,3,64,53,0.3878192901611328,0.11694832891225815
2,3,64,54,0.4303439259529114,0.06998510658740997
2,3,64,55,0.42598506808280945,0.03538497909903526
2,3,64,56,0.3593677282333374,0.08460516482591629
2,3,64,57,0.6192582249641418,0.24785172939300537
2,3,64,58,0.504159152507782,0.08727332949638367
2,3,64,59,0.4609725773334503,0.22401046752929688
2,3,64,60,0.33430516719818115,0.09523630142211914
2,3,64,61,0.6499459147453308,0.11000881344079971
2,3,64,62,0.49799633026123047,0.17638646066188812
2,3,64,63,0.4924255311489105,0.11389012634754181
2,4,128,0,0.7612265944480896,0.25186851620674133
2,4,128,1,0.7432724237442017,0.1617545336484909
2,4,128,2,0.8030962347984314,0.251543790102005
2,4,128,3,0.496219277381897,0.17376290261745453
2,4,128,4,0.7389373779296875,0.24414928257465363
2,4,128,5,0.6985434293746948,0.2294672727584839
2,4,128,6,0.4756383001804352,0.22099991142749786
2,4,128,7,0.7827062606811523,0.2638007700443268
2,4,128,8,0.6482847332954407,0.15357840061187744
2,4,128,9,0.7745918035507202,0.30826491117477417
2,4,128,10,0.315999835729599,0.12182170152664185
2,4,128,11,0.6684247851371765,0.274174302816391
2,4,128,12,0.7566381096839905,0.22404038906097412
2,4,128,13,0.31999707221984863,0.23954196274280548
2,4,128,14,0.5429551005363464,0.05868801474571228
2,4,128,15,0.6613375544548035,0.21412459015846252
2,4,128,16,0.3091978430747986,0.293881893157959
2,4,128,17,0.3277951776981354,0.13812220096588135
2,4,128,18,0.7992215156555176,0.09299880266189575
2,4,128,19,0.36461141705513,0.21999874711036682
2,4,128,20,0.35499927401542664,0.1558360457420349
2,4,128,21,0.6582596898078918,0.10793054103851318
2,4,128,22,0.24335020780563354,0.20598050951957703
2,4,128,23,0.7723103761672974,0.24023903906345367
2,4,128,24,0.792563796043396,0.30382075905799866
2,4,128,25,0.521295428276062,0.18366895616054535
2,4,128,26,0.8120560646057129,0.26534608006477356
2,4,128,27,0.7728119492530823,0.07336121797561646
2,4,128,28,0.7832939028739929,0.3298080265522003
2,4,128,29,0.6264262199401855,0.2723739743232727
2,4,128,30,0.40603986382484436,0.05512973666191101
2,4,128,31,0.7008243203163147,0.10617785155773163
2,4,128,32,0.7891185879707336,0.29660144448280334
2,4,128,33,0.6016112565994263,0.20464828610420227
2,4,128,34,0.6599445939064026,0.13736271858215332
2,4,128,35,0.7807030081748962,0.2692910134792328
2,4,128,36,0.33362242579460144,0.2551264762878418
2,4,128,37,0.680115818977356,0.22784481942653656
2,4,128,38,0.6490446329116821,0.1912122666835785
2,4,128,39,0.4009038209915161,0.2249753475189209
2,4,128,40,0.7223891019821167,0.3061760365962982
2,4,128,41,0.3255040943622589,0.18632276356220245
2,4,128,42,0.614752471446991,0.26586252450942993
2,4,128,43,0.36119046807289124,0.1167994886636734
2,4,128,44,0.4397205412387848,0.12966889142990112
2,4,128,45,0.7354402542114258,0.2439459264278412
2,4,128,46,0.7333672046661377,0.1471928358078003
2,4,128,47,0.7354496121406555,0.285940557718277
2,4,128,48,0.5054535269737244,0.1790984719991684
2,4,128,49,0.7897003293037415,0.27818015217781067
2,4,128,50,0.6605472564697266,0.19612739980220795
2,4,128,51,0.3141598403453827,0.21634003520011902
2,4,128,52,0.30064576864242554,0.21505561470985413
2,4,128,53,0.3399788439273834,0.2837395966053009
2,4,128,54,0.4195587933063507,0.18293625116348267
2,4,128,55,0.5995144248008728,0.08666827529668808
2,4,128,56,0.35022586584091187,0.23972631990909576
2,4,128,57,0.7306783199310303,0.23388925194740295
2,4,128,58,0.3554072380065918,0.273698627948761
2,4,128,59,0.2838052809238434,0.0760498121380806
2,4,128,60,0.6084842681884766,0.2858600616455078
2,4,128,61,0.4493657052516937,0.22161553800106049
2,4,128,62,0.5886330008506775,0.228690043091774
2,4,128,63,0.48011288046836853,0.18008042871952057
2,4,128,64,0.7409469485282898,0.1959739625453949
2,4,128,65,0.43717458844184875,0.20124498009681702
2,4,128,66,0.22354617714881897,0.16899582743644714
2,4,128,67,0.7389355897903442,0.2770501971244812
2,4,128,68,0.2922920286655426,0.12148535996675491
2,4,128,69,0.7768014669418335,0.24867260456085205
2,4,128,70,0.619985044002533,0.1318899393081665
2,4,128,71,0.3314027488231659,0.21815022826194763
2,4,128,72,0.8288968205451965,0.1902051866054535
2,4,128,73,0.7085540294647217,0.2182919681072235
2,4,128,74,0.5135579705238342,0.2488258332014084
2,4,128,75,0.7103705406188965,0.22421111166477203
2,4,128,76,0.565000057220459,0.10156571865081787
2,4,128,77,0.4799768030643463,0.1887834519147873
2,4,128,78,0.5609650611877441,0.2155664563179016
2,4,128,79,0.5064787864685059,0.20467278361320496
2,4,128,80,0.6848223805427551,0.1954270750284195
2,4,128,81,0.47123098373413086,0.1480296552181244
2,4,128,82,0.5421543717384338,0.19236595928668976
2,4,128,83,0.2518748641014099,0.24484394490718842
2,4,128,84,0.3917115032672882,0.22448907792568207
2,4,128,85,0.6869492530822754,0.12429250776767731
2,4,128,86,0.3707325756549835,0.2313767671585083
2,4,128,87,0.3516753017902374,0.16859157383441925
2,4,128,88,0.7695217132568359,0.3473186492919922
2,4,128,89,0.701524019241333,0.19537705183029175
2,4,128,90,0.592096745967865,0.13326355814933777
2,4,128,91,0.3324747085571289,0.13128170371055603
2,4,128,92,0.6301953196525574,0.28657296299934387
2,4,128,93,0.85072261095047,0.20864537358283997
2,4,128,94,0.49850451946258545,0.05924883857369423
2,4,128,95,0.7085577845573425,0.08657956123352051
2,4,128,96,0.6641615629196167,0.25493523478507996
2,4,128,97,0.7737879753112793,0.11978274583816528
2,4,128,98,0.47400039434432983,0.14156179130077362
2,4,128,99,0.5392670631408691,0.0743514746427536
2,4,128,100,0.6564326882362366,0.24060414731502533
2,4,128,101,0.7178007960319519,0.2034178227186203
2,4,128,102,0.23450247943401337,0.1445620208978653
2,4,128,103,0.4028621315956116,0.1073952168226242
2,4,128,104,0.32960081100463867,0.07345883548259735
2,4,128,105,0.23994606733322144,0.2148500233888626
2,4,128,106,0.6425422430038452,0.22413218021392822
2,4,128,107,0.7502076625823975,0.18926404416561127
2,4,128,108,0.47349610924720764,0.20310474932193756
2,4,128,109,0.2646223306655884,0.26021817326545715
2,4,128,110,0.5204211473464966,0.19750045239925385
2,4,128,111,0.28476181626319885,0.20963546633720398
2,4,128,112,0.8104420900344849,0.2520705759525299
2,4,128,113,0.41799086332321167,0.2194947600364685
2,4,128,114,0.7398847937583923,0.20477594435214996
2,4,128,115,0.637363076210022,0.26615116000175476
2,4,128,116,0.3297096788883209,0.2741484045982361
2,4,128,117,0.7574787139892578,0.15441502630710602
2,4,128,118,0.2788878083229065,0.23215480148792267
2,4,128,119,0.3988283574581146,0.2464306503534317
2,4,128,120,0.2819235622882843,0.2870735824108124
2,4,128,121,0.6039520502090454,0.09002461284399033
2,4,128,122,0.6693138480186462,0.1711144596338272
2,4,128,123,0.8145424723625183,0.2560481131076813
2,4,128,124,0.22506782412528992,0.179373100399971
2,4,128,125,0.7889353036880493,0.27920469641685486
2,4,128,126,0.38860300183296204,0.14726845920085907
2,4,128,127,0.34010520577430725,0.21250909566879272
2,5,128,0,0.8611189126968384,0.12035980820655823
2,5,128,1,0.7144050598144531,0.10476117581129074
2,5,128,2,0.820794939994812,0.15761755406856537
2,5,128,3,0.7963659763336182,0.14209803938865662
2,5,128,4,0.5742449760437012,0.1920895278453827
2,5,128,5,0.826691210269928,0.10601338744163513
2,5,128,6,0.5677708387374878,0.07546728849411011
2,5,128,7,0.7949877381324768,0.2086194008588791
2,5,128,8,0.7188969254493713,0.13388484716415405
2,5,128,9,0.771514892578125,0.225068598985672
2,5,128,10,0.19324779510498047,0.12289466708898544
2,5,128,11,0.8256290555000305,0.1696569323539734
2,5,128,12,0.6477190852165222,0.0589856281876564
2,5,128,13,0.7855067849159241,0.10387814044952393
2,5,128,14,0.7226490378379822,0.24484190344810486
2,5,128,15,0.4432457387447357,0.3144819140434265
2,5,128,16,0.7293844223022461,0.11886705458164215
2,5,128,17,0.6707610487937927,0.0839303582906723
2,5,128,18,0.465801864862442,0.10803105682134628
2,5,128,19,0.812634289264679,0.1884881556034088
2,5,128,20,0.49846577644348145,0.1324336975812912
2,5,128,21,0.6787092089653015,0.14799509942531586
2,5,128,22,0.6016367077827454,0.08501455187797546
2,5,128,23,0.7912313342094421,0.1845518797636032
2,5,128,24,0.8042493462562561,0.1879429817199707
2,5,128,25,0.6907743811607361,0.13016223907470703
2,5,128,26,0.8096263408660889,0.19204413890838623
2,5,128,27,0.5385096073150635,0.07799480110406876
2,5,128,28,0.84283846616745,0.10832478106021881
2,5,128,29,0.7362648844718933,0.1814126968383789
2,5,128,30,0.5762588977813721,0.1117858961224556
2,5,128,31,0.6390581130981445,0.07542716711759567
2,5,128,32,0.781956136226654,0.19856271147727966
2,5,128,33,0.8141980767250061,0.17756831645965576
2,5,128,34,0.6843081116676331,0.06630990654230118
2,5,128,35,0.6971596479415894,0.2689342200756073
2,5,128,36,0.7421824336051941,0.1922125518321991
2,5,128,37,0.8014438152313232,0.1789047122001648
2,5,128,38,0.7948196530342102,0.1535978466272354
2,5,128,39,0.8930928707122803,0.08966826647520065
2,5,128,40,0.7850838303565979,0.09071534872055054
2,5,128,41,0.6706398129463196,0.1895766705274582
2,5,128,42,0.6912413835525513,0.19143441319465637
2,5,128,43,0.6851550340652466,0.3201557993888855
2,5,128,44,0.7415475845336914,0.07056247442960739
2,5,128,45,0.7109927535057068,0.2307356894016266
2,5,128,46,0.83563631772995,0.12704598903656006
2,5,128,47,0.8785310983657837,0.10302172601222992
2,5,128,48,0.7756696939468384,0.20078502595424652
2,5,128,49,0.7107816934585571,0.23305705189704895
2,5,128,50,0.7119960784912109,0.10926484316587448
2,5,128,51,0.6689417958259583,0.11136414855718613
2,5,128,52,0.7466516494750977,0.1893051266670227
2,5,128,53,0.6864099502563477,0.19944381713867188
2,5,128,54,0.8036337494850159,0.13266627490520477
2,5,128,55,0.807313084602356,0.16823183000087738
2,5,128,56,0.45951414108276367,0.16713106632232666
2,5,128,57,0.7769819498062134,0.09929896146059036
2,5,128,58,0.7465010285377502,0.18460384011268616
2,5,128,59,0.7800506949424744,0.1430671662092209
2,5,128,60,0.8505557775497437,0.08093734830617905
2,5,128,61,0.7318424582481384,0.30075258016586304
2,5,128,62,0.7706266045570374,0.18451444804668427
2,5,128,63,0.7073855996131897,0.08996553719043732
2,5,128,64,0.7851448059082031,0.15330536663532257
2,5,128,65,0.7769964337348938,0.17136240005493164
2,5,128,66,0.6440733671188354,0.11316472291946411
2,5,128,67,0.7184151411056519,0.2430163472890854
2,5,128,68,0.660060703754425,0.08252544701099396
2,5,128,69,0.7817296385765076,0.209208145737648
2,5,128,70,0.7500621676445007,0.10651331394910812
2,5,128,71,0.79941725730896,0.05952533707022667
2,5,128,72,0.8680275678634644,0.1083589494228363
2,5,128,73,0.2797276973724365,0.22537316381931305
2,5,128,74,0.7379094362258911,0.17460021376609802
2,5,128,75,0.3079261779785156,0.12735071778297424
2,5,128,76,0.8043373823165894,0.1669577807188034
2,5,128,77,0.48350054025650024,0.1629430502653122
2,5,128,78,0.6810640692710876,0.10131335258483887
2,5,128,79,0.8399404287338257,0.12181549519300461
2,5,128,80,0.2868996560573578,0.2085479497909546
2,5,128,81,0.8298658132553101,0.12895935773849487
2,5,128,82,0.7161736488342285,0.08313516527414322
2,5,128,83,0.7518271207809448,0.1785123497247696
2,5,128,84,0.6557347178459167,0.14826475083827972
2,5,128,85,0.8018942475318909,0.1255689263343811
2,5,128,86,0.7804217338562012,0.10141699761152267
2,5,128,87,0.6235382556915283,0.12464217096567154
2,5,128,88,0.7833347916603088,0.15705102682113647
2,5,128,89,0.8296690583229065,0.13941486179828644
2,5,128,90,0.7818195223808289,0.08034896105527878
2,5,128,91,0.484224796295166,0.22981685400009155
2,5,128,92,0.6713802814483643,0.25946885347366333
2,5,128,93,0.6634950041770935,0.24057136476039886
2,5,128,94,0.7371962666511536,0.17384035885334015
2,5,128,95,0.8677355647087097,0.10497214645147324
2,5,128,96,0.8103586435317993,0.16679657995700836
2,5,128,97,0.8483001589775085,0.13308006525039673
2,5,128,98,0.8326604962348938,0.1636088639497757
2,5,128,99,0.6672386527061462,0.25689005851745605
2,5,128,100,0.7403361201286316,0.24725154042243958
2,5,128,101,0.6136811971664429,0.29185035824775696
2,5,128,102,0.4648672938346863,0.21754173934459686
2,5,128,103,0.7797099351882935,0.1913759559392929
2,5,128,104,0.7280607223510742,0.1421753615140915
2,5,128,105,0.7636394500732422,0.27770116925239563
2,5,128,106,0.6481853127479553,0.20385491847991943
2,5,128,107,0.7409907579421997,0.07065785676240921
2,5,128,108,0.592612087726593,0.14570419490337372
2,5,128,109,0.8186706900596619,0.09388479590415955
2,5,128,110,0.7285069823265076,0.19788746535778046
2,5,128,111,0.7888161540031433,0.08715637773275375
2,5,128,112,0.3577755391597748,0.2412385642528534
2,5,128,113,0.7907462120056152,0.18889960646629333
2,5,128,114,0.7765026092529297,0.22255343198776245
2,5,128,115,0.6744674444198608,0.19992054998874664
2,5,128,116,0.3491376042366028,0.31858259439468384
2,5,128,117,0.7509728670120239,0.07241281121969223
2,5,128,118,0.422844260931015,0.28001558780670166
2,5,128,119,0.6689074635505676,0.3117144703865051
2,5,128,120,0.8189928531646729,0.11655917018651962
2,5,128,121,0.8701689839363098,0.07733380049467087
2,5,128,122,0.7258108258247375,0.1779884696006775
2,5,128,123,0.7629992365837097,0.14585499465465546
2,5,128,124,0.7528334856033325,0.26362186670303345
2,5,128,125,0.5973001718521118,0.10820630192756653
2,5,128,126,0.863324761390686,0.08377490192651749
2,5,128,127,0.7071729302406311,0.22518683969974518
3,0,32,0,0.5116697549819946,0.08371789753437042
3,0,32,1,0.49043896794319153,0.07611090689897537
3,0,32,2,0.5277618765830994,0.0230378657579422
3,0,32,3,0.363349586725235,0.0950019434094429
3,0,32,4,0.32323652505874634,0.08366289734840393
3,0,32,5,0.3562512695789337,0.08533088862895966
3,0,32,6,0.4088515043258667,0.08668587356805801
3,0,32,7,0.5519458055496216,0.1519038826227188
3,0,32,8,0.5618337988853455,0.02150489017367363
3,0,32,9,0.558996856212616,0.04989827796816826
3,0,32,10,0.43255168199539185,0.07867167890071869
3,0,32,11,0.5831100344657898,0.0405590794980526
3,0,32,12,0.5882086157798767,0.10016297549009323
3,0,32,13,0.5026296377182007,0.09969306737184525
3,0,32,14,0.454725980758667,0.044521674513816833
3,0,32,15,0.375679612159729,0.07258877903223038
3,0,32,16,0.4666112959384918,0.06711193919181824
3,0,32,17,0.4809109568595886,0.08634642511606216
3,0,32,18,0.42342421412467957,0.12416071444749832
3,0,32,19,0.32901662588119507,0.05807483196258545
3,0,32,20,0.4607914388179779,0.06527222692966461
3,0,32,21,0.5087636113166809,0.12743443250656128
3,0,32,22,0.46301212906837463,0.0510198175907135
3,0,32,23,0.5351684093475342,0.0691956952214241
3,0,32,24,0.6372209787368774,0.0356631726026535
3,0,32,25,0.5837849974632263,0.08582957088947296
3,0,32,26,0.4219253957271576,0.12524110078811646
3,0,32,27,0.41294485330581665,0.11371620744466782
3,0,32,28,0.5584009289741516,0.09176988154649734
3,0,32,29,0.49551308155059814,0.05577396973967552
3,0,32,30,0.3448624908924103,0.11471839249134064
3,0,32,31,0.4078684151172638,0.0745607540011406
3,1,32,0,0.3811448812484741,0.11494714766740799
3,1,32,1,0.5595353245735168,0.10314183682203293
3,1,32,2,0.3396769165992737,0.15078583359718323
3,1,32,3,0.3203636407852173,0.14229503273963928
3,1,32,4,0.6179872751235962,0.1597798764705658
3,1,32,5,0.3158678710460663,0.14040450751781464
3,1,32,6,0.4799487590789795,0.06851185858249664
3,1,32,7,0.5263813734054565,0.1447306126356125
3,1,32,8,0.6497987508773804,0.08684635162353516
3,1,32,9,0.4575098752975464,0.09776526689529419
3,1,32,10,0.6276856064796448,0.15893127024173737
3,1,32,11,0.6882296800613403,0.1280812919139862
3,1,32,12,0.4422871470451355,0.1603776216506958
3,1,32,13,0.7446286678314209,0.16643817722797394
3,1,32,14,0.3629091680049896,0.12764310836791992
3,1,32,15,0.746208667755127,0.12893763184547424
3,1,32,16,0.5406444072723389,0.051088832318782806
3,1,32,17,0.3344009518623352,0.12795390188694
3,1,32,18,0.5276144742965698,0.173603817820549
3,1,32,19,0.38683363795280457,0.10406287014484406
3,1,32,20,0.5797522664070129,0.2074437439441681
3,1,32,21,0.670336127281189,0.11442295461893082
3,1,32,22,0.3033175766468048,0.11660769581794739
3,1,32,23,0.5060411691665649,0.16972953081130981
3,1,32,24,0.3077416718006134,0.08525370061397552
3,1,32,25,0.6370177268981934,0.1246577650308609
3,1,32,26,0.39671963453292847,0.10943392664194107
3,1,32,27,0.5191090106964111,0.1493038833141327
3,1,32,28,0.47087183594703674,0.08154763281345367
3,1,32,29,0.5323876738548279,0.1958276480436325
3,1,32,30,0.5456845164299011,0.1741613894701004
3,1,32,31,0.7142652869224548,0.11240877956151962
3,2,64,0,0.5404335260391235,0.15241892635822296
3,2,64,1,0.46924588084220886,0.13808339834213257
3,2,64,2,0.6078664660453796,0.21311253309249878
3,2,64,3,0.5600106120109558,0.0908128097653389
3,2,64,4,0.5403928160667419,0.07230879366397858
3,2,64,5,0.5490719676017761,0.14046695828437805
3,2,64,6,0.5135601162910461,0.07288365066051483
3,2,64,7,0.30839356780052185,0.08938843756914139
3,2,64,8,0.5530816912651062,0.14078421890735626
3,2,64,9,0.46226152777671814,0.11199188232421875
3,2,64,10,0.3839784860610962,0.18648311495780945
3,2,64,11,0.43285828828811646,0.17452332377433777
3,2,64,12,0.6632192730903625,0.10305285453796387
3,2,64,13,0.4071933627128601,0.09959571063518524
3,2,64,14,0.4933128356933594,0.07102547585964203
3,2,64,15,0.42184358835220337,0.10024866461753845
3,2,64,16,0.48063594102859497,0.07727290689945221
3,2,64,17,0.6000179648399353,0.23480351269245148
3,2,64,18,0.7193161845207214,0.08449173718690872
3,2,64,19,0.3692771792411804,0.09571219235658646
3,2,64,20,0.5996505618095398,0.10674590617418289
3,2,64,21,0.44823962450027466,0.14429934322834015
3,2,64,22,0.5020610094070435,0.08610808849334717
3,2,64,23,0.4256584644317627,0.09044098109006882
3,2,64,24,0.35870903730392456,0.07831596583127975
3,2,64,25,0.4650610089302063,0.1267167627811432
3,2,64,26,0.636122465133667,0.09620116651058197
3,2,64,27,0.49073317646980286,0.06509049981832504
3,2,64,28,0.4519568979740143,0.06732787936925888
3,2,64,29,0.46281665563583374,0.13173608481884003
3,2,64,30,0.41287893056869507,0.09236833453178406
3,2,64,31,0.571715772151947,0.08662964403629303
3,2,64,32,0.46649369597435,0.1258268803358078
3,2,64,33,0.4303111433982849,0.12593090534210205
3,2,64,34,0.5831674933433533,0.10698805004358292
3,2,64,35,0.6128994226455688,0.11808062344789505
3,2,64,36,0.5487363338470459,0.10459534078836441
3,2,64,37,0.41278642416000366,0.1252182126045227
3,2,64,38,0.5437626242637634,0.11625604331493378
3,2,64,39,0.4141848683357239,0.05500822141766548
3,2,64,40,0.6247608661651611,0.06269745528697968
3,2,64,41,0.4597419202327728,0.09343843907117844
3,2,64,42,0.6181046962738037,0.07638593018054962
3,2,64,43,0.5962564945220947,0.15728290379047394
3,2,64,44,0.6190049648284912,0.12400501221418381
3,2,64,45,0.34170910716056824,0.2628174126148224
3,2,64,46,0.6238620281219482,0.20200210809707642
3,2,64,47,0.614165186882019,0.16327399015426636
3,2,64,48,0.5351482629776001,0.11052946001291275
3,2,64,49,0.5585524439811707,0.15159006416797638
3,2,64,50,0.6537190675735474,0.11660641431808472
3,2,64,51,0.45151978731155396,0.14098146557807922
3,2,64,52,0.40308818221092224,0.18409894406795502
3,2,64,53,0.6125672459602356,0.2310977280139923
3,2,64,54,0.5929853916168213,0.08330804109573364
3,2,64,55,0.550741970539093,0.14551995694637299
3,2,64,56,0.48644572496414185,0.050060492008924484
3,2,64,57,0.4191667437553406,0.09076391160488129
3,2,64,58,0.6093226671218872,0.0821618065237999
3,2,64,59,0.5979599952697754,0.12816251814365387
3,2,64,60,0.48556190729141235,0.05235153064131737
3,2,64,61,0.6205365061759949,0.22842885553836823
3,2,64,62,0.4875536561012268,0.04485829919576645
3,2,64,63,0.44524261355400085,0.09582722932100296
3,3,64,0,0.4594731330871582,0.12908217310905457
3,3,64,1,0.3912702202796936,0.21227963268756866
3,3,64,2,0.6988986730575562,0.2754141390323639
3,3,64,3,0.5292935371398926,0.298942893743515
3,3,64,4,0.28594672679901123,0.11951834708452225
3,3,64,5,0.3739311993122101,0.06817542761564255
3,3,64,6,0.34206250309944153,0.17105568945407867
3,3,64,7,0.18639761209487915,0.1112971231341362
3,3,64,8,0.6688664555549622,0.07684896141290665
3,3,64,9,0.36482110619544983,0.31691205501556396
3,3,64,10,0.4174995422363281,0.2999784052371979
3,3,64,11,0.6974772810935974,0.28435808420181274
3,3,64,12,0.5571730136871338,0.19839082658290863
3,3,64,13,0.433088093996048,0.14315150678157806
3,3,64,14,0.49069860577583313,0.2308935672044754
3,3,64,15,0.6936007142066956,0.1420470029115677
3,3,64,16,0.5559712052345276,0.13681595027446747
3,3,64,17,0.6095054745674133,0.2646108567714691
3,3,64,18,0.65146404504776,0.24012069404125214
3,3,64,19,0.3875604271888733,0.2867579460144043
3,3,64,20,0.6254554390907288,0.11296887695789337
3,3,64,21,0.48579031229019165,0.23434379696846008
3,3,64,22,0.4926786720752716,0.14545273780822754
3,3,64,23,0.6405025124549866,0.13309575617313385
3,3,64,24,0.6132104992866516,0.3300252854824066
3,3,64,25,0.5494773983955383,0.14643552899360657
3,3,64,26,0.6653028726577759,0.14352205395698547
3,3,64,27,0.6782639622688293,0.15620650351047516
3,3,64,28,0.49286535382270813,0.24321207404136658
3,3,64,29,0.49662306904792786,0.10021081566810608
3,3,64,30,0.30491694808006287,0.17862620949745178
3,3,64,31,0.40527111291885376,0.27302438020706177
3,3,64,32,0.5213360786437988,0.23688730597496033
3,3,64,33,0.5861150622367859,0.26087525486946106
3,3,64,34,0.5331006050109863,0.2726401686668396
3,3,64,35,0.3182793855667114,0.11378289014101028
3,3,64,36,0.6661252379417419,0.18782074749469757
3,3,64,37,0.6818183660507202,0.21204538643360138
3,3,64,38,0.5321656465530396,0.08212939649820328
3,3,64,39,0.6249972581863403,0.2816998362541199
3,3,64,40,0.5563209652900696,0.3545791804790497
3,3,64,41,0.7862629890441895,0.1351289600133896
3,3,64,42,0.3893846571445465,0.08055227994918823
3,3,64,43,0.4448203146457672,0.22854706645011902
3,3,64,44,0.49821537733078003,0.16345897316932678
3,3,64,45,0.3956010341644287,0.08433885127305984
3,3,64,46,0.3363937735557556,0.24839837849140167
3,3,64,47,0.588666558265686,0.20950613915920258
3,3,64,48,0.5029067993164062,0.1877615749835968
3,3,64,49,0.3718183636665344,0.12998385727405548
3,3,64,50,0.3830235004425049,0.13229720294475555
3,3,64,51,0.36365896463394165,0.13808339834213257
3,3,64,52,0.37058210372924805,0.30970868468284607
3,3,64,53,0.526654839515686,0.39171043038368225
3,3,64,54,0.31045037508010864,0.24454659223556519
3,3,64,55,0.26977747678756714,0.17302101850509644
3,3,64,56,0.5399828553199768,0.10657407343387604
3,3,64,57,0.43814393877983093,0.10114526003599167
3,3,64,58,0.6452762484550476,0.30522409081459045
3,3,64,59,0.6869128346443176,0.24160005152225494
3,3,64,60,0.4595087766647339,0.1877278983592987
3,3,64,61,0.33990103006362915,0.21212275326251984
3,3,64,62,0.4587160348892212,0.07964564114809036
3,3,64,63,0.711892306804657,0.1841667890548706
3,4,128,0,0.45194000005722046,0.2221335768699646
3,4,128,1,0.6653535962104797,0.20341640710830688
3,4,128,2,0.3107525408267975,0.1744532287120819
3,4,128,3,0.5007326006889343,0.23704920709133148
3,4,128,4,0.7572100758552551,0.1409282237291336
3,4,128,5,0.6789917945861816,0.13350673019886017
3,4,128,6,0.5730258226394653,0.2276817113161087
3,4,128,7,0.7080849409103394,0.17945390939712524
3,4,128,8,0.2890414297580719,0.07967356592416763
3,4,128,9,0.44276919960975647,0.2572149634361267
3,4,128,10,0.6651661396026611,0.12140627950429916
3,4,128,11,0.6862656474113464,0.13156764209270477
3,4,128,12,0.6403633952140808,0.14571881294250488
3,4,128,13,0.5007359385490417,0.13931408524513245
3,4,128,14,0.6233760118484497,0.29400503635406494
3,4,128,15,0.7065173387527466,0.20810829102993011
3,4,128,16,0.6102747321128845,0.18964357674121857
3,4,128,17,0.5734993815422058,0.20939752459526062
3,4,128,18,0.685947835445404,0.14145943522453308
3,4,128,19,0.6053571701049805,0.3152252733707428
3,4,128,20,0.7760448455810547,0.15213556587696075
3,4,128,21,0.6537888646125793,0.2608330249786377
3,4,128,22,0.5194697976112366,0.17187631130218506
3,4,128,23,0.6641408801078796,0.20151136815547943
3,4,128,24,0.4509216248989105,0.2668279707431793
3,4,128,25,0.4922723174095154,0.14018507301807404
3,4,128,26,0.5645891427993774,0.22600427269935608
3,4,128,27,0.577460527420044,0.24350649118423462
3,4,128,28,0.46487846970558167,0.16615143418312073
3,4,128,29,0.7041255831718445,0.10924982279539108
3,4,128,30,0.682118833065033,0.12377241253852844
3,4,128,31,0.32104259729385376,0.15927378833293915
3,4,128,32,0.2674972712993622,0.11708582937717438
3,4,128,33,0.5074809789657593,0.2408399134874344
3,4,128,34,0.6418019533157349,0.13799631595611572
3,4,128,35,0.6590348482131958,0.28291386365890503
3,4,128,36,0.6742379069328308,0.16512590646743774
3,4,128,37,0.6547549366950989,0.172277569770813
3,4,128,38,0.6398858428001404,0.15889966487884521
3,4,128,39,0.4770280122756958,0.13034974038600922
3,4,128,40,0.4962256848812103,0.07709690183401108
3,4,128,41,0.7562998533248901,0.18832629919052124
3,4,128,42,0.5336426496505737,0.17804951965808868
3,4,128,43,0.6820620894432068,0.3118109405040741
3,4,128,44,0.40702787041664124,0.2861475348472595
3,4,128,45,0.6472594141960144,0.2847934067249298
3,4,128,46,0.41280582547187805,0.12632153928279877
3,4,128,47,0.7482619881629944,0.14609815180301666
3,4,128,48,0.7211021184921265,0.09408297389745712
3,4,128,49,0.3565694987773895,0.2051202803850174
3,4,128,50,0.6457463502883911,0.15218086540699005
3,4,128,51,0.5342891216278076,0.31202051043510437
3,4,128,52,0.751883864402771,0.1429242640733719
3,4,128,53,0.33161818981170654,0.1795719563961029
3,4,128,54,0.6511517763137817,0.09548228979110718
3,4,128,55,0.6130260229110718,0.19038140773773193
3,4,128,56,0.4866371154785156,0.11288761347532272
3,4,128,57,0.5977069735527039,0.14915281534194946
3,4,128,58,0.5031604766845703,0.23022808134555817
3,4,128,59,0.450897216796875,0.23706333339214325
3,4,128,60,0.6821334362030029,0.30404165387153625
3,4,128,61,0.31479009985923767,0.27450990676879883
3,4,128,62,0.5580524206161499,0.18849973380565643
3,4,128,63,0.7022502422332764,0.13455289602279663
3,4,128,64,0.48492154479026794,0.19807258248329163
3,4,128,65,0.3221452236175537,0.15070359408855438
3,4,128,66,0.777661144733429,0.1516163945198059
3,4,128,67,0.45932355523109436,0.1526733934879303
3,4,128,68,0.41989272832870483,0.06658768653869629
3,4,128,69,0.7980026602745056,0.10380960255861282
3,4,128,70,0.7117663621902466,0.10927600413560867
3,4,128,71,0.635573148727417,0.2266765832901001
3,4,128,72,0.44164881110191345,0.15525615215301514
3,4,128,73,0.7022854089736938,0.1246197372674942
3,4,128,74,0.38717004656791687,0.25726595520973206
3,4,128,75,0.5904308557510376,0.2082492709159851
3,4,128,76,0.37034815549850464,0.30372580885887146
3,4,128,77,0.6624545454978943,0.30288198590278625
3,4,128,78,0.6374226808547974,0.16221779584884644
3,4,128,79,0.6718848943710327,0.12383390963077545
3,4,128,80,0.4815216064453125,0.1373734027147293
3,4,128,81,0.6782118082046509,0.12182050198316574
3,4,128,82,0.3632226586341858,0.22037522494792938
3,4,128,83,0.6231876611709595,0.2018386423587799
3,4,128,84,0.5957640409469604,0.20946763455867767
3,4,128,85,0.6691279411315918,0.3331812918186188
3,4,128,86,0.5720551609992981,0.147726908326149
3,4,128,87,0.5970720052719116,0.26654252409935
3,4,128,88,0.6351453065872192,0.09914519637823105
3,4,128,89,0.5376801490783691,0.26033610105514526
3,4,128,90,0.5361263155937195,0.29411759972572327
3,4,128,91,0.6351134181022644,0.10705007612705231
3,4,128,92,0.3542298674583435,0.24049273133277893
3,4,128,93,0.6873030662536621,0.15708687901496887
3,4,128,94,0.3836054801940918,0.28803199529647827
3,4,128,95,0.5834251642227173,0.22120149433612823
3,4,128,96,0.6281129717826843,0.2020324021577835
3,4,128,97,0.6883289217948914,0.16769316792488098
3,4,128,98,0.6029450297355652,0.08998186141252518
3,4,128,99,0.3813646137714386,0.17218250036239624
3,4,128,100,0.40143850445747375,0.2557675540447235
3,4,128,101,0.5276281833648682,0.1844048649072647
3,4,128,102,0.638129472732544,0.22410495579242706
3,4,128,103,0.3789641559123993,0.29703155159950256
3,4,128,104,0.44063130021095276,0.1859489381313324
3,4,128,105,0.612771213054657,0.10602699220180511
3,4,128,106,0.567622184753418,0.22693878412246704
3,4,128,107,0.662207841873169,0.318257600069046
3,4,128,108,0.3772084414958954,0.11797367036342621
3,4,128,109,0.48412632942199707,0.2794360816478729
3,4,128,110,0.667250394821167,0.2984137237071991
3,4,128,111,0.3875097334384918,0.22939784824848175
3,4,128,112,0.6094056367874146,0.27051523327827454
3,4,128,113,0.48590394854545593,0.10756493359804153
3,4,128,114,0.6475816965103149,0.08497875183820724
3,4,128,115,0.4405265748500824,0.270781934261322
3,4,128,116,0.6212573647499084,0.12703837454319
3,4,128,117,0.7055065035820007,0.27585962414741516
3,4,128,118,0.5484785437583923,0.07904527336359024
3,4,128,119,0.32736271619796753,0.19154684245586395
3,4,128,120,0.7932878136634827,0.2078879028558731
3,4,128,121,0.6809821724891663,0.2825220823287964
3,4,128,122,0.7062901854515076,0.27760690450668335
3,4,128,123,0.46502685546875,0.10549041628837585
3,4,128,124,0.6837966442108154,0.13025282323360443
3,4,128,125,0.608220100402832,0.22464250028133392
3,4,128,126,0.6339780688285828,0.21985024213790894
3,4,128,127,0.6668261289596558,0.23308362066745758
3,5,128,0,0.7261369228363037,0.14546528458595276
3,5,128,1,0.604326069355011,0.2464582920074463
3,5,128,2,0.7813872694969177,0.13075189292430878
3,5,128,3,0.30495673418045044,0.3408033549785614
3,5,128,4,0.7625373005867004,0.2777863144874573
3,5,128,5,0.8367352485656738,0.14989914000034332
3,5,128,6,0.7954453825950623,0.17757877707481384
3,5,128,7,0.7802762985229492,0.07303798198699951
3,5,128,8,0.5713328719139099,0.2482393980026245
3,5,128,9,0.5299327373504639,0.09349878877401352
3,5,128,10,0.6181352138519287,0.14317283034324646
3,5,128,11,0.7208072543144226,0.23448686301708221
3,5,128,12,0.836567759513855,0.18265120685100555
3,5,128,13,0.8108609318733215,0.1695326864719391
3,5,128,14,0.8826957941055298,0.11252198368310928
3,5,128,15,0.7650174498558044,0.12984369695186615
3,5,128,16,0.8180367946624756,0.16678325831890106
3,5,128,17,0.6493321061134338,0.31409281492233276
3,5,128,18,0.5884621143341064,0.07492449879646301
3,5,128,19,0.8136135935783386,0.10697818547487259
3,5,128,20,0.8361882567405701,0.16071148216724396
3,5,128,21,0.8409793972969055,0.15910150110721588
3,5,128,22,0.5236270427703857,0.13169872760772705
3,5,128,23,0.7789875268936157,0.19126686453819275
3,5,128,24,0.8125510811805725,0.11013676971197128
3,5,128,25,0.7077372670173645,0.13393215835094452
3,5,128,26,0.7442885041236877,0.20561295747756958
3,5,128,27,0.8438364267349243,0.15136931836605072
3,5,128,28,0.8584399223327637,0.11528906971216202
3,5,128,29,0.41856828331947327,0.14012251794338226
3,5,128,30,0.7788678407669067,0.14269259572029114
3,5,128,31,0.6803988814353943,0.2626129388809204
3,5,128,32,0.7588674426078796,0.11549488455057144
3,5,128,33,0.38101574778556824,0.11945644021034241
3,5,128,34,0.8093166947364807,0.10034199059009552
3,5,128,35,0.7429838180541992,0.3100596070289612
3,5,128,36,0.7790886163711548,0.1328490525484085
3,5,128,37,0.8458123207092285,0.09488536417484283
3,5,128,38,0.7866547107696533,0.1063314825296402
3,5,128,39,0.48221760988235474,0.059663478285074234
3,5,128,40,0.7640385627746582,0.13956399261951447
3,5,128,41,0.823083221912384,0.17094099521636963
3,5,128,42,0.7858922481536865,0.12349383533000946
3,5,128,43,0.76018226146698,0.25899648666381836
3,5,128,44,0.7702900171279907,0.23309290409088135
3,5,128,45,0.7988867163658142,0.09119423478841782
3,5,128,46,0.4670487642288208,0.206678107380867
3,5,128,47,0.7307836413383484,0.28648582100868225
3,5,128,48,0.44841501116752625,0.2212446928024292
3,5,128,49,0.6819727420806885,0.2117265909910202
3,5,128,50,0.6941295266151428,0.11800234019756317
3,5,128,51,0.7021051049232483,0.26082244515419006
3,5,128,52,0.795684278011322,0.15475870668888092
3,5,128,53,0.7376391291618347,0.28541305661201477
3,5,128,54,0.7709385752677917,0.2482597529888153
3,5,128,55,0.6650239825248718,0.2727437913417816
3,5,128,56,0.5788002014160156,0.20458585023880005
3,5,128,57,0.6784524917602539,0.3369123041629791
3,5,128,58,0.8333315849304199,0.11254112422466278
3,5,128,59,0.814498782157898,0.07648739963769913
3,5,128,60,0.8407056927680969,0.15760168433189392
3,5,128,61,0.6416686773300171,0.2406816929578781
3,5,128,62,0.6567480564117432,0.07918369024991989
3,5,128,63,0.5911705493927002,0.09108710289001465
3,5,128,64,0.7771843671798706,0.1673753261566162
3,5,128,65,0.3841089606285095,0.354789674282074
3,5,128,66,0.4847449064254761,0.1651395559310913
3,5,128,67,0.756010115146637,0.13609328866004944
3,5,128,68,0.5137953758239746,0.10124620795249939
3,5,128,69,0.6812745928764343,0.2455788254737854
3,5,128,70,0.7466776967048645,0.14213284850120544
3,5,128,71,0.2841641902923584,0.12432261556386948
3,5,128,72,0.7696564793586731,0.23026806116104126
3,5,128,73,0.6653673052787781,0.30439111590385437
3,5,128,74,0.6235598921775818,0.28828659653663635
3,5,128,75,0.739538311958313,0.11761155724525452
3,5,128,76,0.8230359554290771,0.16952961683273315
3,5,128,77,0.3429892957210541,0.32905107736587524
3,5,128,78,0.8145515322685242,0.14923499524593353
3,5,128,79,0.4207616448402405,0.2850811779499054
3,5,128,80,0.6952609419822693,0.25103431940078735
3,5,128,81,0.5494263768196106,0.18970753252506256
3,5,128,82,0.737221360206604,0.2454419583082199
3,5,128,83,0.851891279220581,0.13714012503623962
3,5,128,84,0.776656448841095,0.15684810280799866
3,5,128,85,0.8778082132339478,0.12627343833446503
3,5,128,86,0.7886611223220825,0.13818448781967163
3,5,128,87,0.7878873944282532,0.1819635033607483
3,5,128,88,0.7480700016021729,0.08816299587488174
3,5,128,89,0.7268222570419312,0.12829019129276276
3,5,128,90,0.38084498047828674,0.1839608997106552
3,5,128,91,0.832488477230072,0.13882669806480408
3,5,128,92,0.5862873792648315,0.14656804502010345
3,5,128,93,0.7758126258850098,0.23312406241893768
3,5,128,94,0.5385212302207947,0.19176270067691803
3,5,128,95,0.4766940772533417,0.22875434160232544
3,5,128,96,0.7913378477096558,0.13720615208148956
3,5,128,97,0.7824310064315796,0.07510025054216385
3,5,128,98,0.7921853065490723,0.17000074684619904
3,5,128,99,0.563671350479126,0.18657003343105316
3,5,128,100,0.7454143762588501,0.2719112038612366
3,5,128,101,0.7424641251564026,0.08372338861227036
3,5,128,102,0.559315025806427,0.16077132523059845
3,5,128,103,0.8368737697601318,0.08705317974090576
3,5,128,104,0.6876840591430664,0.10608973354101181
3,5,128,105,0.7192912697792053,0.2401295006275177
3,5,128,106,0.39358821511268616,0.3342476189136505
3,5,128,107,0.8019091486930847,0.1742708832025528
3,5,128,108,0.8084233999252319,0.10631562024354935
3,5,128,109,0.632053554058075,0.24949496984481812
3,5,128,110,0.8647419810295105,0.12462478131055832
3,5,128,111,0.5233486294746399,0.2282472848892212
3,5,128,112,0.8460181355476379,0.15454551577568054
3,5,128,113,0.644141674041748,0.1238401010632515
3,5,128,114,0.741469144821167,0.29909196496009827
3,5,128,115,0.5149919986724854,0.12921062111854553
3,5,128,116,0.8861657381057739,0.0843910202383995
3,5,128,117,0.8238419890403748,0.18729515373706818
3,5,128,118,0.5515167117118835,0.11301068961620331
3,5,128,119,0.6972472667694092,0.34567010402679443
3,5,128,120,0.7090127468109131,0.12798020243644714
3,5,128,121,0.3655306398868561,0.32699304819107056
3,5,128,122,0.8890963196754456,0.08170423656702042
3,5,128,123,0.7437768578529358,0.24251163005828857
3,5,128,124,0.7885647416114807,0.15912103652954102
3,5,128,125,0.6796590089797974,0.09001601487398148
3,5,128,126,0.7746942639350891,0.09384103119373322
3,5,128,127,0.6147236227989197,0.09853041172027588
4,0,32,0,0.5079705715179443,0.1177477315068245
4,0,32,1,0.459622859954834,0.12489272654056549
4,0,32,2,0.525239884853363,0.03230110928416252
4,0,32,3,0.40775424242019653,0.13355571031570435
4,0,32,4,0.2791602611541748,0.09333120286464691
4,0,32,5,0.32241004705429077,0.11410600692033768
4,0,32,6,0.4191150665283203,0.10650645941495895
4,0,32,7,0.6123213171958923,0.15096141397953033
4,0,32,8,0.5837860107421875,0.017488880082964897
4,0,32,9,0.5551973581314087,0.03772379457950592
4,0,32,10,0.42007821798324585,0.05763640254735947
4,0,32,11,0.5786275863647461,0.06011352315545082
4,0,32,12,0.5870156288146973,0.12291431427001953
4,0,32,13,0.4702393710613251,0.09347343444824219
4,0,32,14,0.4626627266407013,0.03823419660329819
4,0,32,15,0.37227022647857666,0.0709642767906189
4,0,32,16,0.4495292901992798,0.07579683512449265
4,0,32,17,0.46527770161628723,0.1034088060259819
4,0,32,18,0.42620134353637695,0.12841036915779114
4,0,32,19,0.35588693618774414,0.07468240708112717
4,0,32,20,0.43732067942619324,0.10742813348770142
4,0,32,21,0.5400733351707458,0.10101042687892914
4,0,32,22,0.45300453901290894,0.08799154311418533
4,0,32,23,0.5153012275695801,0.05067598447203636
4,0,32,24,0.5979592800140381,0.04555375874042511
4,0,32,25,0.6033599376678467,0.10610152035951614
4,0,32,26,0.38947391510009766,0.09420787543058395
4,0,32,27,0.4114915430545807,0.08754497021436691
4,0,32,28,0.545280933380127,0.10917802900075912
4,0,32,29,0.5315324664115906,0.047765836119651794
4,0,32,30,0.3155715763568878,0.11227039992809296
4,0,32,31,0.4408104419708252,0.07666973769664764
4,1,32,0,0.42938312888145447,0.053974449634552
4,1,32,1,0.5179927349090576,0.09089915454387665
4,1,32,2,0.4123727083206177,0.1583249568939209
4,1,32,3,0.42291784286499023,0.17451180517673492
4,1,32,4,0.6168146133422852,0.0962483286857605
4,1,32,5,0.35030457377433777,0.11436939984560013
4,1,32,6,0.5319405198097229,0.04263564571738243
4,1,32,7,0.5529781579971313,0.05684284493327141
4,1,32,8,0.6512888073921204,0.05583707243204117
4,1,32,9,0.41312938928604126,0.04810574650764465
4,1,32,10,0.5213887095451355,0.15142124891281128
4,1,32,11,0.6460045576095581,0.06751373410224915
4,1,32,12,0.5034685134887695,0.1066775843501091
4,1,32,13,0.6027684807777405,0.14016035199165344
4,1,32,14,0.43413686752319336,0.1479359120130539
4,1,32,15,0.6653907895088196,0.10380728542804718
4,1,32,16,0.5313209891319275,0.09486289322376251
4,1,32,17,0.3775802254676819,0.07574126869440079
4,1,32,18,0.49456897377967834,0.09128009527921677
4,1,32,19,0.4700687825679779,0.046147335320711136
4,1,32,20,0.5957950353622437,0.10790315270423889
4,1,32,21,0.6021097898483276,0.06309953331947327
4,1,32,22,0.3489649295806885,0.06355753540992737
4,1,32,23,0.42539817094802856,0.10257649421691895
4,1,32,24,0.34933599829673767,0.09890381991863251
4,1,32,25,0.613929033279419,0.08197315782308578
4,1,32,26,0.4175512194633484,0.05428743362426758
4,1,32,27,0.47926801443099976,0.07425172626972198
4,1,32,28,0.471466988325119,0.13801150023937225
4,1,32,29,0.47556519508361816,0.1015174612402916
4,1,32,30,0.4815310537815094,0.14035847783088684
4,1,32,31,0.6165388226509094,0.12713442742824554
4,2,64,0,0.48614266514778137,0.15532182157039642
4,2,64,1,0.37558355927467346,0.0630260705947876
4,2,64,2,0.4821532070636749,0.17216016352176666
4,2,64,3,0.6041446924209595,0.16267277300357819
4,2,64,4,0.5405958294868469,0.11695092171430588
4,2,64,5,0.5673484802246094,0.09190907329320908
4,2,64,6,0.5372774004936218,0.18211227655410767
4,2,64,7,0.44366979598999023,0.20659564435482025
4,2,64,8,0.5968512296676636,0.13256317377090454
4,2,64,9,0.45275866985321045,0.19927333295345306
4,2,64,10,0.6369403600692749,0.2412293553352356
4,2,64,11,0.48852187395095825,0.3099716007709503
4,2,64,12,0.7070974707603455,0.10359176993370056
4,2,64,13,0.24482277035713196,0.09131640940904617
4,2,64,14,0.5478197932243347,0.13578194379806519
4,2,64,15,0.3856613039970398,0.09569063782691956
4,2,64,16,0.5282077193260193,0.07937491685152054
4,2,64,17,0.30212265253067017,0.15470823645591736
4,2,64,18,0.6043491959571838,0.23441749811172485
4,2,64,19,0.41469940543174744,0.08542394638061523
4,2,64,20,0.6393094658851624,0.15768685936927795
4,2,64,21,0.45986247062683105,0.21899162232875824
4,2,64,22,0.6429703831672668,0.2720297873020172
4,2,64,23,0.4374222457408905,0.14272724092006683
4,2,64,24,0.3680163323879242,0.171836256980896
4,2,64,25,0.5923080444335938,0.10916393995285034
4,2,64,26,0.5987257361412048,0.09150262176990509
4,2,64,27,0.45111072063446045,0.17649652063846588
4,2,64,28,0.5065000057220459,0.099958635866642
4,2,64,29,0.27293235063552856,0.0751907080411911
4,2,64,30,0.44753628969192505,0.1489776372909546
4,2,64,31,0.4379582703113556,0.2238568365573883
4,2,64,32,0.45900776982307434,0.16420067846775055
4,2,64,33,0.3468749225139618,0.12791015207767487
4,2,64,34,0.6068139672279358,0.09033574908971786
4,2,64,35,0.5591025948524475,0.12350018322467804
4,2,64,36,0.6124379634857178,0.07407648116350174
4,2,64,37,0.5211400985717773,0.06443919241428375
4,2,64,38,0.39544209837913513,0.33588749170303345
4,2,64,39,0.3125029504299164,0.1927923709154129
4,2,64,40,0.4878838062286377,0.22937695682048798
4,2,64,41,0.5465596914291382,0.09714429825544357
4,2,64,42,0.6883488893508911,0.09259919077157974
4,2,64,43,0.4372554123401642,0.08123893290758133
4,2,64,44,0.6808101534843445,0.10916031897068024
4,2,64,45,0.4488028287887573,0.08168641477823257
4,2,64,46,0.6128677725791931,0.16292688250541687
4,2,64,47,0.4710855782032013,0.18347616493701935
4,2,64,48,0.5435026288032532,0.12796854972839355
4,2,64,49,0.6164819598197937,0.16297663748264313
4,2,64,50,0.6419782638549805,0.11852213740348816
4,2,64,51,0.6051095128059387,0.1860484778881073
4,2,64,52,0.6275409460067749,0.22818806767463684
4,2,64,53,0.42134222388267517,0.1402670443058014
4,2,64,54,0.6759689450263977,0.12137406319379807
4,2,64,55,0.5861906409263611,0.15601710975170135
4,2,64,56,0.4016213119029999,0.04318780079483986
4,2,64,57,0.3692086637020111,0.16606363654136658
4,2,64,58,0.6003915667533875,0.1353699117898941
4,2,64,59,0.5548893213272095,0.1351851522922516
4,2,64,60,0.514357328414917,0.14068818092346191
4,2,64,61,0.5503920912742615,0.20457370579242706
4,2,64,62,0.5080812573432922,0.052151598036289215
4,2,64,63,0.5179601311683655,0.15628328919410706
4,3,64,0,0.2759324014186859,0.09105777740478516
4,3,64,1,0.5290126204490662,0.2047913372516632
4,3,64,2,0.6301853060722351,0.3325214684009552
4,3,64,3,0.6202355027198792,0.114700086414814
4,3,64,4,0.42982324957847595,0.31185129284858704
4,3,64,5,0.5441392660140991,0.09072545915842056
4,3,64,6,0.37273576855659485,0.1749798059463501
4,3,64,7,0.17025688290596008,0.11265911161899567
4,3,64,8,0.7060266137123108,0.10468436777591705
4,3,64,9,0.41198721528053284,0.33703291416168213
4,3,64,10,0.5015541315078735,0.24893783032894135
4,3,64,11,0.5748828649520874,0.3892694413661957
4,3,64,12,0.5348089337348938,0.1906960904598236
4,3,64,13,0.46132364869117737,0.31318339705467224
4,3,64,14,0.5465481281280518,0.23846685886383057
4,3,64,15,0.5792752504348755,0.12010601907968521
4,3,64,16,0.498378723859787,0.2029017210006714
4,3,64,17,0.5692670941352844,0.3192988336086273
4,3,64,18,0.6045358777046204,0.3313985764980316
4,3,64,19,0.3996959328651428,0.30327486991882324
4,3,64,20,0.46583935618400574,0.24430732429027557
4,3,64,21,0.3260902166366577,0.07740695029497147
4,3,64,22,0.42493197321891785,0.32028019428253174
4,3,64,23,0.5118557214736938,0.3193824291229248
4,3,64,24,0.5807514786720276,0.34136632084846497
4,3,64,25,0.5993439555168152,0.2562331259250641
4,3,64,26,0.5312503576278687,0.20530018210411072
4,3,64,27,0.7006677985191345,0.10498686879873276
4,3,64,28,0.5390206575393677,0.20216408371925354
4,3,64,29,0.5441967844963074,0.24819853901863098
4,3,64,30,0.21955282986164093,0.14272215962409973
4,3,64,31,0.6093266010284424,0.0788053646683693
4,3,64,32,0.5216362476348877,0.25186964869499207
4,3,64,33,0.5422732830047607,0.21358779072761536
4,3,64,34,0.5214522480964661,0.33245646953582764
4,3,64,35,0.3751496374607086,0.1434037685394287
4,3,64,36,0.6179457902908325,0.12393726408481598
4,3,64,37,0.6022800207138062,0.20860473811626434
4,3,64,38,0.5542190074920654,0.26095297932624817
4,3,64,39,0.6263390183448792,0.11164526641368866
4,3,64,40,0.5664086937904358,0.27485325932502747
4,3,64,41,0.6366293430328369,0.1424047201871872
4,3,64,42,0.25892961025238037,0.11368469893932343
4,3,64,43,0.3723568022251129,0.23989960551261902
4,3,64,44,0.5087555646896362,0.16860046982765198
4,3,64,45,0.4594489336013794,0.0441291406750679
4,3,64,46,0.7159157991409302,0.18171781301498413
4,3,64,47,0.387499064207077,0.1544215977191925
4,3,64,48,0.4475177526473999,0.12068834900856018
4,3,64,49,0.5328869819641113,0.10344965755939484
4,3,64,50,0.5493208169937134,0.2423422485589981
4,3,64,51,0.3247608244419098,0.1091335266828537
4,3,64,52,0.38179072737693787,0.31398311257362366
4,3,64,53,0.5141955614089966,0.3601105511188507
4,3,64,54,0.2661440968513489,0.17411428689956665
4,3,64,55,0.480724573135376,0.22116325795650482
4,3,64,56,0.4077240228652954,0.12092325091362
4,3,64,57,0.3715211749076843,0.0800064280629158
4,3,64,58,0.6785368323326111,0.23378168046474457
4,3,64,59,0.5620124340057373,0.14404940605163574
4,3,64,60,0.5045352578163147,0.2765465974807739
4,3,64,61,0.28978294134140015,0.0981321781873703
4,3,64,62,0.49334871768951416,0.15709726512432098
4,3,64,63,0.6236799359321594,0.24129091203212738
4,4,128,0,0.42709115147590637,0.2292373925447464
4,4,128,1,0.45757240056991577,0.1701989322900772
4,4,128,2,0.2900732159614563,0.18007823824882507
4,4,128,3,0.33452194929122925,0.16207145154476166
4,4,128,4,0.6659804582595825,0.14085927605628967
4,4,128,5,0.6952218413352966,0.2692694664001465
4,4,128,6,0.6024428009986877,0.23038776218891144
4,4,128,7,0.714421272277832,0.11851313710212708
4,4,128,8,0.23394377529621124,0.11715960502624512
4,4,128,9,0.47704342007637024,0.1765936017036438
4,4,128,10,0.6939388513565063,0.12216336280107498
4,4,128,11,0.736616313457489,0.09721057862043381
4,4,128,12,0.6641445755958557,0.11233168095350266
4,4,128,13,0.40853121876716614,0.3022416830062866
4,4,128,14,0.7144659161567688,0.2469535768032074
4,4,128,15,0.6157615780830383,0.16551098227500916
4,4,128,16,0.5631620287895203,0.1461511254310608
4,4,128,17,0.5463101863861084,0.1545233577489853
4,4,128,18,0.4864411950111389,0.1347016990184784
4,4,128,19,0.6257566213607788,0.22895832359790802
4,4,128,20,0.6455045938491821,0.1859542429447174
4,4,128,21,0.32115957140922546,0.1479557454586029
4,4,128,22,0.373212993144989,0.07108684629201889
4,4,128,23,0.5517919659614563,0.21881216764450073
4,4,128,24,0.3458848297595978,0.20423376560211182
4,4,128,25,0.5573126673698425,0.22435985505580902
4,4,128,26,0.7094652056694031,0.1940087527036667
4,4,128,27,0.7068396806716919,0.29623129963874817
4,4,128,28,0.5957842469215393,0.1984821856021881
4,4,128,29,0.6501792669296265,0.12948893010616302
4,4,128,30,0.5536720156669617,0.2029980719089508
4,4,128,31,0.5313660502433777,0.16556696593761444
4,4,128,32,0.30771973729133606,0.09947468340396881
4,4,128,33,0.3391171991825104,0.13237419724464417
4,4,128,34,0.7396659851074219,0.14889980852603912
4,4,128,35,0.7471552491188049,0.26692888140678406
4,4,128,36,0.5651137828826904,0.1303476244211197
4,4,128,37,0.6680614948272705,0.2960062026977539
4,4,128,38,0.6121206283569336,0.18443317711353302
4,4,128,39,0.578658401966095,0.17128886282444
4,4,128,40,0.6088714599609375,0.1707908809185028
4,4,128,41,0.5912999510765076,0.10531652718782425
4,4,128,42,0.5924659967422485,0.18064738810062408
4,4,128,43,0.5405910015106201,0.23146553337574005
4,4,128,44,0.4220847487449646,0.24667195975780487
4,4,128,45,0.6041328310966492,0.19468654692173004
4,4,128,46,0.3679092526435852,0.15145032107830048
4,4,128,47,0.547285258769989,0.18134663999080658
4,4,128,48,0.6025943756103516,0.15333929657936096
4,4,128,49,0.28887373208999634,0.133696511387825
4,4,128,50,0.5729087591171265,0.1262306123971939
4,4,128,51,0.32886311411857605,0.14579646289348602
4,4,128,52,0.7685444951057434,0.12540192902088165
4,4,128,53,0.3280062973499298,0.15691442787647247
4,4,128,54,0.703649640083313,0.1302991360425949
4,4,128,55,0.610138475894928,0.2457638382911682
4,4,128,56,0.4948728382587433,0.11545472592115402
4,4,128,57,0.6850553750991821,0.11385946720838547
4,4,128,58,0.6597816348075867,0.1329624354839325
4,4,128,59,0.4642878472805023,0.23059475421905518
4,4,128,60,0.6937512755393982,0.20177991688251495
4,4,128,61,0.2798970341682434,0.08957241475582123
4,4,128,62,0.5472883582115173,0.25579193234443665
4,4,128,63,0.47212329506874084,0.2673816382884979
4,4,128,64,0.4343860447406769,0.2750924825668335
4,4,128,65,0.6450927257537842,0.23218253254890442
4,4,128,66,0.4803825318813324,0.15281249582767487
4,4,128,67,0.5932773947715759,0.1283344179391861
4,4,128,68,0.5807977318763733,0.13879631459712982
4,4,128,69,0.7148069143295288,0.13665850460529327
4,4,128,70,0.7501975893974304,0.13334506750106812
4,4,128,71,0.7011690139770508,0.2296164631843567
4,4,128,72,0.41347426176071167,0.07018473744392395
4,4,128,73,0.5145968198776245,0.13588058948516846
4,4,128,74,0.45306506752967834,0.16726002097129822
4,4,128,75,0.6187580823898315,0.18465332686901093
4,4,128,76,0.34846124053001404,0.2379785031080246
4,4,128,77,0.46358829736709595,0.08690670132637024
4,4,128,78,0.6742625832557678,0.22148717939853668
4,4,128,79,0.7754589915275574,0.1208682581782341
4,4,128,80,0.4779406785964966,0.18214760720729828
4,4,128,81,0.5140801668167114,0.10115139186382294
4,4,128,82,0.5688714385032654,0.24963565170764923
4,4,128,83,0.7219297289848328,0.12215443700551987
4,4,128,84,0.6306808590888977,0.18138594925403595
4,4,128,85,0.6815733313560486,0.33670076727867126
4,4,128,86,0.6025302410125732,0.09287424385547638
4,4,128,87,0.5763089656829834,0.23104147613048553
4,4,128,88,0.4613971710205078,0.20471613109111786
4,4,128,89,0.6060686707496643,0.21822482347488403
4,4,128,90,0.28180426359176636,0.11307646334171295
4,4,128,91,0.5447496771812439,0.12683044373989105
4,4,128,92,0.35495525598526,0.22140054404735565
4,4,128,93,0.3632223606109619,0.20362767577171326
4,4,128,94,0.4303795397281647,0.2379804402589798
4,4,128,95,0.6143329739570618,0.1183486133813858
4,4,128,96,0.6364806890487671,0.14826339483261108
4,4,128,97,0.6921126842498779,0.15124808251857758
4,4,128,98,0.6302420496940613,0.22320398688316345
4,4,128,99,0.48792123794555664,0.04171499237418175
4,4,128,100,0.43394699692726135,0.2297685593366623
4,4,128,101,0.6773448586463928,0.24378471076488495
4,4,128,102,0.6585126519203186,0.11341603100299835
4,4,128,103,0.35748741030693054,0.17338807880878448
4,4,128,104,0.6246404051780701,0.11720801889896393
4,4,128,105,0.5872130393981934,0.11290188133716583
4,4,128,106,0.3544085919857025,0.17426612973213196
4,4,128,107,0.6271456480026245,0.21949246525764465
4,4,128,108,0.5858854651451111,0.20652377605438232
4,4,128,109,0.4974541962146759,0.21300910413265228
4,4,128,110,0.573806643486023,0.25108057260513306
4,4,128,111,0.3976222276687622,0.2626540958881378
4,4,128,112,0.6739680767059326,0.25238633155822754
4,4,128,113,0.4589797854423523,0.11172773689031601
4,4,128,114,0.5668699145317078,0.0722620040178299
4,4,128,115,0.38061264157295227,0.2918722629547119
4,4,128,116,0.7245645523071289,0.2094419002532959
4,4,128,117,0.6810140013694763,0.23454397916793823
4,4,128,118,0.4084455668926239,0.2220892757177353
4,4,128,119,0.29285669326782227,0.16086949408054352
4,4,128,120,0.7067932486534119,0.1713171899318695
4,4,128,121,0.758748471736908,0.2676980793476105
4,4,128,122,0.7269128561019897,0.24388127028942108
4,4,128,123,0.44637730717658997,0.20234377682209015
4,4,128,124,0.5832054615020752,0.1874474585056305
4,4,128,125,0.38955309987068176,0.0713750422000885
4,4,128,126,0.4564419388771057,0.10669440776109695
4,4,128,127,0.689988911151886,0.33552151918411255
4,5,128,0,0.6518654227256775,0.08253580331802368
4,5,128,1,0.5832748413085938,0.23025096952915192
4,5,128,2,0.7581048607826233,0.1245376393198967
4,5,128,3,0.3479430675506592,0.32889077067375183
4,5,128,4,0.7970621585845947,0.200664222240448
4,5,128,5,0.7904675006866455,0.1939195841550827
4,5,128,6,0.7739864587783813,0.1707543283700943
4,5,128,7,0.7128121852874756,0.09365520626306534
4,5,128,8,0.5833812355995178,0.25198954343795776
4,5,128,9,0.6011442542076111,0.08768466860055923
4,5,128,10,0.5482142567634583,0.18197225034236908
4,5,128,11,0.7209219336509705,0.21944500505924225
4,5,128,12,0.8228083848953247,0.1708115041255951
4,5,128,13,0.7609992623329163,0.1695292741060257
4,5,128,14,0.7951969504356384,0.20622387528419495
4,5,128,15,0.8034920692443848,0.12798930704593658
4,5,128,16,0.7790985703468323,0.24590204656124115
4,5,128,17,0.682482898235321,0.260833203792572
4,5,128,18,0.6931810975074768,0.18993672728538513
4,5,128,19,0.5127698183059692,0.18531930446624756
4,5,128,20,0.8038425445556641,0.16543160378932953
4,5,128,21,0.8063536882400513,0.18413132429122925
4,5,128,22,0.6211405396461487,0.13765515387058258
4,5,128,23,0.7687594890594482,0.22361448407173157
4,5,128,24,0.8057572245597839,0.16220392286777496
4,5,128,25,0.821709394454956,0.08372552692890167
4,5,128,26,0.6988194584846497,0.2468957006931305
4,5,128,27,0.8207796216011047,0.15809765458106995
4,5,128,28,0.8055844902992249,0.15857024490833282
4,5,128,29,0.675396740436554,0.11774662882089615
4,5,128,30,0.7410492300987244,0.19204531610012054
4,5,128,31,0.6376777291297913,0.25970450043678284
4,5,128,32,0.7592914700508118,0.18140575289726257
4,5,128,33,0.5224747657775879,0.09241823852062225
4,5,128,34,0.8279163837432861,0.08486109226942062
4,5,128,35,0.7449393272399902,0.2732105851173401
4,5,128,36,0.717610776424408,0.180205836892128
4,5,128,37,0.8708535432815552,0.07201480865478516
4,5,128,38,0.809445858001709,0.08892611414194107
4,5,128,39,0.5613323450088501,0.09701018035411835
4,5,128,40,0.7144147753715515,0.20633292198181152
4,5,128,41,0.8105790615081787,0.17501823604106903
4,5,128,42,0.761883556842804,0.14895620942115784
4,5,128,43,0.7921651005744934,0.15426373481750488
4,5,128,44,0.7748731374740601,0.10899636149406433
4,5,128,45,0.7885484099388123,0.1582895964384079
4,5,128,46,0.7223443984985352,0.17175543308258057
4,5,128,47,0.7112423181533813,0.2080068737268448
4,5,128,48,0.6605442762374878,0.11663787811994553
4,5,128,49,0.6049308776855469,0.16166366636753082
4,5,128,50,0.7697322964668274,0.09167885035276413
4,5,128,51,0.6756216883659363,0.3040139079093933
4,5,128,52,0.7372846603393555,0.21565698087215424
4,5,128,53,0.712751567363739,0.2555244266986847
4,5,128,54,0.7598467469215393,0.2622619569301605
4,5,128,55,0.6863722801208496,0.1804967075586319
4,5,128,56,0.6918287873268127,0.16715435683727264
4,5,128,57,0.7592809796333313,0.20870676636695862
4,5,128,58,0.8135569095611572,0.07935462892055511
4,5,128,59,0.7907893061637878,0.10797841846942902
4,5,128,60,0.8232375979423523,0.14874063432216644
4,5,128,61,0.7014428377151489,0.19980205595493317
4,5,128,62,0.7412390112876892,0.08017215877771378
4,5,128,63,0.7351041436195374,0.08330654352903366
4,5,128,64,0.7665587663650513,0.1598728746175766
4,5,128,65,0.7627018690109253,0.20798322558403015
4,5,128,66,0.5139724612236023,0.14336560666561127
4,5,128,67,0.7026159167289734,0.13179989159107208
4,5,128,68,0.5021132230758667,0.14787688851356506
4,5,128,69,0.6982153058052063,0.2487390786409378
4,5,128,70,0.7774671316146851,0.10697241872549057
4,5,128,71,0.45460715889930725,0.14106258749961853
4,5,128,72,0.6878277659416199,0.1561180055141449
4,5,128,73,0.727692186832428,0.1750611960887909
4,5,128,74,0.5614006519317627,0.28784215450286865
4,5,128,75,0.7462307810783386,0.1346583217382431
4,5,128,76,0.839425802230835,0.14163793623447418
4,5,128,77,0.5444179773330688,0.1294088363647461
4,5,128,78,0.8015382885932922,0.14109955728054047
4,5,128,79,0.47516539692878723,0.2706020176410675
4,5,128,80,0.6436502933502197,0.24443098902702332
4,5,128,81,0.45969876646995544,0.20809483528137207
4,5,128,82,0.7323362231254578,0.22353366017341614
4,5,128,83,0.8377370834350586,0.12101065367460251
4,5,128,84,0.7505477070808411,0.2394658625125885
4,5,128,85,0.8557978272438049,0.12894228100776672
4,5,128,86,0.7469276785850525,0.14662183821201324
4,5,128,87,0.7912906408309937,0.183694988489151
4,5,128,88,0.7505112290382385,0.1383943408727646
4,5,128,89,0.6468599438667297,0.06905577331781387
4,5,128,90,0.7477587461471558,0.09142380952835083
4,5,128,91,0.8248180150985718,0.12031221389770508
4,5,128,92,0.46077781915664673,0.23809605836868286
4,5,128,93,0.7374327778816223,0.26436442136764526
4,5,128,94,0.6429000496864319,0.1511666476726532
4,5,128,95,0.7536296248435974,0.0764039158821106
4,5,128,96,0.7499203085899353,0.0977133959531784
4,5,128,97,0.516956627368927,0.19825467467308044
4,5,128,98,0.7869724035263062,0.13113223016262054
4,5,128,99,0.548529326915741,0.04116060957312584
4,5,128,100,0.7234321236610413,0.22906741499900818
4,5,128,101,0.8417167067527771,0.08840364962816238
4,5,128,102,0.7779142260551453,0.10179992765188217
4,5,128,103,0.8126115202903748,0.06399248540401459
4,5,128,104,0.71872878074646,0.09784569591283798
4,5,128,105,0.6771721243858337,0.2513992488384247
4,5,128,106,0.4112897515296936,0.3383285403251648
4,5,128,107,0.7559908628463745,0.22717489302158356
4,5,128,108,0.8370426893234253,0.07917393743991852
4,5,128,109,0.7515943050384521,0.15457512438297272
4,5,128,110,0.7588253617286682,0.2074810415506363
4,5,128,111,0.6815792322158813,0.19486743211746216
4,5,128,112,0.8505313992500305,0.1387905776500702
4,5,128,113,0.7650836706161499,0.18344059586524963
4,5,128,114,0.7996306419372559,0.19066692888736725
4,5,128,115,0.6661404967308044,0.11156151443719864
4,5,128,116,0.8210598230361938,0.06122034788131714
4,5,128,117,0.7787961959838867,0.24648772180080414
4,5,128,118,0.6033008694648743,0.10667547583580017
4,5,128,119,0.691361129283905,0.33645495772361755
4,5,128,120,0.8768036365509033,0.06615088135004044
4,5,128,121,0.3702356815338135,0.320180743932724
4,5,128,122,0.8399526476860046,0.08470334857702255
4,5,128,123,0.7188291549682617,0.24300989508628845
4,5,128,124,0.767751157283783,0.1637481451034546
4,5,128,125,0.6724838614463806,0.1069905087351799
4,5,128,126,0.7218825817108154,0.13781210780143738
4,5,128,127,0.7117571830749512,0.06530462950468063
5,0,32,0,0.5664879083633423,0.14728769659996033
5,0,32,1,0.4993218779563904,0.09353580325841904
5,0,32,2,0.5415804386138916,0.08115679025650024
5,0,32,3,0.32782483100891113,0.15343907475471497
5,0,32,4,0.3495607078075409,0.04610735923051834
5,0,32,5,0.344648152589798,0.079491026699543
5,0,32,6,0.3813574016094208,0.1125463917851448
5,0,32,7,0.5104840397834778,0.17673304677009583
5,0,32,8,0.5689668655395508,0.05494074895977974
5,0,32,9,0.5610363483428955,0.025894230231642723
5,0,32,10,0.4841773211956024,0.08501225709915161
5,0,32,11,0.6090281009674072,0.07541849464178085
5,0,32,12,0.5619474053382874,0.12087087333202362
5,0,32,13,0.5012173652648926,0.13691605627536774
5,0,32,14,0.4926869571208954,0.06010948866605759
5,0,32,15,0.4260626435279846,0.1293717622756958
5,0,32,16,0.42943301796913147,0.1164633184671402
5,0,32,17,0.43507686257362366,0.12465551495552063
5,0,32,18,0.43100640177726746,0.1066008135676384
5,0,32,19,0.3220656216144562,0.0986919105052948
5,0,32,20,0.42528608441352844,0.09307444840669632
5,0,32,21,0.4751054644584656,0.15624873340129852
5,0,32,22,0.39904236793518066,0.09982115775346756
5,0,32,23,0.5484751462936401,0.129929780960083
5,0,32,24,0.6573683619499207,0.07816916704177856
5,0,32,25,0.5774279832839966,0.09426388144493103
5,0,32,26,0.45987939834594727,0.11468686163425446
5,0,32,27,0.4122089445590973,0.09066256135702133
5,0,32,28,0.6329533457756042,0.11770416796207428
5,0,32,29,0.5075008273124695,0.06701839715242386
5,0,32,30,0.34988734126091003,0.09377064555883408
5,0,32,31,0.37416720390319824,0.10937969386577606
5,1,32,0,0.3403867781162262,0.27436575293540955
5,1,32,1,0.6378901600837708,0.2201453298330307
5,1,32,2,0.35084787011146545,0.3301936686038971
5,1,32,3,0.3362117409706116,0.15993629395961761
5,1,32,4,0.6465148329734802,0.3290468454360962
5,1,32,5,0.17655429244041443,0.12529993057250977
5,1,32,6,0.515737771987915,0.13749441504478455
5,1,32,7,0.6319249272346497,0.27937787771224976
5,1,32,8,0.7226220369338989,0.12398497760295868
5,1,32,9,0.6162412166595459,0.18586032092571259
5,1,32,10,0.5436071157455444,0.2272225171327591
5,1,32,11,0.6971110701560974,0.2903049886226654
5,1,32,12,0.31689557433128357,0.2146470993757248
5,1,32,13,0.7170765995979309,0.2610928416252136
5,1,32,14,0.30130499601364136,0.1271802932024002
5,1,32,15,0.7626423835754395,0.20936544239521027
5,1,32,16,0.664014995098114,0.11739093065261841
5,1,32,17,0.4088709056377411,0.23439952731132507
5,1,32,18,0.3977911174297333,0.3103335499763489
5,1,32,19,0.39355477690696716,0.25157979130744934
5,1,32,20,0.7818242907524109,0.16246932744979858
5,1,32,21,0.6908743381500244,0.08177874982357025
5,1,32,22,0.2291034609079361,0.13730210065841675
5,1,32,23,0.626736581325531,0.30749478936195374
5,1,32,24,0.1871977150440216,0.10652980208396912
5,1,32,25,0.5836864113807678,0.11977549642324448
5,1,32,26,0.43102389574050903,0.21645322442054749
5,1,32,27,0.7192332744598389,0.170701265335083
5,1,32,28,0.41242027282714844,0.09996367245912552
5,1,32,29,0.7138615846633911,0.18041349947452545
5,1,32,30,0.4309743344783783,0.30985844135284424
5,1,32,31,0.791137158870697,0.1319095343351364
5,2,64,0,0.5613658428192139,0.1773538738489151
5,2,64,1,0.5131363868713379,0.22259269654750824
5,2,64,2,0.6318424940109253,0.18305198848247528
5,2,64,3,0.5541309714317322,0.03005746565759182
5,2,64,4,0.3822064995765686,0.14968383312225342
5,2,64,5,0.6794970035552979,0.27523157000541687
5,2,64,6,0.5862017273902893,0.10165829956531525
5,2,64,7,0.23851314187049866,0.11843898892402649
5,2,64,8,0.5914074778556824,0.1688694953918457
5,2,64,9,0.5186424255371094,0.17307917773723602
5,2,64,10,0.509310245513916,0.128852978348732
5,2,64,11,0.43288230895996094,0.28272971510887146
5,2,64,12,0.6609812378883362,0.07507642358541489
5,2,64,13,0.23867803812026978,0.14480920135974884
5,2,64,14,0.4587134122848511,0.17286524176597595
5,2,64,15,0.2831982970237732,0.14753547310829163
5,2,64,16,0.34647858142852783,0.1855073869228363
5,2,64,17,0.25414296984672546,0.20970503985881805
5,2,64,18,0.6746980547904968,0.26677176356315613
5,2,64,19,0.3744624853134155,0.16852788627147675
5,2,64,20,0.5394233465194702,0.16129198670387268
5,2,64,21,0.605252206325531,0.11959176510572433
5,2,64,22,0.7062435746192932,0.24592028558254242
5,2,64,23,0.40656036138534546,0.19790194928646088
5,2,64,24,0.28489214181900024,0.06832148134708405
5,2,64,25,0.5961877703666687,0.11777327209711075
5,2,64,26,0.6897332072257996,0.14732155203819275
5,2,64,27,0.358528733253479,0.18273766338825226
5,2,64,28,0.39962536096572876,0.08730486035346985
5,2,64,29,0.2468947023153305,0.12188112735748291
5,2,64,30,0.5097299218177795,0.13594327867031097
5,2,64,31,0.6403936743736267,0.09930072724819183
5,2,64,32,0.5299906730651855,0.20914210379123688
5,2,64,33,0.6268030405044556,0.14458534121513367
5,2,64,34,0.480984091758728,0.1676432490348816
5,2,64,35,0.5418640971183777,0.1274353563785553
5,2,64,36,0.4095061421394348,0.23848773539066315
5,2,64,37,0.5193714499473572,0.07092820852994919
5,2,64,38,0.3446791172027588,0.3009961247444153
5,2,64,39,0.324856162071228,0.14516814053058624
5,2,64,40,0.5471745729446411,0.17447717487812042
5,2,64,41,0.321303129196167,0.23434162139892578
5,2,64,42,0.6529699563980103,0.10566414892673492
5,2,64,43,0.45141464471817017,0.08116649091243744
5,2,64,44,0.7163005471229553,0.1579325646162033
5,2,64,45,0.39681476354599,0.228239506483078
5,2,64,46,0.6766892075538635,0.1960056722164154
5,2,64,47,0.42893198132514954,0.16322414577007294
5,2,64,48,0.4420695900917053,0.14682042598724365
5,2,64,49,0.6493959426879883,0.19023878872394562
5,2,64,50,0.7416875958442688,0.1398003250360489
5,2,64,51,0.6714079976081848,0.13824108242988586
5,2,64,52,0.3602187931537628,0.20767739415168762
5,2,64,53,0.6205141544342041,0.27150872349739075
5,2,64,54,0.6816945672035217,0.1443750411272049
5,2,64,55,0.5761341452598572,0.2013000100851059
5,2,64,56,0.6351051926612854,0.221311554312706
5,2,64,57,0.28766313195228577,0.26017671823501587
5,2,64,58,0.42918434739112854,0.13651907444000244
5,2,64,59,0.5973789095878601,0.1492602378129959
5,2,64,60,0.4330613315105438,0.13475261628627777
5,2,64,61,0.578733503818512,0.3081667721271515
5,2,64,62,0.44325143098831177,0.1256156712770462
5,2,64,63,0.528688907623291,0.1198703870177269
5,3,64,0,0.511493444442749,0.10212159156799316
5,3,64,1,0.6579163074493408,0.17495709657669067
5,3,64,2,0.7382368445396423,0.2136228382587433
5,3,64,3,0.4580123722553253,0.21934638917446136
5,3,64,4,0.3326045870780945,0.12566819787025452
5,3,64,5,0.5663244128227234,0.12436755746603012
5,3,64,6,0.5365951061248779,0.2147095501422882
5,3,64,7,0.24058884382247925,0.09949202090501785
5,3,64,8,0.4514368772506714,0.12749359011650085
5,3,64,9,0.3696286380290985,0.2919164001941681
5,3,64,10,0.55637526512146,0.17356491088867188
5,3,64,11,0.7150874733924866,0.26462849974632263
5,3,64,12,0.45335960388183594,0.13440433144569397
5,3,64,13,0.6307309865951538,0.1787450611591339
5,3,64,14,0.5517688393592834,0.3016890585422516
5,3,64,15,0.713878333568573,0.1947980523109436
5,3,64,16,0.519675076007843,0.21775208413600922
5,3,64,17,0.5426135063171387,0.16236916184425354
5,3,64,18,0.75885409116745,0.2258126139640808
5,3,64,19,0.5291239619255066,0.06452980637550354
5,3,64,20,0.5210892558097839,0.19719624519348145
5,3,64,21,0.5437579154968262,0.13895098865032196
5,3,64,22,0.5324480533599854,0.19868651032447815
5,3,64,23,0.714263379573822,0.09992492198944092
5,3,64,24,0.6575376391410828,0.22554144263267517
5,3,64,25,0.6091841459274292,0.14421574771404266
5,3,64,26,0.5909210443496704,0.11699417233467102
5,3,64,27,0.5176052451133728,0.21380171179771423
5,3,64,28,0.6101464033126831,0.09512227028608322
5,3,64,29,0.6171972155570984,0.11183241009712219
5,3,64,30,0.5299848318099976,0.14752165973186493
5,3,64,31,0.4424024820327759,0.28740373253822327
5,3,64,32,0.5456625819206238,0.20423860847949982
5,3,64,33,0.6214417815208435,0.22618840634822845
5,3,64,34,0.4999682903289795,0.09080378711223602
5,3,64,35,0.4222220778465271,0.14718908071517944
5,3,64,36,0.6409476399421692,0.0845317542552948
5,3,64,37,0.47096794843673706,0.08080501854419708
5,3,64,38,0.3648740351200104,0.19463205337524414
5,3,64,39,0.6744280457496643,0.18981900811195374
5,3,64,40,0.5592314004898071,0.2960750460624695
5,3,64,41,0.6107264757156372,0.06689907610416412
5,3,64,42,0.4283275604248047,0.052492883056402206
5,3,64,43,0.49784260988235474,0.22516874969005585
5,3,64,44,0.5899919271469116,0.22025567293167114
5,3,64,45,0.5628452897071838,0.1092895045876503
5,3,64,46,0.5093557834625244,0.17562399804592133
5,3,64,47,0.3816266357898712,0.28978437185287476
5,3,64,48,0.5607219338417053,0.1639365553855896
5,3,64,49,0.4954308867454529,0.08279569447040558
5,3,64,50,0.6929633617401123,0.18121874332427979
5,3,64,51,0.42260146141052246,0.1667720526456833
5,3,64,52,0.372879296541214,0.21694447100162506
5,3,64,53,0.5367357730865479,0.3354412019252777
5,3,64,54,0.33669012784957886,0.18447555601596832
5,3,64,55,0.5994230508804321,0.17034344375133514
5,3,64,56,0.5586123466491699,0.053017422556877136
5,3,64,57,0.35233864188194275,0.23410998284816742
5,3,64,58,0.7114717960357666,0.2624362111091614
5,3,64,59,0.6367347836494446,0.07529766857624054
5,3,64,60,0.6029535531997681,0.2228049486875534
5,3,64,61,0.25347772240638733,0.14803571999073029
5,3,64,62,0.5158556699752808,0.13175512850284576
5,3,64,63,0.5661200284957886,0.15052351355552673
5,4,128,0,0.29258638620376587,0.1656443029642105
5,4,128,1,0.6347989439964294,0.26221445202827454
5,4,128,2,0.2315947264432907,0.13938520848751068
5,4,128,3,0.2924916446208954,0.13601639866828918
5,4,128,4,0.5058541297912598,0.09430438280105591
5,4,128,5,0.47549620270729065,0.1019940972328186
5,4,128,6,0.6959108114242554,0.23865874111652374
5,4,128,7,0.7713759541511536,0.11101815849542618
5,4,128,8,0.2313966006040573,0.13313981890678406
5,4,128,9,0.6303530931472778,0.11502476781606674
5,4,128,10,0.5390860438346863,0.1497602015733719
5,4,128,11,0.6531860828399658,0.15859127044677734
5,4,128,12,0.762732982635498,0.13746140897274017
5,4,128,13,0.36150816082954407,0.3007093369960785
5,4,128,14,0.7591195702552795,0.26461929082870483
5,4,128,15,0.7552252411842346,0.26669636368751526
5,4,128,16,0.7299221754074097,0.22145779430866241
5,4,128,17,0.7305753827095032,0.2356381118297577
5,4,128,18,0.6258365511894226,0.26209941506385803
5,4,128,19,0.6671500205993652,0.3037746846675873
5,4,128,20,0.7256676554679871,0.2098861187696457
5,4,128,21,0.6911734938621521,0.24678857624530792
5,4,128,22,0.6312082409858704,0.1420339196920395
5,4,128,23,0.7777016758918762,0.2427266240119934
5,4,128,24,0.33237239718437195,0.22299635410308838
5,4,128,25,0.5954462885856628,0.19942627847194672
5,4,128,26,0.6900649070739746,0.24309901893138885
5,4,128,27,0.7780167460441589,0.21379806101322174
5,4,128,28,0.608018696308136,0.2827940285205841
5,4,128,29,0.740626871585846,0.10386330634355545
5,4,128,30,0.7093019485473633,0.14800983667373657
5,4,128,31,0.3115772306919098,0.18165412545204163
5,4,128,32,0.3863137364387512,0.09204836934804916
5,4,128,33,0.4030819535255432,0.1591564416885376
5,4,128,34,0.7979927062988281,0.10271541774272919
5,4,128,35,0.8429662585258484,0.20659054815769196
5,4,128,36,0.7559130787849426,0.10096494108438492
5,4,128,37,0.669277012348175,0.20632758736610413
5,4,128,38,0.7001721858978271,0.20092709362506866
5,4,128,39,0.6107695698738098,0.12651824951171875
5,4,128,40,0.6897127628326416,0.2119307518005371
5,4,128,41,0.3743075430393219,0.18800853192806244
5,4,128,42,0.419327974319458,0.2864215075969696
5,4,128,43,0.7192648649215698,0.24423325061798096
5,4,128,44,0.46998536586761475,0.2784464359283447
5,4,128,45,0.7172927856445312,0.1370709389448166
5,4,128,46,0.3957368731498718,0.17744098603725433
5,4,128,47,0.8178887367248535,0.10464945435523987
5,4,128,48,0.7611739039421082,0.14674079418182373
5,4,128,49,0.29379355907440186,0.2405937761068344
5,4,128,50,0.6398354172706604,0.20336031913757324
5,4,128,51,0.6012220978736877,0.307805597782135
5,4,128,52,0.7929245829582214,0.2019532173871994
5,4,128,53,0.40456411242485046,0.2612539529800415
5,4,128,54,0.6900339126586914,0.15318328142166138
5,4,128,55,0.6471961140632629,0.24624845385551453
5,4,128,56,0.3844406306743622,0.21639277040958405
5,4,128,57,0.4852064251899719,0.1556352972984314
5,4,128,58,0.359537273645401,0.2185036540031433
5,4,128,59,0.39050254225730896,0.3025459051132202
5,4,128,60,0.7543265223503113,0.2829844355583191
5,4,128,61,0.7088845372200012,0.19186224043369293
5,4,128,62,0.5632914900779724,0.1544400304555893
5,4,128,63,0.5820985436439514,0.21844826638698578
5,4,128,64,0.40848779678344727,0.245407372713089
5,4,128,65,0.23888039588928223,0.11016502976417542
5,4,128,66,0.7491020560264587,0.15263037383556366
5,4,128,67,0.49073514342308044,0.21433456242084503
5,4,128,68,0.5735822916030884,0.13979791104793549
5,4,128,69,0.7617711424827576,0.19750921428203583
5,4,128,70,0.7457746267318726,0.16022107005119324
5,4,128,71,0.5877647399902344,0.17776308953762054
5,4,128,72,0.6574754118919373,0.290163516998291
5,4,128,73,0.7061299085617065,0.15089967846870422
5,4,128,74,0.3632175922393799,0.2946517765522003
5,4,128,75,0.6653697490692139,0.204716295003891
5,4,128,76,0.3797440230846405,0.25674858689308167
5,4,128,77,0.7707626223564148,0.20817448198795319
5,4,128,78,0.8081871271133423,0.13809040188789368
5,4,128,79,0.72151780128479,0.1201995462179184
5,4,128,80,0.5864517092704773,0.2750709354877472
5,4,128,81,0.6057339906692505,0.2140774130821228
5,4,128,82,0.38755741715431213,0.27262383699417114
5,4,128,83,0.7474912405014038,0.12653958797454834
5,4,128,84,0.7215402126312256,0.19273199141025543
5,4,128,85,0.7242586016654968,0.3006444573402405
5,4,128,86,0.6954962611198425,0.11666394025087357
5,4,128,87,0.6392123699188232,0.24848395586013794
5,4,128,88,0.713688313961029,0.11028414964675903
5,4,128,89,0.5932617783546448,0.24401766061782837
5,4,128,90,0.43319419026374817,0.22342996299266815
5,4,128,91,0.6420095562934875,0.17715699970722198
5,4,128,92,0.34163111448287964,0.25526395440101624
5,4,128,93,0.6392337083816528,0.2486289143562317
5,4,128,94,0.349214643239975,0.2782961130142212
5,4,128,95,0.6536253690719604,0.2556021213531494
5,4,128,96,0.5982621908187866,0.190260112285614
5,4,128,97,0.7335243225097656,0.2781980633735657
5,4,128,98,0.5923660397529602,0.17090533673763275
5,4,128,99,0.39565885066986084,0.197219580411911
5,4,128,100,0.3319762945175171,0.27820947766304016
5,4,128,101,0.7329338788986206,0.20228667557239532
5,4,128,102,0.7180569171905518,0.15057042241096497
5,4,128,103,0.33554017543792725,0.24902035295963287
5,4,128,104,0.7221872210502625,0.23147951066493988
5,4,128,105,0.4904690384864807,0.10582294315099716
5,4,128,106,0.42038658261299133,0.24095788598060608
5,4,128,107,0.738489031791687,0.30280980467796326
5,4,128,108,0.7473441362380981,0.2559521198272705
5,4,128,109,0.25200730562210083,0.14428763091564178
5,4,128,110,0.6653671860694885,0.29616349935531616
5,4,128,111,0.3242133557796478,0.1903119683265686
5,4,128,112,0.6153715252876282,0.2079048752784729
5,4,128,113,0.48564013838768005,0.13498219847679138
5,4,128,114,0.5188644528388977,0.11725062131881714
5,4,128,115,0.22570599615573883,0.13153304159641266
5,4,128,116,0.34025296568870544,0.2692616879940033
5,4,128,117,0.7151209712028503,0.3073100745677948
5,4,128,118,0.45633262395858765,0.2510109543800354
5,4,128,119,0.6805824041366577,0.16617389023303986
5,4,128,120,0.7404633164405823,0.3018915355205536
5,4,128,121,0.7469886541366577,0.2774285674095154
5,4,128,122,0.6956337690353394,0.26411357522010803
5,4,128,123,0.6929799318313599,0.2573048174381256
5,4,128,124,0.7765718698501587,0.13535001873970032
5,4,128,125,0.6022595167160034,0.12521736323833466
5,4,128,126,0.618859052658081,0.24217745661735535
5,4,128,127,0.6667141914367676,0.30659183859825134
5,5,128,0,0.7207275032997131,0.11843199282884598
5,5,128,1,0.3786577582359314,0.10675888508558273
5,5,128,2,0.7955803871154785,0.08783978223800659
5,5,128,3,0.30982664227485657,0.35505566000938416
5,5,128,4,0.736371636390686,0.27923837304115295
5,5,128,5,0.798076331615448,0.17278285324573517
5,5,128,6,0.7814571857452393,0.14693084359169006
5,5,128,7,0.7852356433868408,0.08874421566724777
5,5,128,8,0.5263334512710571,0.27135971188545227
5,5,128,9,0.6079051494598389,0.18392160534858704
5,5,128,10,0.6356747150421143,0.20914778113365173
5,5,128,11,0.7142308950424194,0.3071950078010559
5,5,128,12,0.8316769599914551,0.13810455799102783
5,5,128,13,0.8207749128341675,0.11623769253492355
5,5,128,14,0.858839213848114,0.10983658581972122
5,5,128,15,0.71991366147995,0.12878212332725525
5,5,128,16,0.8312907218933105,0.11375147104263306
5,5,128,17,0.7652379274368286,0.17700648307800293
5,5,128,18,0.6047406196594238,0.31248778104782104
5,5,128,19,0.7684024572372437,0.11083309352397919
5,5,128,20,0.858426034450531,0.12329654395580292
5,5,128,21,0.8198429346084595,0.16536734998226166
5,5,128,22,0.7010262608528137,0.2327626794576645
5,5,128,23,0.7756975293159485,0.18904851377010345
5,5,128,24,0.8377291560173035,0.11614416539669037
5,5,128,25,0.7469965815544128,0.19007138907909393
5,5,128,26,0.690025269985199,0.2561096251010895
5,5,128,27,0.8565426468849182,0.10741135478019714
5,5,128,28,0.7581883668899536,0.1128840371966362
5,5,128,29,0.6541672945022583,0.16683851182460785
5,5,128,30,0.6715870499610901,0.24302518367767334
5,5,128,31,0.6435714960098267,0.2527054250240326
5,5,128,32,0.6945222616195679,0.12477755546569824
5,5,128,33,0.5011720061302185,0.16569149494171143
5,5,128,34,0.7981919050216675,0.0915336161851883
5,5,128,35,0.747806191444397,0.2939321994781494
5,5,128,36,0.7842183113098145,0.14148472249507904
5,5,128,37,0.8271164298057556,0.08774162828922272
5,5,128,38,0.8338857293128967,0.0880855917930603
5,5,128,39,0.4935235381126404,0.04245546832680702
5,5,128,40,0.6917140483856201,0.2059033215045929
5,5,128,41,0.7929389476776123,0.15534508228302002
5,5,128,42,0.7122811079025269,0.09903163462877274
5,5,128,43,0.7707496285438538,0.1749151349067688
5,5,128,44,0.796665370464325,0.09746182709932327
5,5,128,45,0.8199464678764343,0.08516048640012741
5,5,128,46,0.6744145750999451,0.2554760277271271
5,5,128,47,0.7468963265419006,0.25851744413375854
5,5,128,48,0.6316077709197998,0.16567811369895935
5,5,128,49,0.6608141660690308,0.18645009398460388
5,5,128,50,0.8074232339859009,0.09997774660587311
5,5,128,51,0.6658803224563599,0.30532732605934143
5,5,128,52,0.7974648475646973,0.14708726108074188
5,5,128,53,0.694907546043396,0.2581546902656555
5,5,128,54,0.7497411370277405,0.23506289720535278
5,5,128,55,0.698513388633728,0.16240818798542023
5,5,128,56,0.576762318611145,0.23391985893249512
5,5,128,57,0.6665751934051514,0.32787999510765076
5,5,128,58,0.8166252970695496,0.10635252296924591
5,5,128,59,0.7670909762382507,0.07963813096284866
5,5,128,60,0.8650912642478943,0.11898253113031387
5,5,128,61,0.6999409794807434,0.2733847200870514
5,5,128,62,0.7092461585998535,0.1285075843334198
5,5,128,63,0.669748067855835,0.16750989854335785
5,5,128,64,0.8080320358276367,0.12548589706420898
5,5,128,65,0.4229801893234253,0.3837173283100128
5,5,128,66,0.6247738599777222,0.17266817390918732
5,5,128,67,0.7949330806732178,0.11488085240125656
5,5,128,68,0.5917156934738159,0.11264112591743469
5,5,128,69,0.6796699166297913,0.2695563733577728
5,5,128,70,0.5734624266624451,0.17361140251159668
5,5,128,71,0.6159176230430603,0.21505258977413177
5,5,128,72,0.7042954564094543,0.2465139776468277
5,5,128,73,0.7297817468643188,0.19723311066627502
5,5,128,74,0.625865638256073,0.2708946764469147
5,5,128,75,0.7532088160514832,0.11881691217422485
5,5,128,76,0.8407648205757141,0.11460665613412857
5,5,128,77,0.5227041840553284,0.2251093089580536
5,5,128,78,0.617139995098114,0.192633718252182
5,5,128,79,0.405868262052536,0.32401323318481445
5,5,128,80,0.691508948802948,0.20837298035621643
5,5,128,81,0.6561368107795715,0.09545506536960602
5,5,128,82,0.6994202136993408,0.24875174462795258
5,5,128,83,0.7445919513702393,0.21409453451633453
5,5,128,84,0.7081493735313416,0.22253641486167908
5,5,128,85,0.8682617545127869,0.11295167356729507
5,5,128,86,0.8044682145118713,0.11607612669467926
5,5,128,87,0.7774192094802856,0.18979805707931519
5,5,128,88,0.7974304556846619,0.09821439534425735
5,5,128,89,0.6925286054611206,0.17958280444145203
5,5,128,90,0.6820929050445557,0.15412621200084686
5,5,128,91,0.8264484405517578,0.12904946506023407
5,5,128,92,0.644053041934967,0.08768822997808456
5,5,128,93,0.7506058812141418,0.22502277791500092
5,5,128,94,0.4621924161911011,0.2865836024284363
5,5,128,95,0.8303527235984802,0.09358301758766174
5,5,128,96,0.7329904437065125,0.10940548777580261
5,5,128,97,0.8004826307296753,0.08922171592712402
5,5,128,98,0.7843680381774902,0.17834919691085815
5,5,128,99,0.5452014207839966,0.1850011795759201
5,5,128,100,0.6850442290306091,0.320268839597702
5,5,128,101,0.7362967729568481,0.19090241193771362
5,5,128,102,0.7511579394340515,0.164178267121315
5,5,128,103,0.8078998923301697,0.09773042798042297
5,5,128,104,0.6933556199073792,0.13393814861774445
5,5,128,105,0.7089350819587708,0.20677518844604492
5,5,128,106,0.39189764857292175,0.34942176938056946
5,5,128,107,0.7375325560569763,0.2260998636484146
5,5,128,108,0.8689194321632385,0.07891640812158585
5,5,128,109,0.5702422857284546,0.1670047789812088
5,5,128,110,0.7809654474258423,0.1995578557252884
5,5,128,111,0.6617817282676697,0.2333177775144577
5,5,128,112,0.7826980948448181,0.2075236737728119
5,5,128,113,0.7678517699241638,0.16747663915157318
5,5,128,114,0.7243812680244446,0.3135910928249359
5,5,128,115,0.6141070127487183,0.14657022058963776
5,5,128,116,0.6428049206733704,0.1509719043970108
5,5,128,117,0.8521180152893066,0.1301649957895279
5,5,128,118,0.5520380735397339,0.08938610553741455
5,5,128,119,0.7134333848953247,0.34512025117874146
5,5,128,120,0.44743990898132324,0.32338324189186096
5,5,128,121,0.3820749819278717,0.34977948665618896
5,5,128,122,0.8540899157524109,0.09315649420022964
5,5,128,123,0.6622543931007385,0.30384454131126404
5,5,128,124,0.7552238702774048,0.16391567885875702
5,5,128,125,0.6167264580726624,0.10382378846406937
5,5,128,126,0.7338135242462158,0.1342298686504364
5,5,128,127,0.6729001998901367,0.10744704306125641
6,0,32,0,0.5084705948829651,0.11920355260372162
6,0,32,1,0.4645848572254181,0.07929211109876633
6,0,32,2,0.5090374946594238,0.05080427974462509
6,0,32,3,0.37451764941215515,0.12364251911640167
6,0,32,4,0.3594191372394562,0.05073593184351921
6,0,32,5,0.3770289123058319,0.10769476741552353
6,0,32,6,0.4008597433567047,0.06547382473945618
6,0,32,7,0.5046023726463318,0.0956181213259697
6,0,32,8,0.5974529385566711,0.022170966491103172
6,0,32,9,0.5622397661209106,0.009014456532895565
6,0,32,10,0.44437751173973083,0.035888828337192535
6,0,32,11,0.5852189660072327,0.06940275430679321
6,0,32,12,0.6029779314994812,0.03422223776578903
6,0,32,13,0.5116420388221741,0.0651455670595169
6,0,32,14,0.4704975187778473,0.05078553408384323
6,0,32,15,0.4066939055919647,0.09818751364946365
6,0,32,16,0.45737066864967346,0.061062756925821304
6,0,32,17,0.4830743670463562,0.06447015702724457
6,0,32,18,0.4750133752822876,0.10498630255460739
6,0,32,19,0.3493557572364807,0.08253716677427292
6,0,32,20,0.4574103355407715,0.06060110405087471
6,0,32,21,0.4782041013240814,0.112940214574337
6,0,32,22,0.43551939725875854,0.10165544599294662
6,0,32,23,0.5306470394134521,0.10983394086360931
6,0,32,24,0.6279853582382202,0.045749396085739136
6,0,32,25,0.5663474202156067,0.05122687295079231
6,0,32,26,0.42824500799179077,0.0705791637301445
6,0,32,27,0.43569397926330566,0.039155442267656326
6,0,32,28,0.5842658281326294,0.08022313565015793
6,0,32,29,0.5055781006813049,0.05888432264328003
6,0,32,30,0.3697800934314728,0.08059019595384598
6,0,32,31,0.3814842700958252,0.07823016494512558
6,1,32,0,0.40977057814598083,0.05971788987517357
6,1,32,1,0.4876559376716614,0.029566220939159393
6,1,32,2,0.434824138879776,0.09310653060674667
6,1,32,3,0.38987743854522705,0.11932341009378433
6,1,32,4,0.567276656627655,0.06173821911215782
6,1,32,5,0.37499764561653137,0.0932387188076973
6,1,32,6,0.5569314956665039,0.08728986978530884
6,1,32,7,0.5677963495254517,0.13597314059734344
6,1,32,8,0.6495771408081055,0.03932155668735504
6,1,32,9,0.5094850063323975,0.10571737587451935
6,1,32,10,0.5109538435935974,0.08696137368679047
6,1,32,11,0.5880314707756042,0.044786397367715836
6,1,32,12,0.43016794323921204,0.158970907330513
6,1,32,13,0.5942403674125671,0.09450134634971619
6,1,32,14,0.4137866795063019,0.11403215676546097
6,1,32,15,0.6969234347343445,0.09386251121759415
6,1,32,16,0.5445103049278259,0.0676686242222786
6,1,32,17,0.3360513746738434,0.09076514095067978
6,1,32,18,0.5481657385826111,0.14647608995437622
6,1,32,19,0.49085795879364014,0.0632702112197876
6,1,32,20,0.6449838280677795,0.18395258486270905
6,1,32,21,0.6292973756790161,0.06320150196552277
6,1,32,22,0.3775703012943268,0.07753519713878632
6,1,32,23,0.473909467458725,0.104815773665905
6,1,32,24,0.3345559239387512,0.059459932148456573
6,1,32,25,0.5223164558410645,0.09923578053712845
6,1,32,26,0.3666009306907654,0.08350342512130737
6,1,32,27,0.5211787819862366,0.18334221839904785
6,1,32,28,0.513342022895813,0.05612700805068016
6,1,32,29,0.5107996463775635,0.18743421137332916
6,1,32,30,0.5399396419525146,0.12497148662805557
6,1,32,31,0.6603481769561768,0.0804314836859703
6,2,64,0,0.5342963933944702,0.20097821950912476
6,2,64,1,0.5060606002807617,0.25434938073158264
6,2,64,2,0.5070263147354126,0.17863182723522186
6,2,64,3,0.4379231333732605,0.12009309977293015
6,2,64,4,0.5041075944900513,0.08287886530160904
6,2,64,5,0.5691468715667725,0.08184053003787994
6,2,64,6,0.5026199817657471,0.07756145298480988
6,2,64,7,0.307596355676651,0.12838168442249298
6,2,64,8,0.5470781326293945,0.2023027390241623
6,2,64,9,0.624417245388031,0.14434382319450378
6,2,64,10,0.3856111168861389,0.20979934930801392
6,2,64,11,0.49472102522850037,0.26263466477394104
6,2,64,12,0.6860203742980957,0.1349814385175705
6,2,64,13,0.4884852468967438,0.2799105644226074
6,2,64,14,0.40534308552742004,0.13558289408683777
6,2,64,15,0.3803553879261017,0.0875362679362297
6,2,64,16,0.4718475043773651,0.0748995691537857
6,2,64,17,0.5490187406539917,0.24443340301513672
6,2,64,18,0.6546538472175598,0.2580525577068329
6,2,64,19,0.28211817145347595,0.09862134605646133
6,2,64,20,0.4507414996623993,0.10216864943504333
6,2,64,21,0.5759318470954895,0.07878716289997101
6,2,64,22,0.601725161075592,0.08256027847528458
6,2,64,23,0.41421830654144287,0.18348902463912964
6,2,64,24,0.41303449869155884,0.16002729535102844
6,2,64,25,0.5033959150314331,0.08970852196216583
6,2,64,26,0.6688276529312134,0.10142433643341064
6,2,64,27,0.5171732306480408,0.11156914383172989
6,2,64,28,0.4361957609653473,0.09539767354726791
6,2,64,29,0.3650113344192505,0.10287214815616608
6,2,64,30,0.47784048318862915,0.047244541347026825
6,2,64,31,0.6882131099700928,0.10407223552465439
6,2,64,32,0.4044695198535919,0.20276978611946106
6,2,64,33,0.49919241666793823,0.11141788214445114
6,2,64,34,0.5690603256225586,0.11775248497724533
6,2,64,35,0.6046015024185181,0.10068579763174057
6,2,64,36,0.5002753138542175,0.13777998089790344
6,2,64,37,0.5964596271514893,0.08908669650554657
6,2,64,38,0.5478062033653259,0.1083637923002243
6,2,64,39,0.38681864738464355,0.07265637069940567
6,2,64,40,0.42965465784072876,0.1582474410533905
6,2,64,41,0.3844347894191742,0.15702246129512787
6,2,64,42,0.5571687817573547,0.16962110996246338
6,2,64,43,0.5614058971405029,0.15777385234832764
6,2,64,44,0.7435446977615356,0.10398640483617783
6,2,64,45,0.38575688004493713,0.27680379152297974
6,2,64,46,0.5812618732452393,0.24411551654338837
6,2,64,47,0.44351908564567566,0.1663094460964203
6,2,64,48,0.5196623206138611,0.07441788911819458
6,2,64,49,0.566338300704956,0.14432555437088013
6,2,64,50,0.6165006756782532,0.12314066290855408
6,2,64,51,0.5264449715614319,0.07642528414726257
6,2,64,52,0.4225950539112091,0.09225918352603912
6,2,64,53,0.6028616428375244,0.3177550733089447
6,2,64,54,0.5893409252166748,0.12733979523181915
6,2,64,55,0.55446857213974,0.1555708795785904
6,2,64,56,0.5113191604614258,0.11252458393573761
6,2,64,57,0.32995742559432983,0.08895754814147949
6,2,64,58,0.49275240302085876,0.1273697316646576
6,2,64,59,0.6604459285736084,0.18221883475780487
6,2,64,60,0.4859502911567688,0.10468675196170807
6,2,64,61,0.619640052318573,0.3073495924472809
6,2,64,62,0.5559093952178955,0.041475847363471985
6,2,64,63,0.3796095550060272,0.08690139651298523
6,3,64,0,0.4495595097541809,0.03084597736597061
6,3,64,1,0.7178710699081421,0.16704565286636353
6,3,64,2,0.7096304297447205,0.18613390624523163
6,3,64,3,0.6598871350288391,0.1509047895669937
6,3,64,4,0.5087961554527283,0.12340664118528366
6,3,64,5,0.522911787033081,0.12111225724220276
6,3,64,6,0.3541759252548218,0.11517559736967087
6,3,64,7,0.2240300327539444,0.11867417395114899
6,3,64,8,0.512594997882843,0.1450863778591156
6,3,64,9,0.3244727849960327,0.32061895728111267
6,3,64,10,0.5191609263420105,0.12487056106328964
6,3,64,11,0.5720536112785339,0.3526756763458252
6,3,64,12,0.4831298589706421,0.10827770829200745
6,3,64,13,0.714660108089447,0.24607226252555847
6,3,64,14,0.6973511576652527,0.2221575230360031
6,3,64,15,0.6804940700531006,0.2013804018497467
6,3,64,16,0.44813182950019836,0.14129117131233215
6,3,64,17,0.41133442521095276,0.08592287451028824
6,3,64,18,0.5448206067085266,0.14604873955249786
6,3,64,19,0.30740371346473694,0.10559605807065964
6,3,64,20,0.49044349789619446,0.16502179205417633
6,3,64,21,0.2767083942890167,0.21060363948345184
6,3,64,22,0.4942283630371094,0.08778214454650879
6,3,64,23,0.7385286688804626,0.16442237794399261
6,3,64,24,0.6090229749679565,0.24954530596733093
6,3,64,25,0.5758960843086243,0.2866654396057129
6,3,64,26,0.5865751504898071,0.10881564766168594
6,3,64,27,0.49106597900390625,0.20538033545017242
6,3,64,28,0.6618965268135071,0.23748880624771118
6,3,64,29,0.606913149356842,0.2949886918067932
6,3,64,30,0.33832961320877075,0.12422824651002884
6,3,64,31,0.41721656918525696,0.2273341417312622
6,3,64,32,0.6030024290084839,0.33730337023735046
6,3,64,33,0.5790314674377441,0.24213741719722748
6,3,64,34,0.46742168068885803,0.20927993953227997
6,3,64,35,0.3859630227088928,0.17625851929187775
6,3,64,36,0.5780444145202637,0.11347448825836182
6,3,64,37,0.625584602355957,0.22561395168304443
6,3,64,38,0.3818529546260834,0.16518233716487885
6,3,64,39,0.6540743112564087,0.24139486253261566
6,3,64,40,0.6214531660079956,0.20051142573356628
6,3,64,41,0.6221387982368469,0.15910328924655914
6,3,64,42,0.28308093547821045,0.16242392361164093
6,3,64,43,0.6754038333892822,0.25234055519104004
6,3,64,44,0.5931488871574402,0.3212074041366577
6,3,64,45,0.5308521389961243,0.103800468146801
6,3,64,46,0.39062416553497314,0.33218374848365784
6,3,64,47,0.4989372789859772,0.11811961233615875
6,3,64,48,0.4081936478614807,0.11610441654920578
6,3,64,49,0.3737918436527252,0.12420812249183655
6,3,64,50,0.5869932770729065,0.16259755194187164
6,3,64,51,0.3651956617832184,0.09851681441068649
6,3,64,52,0.5795865058898926,0.12166266143321991
6,3,64,53,0.4684789478778839,0.23137016594409943
6,3,64,54,0.29539284110069275,0.20209653675556183
6,3,64,55,0.40250319242477417,0.09997348487377167
6,3,64,56,0.4749460220336914,0.13516293466091156
6,3,64,57,0.3800612986087799,0.11956335604190826
6,3,64,58,0.624475359916687,0.3264122009277344
6,3,64,59,0.6165234446525574,0.07656853646039963
6,3,64,60,0.7411205172538757,0.10075024515390396
6,3,64,61,0.3063488006591797,0.12407761067152023
6,3,64,62,0.4176701307296753,0.09375758469104767
6,3,64,63,0.5258137583732605,0.0933511033654213
6,4,128,0,0.7364156246185303,0.11261293292045593
6,4,128,1,0.5682279467582703,0.2391790896654129
