subject,channel,alpha,f1,drop_pp
1,0,1.0,0.5929294952381527,0.0
1,0,0.75,0.5820131468645289,1.0916348373623874
1,0,0.5,0.5670955958857682,2.583389935238456
1,0,0.25,0.5458619405902694,4.706755464788337
1,0,0.0,0.5060908266840783,8.683866855407441
1,1,1.0,0.5929294952381527,0.0
1,1,0.75,0.621146745639216,-2.8217250401063265
1,1,0.5,0.6263150415479746,-3.3385546309821823
1,1,0.25,0.6308432018952808,-3.791370665712801
1,1,0.0,0.629592015553601,-3.6662520315448255
1,2,1.0,0.5929294952381527,0.0
1,2,0.75,0.5867630281072057,0.616646713094704
1,2,0.5,0.566989276400176,2.5940218837976703
1,2,0.25,0.5514355349755525,4.149396026260021
1,2,0.0,0.5219425948701977,7.0986900367955075
1,3,1.0,0.5929294952381527,0.0
1,3,0.75,0.5859591005761757,0.697039466197702
1,3,0.5,0.5677064736320084,2.5223021606144314
1,3,0.25,0.5252834668671722,6.764602837098055
1,3,0.0,0.4851862630511662,10.774323218698656
1,4,1.0,0.5929294952381527,0.0
1,4,0.75,0.5924025211271693,0.0526974110983458
1,4,0.5,0.5984402741612044,-0.5510778923051629
1,4,0.25,0.5832482931839602,0.9681202054192539
1,4,0.0,0.5651834629245159,2.7746032313636815
1,5,1.0,0.5929294952381527,0.0
1,5,0.75,0.5429003072206907,5.002918801746203
1,5,0.5,0.49287016911371984,10.005932612443292
1,5,0.25,0.45073022573092325,14.21992695072295
1,5,0.0,0.43304010363623335,15.98893916019194
1,6,1.0,0.5929294952381527,0.0
1,6,0.75,0.5969705723320843,-0.4041077093931533
1,6,0.5,0.6161100111134328,-2.3180515875280028
1,6,0.25,0.6311200193437605,-3.819052410560775
1,6,0.0,0.6364942440078245,-4.356474876967176
1,7,1.0,0.5929294952381527,0.0
1,7,0.75,0.5786936329605129,1.4235862277639844
1,7,0.5,0.567585537030148,2.5343958208004724
1,7,0.25,0.5337362120035922,5.919328323456052
1,7,0.0,0.5038631449217945,8.906635031635822
1,8,1.0,0.5929294952381527,0.0
1,8,0.75,0.5999271802100477,-0.6997684971894902
1,8,0.5,0.5909433757794413,0.19861194587114106
1,8,0.25,0.5285883714817725,6.434112375638024
1,8,0.0,0.4708357980566056,12.209369718154717
2,0,1.0,0.7888395815251374,0.0
2,0,0.75,0.792427128024954,-0.35875464998165185
2,0,0.5,0.7885694175946995,0.027016393043799436
2,0,0.25,0.7712235246351531,1.7616056889984355
2,0,0.0,0.7223327900978763,6.650679142726112
2,1,1.0,0.7888395815251374,0.0
2,1,0.75,0.7554111824013549,3.3428399123782593
2,1,0.5,0.7343799974168943,5.445958410824314
2,1,0.25,0.723537909673625,6.530167185151248
2,1,0.0,0.7022540237038789,8.658555782125854
2,2,1.0,0.7888395815251374,0.0
2,2,0.75,0.7686818820321066,2.015769949303081
2,2,0.5,0.7540315203653402,3.4808061159797288
2,2,0.25,0.7110646127160263,7.777496880911117
2,2,0.0,0.5876374468309952,20.120213469414228
2,3,1.0,0.7888395815251374,0.0
2,3,0.75,0.7885452961672473,0.029428535789011168
2,3,0.5,0.7875607174220599,0.12788641030775372
2,3,0.25,0.7852934755316769,0.3546105993460502
2,3,0.0,0.7589234223470628,2.9916159178074664
2,4,1.0,0.7888395815251374,0.0
2,4,0.75,0.8150116986961065,-2.617211717096901
2,4,0.5,0.8361368034173559,-4.729722189221841
2,4,0.25,0.7996024826092674,-1.0762901084129917
2,4,0.0,0.7380203075758629,5.081927394927455
2,5,1.0,0.7888395815251374,0.0
2,5,0.75,0.7860149106517891,0.2824670873348367
2,5,0.5,0.773388427746226,1.5451153778911486
2,5,0.25,0.6859629320857786,10.287664943935882
2,5,0.0,0.4627123120810397,32.61272694440977
2,6,1.0,0.7888395815251374,0.0
2,6,0.75,0.779285583997198,0.9553997527939395
2,6,0.5,0.7677167902286067,2.112279129653072
2,6,0.25,0.7575763779481597,3.126320357697776
2,6,0.0,0.7325732348582541,5.626634666688335
2,7,1.0,0.7888395815251374,0.0
2,7,0.75,0.7658458722851519,2.299370923998556
2,7,0.5,0.7344770139819908,5.436256754314661
2,7,0.25,0.7028436669237362,8.599591460140122
2,7,0.0,0.6697467305915177,11.909285093361976
2,8,1.0,0.7888395815251374,0.0
2,8,0.75,0.7879884499342333,0.08511315909041084
2,8,0.5,0.7627809978355868,2.6058583689550607
2,8,0.25,0.7324346311470183,5.64049503781191
2,8,0.0,0.6393713516875282,14.94682298376092
3,0,1.0,0.8073581020168699,0.0
3,0,0.75,0.8230892907006556,-1.5731188683785757
3,0,0.5,0.8628788554601811,-5.55207534433112
3,0,0.25,0.8430959872327838,-3.5737885215913923
3,0,0.0,0.771907093855761,3.545100816110891
3,1,1.0,0.8073581020168699,0.0
3,1,0.75,0.8288018136939,-2.1443711677030186
3,1,0.5,0.8536781853985729,-4.632008338170301
3,1,0.25,0.8214192164546954,-1.406111443782554
3,1,0.0,0.7693000891171259,3.8058012899743976
3,2,1.0,0.8073581020168699,0.0
3,2,0.75,0.7805400107665815,2.6818091250288334
3,2,0.5,0.773241091378237,3.4117010638632816
3,2,0.25,0.7548531781912738,5.250492382559601
3,2,0.0,0.6934416358597335,11.391646615713636
3,3,1.0,0.8073581020168699,0.0
3,3,0.75,0.8082180903358571,-0.08599883189872592
3,3,0.5,0.7757414000387101,3.16167019781598
3,3,0.25,0.7366734796192324,7.06846223976375
3,3,0.0,0.5837284808215041,22.36296211953658
3,4,1.0,0.8073581020168699,0.0
3,4,0.75,0.7969268985884397,1.043120342843018
3,4,0.5,0.785681112545678,2.16769894711919
3,4,0.25,0.7210024435306036,8.635565848626625
3,4,0.0,0.6906778932644482,11.668020875242169
3,5,1.0,0.8073581020168699,0.0
3,5,0.75,0.7749869582241498,3.2371143792720103
3,5,0.5,0.7399981394361876,6.735996258068222
3,5,0.25,0.7111910745196118,9.616702749725803
3,5,0.0,0.6573159951791945,15.004210683767539
3,6,1.0,0.8073581020168699,0.0
3,6,0.75,0.8075182403012591,-0.016013828438921074
3,6,0.5,0.8101178396224096,-0.2759737605539714
3,6,0.25,0.8107895976139396,-0.3431495597069789
3,6,0.0,0.8068251673425695,0.05329346743003782
3,7,1.0,0.8073581020168699,0.0
3,7,0.75,0.8016898869910078,0.5668215025862011
3,7,0.5,0.7846903249746852,2.26677770421847
3,7,0.25,0.773008148490652,3.4349953526217836
3,7,0.0,0.740002477812317,6.735562420455288
3,8,1.0,0.8073581020168699,0.0
3,8,0.75,0.8017401455569502,0.5617956459919693
3,8,0.5,0.8071408548213261,0.021724719554372385
3,8,0.25,0.7914970643180901,1.5861037698779779
3,8,0.0,0.7215108244436294,8.584727757324051
4,0,1.0,0.8574900723325988,0.0
4,0,0.75,0.8561064191170605,0.13836532155382386
4,0,0.5,0.8207006871583712,3.6789385174227585
4,0,0.25,0.7379964163179035,11.94936560146953
4,0,0.0,0.632700389488086,22.478968284451273
4,1,1.0,0.8574900723325988,0.0
4,1,0.75,0.8401523588640745,1.7337713468524307
4,1,0.5,0.8319225703576736,2.556750197492519
4,1,0.25,0.7853577786624801,7.213229367011865
4,1,0.0,0.7057303949869512,15.175967734564754
4,2,1.0,0.8574900723325988,0.0
4,2,0.75,0.8598460108941585,-0.23559385615596895
4,2,0.5,0.84656610686813,1.0923965464468721
4,2,0.25,0.8079030987759086,4.958697355669017
4,2,0.0,0.7605182141264615,9.69718582061373
4,3,1.0,0.8574900723325988,0.0
4,3,0.75,0.831814655664792,2.5675416667806816
4,3,0.5,0.7605048863004864,9.698518603211237
4,3,0.25,0.7149687835680811,14.252128876451764
4,3,0.0,0.6949765275205834,16.251354481201542
4,4,1.0,0.8574900723325988,0.0
4,4,0.75,0.8684239458593566,-1.0933873526757787
4,4,0.5,0.8535206513848664,0.39694209477323383
4,4,0.25,0.824262596618088,3.322747571451079
4,4,0.0,0.7788624770638273,7.86275952687715
4,5,1.0,0.8574900723325988,0.0
4,5,0.75,0.8344291563900136,2.306091594258519
4,5,0.5,0.7261380024376105,13.135206989498826
4,5,0.25,0.6587813687813687,19.870870355123003
4,5,0.0,0.6145223179367447,24.296775439585407
4,6,1.0,0.8574900723325988,0.0
4,6,0.75,0.857338829123085,0.01512432095137628
4,6,0.5,0.8522867942324834,0.5203278100115338
4,6,0.25,0.8376962115386019,1.979386079399692
4,6,0.0,0.8091686581465842,4.832141418601454
4,7,1.0,0.8574900723325988,0.0
4,7,0.75,0.8660526811939351,-0.8562608861336307
4,7,0.5,0.8596281015384777,-0.21380292058789108
4,7,0.25,0.8209656633199558,3.6524409012642978
4,7,0.0,0.7914405039323511,6.604956840024768
4,8,1.0,0.8574900723325988,0.0
4,8,0.75,0.8656605495524419,-0.8170477219843097
4,8,0.5,0.8356476361049329,2.1842436227665907
4,8,0.25,0.8235942445348936,3.389582779770517
4,8,0.0,0.7737658377003048,8.372423463229396
5,0,1.0,0.5470320934547909,0.0
5,0,0.75,0.5657458743697935,-1.8713780915002642
5,0,0.5,0.5944520541150669,-4.741996066027598
5,0,0.25,0.5512853137877581,-0.4253220332967267
5,0,0.0,0.5229630675990393,2.4069025855751547
5,1,1.0,0.5470320934547909,0.0
5,1,0.75,0.554764165250665,-0.7732071795874096
5,1,0.5,0.5413576339172878,0.5674459537503118
5,1,0.25,0.5459272596292478,0.11048338255430501
5,1,0.0,0.5189170888727856,2.811500458200522
5,2,1.0,0.5470320934547909,0.0
5,2,0.75,0.5466073655138369,0.04247279409539395
5,2,0.5,0.5527476003642392,-0.5715506909448331
5,2,0.25,0.5545468306950997,-0.7514737240308822
5,2,0.0,0.5302312936334364,1.6800799821354517
5,3,1.0,0.5470320934547909,0.0
5,3,0.75,0.5927135347671824,-4.5681441312391495
5,3,0.5,0.6242593677914778,-7.722727433668696
5,3,0.25,0.648354326990094,-10.132223353530312
5,3,0.0,0.5752627409844654,-2.8230647529674524
5,4,1.0,0.5470320934547909,0.0
5,4,0.75,0.5415519077110622,0.548018574372866
5,4,0.5,0.5233975571984567,2.363453625633416
5,4,0.25,0.5185566156628707,2.8475477791920167
5,4,0.0,0.51441051104444,3.2621582410350847
5,5,1.0,0.5470320934547909,0.0
5,5,0.75,0.5272871450823653,1.9744948372425575
5,5,0.5,0.49415598381500697,5.2876109639783895
5,5,0.25,0.4691826648160867,7.784942863870414
5,5,0.0,0.46008066067216385,8.695143278262702
5,6,1.0,0.5470320934547909,0.0
5,6,0.75,0.5541114895737141,-0.7079396118923276
5,6,0.5,0.5527326737688364,-0.5700580314045522
5,6,0.25,0.5492802989004961,-0.22482054457052536
5,6,0.0,0.5569798939672487,-0.9947800512457805
5,7,1.0,0.5470320934547909,0.0
5,7,0.75,0.5547384271893987,-0.7706333734607829
5,7,0.5,0.5468663950259944,0.01656984287964347
5,7,0.25,0.5479548539712119,-0.09227605164210395
5,7,0.0,0.5452317783464922,0.18003151082987
5,8,1.0,0.5470320934547909,0.0
5,8,0.75,0.5532341169899991,-0.6202023535208268
5,8,0.5,0.5574695960072511,-1.0437502552460232
5,8,0.25,0.5424029855893524,0.46291078654384643
5,8,0.0,0.5040762608983556,4.295583255643532
6,0,1.0,0.7773804209462383,0.0
6,0,0.75,0.7674615921510035,0.9918828795234758
6,0,0.5,0.6920111424537786,8.536927849245968
6,0,0.25,0.665444845875298,11.193557507094031
6,0,0.0,0.6604803661175688,11.69000548286695
6,1,1.0,0.7773804209462383,0.0
6,1,0.75,0.781971511082543,-0.4591090136304765
6,1,0.5,0.7425441724650816,3.483624848115663
6,1,0.25,0.7006478959566933,7.673252498954497
6,1,0.0,0.5756616574887481,20.17187634574902
6,2,1.0,0.7773804209462383,0.0
6,2,0.75,0.7695712216933521,0.7809199252886145
6,2,0.5,0.7653700068885918,1.2010414057646468
6,2,0.25,0.7342999092629132,4.308051168332505
6,2,0.0,0.7011937377336726,7.618668321256572
6,3,1.0,0.7773804209462383,0.0
6,3,0.75,0.7864115631149957,-0.9031142168757444
6,3,0.5,0.7679176458706121,0.9462775075626206
6,3,0.25,0.7047815718518593,7.259884909437897
6,3,0.0,0.6359667577077336,14.141366323850468
6,4,1.0,0.7773804209462383,0.0
6,4,0.75,0.7513999006409167,2.598052030532161
6,4,0.5,0.7444309655875718,3.2949455358666446
6,4,0.25,0.7338048388888725,4.357558205736578
6,4,0.0,0.7123565794771929,6.5023841469045385
6,5,1.0,0.7773804209462383,0.0
6,5,0.75,0.7672693434090088,1.0111077537229507
6,5,0.5,0.7507308504124652,2.6649570533773037
6,5,0.25,0.6769701311364844,10.041028980975387
6,5,0.0,0.6496665377122455,12.771388323399279
6,6,1.0,0.7773804209462383,0.0
6,6,0.75,0.7616207456227666,1.5759675323471667
6,6,0.5,0.7440552625219167,3.33251584243216
6,6,0.25,0.719498067943064,5.788235300317424
6,6,0.0,0.6906767705967594,8.670365034947892
6,7,1.0,0.7773804209462383,0.0
6,7,0.75,0.7688900498702282,0.8490371076010028
6,7,0.5,0.677084915466498,10.029550547974031
6,7,0.25,0.5867754129087557,19.06050080374826
6,7,0.0,0.5284432324999833,24.8937188446255
6,8,1.0,0.7773804209462383,0.0
6,8,0.75,0.7847398471042926,-0.7359426158054294
6,8,0.5,0.7636947193307662,1.3685701615472112
6,8,0.25,0.718285845457931,5.909457548830732
6,8,0.0,0.6653011382511406,11.20792826950977
7,0,1.0,0.7473469450117429,0.0
7,0,0.75,0.7592110296150102,-1.1864084603267266
7,0,0.5,0.6706807701234225,7.666617488832039
7,0,0.25,0.6655539794079129,8.179296560382998
7,0,0.0,0.6271588081007459,12.018813691099705
7,1,1.0,0.7473469450117429,0.0
7,1,0.75,0.735789967385992,1.155697762575092
7,1,0.5,0.7349681955789469,1.2378749432796043
7,1,0.25,0.7374530206726578,0.9893924339085092
7,1,0.0,0.7425095222547451,0.48374227569978334
7,2,1.0,0.7473469450117429,0.0
7,2,0.75,0.7654811527363834,-1.8134207724640472
7,2,0.5,0.7541114549963237,-0.676450998458078
7,2,0.25,0.7403094247536941,0.7037520258048824
7,2,0.0,0.6193697364378566,12.797720857388628
7,3,1.0,0.7473469450117429,0.0
7,3,0.75,0.7618384425769069,-1.449149756516399
7,3,0.5,0.662310276414238,8.503666859750492
7,3,0.25,0.6485989615565002,9.874798345524272
7,3,0.0,0.6357868992967246,11.156004571501832
7,4,1.0,0.7473469450117429,0.0
7,4,0.75,0.726122386747785,2.122455826395797
7,4,0.5,0.7092852193796294,3.806172563211352
7,4,0.25,0.6959810083831188,5.13659366286241
7,4,0.0,0.6852380570203266,6.2108887991416335
7,5,1.0,0.7473469450117429,0.0
7,5,0.75,0.765592106216753,-1.8245161205010074
7,5,0.5,0.72739141426543,1.9955530746312955
7,5,0.25,0.6831041000054952,6.424284500624777
7,5,0.0,0.5507581851389024,19.658875987284052
7,6,1.0,0.7473469450117429,0.0
7,6,0.75,0.7482003199146585,-0.08533749029155935
7,6,0.5,0.7147132762840637,3.2633668727679255
7,6,0.25,0.6277811142537065,11.956583075803639
7,6,0.0,0.6168297612212539,13.051718379048904
7,7,1.0,0.7473469450117429,0.0
7,7,0.75,0.7469622564475494,0.03846885641934916
7,7,0.5,0.678866293002458,6.848065200928488
7,7,0.25,0.6090107308785798,13.83362141331631
7,7,0.0,0.5706668650462527,17.66800799654902
7,8,1.0,0.7473469450117429,0.0
7,8,0.75,0.7432559723294905,0.4090972682252447
7,8,0.5,0.7181064658480212,2.9240479163721744
7,8,0.25,0.7130657091683195,3.4281235843423463
7,8,0.0,0.6624998439728029,8.484710103893999
8,0,1.0,0.7875923205015183,0.0
8,0,0.75,0.7711918696287443,1.6400450872773975
8,0,0.5,0.7654085936719257,2.2183726829592576
8,0,0.25,0.7453312643581244,4.226105614339392
8,0,0.0,0.7199546053906394,6.76377151108789
8,1,1.0,0.7875923205015183,0.0
8,1,0.75,0.7906316861882632,-0.3039365686744899
8,1,0.5,0.80372552273175,-1.6133202230231736
8,1,0.25,0.799937693932792,-1.2345373431273732
8,1,0.0,0.7554593303370519,3.2132990164466357
8,2,1.0,0.7875923205015183,0.0
8,2,0.75,0.7755883468162788,1.2003973685239533
8,2,0.5,0.778587459060416,0.9004861441102241
8,2,0.25,0.76783173997455,1.9760580526968274
8,2,0.0,0.7664975515692071,2.1094768932311214
8,3,1.0,0.7875923205015183,0.0
8,3,0.75,0.7834937361205326,0.4098584380985648
8,3,0.5,0.7745560036035508,1.303631689796747
8,3,0.25,0.7302924781773233,5.729984232419493
8,3,0.0,0.6734262937895513,11.416602671196696
8,4,1.0,0.7875923205015183,0.0
8,4,0.75,0.765458416006985,2.213390449453323
8,4,0.5,0.7479522487564079,3.9640071745110417
8,4,0.25,0.7241923523258611,6.339996817565718
8,4,0.0,0.6995919094895169,8.80004110120014
8,5,1.0,0.7875923205015183,0.0
8,5,0.75,0.7714506949558425,1.6141625545675775
8,5,0.5,0.7296765651807905,5.791575532072779
8,5,0.25,0.6777192838817866,10.987303661973169
8,5,0.0,0.6689728972897289,11.861942321178942
8,6,1.0,0.7875923205015183,0.0
8,6,0.75,0.8018904705040486,-1.4298150002530319
8,6,0.5,0.7818928467365966,0.5699473764921636
8,6,0.25,0.7723422115831493,1.5250108918368976
8,6,0.0,0.7775593109183004,1.0033009583217845
8,7,1.0,0.7875923205015183,0.0
8,7,0.75,0.7928339692498015,-0.5241648748283256
8,7,0.5,0.7924345733690138,-0.4842252867495511
8,7,0.25,0.7397353903266621,4.785693017485615
8,7,0.0,0.6357413635798367,15.18509569216816
8,8,1.0,0.7875923205015183,0.0
8,8,0.75,0.7641839797151195,2.340834078639875
8,8,0.5,0.7248670951420978,6.2725225359420484
8,8,0.25,0.6876574561032975,9.993486439822075
8,8,0.0,0.6532403334601937,13.435198704132457
9,0,1.0,0.7810308837753335,0.0
9,0,0.75,0.7760028194930142,0.5028064282319278
9,0,0.5,0.7776550028723979,0.3375880902935613
9,0,0.25,0.7811882260251826,-0.015734224984909062
9,0,0.0,0.7662073171101923,1.4823566665141175
9,1,1.0,0.7810308837753335,0.0
9,1,0.75,0.7700699010221935,1.0960982753139947
9,1,0.5,0.7502154308775211,3.08154528978124
9,1,0.25,0.7360415545386256,4.498932923670784
9,1,0.0,0.7123893301494508,6.8641553625882645
9,2,1.0,0.7810308837753335,0.0
9,2,0.75,0.7679315441803067,1.3099339595026738
9,2,0.5,0.7691583531032349,1.1872530672098591
9,2,0.25,0.7475668033182195,3.346408045711402
9,2,0.0,0.7010241758004437,8.000670797488974
9,3,1.0,0.7810308837753335,0.0
9,3,0.75,0.7847288098375055,-0.3697926062172008
9,3,0.5,0.7838261742690348,-0.2795290493701308
9,3,0.25,0.7896299615840993,-0.8599077808765787
9,3,0.0,0.7614461139543787,1.9584769820954806
9,4,1.0,0.7810308837753335,0.0
9,4,0.75,0.789626243472241,-0.8595359696907501
9,4,0.5,0.7916668994088348,-1.0636015633501361
9,4,0.25,0.790244343658125,-0.9213459882791541
9,4,0.0,0.7797668519094507,0.12640318658827532
9,5,1.0,0.7810308837753335,0.0
9,5,0.75,0.8039086144490833,-2.2877730673749874
9,5,0.5,0.7811549401258653,-0.01240563505318093
9,5,0.25,0.7456772249805615,3.5353658794771925
9,5,0.0,0.6632823724192326,11.774851135610087
9,6,1.0,0.7810308837753335,0.0
9,6,0.75,0.777098088567306,0.3932795208027473
9,6,0.5,0.7816368000191529,-0.060591624381944875
9,6,0.25,0.7663615000736073,1.4669383701726213
9,6,0.0,0.7528881065120647,2.814277726326875
9,7,1.0,0.7810308837753335,0.0
9,7,0.75,0.7787479482087393,0.2282935566594202
9,7,0.5,0.7732811332735423,0.7749750501791164
9,7,0.25,0.7584131861972128,2.261769757812071
9,7,0.0,0.7199914679693504,6.103941580598304
9,8,1.0,0.7810308837753335,0.0
9,8,0.75,0.7890465714681919,-0.8015687692858431
9,8,0.5,0.7793674947770319,0.16633889983015404
9,8,0.25,0.7656325234759441,1.5398360299389346
9,8,0.0,0.67725860193197,10.377228184336351
10,0,1.0,0.7197549410721746,0.0
10,0,0.75,0.6968017183412695,2.2953222730905165
10,0,0.5,0.6576445496285439,6.211039144363073
10,0,0.25,0.6526767473319639,6.707819374021073
10,0,0.0,0.6111510567482497,10.860388432392497
10,1,1.0,0.7197549410721746,0.0
10,1,0.75,0.6894245127838885,3.0330428288286138
10,1,0.5,0.6538149423384256,6.593999873374901
10,1,0.25,0.6574632317366819,6.229170933549277
10,1,0.0,0.6317596542298789,8.799528684229575
10,2,1.0,0.7197549410721746,0.0
10,2,0.75,0.7294667738543839,-0.9711832782209218
10,2,0.5,0.7075891342275743,1.2165806844600335
10,2,0.25,0.6612509608866757,5.850398018549896
10,2,0.0,0.6024806893127505,11.727425175942418
10,3,1.0,0.7197549410721746,0.0
10,3,0.75,0.7149197525096805,0.4835188562494097
10,3,0.5,0.6949555484041917,2.4799392667982922
10,3,0.25,0.6752350995333452,4.4519841538829485
10,3,0.0,0.6061194894512889,11.363545162088574
10,4,1.0,0.7197549410721746,0.0
10,4,0.75,0.7073618977559304,1.2393043316244245
10,4,0.5,0.6900547669704241,2.970017410175052
10,4,0.25,0.6709029180927618,4.885202297941282
10,4,0.0,0.6570453563975016,6.2709584674673025
10,5,1.0,0.7197549410721746,0.0
10,5,0.75,0.688157923265557,3.159701780661761
10,5,0.5,0.6613463675363437,5.840857353583095
10,5,0.25,0.6402088554126887,7.954608565948595
10,5,0.0,0.6105134467996485,10.924149427252615
10,6,1.0,0.7197549410721746,0.0
10,6,0.75,0.7167869570598553,0.2967984012319347
10,6,0.5,0.7127786458901635,0.697629518201115
10,6,0.25,0.7016652904183555,1.8089650653819178
10,6,0.0,0.6709816569675877,4.877328410458692
10,7,1.0,0.7197549410721746,0.0
10,7,0.75,0.6817556500430606,3.7999291029114035
10,7,0.5,0.6348544138990806,8.490052717309403
10,7,0.25,0.5485759508438983,17.117899022827633
10,7,0.0,0.48663753347454664,23.3117407597628
10,8,1.0,0.7197549410721746,0.0
10,8,0.75,0.714585418534261,0.5169522537913585
10,8,0.5,0.7094840068088665,1.0270934263308162
10,8,0.25,0.6923484916570344,2.7406449415140255
10,8,0.0,0.6051350937912309,11.461984728094377
11,0,1.0,0.890288698424068,0.0
11,0,0.75,0.8761927250622725,1.4095973361795466
11,0,0.5,0.8673551925505051,2.293350587356291
11,0,0.25,0.847306177511185,4.298252091288301
11,0,0.0,0.7596837481468524,13.060495027721563
11,1,1.0,0.890288698424068,0.0
11,1,0.75,0.8864528680665293,0.383583035753865
11,1,0.5,0.8522418940672538,3.804680435681418
11,1,0.25,0.7986689560321114,9.161974239195658
11,1,0.0,0.7408741958900085,14.941450253405952
11,2,1.0,0.890288698424068,0.0
11,2,0.75,0.8943703703129204,-0.4081671888852445
11,2,0.5,0.890705807406938,-0.04171089828700625
11,2,0.25,0.8551317365960012,3.5156961828066824
11,2,0.0,0.8265413457962242,6.374735262784381
11,3,1.0,0.890288698424068,0.0
11,3,0.75,0.8885869182838679,0.17017801402000599
11,3,0.5,0.8792141255329111,1.1074572891156875
11,3,0.25,0.8624186365629062,2.787006186116181
11,3,0.0,0.8066905064626927,8.35981919613753
11,4,1.0,0.890288698424068,0.0
11,4,0.75,0.8889104463305217,0.13782520935462506
11,4,0.5,0.8768901333766411,1.339856504742687
11,4,0.25,0.8468163351078734,4.347236331619464
11,4,0.0,0.8153039824314614,7.498471599260659
11,5,1.0,0.890288698424068,0.0
11,5,0.75,0.877203526380202,1.3085172043865945
11,5,0.5,0.8210391810696089,6.924951735445905
11,5,0.25,0.7504258136527925,13.986288477127552
11,5,0.0,0.7032394934295867,18.70492049944813
11,6,1.0,0.890288698424068,0.0
11,6,0.75,0.8935729316071123,-0.32842331830442717
11,6,0.5,0.8919453035311308,-0.16566051070627807
11,6,0.25,0.8805387936284664,0.974990479560156
11,6,0.0,0.8753416315841465,1.494706683992153
11,7,1.0,0.890288698424068,0.0
11,7,0.75,0.8719135377775331,1.8375160646534883
11,7,0.5,0.8421683873111847,4.812031111288329
11,7,0.25,0.789427748681828,10.086094974224002
11,7,0.0,0.6985482051278614,19.174049329620658
11,8,1.0,0.890288698424068,0.0
11,8,0.75,0.8940639083178694,-0.37752098938014234
11,8,0.5,0.8518600257019382,3.8428672722129797
11,8,0.25,0.8142761150558778,7.601258336819017
11,8,0.0,0.7688555503637942,12.143314806027384
12,0,1.0,0.8324323712507073,0.0
12,0,0.75,0.8292763982916574,0.3155972959049902
12,0,0.5,0.8234458229119792,0.898654833872814
12,0,0.25,0.8349200214296647,-0.24876501789573569
12,0,0.0,0.7729504760512206,5.948189519948677
12,1,1.0,0.8324323712507073,0.0
12,1,0.75,0.8249634078028206,0.7468963447886723
12,1,0.5,0.8013637269700261,3.1068644280681235
12,1,0.25,0.7784433265879288,5.398904466277854
12,1,0.0,0.7470605660670526,8.537180518365473
12,2,1.0,0.8324323712507073,0.0
12,2,0.75,0.8396054974864879,-0.7173126235780591
12,2,0.5,0.8368900445386109,-0.4457673287903585
12,2,0.25,0.8180910633484162,1.4341307902291156
12,2,0.0,0.7954164187819798,3.7015952468727575
12,3,1.0,0.8324323712507073,0.0
12,3,0.75,0.814242198457223,1.8190172793484338
12,3,0.5,0.8190626942688664,1.3369676981840994
12,3,0.25,0.7794454873044819,5.298688394622541
12,3,0.0,0.7461205855578998,8.63117856928075
12,4,1.0,0.8324323712507073,0.0
12,4,0.75,0.8203900711532848,1.2042300097422576
12,4,0.5,0.7959174295027734,3.6514941747933904
12,4,0.25,0.7370251046620909,9.540726658861642
12,4,0.0,0.6579001526804769,17.45322185702305
12,5,1.0,0.8324323712507073,0.0
12,5,0.75,0.837187339024114,-0.4754967773406671
12,5,0.5,0.8049562826162125,2.74760886344948
12,5,0.25,0.7586640338318191,7.376833741888822
12,5,0.0,0.7032094406330704,12.922293061763689
12,6,1.0,0.8324323712507073,0.0
12,6,0.75,0.8241931696702001,0.8239201580507283
12,6,0.5,0.8294516210739615,0.29807501767458167
12,6,0.25,0.8264585904291787,0.5973780821528663
12,6,0.0,0.8260089193779057,0.6423451872801689
12,7,1.0,0.8324323712507073,0.0
12,7,0.75,0.825390523309437,0.7041847941270385
12,7,0.5,0.81974861682596,1.268375442474734
12,7,0.25,0.7867599394987035,4.567243175200386
12,7,0.0,0.7489435310675631,8.348884018314429
12,8,1.0,0.8324323712507073,0.0
12,8,0.75,0.8153598756496776,1.7072495601029747
12,8,0.5,0.7977309715046121,3.4701399746095207
12,8,0.25,0.7827984876120991,4.963388363860821
12,8,0.0,0.7313021362221231,10.11302350285842
13,0,1.0,0.8929342216263367,0.0
13,0,0.75,0.9152334758443198,-2.2299254217983067
13,0,0.5,0.9235535807996973,-3.061935917336056
13,0,0.25,0.8909449890174737,0.19892326088630785
13,0,0.0,0.7186888108253878,17.42454108009489
13,1,1.0,0.8929342216263367,0.0
13,1,0.75,0.8875729471474152,0.536127447892154
13,1,0.5,0.8482327393920309,4.470148223430581
13,1,0.25,0.8234882349445891,6.944598668174762
13,1,0.0,0.7583919951244041,13.454222650193259
13,2,1.0,0.8929342216263367,0.0
13,2,0.75,0.8862479082172066,0.6686313409130173
13,2,0.5,0.868851671312791,2.408255031354578
13,2,0.25,0.8416741801882123,5.126004143812446
13,2,0.0,0.7846030443357259,10.833117729061081
13,3,1.0,0.8929342216263367,0.0
13,3,0.75,0.8977635730947081,-0.4829351468371379
13,3,0.5,0.8995209743598082,-0.6586752733471424
13,3,0.25,0.8868557201573636,0.6078501468973152
13,3,0.0,0.8582910657557982,3.4643155870538567
13,4,1.0,0.8929342216263367,0.0
13,4,0.75,0.8875599091378926,0.5374312488444111
13,4,0.5,0.8520124903321563,4.0921731294180415
13,4,0.25,0.8121886074775424,8.074561414879433
13,4,0.0,0.7798113330781561,11.312288854818064
13,5,1.0,0.8929342216263367,0.0
13,5,0.75,0.8820882312637214,1.0845990362615354
13,5,0.5,0.8502954862868425,4.263873533949425
13,5,0.25,0.788596468161247,10.433775346508977
13,5,0.0,0.6537942477954014,23.913997383093534
13,6,1.0,0.8929342216263367,0.0
13,6,0.75,0.8927047923359184,0.022942929041835924
13,6,0.5,0.8781866718989252,1.4747549727411546
13,6,0.25,0.8474352157979378,4.549900582839895
13,6,0.0,0.8062264529071799,8.670776871915686
13,7,1.0,0.8929342216263367,0.0
13,7,0.75,0.9046249353458732,-1.169071371953645
13,7,0.5,0.8849482032072375,0.7986018419099183
13,7,0.25,0.8643744705343657,2.8559751091971064
13,7,0.0,0.8411702394164049,5.176398220993184
13,8,1.0,0.8929342216263367,0.0
13,8,0.75,0.8960968708703735,-0.31626492440367526
13,8,0.5,0.9027823378594227,-0.9848116233086013
13,8,0.25,0.8827722158434601,1.0162005782876626
13,8,0.0,0.819752246026814,7.318197559952278
14,0,1.0,0.7646255704563008,0.0
14,0,0.75,0.7684957753961928,-0.3870204939892097
14,0,0.5,0.7551888186122923,0.9436751844008495
14,0,0.25,0.7208026844218982,4.382288603440254
14,0,0.0,0.6779245834329451,8.67009870233556
14,1,1.0,0.7646255704563008,0.0
14,1,0.75,0.7590812742350372,0.5544296221263512
14,1,0.5,0.7428038794326928,2.182169102360798
14,1,0.25,0.7148403445997086,4.978522585659217
14,1,0.0,0.6916621849956872,7.296338546061354
14,2,1.0,0.7646255704563008,0.0
14,2,0.75,0.7726823203734049,-0.8056749917104145
14,2,0.5,0.7557955853854753,0.8829985070825441
14,2,0.25,0.7220041154586936,4.262145499760717
14,2,0.0,0.6642913070328802,10.033426342342056
14,3,1.0,0.7646255704563008,0.0
14,3,0.75,0.7359169180369337,2.8708652419367042
14,3,0.5,0.7215396102624364,4.308596019386435
14,3,0.25,0.6980585027998821,6.656706765641863
14,3,0.0,0.6692293171821153,9.539625327418545
14,4,1.0,0.7646255704563008,0.0
14,4,0.75,0.7640483166507387,0.05772538055620613
14,4,0.5,0.7629645485259406,0.1661021930360107
14,4,0.25,0.7530207857546045,1.1604784701696236
14,4,0.0,0.7078586228817858,5.676694757451495
14,5,1.0,0.7646255704563008,0.0
14,5,0.75,0.7158346501569901,4.879092029931065
14,5,0.5,0.6726633136414394,9.196225681486137
14,5,0.25,0.6404460069777608,12.417956347853998
14,5,0.0,0.5556507962192855,20.897477423701527
14,6,1.0,0.7646255704563008,0.0
14,6,0.75,0.7629421429559329,0.16834275003678734
14,6,0.5,0.764160839784746,0.0464730671554725
14,6,0.25,0.767913443639153,-0.32878731828522856
14,6,0.0,0.7595192686137198,0.5106301842580985
14,7,1.0,0.7646255704563008,0.0
14,7,0.75,0.764768399407918,-0.01428289516172132
14,7,0.5,0.7398777753605887,2.474779509571201
14,7,0.25,0.6921048857714907,7.25206846848101
14,7,0.0,0.6673767976644426,9.724877279185817
14,8,1.0,0.7646255704563008,0.0
14,8,0.75,0.7523967946503157,1.2228775805985026
14,8,0.5,0.7336117139168625,3.1013856539438223
14,8,0.25,0.7182006528891027,4.642491756719802
14,8,0.0,0.685011951226649,7.961361922965171
15,0,1.0,0.8269745706226898,0.0
15,0,0.75,0.8283324773155281,-0.13579066928383066
15,0,0.5,0.8068616573132072,2.0112913309482505
15,0,0.25,0.75831090207182,6.86636685508698
15,0,0.0,0.7043571997554832,12.26173708672066
15,1,1.0,0.8269745706226898,0.0
15,1,0.75,0.8243924997915459,0.25820708311438123
15,1,0.5,0.7994623643140479,2.751220630864182
15,1,0.25,0.7693113425335026,5.766322808918711
15,1,0.0,0.7484267872297079,7.854778339298186
15,2,1.0,0.8269745706226898,0.0
15,2,0.75,0.8190083994212984,0.7966171201391314
15,2,0.5,0.8099299578562814,1.704461276640834
15,2,0.25,0.8061181414139049,2.0856429208784832
15,2,0.0,0.7793815051701424,4.759306545254738
15,3,1.0,0.8269745706226898,0.0
15,3,0.75,0.8256952197408406,0.12793508818491617
15,3,0.5,0.8186336164748632,0.834095414782654
15,3,0.25,0.7888803264279491,3.809424419474061
15,3,0.0,0.7422899734996276,8.46845971230622
15,4,1.0,0.8269745706226898,0.0
15,4,0.75,0.8424647173232522,-1.549014670056248
15,4,0.5,0.8416920634127324,-1.471749279004264
15,4,0.25,0.7993483327389765,2.762623788371321
15,4,0.0,0.7529001343639542,7.407443625873555
15,5,1.0,0.8269745706226898,0.0
15,5,0.75,0.7526939157862131,7.428065483647661
15,5,0.5,0.677719609646942,14.925496097574776
15,5,0.25,0.5520038529356417,27.497071768704807
15,5,0.0,0.4325500557736366,39.44245148490532
15,6,1.0,0.8269745706226898,0.0
15,6,0.75,0.8166920380314886,1.0282532591201154
15,6,0.5,0.8030041848223666,2.397038580032318
15,6,0.25,0.7697912083425621,5.718336228012766
15,6,0.0,0.7566082886909895,7.036628193170024
15,7,1.0,0.8269745706226898,0.0
15,7,0.75,0.8137117086381087,1.3262861984581042
15,7,0.5,0.7811822541091061,4.579231651358362
15,7,0.25,0.748868828917641,7.81057417050488
15,7,0.0,0.7291441500142538,9.783042060843595
15,8,1.0,0.8269745706226898,0.0
15,8,0.75,0.839357025518384,-1.2382454895694228
15,8,0.5,0.8163908392553776,1.0583731367312166
15,8,0.25,0.7908763007357189,3.6098269886970846
15,8,0.0,0.7617284077924509,6.524616283023887
16,0,1.0,0.8347108490956276,0.0
16,0,0.75,0.8175000868945308,1.7210762201096852
16,0,0.5,0.7922635486877201,4.244730040790756
16,0,0.25,0.7386538423094028,9.605700678622487
16,0,0.0,0.6816473284540254,15.306352064160222
16,1,1.0,0.8347108490956276,0.0
16,1,0.75,0.8444669899324215,-0.9756140836793881
16,1,0.5,0.851187618824605,-1.647676972897738
16,1,0.25,0.8377051649952537,-0.29943158996260655
16,1,0.0,0.7967522110233518,3.795863807227584
16,2,1.0,0.8347108490956276,0.0
16,2,0.75,0.8273680060415004,0.7342843054127246
16,2,0.5,0.7954075215779333,3.9303327517694386
16,2,0.25,0.7741683302382638,6.054251885736384
16,2,0.0,0.73955034048492,9.516050861070768
16,3,1.0,0.8347108490956276,0.0
16,3,0.75,0.8287680865223106,0.5942762573317051
16,3,0.5,0.8254763621962034,0.9234486899424299
16,3,0.25,0.8149835942867104,1.9727254808917238
16,3,0.0,0.7968812323925932,3.782961670303442
16,4,1.0,0.8347108490956276,0.0
16,4,0.75,0.7895391866659587,4.517166242966897
16,4,0.5,0.7467108246961318,8.800002439949584
16,4,0.25,0.7052868069969149,12.942404209871272
16,4,0.0,0.6703783753583796,16.433247373724804
16,5,1.0,0.8347108490956276,0.0
16,5,0.75,0.7526000999937462,8.211074910188144
16,5,0.5,0.6924036087843829,14.230724031124476
16,5,0.25,0.6281314856237008,20.657936347192685
16,5,0.0,0.6137424884992264,22.096836059640125
16,6,1.0,0.8347108490956276,0.0
16,6,0.75,0.8243781765082294,1.0332672587398228
16,6,0.5,0.8093371518956991,2.5373697199928547
16,6,0.25,0.8037656602750465,3.094518882058117
16,6,0.0,0.7953365997448444,3.9374249350783264
16,7,1.0,0.8347108490956276,0.0
16,7,0.75,0.8524844574508726,-1.7773608355244996
16,7,0.5,0.8413937241201086,-0.668287502448095
16,7,0.25,0.7769759265268461,5.773492256878154
16,7,0.0,0.7303638285200738,10.43470205755539
16,8,1.0,0.8347108490956276,0.0
16,8,0.75,0.8427382748125349,-0.8027425716907288
16,8,0.5,0.8472563051481212,-1.2545456052493575
16,8,0.25,0.8379618714240182,-0.3251022328390585
16,8,0.0,0.8050702674515519,2.964058164407579
17,0,1.0,0.7516214398890606,0.0
17,0,0.75,0.7435414894903467,0.8079950398713898
17,0,0.5,0.7314262063423893,2.01952335466713
17,0,0.25,0.6941346989528725,5.748674093618811
17,0,0.0,0.6385419482740003,11.307949161506025
17,1,1.0,0.7516214398890606,0.0
17,1,0.75,0.7486961723095036,0.29252675795570227
17,1,0.5,0.750177596841592,0.14438430474685848
17,1,0.25,0.7416033132223043,1.0018126666756277
17,1,0.0,0.7136538505404274,3.79675893486332
17,2,1.0,0.7516214398890606,0.0
17,2,0.75,0.7429673298423642,0.8654110046696362
17,2,0.5,0.7286189873446177,2.3002452544442886
17,2,0.25,0.6797887277951933,7.183271209386732
17,2,0.0,0.5598475724167443,19.17738674723163
17,3,1.0,0.7516214398890606,0.0
17,3,0.75,0.749785682486169,0.1835757402891658
17,3,0.5,0.7492223560596518,0.2399083829408788
17,3,0.25,0.7384278012161452,1.3193638672915453
17,3,0.0,0.7183482738247731,3.327316606428754
17,4,1.0,0.7516214398890606,0.0
17,4,0.75,0.7487941712632612,0.2827268625799406
17,4,0.5,0.7216767513293081,2.994468855975252
17,4,0.25,0.6891690362457683,6.24524036432923
17,4,0.0,0.6791951137884873,7.242632610057331
17,5,1.0,0.7516214398890606,0.0
17,5,0.75,0.7362187996910636,1.5402640197996975
17,5,0.5,0.6751243650451103,7.64970748439503
17,5,0.25,0.6252371978299516,12.638424205910903
17,5,0.0,0.5730090607650901,17.861237912397055
17,6,1.0,0.7516214398890606,0.0
17,6,0.75,0.7522668638782286,-0.06454239891680036
17,6,0.5,0.7458254647733326,0.5795975115728047
17,6,0.25,0.7394213189458547,1.2200120943205883
17,6,0.0,0.7326191117363428,1.9002328152717851
17,7,1.0,0.7516214398890606,0.0
17,7,0.75,0.7449594635581896,0.6661976330870956
17,7,0.5,0.7368597121538765,1.4761727735184138
17,7,0.25,0.7164982026055826,3.5123237283477993
17,7,0.0,0.6927818865253147,5.883955336374591
17,8,1.0,0.7516214398890606,0.0
17,8,0.75,0.7616462917397289,-1.002485185066826
17,8,0.5,0.7717161518864426,-2.0094711997381998
17,8,0.25,0.7293142275979805,2.2307212291080125
17,8,0.0,0.6720962688138722,7.952517107518842
18,0,1.0,0.7414810397577964,0.0
18,0,0.75,0.7271160316007614,1.4365008157035009
18,0,0.5,0.7087945156470723,3.2686524110724147
18,0,0.25,0.7032411679470503,3.8239871810746173
18,0,0.0,0.6929588371900547,4.852220256774176
18,1,1.0,0.7414810397577964,0.0
18,1,0.75,0.7248749678348944,1.6606071922902088
18,1,0.5,0.7208565578160832,2.062448194171329
18,1,0.25,0.7077728175824423,3.3708222175354186
18,1,0.0,0.6816737119730379,5.980732778475851
18,2,1.0,0.7414810397577964,0.0
18,2,0.75,0.7164922617417099,2.4988778016086566
18,2,0.5,0.7042006359699993,3.728040378779718
18,2,0.25,0.6916920226451202,4.978901711267625
18,2,0.0,0.6648357150348508,7.66453247229456
18,3,1.0,0.7414810397577964,0.0
18,3,0.75,0.6993549472793357,4.2126092478460775
18,3,0.5,0.6599539980288919,8.152704172890457
18,3,0.25,0.6145266564002905,12.695438335750598
18,3,0.0,0.5705017110456166,17.09793287121798
18,4,1.0,0.7414810397577964,0.0
18,4,0.75,0.7469082091881086,-0.5427169430312184
18,4,0.5,0.7247500980081056,1.6730941749690809
18,4,0.25,0.6921410186565612,4.934002110123526
18,4,0.0,0.6367890038355835,10.469203592221298
18,5,1.0,0.7414810397577964,0.0
18,5,0.75,0.7375632413143031,0.3917798443493381
18,5,0.5,0.6617330099601425,7.9748029797653945
18,5,0.25,0.5698213434032083,17.16596963545881
18,5,0.0,0.5298968721010615,21.158416765673493
18,6,1.0,0.7414810397577964,0.0
18,6,0.75,0.7471122201688194,-0.5631180411022951
18,6,0.5,0.7614984403872365,-2.001740062944002
18,6,0.25,0.7697489387954579,-2.826789903766147
18,6,0.0,0.7654525711119258,-2.3971531354129327
18,7,1.0,0.7414810397577964,0.0
18,7,0.75,0.7238237807552875,1.7657259002508918
18,7,0.5,0.7101320112709296,3.1349028486866826
18,7,0.25,0.687628469467112,5.3852570290684465
18,7,0.0,0.6722790217317611,6.920201802603532
18,8,1.0,0.7414810397577964,0.0
18,8,0.75,0.7251525664875312,1.632847327026521
18,8,0.5,0.706220593440719,3.5260446317077476
18,8,0.25,0.6623015644871862,7.9179475270610205
18,8,0.0,0.6583288211733269,8.315221858446954
19,0,1.0,0.8364363208789638,0.0
19,0,0.75,0.8502061323889352,-1.3769811509971364
19,0,0.5,0.8438458623949256,-0.7409541515961848
19,0,0.25,0.8279850824675995,0.8451238411364304
19,0,0.0,0.7849490554354984,5.1487265443465375
19,1,1.0,0.8364363208789638,0.0
19,1,0.75,0.841820880810167,-0.5384559931203237
19,1,0.5,0.8012513648243391,3.5184956054624683
19,1,0.25,0.7683100865044337,6.812623437453014
19,1,0.0,0.7627404200264374,7.369590085252642
19,2,1.0,0.8364363208789638,0.0
19,2,0.75,0.8347786537798673,0.1657667099096538
19,2,0.5,0.8367357786289322,-0.029945774996842367
19,2,0.25,0.8181353205647104,1.8301000314253413
19,2,0.0,0.7742180562965787,6.22182645823851
19,3,1.0,0.8364363208789638,0.0
19,3,0.75,0.8189419935977139,1.7494327281249888
19,3,0.5,0.7359426371917788,10.049368368718504
19,3,0.25,0.6480162438563795,18.842007702258435
19,3,0.0,0.5875510589041892,24.888526197477457
19,4,1.0,0.8364363208789638,0.0
19,4,0.75,0.838307864710956,-0.1871543831992173
19,4,0.5,0.8413427750256999,-0.4906454146736072
19,4,0.25,0.7776624431239025,5.877387775506127
19,4,0.0,0.724512727245385,11.192359363357884
19,5,1.0,0.8364363208789638,0.0
19,5,0.75,0.817347573428391,1.9088747450572763
19,5,0.5,0.7478852656463495,8.85510552326143
19,5,0.25,0.6838821364639125,15.255418441505132
19,5,0.0,0.6258015880013157,21.06347328776481
19,6,1.0,0.8364363208789638,0.0
19,6,0.75,0.8472192669769307,-1.0782946097966928
19,6,0.5,0.8608137896521464,-2.4377468773182587
19,6,0.25,0.8616802213673862,-2.52439004884224
19,6,0.0,0.8525700585629364,-1.6133737683972638
19,7,1.0,0.8364363208789638,0.0
19,7,0.75,0.8323496220754611,0.4086698803502653
19,7,0.5,0.8315902621281712,0.4846058750792581
19,7,0.25,0.7787343604829304,5.770196039603337
19,7,0.0,0.6895084254977841,14.692789538117967
19,8,1.0,0.8364363208789638,0.0
19,8,0.75,0.8424367135336075,-0.6000392654643694
19,8,0.5,0.8157419903169933,2.0694330561970453
19,8,0.25,0.7797838229948372,5.6652497884126625
19,8,0.0,0.6987733881770837,13.766293270188012
20,0,1.0,0.7766091331804914,0.0
20,0,0.75,0.7834072544613307,-0.6798121280839342
20,0,0.5,0.7719383859409323,0.467074723955907
20,0,0.25,0.7329524940492302,4.365663913126117
20,0,0.0,0.6885130516715238,8.809608150896764
20,1,1.0,0.7766091331804914,0.0
20,1,0.75,0.7236786228165332,5.293051036395823
20,1,0.5,0.6927398272182487,8.386930596224273
20,1,0.25,0.6786766725350373,9.793246064545414
20,1,0.0,0.6649006902042421,11.170844297624926
20,2,1.0,0.7766091331804914,0.0
20,2,0.75,0.7477839588587252,2.8825174321766234
20,2,0.5,0.7448035372636139,3.1805595916877483
20,2,0.25,0.6949005536354327,8.170857954505873
20,2,0.0,0.6755373015183236,10.107183166216782
20,3,1.0,0.7766091331804914,0.0
20,3,0.75,0.7544680773131328,2.2141055867358594
20,3,0.5,0.7365181222003666,4.009101098012479
20,3,0.25,0.7228720776185751,5.3737055561916325
20,3,0.0,0.7256303277896855,5.09788053908059
20,4,1.0,0.7766091331804914,0.0
20,4,0.75,0.7948499591313155,-1.8240825950824102
20,4,0.5,0.7847809861945481,-0.8171853014056651
20,4,0.25,0.7352034242137719,4.140570896671947
20,4,0.0,0.6749408760633546,10.166825711713678
20,5,1.0,0.7766091331804914,0.0
20,5,0.75,0.7680947110801613,0.8514422100330155
20,5,0.5,0.749680670421553,2.6928462758938454
20,5,0.25,0.7042515669233227,7.2357566257168715
20,5,0.0,0.6526454575248644,12.396367565562706
20,6,1.0,0.7766091331804914,0.0
20,6,0.75,0.7538662828068485,2.2742850373642876
20,6,0.5,0.7366729474519071,3.993618572858426
20,6,0.25,0.7277250051099498,4.8884128070541655
20,6,0.0,0.7282758882755446,4.833324490494684
20,7,1.0,0.7766091331804914,0.0
20,7,0.75,0.7365504946554814,4.005863852501001
20,7,0.5,0.7175715442132833,5.903758896720812
20,7,0.25,0.6941716843394757,8.243744884101567
20,7,0.0,0.6780257104272291,9.858342275326226
20,8,1.0,0.7766091331804914,0.0
20,8,0.75,0.7615936989769839,1.5015434203507483
20,8,0.5,0.7427011255774908,3.390800760300061
20,8,0.25,0.7161772532642953,6.0431879916196145
20,8,0.0,0.6945611039612735,8.204802921921795
21,0,1.0,0.79689381485689,0.0
21,0,0.75,0.7709925566040674,2.5901258252822634
21,0,0.5,0.7278662506398029,6.902756421708711
21,0,0.25,0.7008840481755034,9.60097666813866
21,0,0.0,0.6491923488250336,14.77014660318564
21,1,1.0,0.79689381485689,0.0
21,1,0.75,0.7769340486387507,1.995976621813933
21,1,0.5,0.7571701931868349,3.9723621670055165
21,1,0.25,0.7327494761698767,6.41443386870133
21,1,0.0,0.7100242248639304,8.686958999295967
21,2,1.0,0.79689381485689,0.0
21,2,0.75,0.8081491047035705,-1.125528984668045
21,2,0.5,0.7920513570707151,0.48424577861749807
21,2,0.25,0.7817301079674082,1.5163706889481876
21,2,0.0,0.7362649663823067,6.0628848474583386
21,3,1.0,0.79689381485689,0.0
21,3,0.75,0.778221306057127,1.867250879976301
21,3,0.5,0.7736871147759454,2.320670008094461
21,3,0.25,0.7793375686521959,1.7556246204694093
21,3,0.0,0.7590921317119175,3.7801683144972564
21,4,1.0,0.79689381485689,0.0
21,4,0.75,0.8090102647235635,-1.2116449866673484
21,4,0.5,0.8109554362745367,-1.4061621417646664
21,4,0.25,0.8116683006900673,-1.4774485833177309
21,4,0.0,0.7894417543229386,0.7452060533951421
21,5,1.0,0.79689381485689,0.0
21,5,0.75,0.7975677797106369,-0.06739648537468224
21,5,0.5,0.770650089934823,2.6243724922067058
21,5,0.25,0.7203323298717419,7.656148498514814
21,5,0.0,0.6686552155114642,12.82385993454258
21,6,1.0,0.79689381485689,0.0
21,6,0.75,0.7995816113819845,-0.26877965250944325
21,6,0.5,0.7950950969952226,0.17987178616674093
21,6,0.25,0.8007877078109037,-0.3893892954013656
21,6,0.0,0.7911964415202708,0.5697373336619238
21,7,1.0,0.79689381485689,0.0
21,7,0.75,0.7980707851803319,-0.11769703234418838
21,7,0.5,0.8058768642457211,-0.8983049388831099
21,7,0.25,0.8035779346150443,-0.6684119758154305
21,7,0.0,0.7914604155679319,0.5433399288958141
21,8,1.0,0.79689381485689,0.0
21,8,0.75,0.7963780906040524,0.05157242528376349
21,8,0.5,0.790929231363516,0.5964583493374032
21,8,0.25,0.7614584295256563,3.5435385331233693
21,8,0.0,0.7227269724387066,7.416684241818339
22,0,1.0,0.6882565319894095,0.0
22,0,0.75,0.696390497160187,-0.8133965170777469
22,0,0.5,0.6820515016558182,0.6205030333591322
22,0,0.25,0.631298101800642,5.6958430188767455
22,0,0.0,0.49655386650358246,19.170266548582703
22,1,1.0,0.6882565319894095,0.0
22,1,0.75,0.6985853060820923,-1.0328774092682846
22,1,0.5,0.7079090967588312,-1.9652564769421677
22,1,0.25,0.6894823089679235,-0.12257769785140038
22,1,0.0,0.6658445000088042,2.2412031980605263
22,2,1.0,0.6882565319894095,0.0
22,2,0.75,0.6867683121704611,0.1488219818948422
22,2,0.5,0.6890237631840123,-0.07672311946027577
22,2,0.25,0.6804155834509757,0.7840948538433756
22,2,0.0,0.6109097065815877,7.734682540782178
22,3,1.0,0.6882565319894095,0.0
22,3,0.75,0.6765567588586415,1.1699773130767976
22,3,0.5,0.6523924122715538,3.5864119717855747
22,3,0.25,0.5173025280157486,17.095400397366088
22,3,0.0,0.5033725256223234,18.48840063670861
22,4,1.0,0.6882565319894095,0.0
22,4,0.75,0.6811279249094063,0.712860708000318
22,4,0.5,0.6829387603213157,0.5317771668093774
22,4,0.25,0.6584614945945869,2.9795037394822588
22,4,0.0,0.6218044442758367,6.6452087713572805
22,5,1.0,0.6882565319894095,0.0
22,5,0.75,0.6475380989578561,4.071843303155342
22,5,0.5,0.6266243361475737,6.163219584183577
22,5,0.25,0.5771600076630423,11.109652432636718
22,5,0.0,0.4696825236516705,21.857400833773898
22,6,1.0,0.6882565319894095,0.0
22,6,0.75,0.6940696437726284,-0.5813111783218861
22,6,0.5,0.6900184194406509,-0.1761887451241395
22,6,0.25,0.6715898877942117,1.666664419519781
22,6,0.0,0.6580485935262902,3.020793846311931
22,7,1.0,0.6882565319894095,0.0
22,7,0.75,0.6572775974779248,3.09789345114847
22,7,0.5,0.6571033529622403,3.1153179027169187
22,7,0.25,0.6319624263753898,5.62941056140197
22,7,0.0,0.5646894224532282,12.356710953618133
22,8,1.0,0.6882565319894095,0.0
22,8,0.75,0.6926577113314546,-0.4401179342045092
22,8,0.5,0.6907742159484915,-0.2517683959082029
22,8,0.25,0.662298517053539,2.5958014935870466
22,8,0.0,0.5992732008349708,8.898333115443869
23,0,1.0,0.6581892567258144,0.0
23,0,0.75,0.6328024773595076,2.5386779366306844
23,0,0.5,0.6247497435933267,3.343951313248772
23,0,0.25,0.622217527764365,3.59717289614494
23,0,0.0,0.6111933981249681,4.699585860084632
23,1,1.0,0.6581892567258144,0.0
23,1,0.75,0.652978671635388,0.5210585090426378
23,1,0.5,0.6606772364042478,-0.2487979678433394
23,1,0.25,0.6471373806362699,1.10518760895445
23,1,0.0,0.6325960784816551,2.55931782441593
23,2,1.0,0.6581892567258144,0.0
23,2,0.75,0.6746241052817293,-1.6434848555914927
23,2,0.5,0.6962451759711102,-3.8055919245295833
23,2,0.25,0.6877317425938358,-2.954248586802144
23,2,0.0,0.6486875201396277,0.9501736586186693
23,3,1.0,0.6581892567258144,0.0
23,3,0.75,0.6459751786903668,1.2214078035447606
23,3,0.5,0.6555038171335897,0.268543959222467
23,3,0.25,0.6456063432850978,1.2582913440716603
23,3,0.0,0.6469777408637873,1.1211515862027066
23,4,1.0,0.6581892567258144,0.0
23,4,0.75,0.6479684088322346,1.0220847893579799
23,4,0.5,0.6373818247739821,2.0807431951832323
23,4,0.25,0.6030804458822698,5.510881084354457
23,4,0.0,0.5711671814051689,8.702207532064554
23,5,1.0,0.6581892567258144,0.0
23,5,0.75,0.6446959572031029,1.34932995227115
23,5,0.5,0.6277229306830187,3.0466326042795755
23,5,0.25,0.5851109742352059,7.307828249060854
23,5,0.0,0.5041314636569931,15.405779306882128
23,6,1.0,0.6581892567258144,0.0
23,6,0.75,0.6508707853268927,0.7318471398921722
23,6,0.5,0.6606175631267476,-0.24283064009331667
23,6,0.25,0.6575572869345594,0.0631969791255016
23,6,0.0,0.6539792022334641,0.4210054492350346
23,7,1.0,0.6581892567258144,0.0
23,7,0.75,0.6376027992952077,2.058645743060672
23,7,0.5,0.629173748866848,2.901550785896645
23,7,0.25,0.5982622184863098,5.992703823950462
23,7,0.0,0.5626807170156818,9.550853971013263
23,8,1.0,0.6581892567258144,0.0
23,8,0.75,0.6354793399241457,2.2709916801668673
23,8,0.5,0.6151657057825651,4.302355094324928
23,8,0.25,0.6096695599194003,4.85196968064141
23,8,0.0,0.5892986980966899,6.889055862912452
24,0,1.0,0.7384519858204068,0.0
24,0,0.75,0.7311538558056664,0.7298130014740445
24,0,0.5,0.7064671603976995,3.198482542270731
24,0,0.25,0.6795600268293893,5.889195899101751
24,0,0.0,0.6544707712147845,8.398121460562235
24,1,1.0,0.7384519858204068,0.0
24,1,0.75,0.7171880787508448,2.126390706956205
24,1,0.5,0.7023783032594313,3.607368256097554
24,1,0.25,0.6754146083274524,6.303737749295446
24,1,0.0,0.6793092202483773,5.914276557202958
24,2,1.0,0.7384519858204068,0.0
24,2,0.75,0.7382780211767117,0.017396464369512366
24,2,0.5,0.7167697105187153,2.1682275301691534
24,2,0.25,0.7026091103692687,3.584287545113818
24,2,0.0,0.6423097043487825,9.614228147162429
24,3,1.0,0.7384519858204068,0.0
24,3,0.75,0.7551859207217276,-1.6733934901320802
24,3,0.5,0.7713712629277163,-3.2919277107309464
24,3,0.25,0.7690997411599748,-3.0647755339567984
24,3,0.0,0.7571085012059423,-1.8656515385535477
24,4,1.0,0.7384519858204068,0.0
24,4,0.75,0.7472554285054285,-0.8803442685021645
24,4,0.5,0.7085750487191409,2.9876937101265932
24,4,0.25,0.6739200985837058,6.453188723670101
24,4,0.0,0.610748586404845,12.770339941556186
24,5,1.0,0.7384519858204068,0.0
24,5,0.75,0.696919432088712,4.153255373169484
24,5,0.5,0.6407615998893763,9.769038593103051
24,5,0.25,0.5543556094938238,18.409637632658303
24,5,0.0,0.47842831362875315,26.002367219165368
24,6,1.0,0.7384519858204068,0.0
24,6,0.75,0.7495298367502363,-1.1077850929829491
24,6,0.5,0.7374519895732894,0.09999962471174406
24,6,0.25,0.715768106014647,2.268387980575981
24,6,0.0,0.6889814544206067,4.947053139980017
24,7,1.0,0.7384519858204068,0.0
24,7,0.75,0.7410194743171548,-0.2567488496747927
24,7,0.5,0.7232783322836878,1.5173653536719067
24,7,0.25,0.7041320786014119,3.4319907218994916
24,7,0.0,0.6353228715728716,10.312911424753523
24,8,1.0,0.7384519858204068,0.0
24,8,0.75,0.7204685336674892,1.7983452152917634
24,8,0.5,0.7114341171778583,2.7017868642548515
24,8,0.25,0.6952326079297759,4.321937789063091
24,8,0.0,0.662293680773265,7.615830504714182
25,0,1.0,0.7920117864061014,0.0
25,0,0.75,0.7751175698253494,1.6894216580751964
25,0,0.5,0.7577843228258678,3.422746358023354
25,0,0.25,0.7507260027475049,4.1285783658596475
25,0,0.0,0.7262259514593101,6.578583494679124
25,1,1.0,0.7920117864061014,0.0
25,1,0.75,0.820661114725332,-2.8649328319230616
25,1,0.5,0.8020144625244777,-1.0002676118376352
25,1,0.25,0.7697009870943288,2.23107993117726
25,1,0.0,0.7519811215491438,4.003066485695761
25,2,1.0,0.7920117864061014,0.0
25,2,0.75,0.7860706660356442,0.5941120370457131
25,2,0.5,0.7648030772117459,2.7208709194355474
25,2,0.25,0.7347462571737011,5.726552923240025
25,2,0.0,0.6940331234478554,9.797866295824598
25,3,1.0,0.7920117864061014,0.0
25,3,0.75,0.7796732990251,1.2338487381001406
25,3,0.5,0.7628654181071146,2.914636829898676
25,3,0.25,0.712381484553945,7.963030185215636
25,3,0.0,0.6775386314585069,11.447315494759447
25,4,1.0,0.7920117864061014,0.0
25,4,0.75,0.7706894376716589,2.13223487344425
25,4,0.5,0.7538069922049171,3.820479420118428
25,4,0.25,0.7326959498429916,5.931583656310979
25,4,0.0,0.7046140844916609,8.739770191444052
25,5,1.0,0.7920117864061014,0.0
25,5,0.75,0.7651154674314865,2.6896318974614863
25,5,0.5,0.6895793614213156,10.243242498478578
25,5,0.25,0.652216108604212,13.97956778018894
25,5,0.0,0.5635803190898994,22.8431467316202
25,6,1.0,0.7920117864061014,0.0
25,6,0.75,0.7988738017587685,-0.6862015352667172
25,6,0.5,0.8020835916510156,-1.0071805244914245
25,6,0.25,0.8070396483439961,-1.5027861937894738
25,6,0.0,0.8073093908710347,-1.5297604464933334
25,7,1.0,0.7920117864061014,0.0
25,7,0.75,0.7956044398008685,-0.3592653394767109
25,7,0.5,0.7811181833180046,1.0893603088096726
25,7,0.25,0.7469254314858405,4.508635492026092
25,7,0.0,0.712601281909195,7.941050449690634
25,8,1.0,0.7920117864061014,0.0
25,8,0.75,0.810904393241288,-1.8892606835186676
25,8,0.5,0.8148848203590479,-2.2873033952946487
25,8,0.25,0.8001550571192845,-0.8143270713183104
25,8,0.0,0.7713664962008521,2.06452902052493
26,0,1.0,0.7266528092919866,0.0
26,0,0.75,0.7297254550150036,-0.307264572301702
26,0,0.5,0.7200250655438254,0.6627743748161219
26,0,0.25,0.6907818193054676,3.5870989986519053
26,0,0.0,0.666706085395776,5.9946723896210585
26,1,1.0,0.7266528092919866,0.0
26,1,0.75,0.7299552214797763,-0.3302412187789705
26,1,0.5,0.7286857154993082,-0.20329062073215498
26,1,0.25,0.6981280247436209,2.852478454836571
26,1,0.0,0.6860263377698802,4.062647152210641
26,2,1.0,0.7266528092919866,0.0
26,2,0.75,0.7228224081868604,0.38304011051262243
26,2,0.5,0.7357634957791771,-0.9110686487190489
26,2,0.25,0.6766893122606852,4.996349703130143
26,2,0.0,0.6094597018024468,11.719310748953982
26,3,1.0,0.7266528092919866,0.0
26,3,0.75,0.7359811217578816,-0.9328312465894939
26,3,0.5,0.739325466314547,-1.2672657022560374
26,3,0.25,0.7347399286843864,-0.8087119392399811
26,3,0.0,0.7233889007933855,0.32639084986011424
26,4,1.0,0.7266528092919866,0.0
26,4,0.75,0.72711811396923,-0.04653046772433722
26,4,0.5,0.7086008430839723,1.8051966208014303
26,4,0.25,0.6828674238023406,4.378538548964606
26,4,0.0,0.6285274720362246,9.8125337255762
26,5,1.0,0.7266528092919866,0.0
26,5,0.75,0.7226311468481815,0.4021662443805085
26,5,0.5,0.627441272515359,9.921153677662764
26,5,0.25,0.5630885721408325,16.356423715115408
26,5,0.0,0.4779319900473893,24.87208192445973
26,6,1.0,0.7266528092919866,0.0
26,6,0.75,0.7230664911679632,0.35863181240234354
26,6,0.5,0.7214721332448952,0.5180676047091382
26,6,0.25,0.7167471391156003,0.9905670176386328
26,6,0.0,0.7232527388415477,0.34000704504388857
26,7,1.0,0.7266528092919866,0.0
26,7,0.75,0.7486163392289313,-2.1963529936944726
26,7,0.5,0.7583623771959805,-3.170956790399393
26,7,0.25,0.7388330060743854,-1.218019678239879
26,7,0.0,0.7201006490288933,0.6552160263093354
26,8,1.0,0.7266528092919866,0.0
26,8,0.75,0.733059602637092,-0.640679334510541
26,8,0.5,0.7106979904724142,1.5954818819572392
26,8,0.25,0.6897450413187082,3.690776797327844
26,8,0.0,0.6441616246161515,8.249118467583516
27,0,1.0,0.8143284053664619,0.0
27,0,0.75,0.8198513400756775,-0.552293470921561
27,0,0.5,0.8132808254731443,0.10475798933176073
27,0,0.25,0.7875803610852237,2.6748044281238226
27,0,0.0,0.7409161272636602,7.341227810280171
27,1,1.0,0.8143284053664619,0.0
27,1,0.75,0.7946888415638416,1.963956380262033
27,1,0.5,0.7943596844332138,1.9968720933248085
27,1,0.25,0.7916369293400354,2.2691476026426516
27,1,0.0,0.7762529678029981,3.8075437563463765
27,2,1.0,0.8143284053664619,0.0
27,2,0.75,0.8035823066286593,1.0746098737802634
27,2,0.5,0.7816492719179323,3.2679133448529574
27,2,0.25,0.7685884448556126,4.573996051084928
27,2,0.0,0.7110997314250319,10.322867394142998
27,3,1.0,0.8143284053664619,0.0
27,3,0.75,0.8133843459112904,0.09440594551715087
27,3,0.5,0.7870438308376231,2.728457452883881
27,3,0.25,0.7743631018350513,3.996530353141059
27,3,0.0,0.7603803831167122,5.3948022249749705
27,4,1.0,0.8143284053664619,0.0
27,4,0.75,0.8141398135053104,0.018859186115149917
27,4,0.5,0.7900634892038326,2.426491616262927
27,4,0.25,0.7301418039208147,8.418660144564715
27,4,0.0,0.6561196024112761,15.820880295518581
27,5,1.0,0.8143284053664619,0.0
27,5,0.75,0.7891482185106183,2.5180186855843556
27,5,0.5,0.6878448032979508,12.648360206851105
27,5,0.25,0.6216395071946295,19.268889817183243
27,5,0.0,0.5596427655972873,25.46856397691746
27,6,1.0,0.8143284053664619,0.0
27,6,0.75,0.8169989982743604,-0.2670592907898506
27,6,0.5,0.8082590523019186,0.6069353064543259
27,6,0.25,0.8119370513306368,0.23913540358251328
27,6,0.0,0.8033302342378185,1.099817112864343
27,7,1.0,0.8143284053664619,0.0
27,7,0.75,0.8098000499182967,0.4528355448165211
27,7,0.5,0.8012319862505706,1.3096419115891322
27,7,0.25,0.7050983908179471,10.923001454851477
27,7,0.0,0.6180113568757437,19.631704849071816
27,8,1.0,0.8143284053664619,0.0
27,8,0.75,0.819832424441751,-0.5504019075289079
27,8,0.5,0.8402895516197766,-2.5961146253314693
27,8,0.25,0.850398545757804,-3.6070140391342154
27,8,0.0,0.8363063638485042,-2.1977958482042315
28,0,1.0,0.7406665128468303,0.0
28,0,0.75,0.7817718134440887,-4.110530059725848
28,0,0.5,0.8095257398612103,-6.885922701438007
28,0,0.25,0.8037279342222514,-6.306142137542114
28,0,0.0,0.7595250158515444,-1.8858503004714144
28,1,1.0,0.7406665128468303,0.0
28,1,0.75,0.7465804695271053,-0.5913956680275056
28,1,0.5,0.7421028723914115,-0.14363595445812116
28,1,0.25,0.744704154663658,-0.4037641816827753
28,1,0.0,0.7370992815764732,0.3567231270357074
28,2,1.0,0.7406665128468303,0.0
28,2,0.75,0.7319789247601842,0.8687588086646048
28,2,0.5,0.7299261453482498,1.0740367498580428
28,2,0.25,0.6996440368143169,4.102247603251341
28,2,0.0,0.6643837544279092,7.628275841892107
28,3,1.0,0.7406665128468303,0.0
28,3,0.75,0.754539073796002,-1.3872560949171775
28,3,0.5,0.7439819987592411,-0.33154859124108205
28,3,0.25,0.7354887061217381,0.517780672509216
28,3,0.0,0.7154248914426147,2.5241621404215597
28,4,1.0,0.7406665128468303,0.0
28,4,0.75,0.7138401893733062,2.6826323473524094
28,4,0.5,0.7072462790387397,3.342023380809056
28,4,0.25,0.6889558285610564,5.171068428577385
28,4,0.0,0.6797582996756466,6.090821317118367
28,5,1.0,0.7406665128468303,0.0
28,5,0.75,0.6834155908671556,5.725092197967463
28,5,0.5,0.6099933807929021,13.067313205392816
28,5,0.25,0.5706497902364607,17.00167226103696
28,5,0.0,0.5410357663006458,19.963074654618453
28,6,1.0,0.7406665128468303,0.0
28,6,0.75,0.7406119441977486,0.005456864908170989
28,6,0.5,0.7357073269304653,0.49591859163650165
28,6,0.25,0.7304421816947682,1.0224331152062116
28,6,0.0,0.7248894637377964,1.577704910903388
28,7,1.0,0.7406665128468303,0.0
28,7,0.75,0.7312914844984008,0.9375028348429515
28,7,0.5,0.723051377748168,1.7615135098662305
28,7,0.25,0.7151260421854181,2.5540470661412185
28,7,0.0,0.6877835442782538,5.288296856857643
28,8,1.0,0.7406665128468303,0.0
28,8,0.75,0.7436846983485003,-0.301818550166999
28,8,0.5,0.7496073763054328,-0.8940863458602566
28,8,0.25,0.7526502862257991,-1.1983773378968832
28,8,0.0,0.7032187984627652,3.7447714384065023
29,0,1.0,0.7903259965318661,0.0
29,0,0.75,0.7960225947306852,-0.569659819881907
29,0,0.5,0.8039605983499114,-1.3634601818045322
29,0,0.25,0.6960874817516812,9.423851478018486
29,0,0.0,0.5718956648664429,21.843033166542313
29,1,1.0,0.7903259965318661,0.0
29,1,0.75,0.7985588405952769,-0.8232844063410849
29,1,0.5,0.8067391624990866,-1.6413165967220533
29,1,0.25,0.7911564845547354,-0.08304880228693357
29,1,0.0,0.7613421535740432,2.898384295782286
29,2,1.0,0.7903259965318661,0.0
29,2,0.75,0.7966160900467469,-0.6290093514880857
29,2,0.5,0.8095962367674394,-1.9270240235573333
29,2,0.25,0.7746717867036713,1.5654209828194765
29,2,0.0,0.5812279852542225,20.90980112776436
29,3,1.0,0.7903259965318661,0.0
29,3,0.75,0.7855652038279551,0.4760792703910943
29,3,0.5,0.7739242176183663,1.640177891349981
29,3,0.25,0.7794059890041772,1.0920007527688846
29,3,0.0,0.76705745235157,2.3268544180296113
29,4,1.0,0.7903259965318661,0.0
29,4,0.75,0.7734327230978941,1.6893273433971956
29,4,0.5,0.7551108258239271,3.5215170707939003
29,4,0.25,0.7248132146026123,6.5512781929253805
29,4,0.0,0.704897384413803,8.542861211806308
29,5,1.0,0.7903259965318661,0.0
29,5,0.75,0.78720929916703,0.31166973648361074
29,5,0.5,0.763468448362061,2.6857548169805123
29,5,0.25,0.6883818914771296,10.19441050547365
29,5,0.0,0.6117548806847469,17.857111584711916
29,6,1.0,0.7903259965318661,0.0
29,6,0.75,0.7916963937007734,-0.13703971689073002
29,6,0.5,0.8008625478276764,-1.0536551295810326
29,6,0.25,0.7995712595005615,-0.9245262968695434
29,6,0.0,0.7862079834433238,0.4118013088542316
29,7,1.0,0.7903259965318661,0.0
29,7,0.75,0.8024430014116096,-1.2117004879743543
29,7,0.5,0.7907831768764183,-0.045718034455222156
29,7,0.25,0.7823804169490429,0.7945579582823159
29,7,0.0,0.7118544962209102,7.847150031095584
29,8,1.0,0.7903259965318661,0.0
29,8,0.75,0.7918549955879662,-0.15289990561001554
29,8,0.5,0.7890697685947766,0.12562279370894602
29,8,0.25,0.7372005616342185,5.312543489764754
29,8,0.0,0.6880053671100312,10.232062942183484
30,0,1.0,0.8326638399424384,0.0
30,0,0.75,0.8388923250680959,-0.6228485125657435
30,0,0.5,0.8525522515388444,-1.9888411596405975
30,0,0.25,0.8404025420653645,-0.7738702122926044
30,0,0.0,0.7872778233092451,4.53860166331933
30,1,1.0,0.8326638399424384,0.0
30,1,0.75,0.8129334657112435,1.9730374231194947
30,1,0.5,0.7843153668027631,4.834847313967527
30,1,0.25,0.7426217462353454,9.004209370709304
30,1,0.0,0.7006978802883975,13.19659596540409
30,2,1.0,0.8326638399424384,0.0
30,2,0.75,0.8143142753153779,1.83495646270605
30,2,0.5,0.7924859830709325,4.017785687150588
30,2,0.25,0.7721094937377578,6.055434620468059
30,2,0.0,0.7342836448908413,9.838019505159712
30,3,1.0,0.8326638399424384,0.0
30,3,0.75,0.8272034989632356,0.5460340979202782
30,3,0.5,0.8207006586196923,1.1963181322746097
30,3,0.25,0.8017266938077041,3.0937146134734306
30,3,0.0,0.7843164243046377,4.834741563780076
30,4,1.0,0.8326638399424384,0.0
30,4,0.75,0.8287909510010901,0.3872888941348296
30,4,0.5,0.8052926433485204,2.737119659391807
30,4,0.25,0.774956560907493,5.770727903494544
30,4,0.0,0.7414239195479069,9.123992039453155
30,5,1.0,0.8326638399424384,0.0
30,5,0.75,0.8239172118320721,0.8746628110366306
30,5,0.5,0.8070771578173529,2.5586682125085525
30,5,0.25,0.7337874094267955,9.887643051564288
30,5,0.0,0.6568250600387661,17.583877990367235
30,6,1.0,0.8326638399424384,0.0
30,6,0.75,0.8298365487373524,0.2827291205086069
30,6,0.5,0.8318291793647714,0.08346605776670124
30,6,0.25,0.8331981282218731,-0.05342882794346915
30,6,0.0,0.819498456180942,1.3165383761496452
30,7,1.0,0.8326638399424384,0.0
30,7,0.75,0.8425481483072155,-0.988430836477705
30,7,0.5,0.8283113250762398,0.4352514866198587
30,7,0.25,0.7661056923173407,6.65581476250977
30,7,0.0,0.7088845117147003,12.377932822773808
30,8,1.0,0.8326638399424384,0.0
30,8,0.75,0.8385022723309647,-0.5838432388526327
30,8,0.5,0.8234287766876025,0.9235063254835918
30,8,0.25,0.8195050190971875,1.3158820845250885
30,8,0.0,0.780326526179998,5.2337313762440445
31,0,1.0,0.7485679651615634,0.0
31,0,0.75,0.7465129875455485,0.2054977616014919
31,0,0.5,0.7248324529820797,2.3735512179483775
31,0,0.25,0.702235698505263,4.633226665630041
31,0,0.0,0.6499474311696769,9.862053399188653
31,1,1.0,0.7485679651615634,0.0
31,1,0.75,0.7538138293984509,-0.5245864236887443
31,1,0.5,0.7422134257410312,0.6354539420532213
31,1,0.25,0.7372984279918864,1.1269537169677046
31,1,0.0,0.7082361980564476,4.033176710511588
31,2,1.0,0.7485679651615634,0.0
31,2,0.75,0.7523017778443295,-0.3733812682766069
31,2,0.5,0.7399883296370654,0.857963552449803
31,2,0.25,0.6893809554772633,5.918700968430013
31,2,0.0,0.6328334692883633,11.573449587320017
31,3,1.0,0.7485679651615634,0.0
31,3,0.75,0.7550039339123282,-0.6435968750764798
31,3,0.5,0.7551774436020393,-0.660947844047588
31,3,0.25,0.7525692720350101,-0.4001306873446686
31,3,0.0,0.732437822118229,1.6130143043334377
31,4,1.0,0.7485679651615634,0.0
31,4,0.75,0.7612139397487757,-1.2645974587212283
31,4,0.5,0.7562945832512699,-0.7726618089706427
31,4,0.25,0.7224984143952801,2.6069550766283367
31,4,0.0,0.6899016661442446,5.866629901731879
31,5,1.0,0.7485679651615634,0.0
31,5,0.75,0.7461108550195004,0.2457110142063068
31,5,0.5,0.7159244741256936,3.264349103586983
31,5,0.25,0.6717454680949349,7.682249706662859
31,5,0.0,0.6253671354186059,12.320082974295754
31,6,1.0,0.7485679651615634,0.0
31,6,0.75,0.7548778042800386,-0.6309839118475158
31,6,0.5,0.7600892185014467,-1.1521253339883297
31,6,0.25,0.7599769853241936,-1.1409020162630124
31,6,0.0,0.7409733855887702,0.7594579572793192
31,7,1.0,0.7485679651615634,0.0
31,7,0.75,0.7313977373107626,1.71702278508008
31,7,0.5,0.7174294414728594,3.1138523688704067
31,7,0.25,0.6835224378436502,6.504552731791325
31,7,0.0,0.6383070598718394,11.026090528972398
31,8,1.0,0.7485679651615634,0.0
31,8,0.75,0.7494391606430006,-0.08711954814372147
31,8,0.5,0.705437455346511,4.31305098150524
31,8,0.25,0.6592299263398389,8.933803882172453
31,8,0.0,0.6246906783289775,12.387728683258592
32,0,1.0,0.8111902134697675,0.0
32,0,0.75,0.804791786043751,0.6398427426016484
32,0,0.5,0.7711599560521483,4.003025741761923
32,0,0.25,0.7499954841851763,6.119472928459125
32,0,0.0,0.7165249976249772,9.466521584479025
32,1,1.0,0.8111902134697675,0.0
32,1,0.75,0.820617500503253,-0.9427287033485499
32,1,0.5,0.7861953326145001,2.4994880855267354
32,1,0.25,0.7474835071420509,6.370670632771658
32,1,0.0,0.7179158723533792,9.327434111638834
32,2,1.0,0.8111902134697675,0.0
32,2,0.75,0.7971808021772927,1.4009411292474794
32,2,0.5,0.7755016354044514,3.568857806531611
32,2,0.25,0.7452288805138081,6.596133295595941
32,2,0.0,0.721442537089748,8.974767638001946
32,3,1.0,0.8111902134697675,0.0
32,3,0.75,0.8146787344935398,-0.3488521023772284
32,3,0.5,0.7945974780889979,1.6592735380769552
32,3,0.25,0.794861876016671,1.6328337453096475
32,3,0.0,0.7642880553988844,4.690215807088305
32,4,1.0,0.8111902134697675,0.0
32,4,0.75,0.7660932645156775,4.509694895409
32,4,0.5,0.727890998528741,8.329921494102654
32,4,0.25,0.6913602574182776,11.982995605148993
32,4,0.0,0.6413290505377403,16.986116293202723
32,5,1.0,0.8111902134697675,0.0
32,5,0.75,0.8103643701279077,0.08258433418597555
32,5,0.5,0.7388834625745784,7.230675089518912
32,5,0.25,0.6428337310903403,16.835648237942724
32,5,0.0,0.5909197260834869,22.027048738628064
32,6,1.0,0.8111902134697675,0.0
32,6,0.75,0.7894141787438189,2.177603472594858
32,6,0.5,0.7809666978940697,3.02235155756978
32,6,0.25,0.7688351289653634,4.235508450440406
32,6,0.0,0.7520128280130101,5.917738545675744
32,7,1.0,0.8111902134697675,0.0
32,7,0.75,0.7795529215150497,3.163729195471776
32,7,0.5,0.7810154759937776,3.0174737475989866
32,7,0.25,0.721108323237712,9.00818902320555
32,7,0.0,0.6640027020388111,14.718751143095643
32,8,1.0,0.8111902134697675,0.0
32,8,0.75,0.8036875506705231,0.7502662799244386
32,8,0.5,0.810728210183476,0.046200328629153464
32,8,0.25,0.7922450540153587,1.8945159454408778
32,8,0.0,0.7158255276603859,9.536468580938163
33,0,1.0,0.9196712591463804,0.0
33,0,0.75,0.9161031894648399,0.3568069681540442
33,0,0.5,0.9043263079792386,1.534495116714174
33,0,0.25,0.8781500312535766,4.1521227892803765
33,0,0.0,0.8008124159269412,11.885884321943918
33,1,1.0,0.9196712591463804,0.0
33,1,0.75,0.9164388028867657,0.3232456259614658
33,1,0.5,0.9057731540490161,1.3898105097364222
33,1,0.25,0.8867716896599472,3.2899569486433133
33,1,0.0,0.8354402158510554,8.423104329532494
33,2,1.0,0.9196712591463804,0.0
33,2,0.75,0.9199757022944556,-0.030444314807520634
33,2,0.5,0.9224191685326789,-0.27479093862985415
33,2,0.25,0.9098726546094966,0.9798604536883748
33,2,0.0,0.8754631865394197,4.420807260696069
33,3,1.0,0.9196712591463804,0.0
33,3,0.75,0.9281901790535912,-0.8518919907210876
33,3,0.5,0.9151463722685523,0.4524886877828038
33,3,0.25,0.9003319888847545,1.9339270261625852
33,3,0.0,0.8755390217818376,4.413223736454275
33,4,1.0,0.9196712591463804,0.0
33,4,0.75,0.9184012488488762,0.1270010297504176
33,4,0.5,0.9152576891161227,0.4413570030257663
33,4,0.25,0.8723602600181413,4.731099912823911
33,4,0.0,0.8487869697545977,7.088428939178271
33,5,1.0,0.9196712591463804,0.0
33,5,0.75,0.9113512949900503,0.8319964156330073
33,5,0.5,0.9049993045262116,1.4671954620168792
33,5,0.25,0.8911862293290544,2.8485029817325924
33,5,0.0,0.857514474266005,6.215678488037534
33,6,1.0,0.9196712591463804,0.0
33,6,0.75,0.9277623808960175,-0.8091121749637109
33,6,0.5,0.9240605786722291,-0.4389319525848756
33,6,0.25,0.9156349218727489,0.40363372736315073
33,6,0.0,0.8979806119683273,2.1690647178053024
33,7,1.0,0.9196712591463804,0.0
33,7,0.75,0.9194753467456601,0.019591240072025506
33,7,0.5,0.9104182235202979,0.9253035626082484
33,7,0.25,0.8775010921799913,4.217016696638909
33,7,0.0,0.7897137122055841,12.995754694079631
33,8,1.0,0.9196712591463804,0.0
33,8,0.75,0.9182967310148971,0.13745281314833102
33,8,0.5,0.9009140434712339,1.8757215675146433
33,8,0.25,0.8837980165554875,3.587324259089286
33,8,0.0,0.8188161572956263,10.085510185075409
34,0,1.0,0.84202146960909,0.0
34,0,0.75,0.8472300758818387,-0.5208606272748773
34,0,0.5,0.8336825694301367,0.8338900178953224
34,0,0.25,0.7838027341882916,5.821873542079836
34,0,0.0,0.7233272966219271,11.86941729871629
34,1,1.0,0.84202146960909,0.0
34,1,0.75,0.8267775500632163,1.5243919545873674
34,1,0.5,0.8093571633927166,3.2664306216373395
34,1,0.25,0.7945260533287403,4.7495416280349705
34,1,0.0,0.7640100468409933,7.801142276809669
34,2,1.0,0.84202146960909,0.0
34,2,0.75,0.8311950604391907,1.0826409169899298
34,2,0.5,0.8245673304883832,1.7454139120706813
34,2,0.25,0.8114174874242563,3.0603982184833622
34,2,0.0,0.7867241705946706,5.529729901441938
34,3,1.0,0.84202146960909,0.0
34,3,0.75,0.830315124511983,1.1706345097106996
34,3,0.5,0.8055271296640181,3.6494339945071896
34,3,0.25,0.7979535200809104,4.406794952817961
34,3,0.0,0.8022664570850258,3.9755012524064215
34,4,1.0,0.84202146960909,0.0
34,4,0.75,0.847104349358214,-0.5082879749124025
34,4,0.5,0.8153155827755316,2.6705886833558345
34,4,0.25,0.7859689130266914,5.6052556582398605
34,4,0.0,0.7654859118116443,7.65355577974457
34,5,1.0,0.84202146960909,0.0
34,5,0.75,0.8394244543768273,0.2597015232262634
34,5,0.5,0.8194559886149444,2.256548099414557
34,5,0.25,0.7807110706103048,6.131039899878521
34,5,0.0,0.7221701864015082,11.985128320758175
34,6,1.0,0.84202146960909,0.0
34,6,0.75,0.83828346104368,0.3738008565409956
34,6,0.5,0.8320736820808283,0.9947787528261642
34,6,0.25,0.8336157204014014,0.8405749207688551
34,6,0.0,0.7990863772128376,4.293509239625237
34,7,1.0,0.84202146960909,0.0
34,7,0.75,0.8409112852017507,0.1110184407339232
34,7,0.5,0.8380462857869528,0.39751838221371294
34,7,0.25,0.788435333809987,5.3586135799102985
34,7,0.0,0.7158245509458215,12.619691866326843
34,8,1.0,0.84202146960909,0.0
34,8,0.75,0.8405794719079025,0.14419977011874696
34,8,0.5,0.8338244877020253,0.8196981907064638
34,8,0.25,0.8181665581680078,2.3854911441082205
34,8,0.0,0.7758249162169526,6.619655339213737
35,0,1.0,0.6156207801170586,0.0
35,0,0.75,0.6108034240735195,0.4817356043539056
35,0,0.5,0.6170965239662783,-0.14757438492197794
35,0,0.25,0.6278310913341353,-1.221031121707672
35,0,0.0,0.6093509579339539,0.6269822183104679
35,1,1.0,0.6156207801170586,0.0
35,1,0.75,0.6265183864797365,-1.0897606362677892
35,1,0.5,0.6410813864175556,-2.546060630049707
35,1,0.25,0.6520986020482495,-3.647782193119098
35,1,0.0,0.6379406637945125,-2.2319883677453967
35,2,1.0,0.6156207801170586,0.0
35,2,0.75,0.6209506910921385,-0.5329910975079954
35,2,0.5,0.617700514373277,-0.2079734256218435
35,2,0.25,0.6164542271861421,-0.08334470690835039
35,2,0.0,0.6102240556299277,0.5396724487130911
35,3,1.0,0.6156207801170586,0.0
35,3,0.75,0.5926059558017276,2.3014824315330973
35,3,0.5,0.5880583282701154,2.756245184694317
35,3,0.25,0.5724999945732433,4.312078554381527
35,3,0.0,0.5572062132100666,5.841456690699198
35,4,1.0,0.6156207801170586,0.0
35,4,0.75,0.6153927700611703,0.02280100558882392
35,4,0.5,0.6095317289447514,0.608905117230718
35,4,0.25,0.6020063775409793,1.3614402576079265
35,4,0.0,0.5914192901791424,2.4201489937916154
35,5,1.0,0.6156207801170586,0.0
35,5,0.75,0.6115840661717027,0.4036713945355874
35,5,0.5,0.6098968253923621,0.5723954724696445
35,5,0.25,0.5965935838762746,1.9027196240783972
35,5,0.0,0.530876596528482,8.47441835885766
35,6,1.0,0.6156207801170586,0.0
35,6,0.75,0.6266364541342399,-1.1015674017181287
35,6,0.5,0.6311847155597156,-1.5563935442656995
35,6,0.25,0.6284885938761571,-1.2867813759098512
35,6,0.0,0.6189435990970619,-0.3322818980003306
35,7,1.0,0.6156207801170586,0.0
35,7,0.75,0.6172687419630901,-0.16479618460315537
35,7,0.5,0.6170937909900344,-0.14730108729757996
35,7,0.25,0.6154301841917952,0.019059592526338154
35,7,0.0,0.6074753954946417,0.8145384622416874
35,8,1.0,0.6156207801170586,0.0
35,8,0.75,0.6141585939975021,0.14621861195565078
35,8,0.5,0.6188671141033014,-0.32463339862428553
35,8,0.25,0.6150692851037026,0.05514950133559404
35,8,0.0,0.5744184622045034,4.120231791255513
36,0,1.0,0.6065195678795661,0.0
36,0,0.75,0.6097153282730849,-0.3195760393518876
36,0,0.5,0.617575503417589,-1.1055935538022976
36,0,0.25,0.624611852922016,-1.8092285042449974
36,0,0.0,0.627992516856716,-2.147294897714991
36,1,1.0,0.6065195678795661,0.0
36,1,0.75,0.6062383812703198,0.02811866092462534
36,1,0.5,0.6021250202118199,0.43945476677461626
36,1,0.25,0.5917900960378264,1.4729471841739672
36,1,0.0,0.5932868899796909,1.3232677899875145
36,2,1.0,0.6065195678795661,0.0
36,2,0.75,0.6053212316959171,0.11983361836489514
36,2,0.5,0.6075724965182203,-0.10529286386542491
36,2,0.25,0.5915639428583859,1.4955625021180197
36,2,0.0,0.5770928549183911,2.942671296117494
36,3,1.0,0.6065195678795661,0.0
36,3,0.75,0.6146739779027209,-0.8154410023154868
36,3,0.5,0.6274039956322555,-2.0884427752689394
36,3,0.25,0.6306848832575112,-2.4165315377945085
36,3,0.0,0.6272104193477392,-2.0690851468173177
36,4,1.0,0.6065195678795661,0.0
36,4,0.75,0.6014114554832889,0.5108112396277176
36,4,0.5,0.6113112826271646,-0.4791714747598541
36,4,0.25,0.6258165069560471,-1.9296939076481001
36,4,0.0,0.6153531236465458,-0.883355576697975
36,5,1.0,0.6065195678795661,0.0
36,5,0.75,0.6200434278946927,-1.352386001512662
36,5,0.5,0.6405455837497867,-3.4026015870220583
36,5,0.25,0.6030223456594374,0.3497222220128715
36,5,0.0,0.448926275249929,15.759329262963707
36,6,1.0,0.6065195678795661,0.0
36,6,0.75,0.605823087725294,0.06964801542720389
36,6,0.5,0.6010722543590281,0.5447313520537955
36,6,0.25,0.5875524385082835,1.8967129371282532
36,6,0.0,0.5685374468942005,3.7982120985365575
36,7,1.0,0.6065195678795661,0.0
36,7,0.75,0.5909576755237196,1.5561892355846485
36,7,0.5,0.5580732373315838,4.844633054798231
36,7,0.25,0.5450616129448246,6.145795493474148
36,7,0.0,0.5300521625964247,7.646740528314133
36,8,1.0,0.6065195678795661,0.0
36,8,0.75,0.5895342995227248,1.698526835684122
36,8,0.5,0.555190844230944,5.132872364862207
36,8,0.25,0.5267746536916578,7.97449141879083
36,8,0.0,0.5023008469482716,10.421872093129448
37,0,1.0,0.7504299343153802,0.0
37,0,0.75,0.7513446850476311,-0.09147507322508908
37,0,0.5,0.7523103801479638,-0.18804458325836215
37,0,0.25,0.7184071756146788,3.202275870070137
37,0,0.0,0.6834822028712759,6.694773144410426
37,1,1.0,0.7504299343153802,0.0
37,1,0.75,0.7459152122031716,0.45147221122086023
37,1,0.5,0.7434655807128003,0.6964353602579854
37,1,0.25,0.7301678015710542,2.026213274432598
37,1,0.0,0.7262225703343588,2.4207363981021413
37,2,1.0,0.7504299343153802,0.0
37,2,0.75,0.738155840827956,1.2274093487424143
37,2,0.5,0.7232667851941126,2.7163149121267605
37,2,0.25,0.7133556340759655,3.7074300239414715
37,2,0.0,0.6932371816490195,5.71927526663607
37,3,1.0,0.7504299343153802,0.0
37,3,0.75,0.7438032367909283,0.6626697524451886
37,3,0.5,0.7513855980908818,-0.09556637755016029
37,3,0.25,0.7337093530818719,1.672058123350828
37,3,0.0,0.716515188642925,3.3914745672455227
37,4,1.0,0.7504299343153802,0.0
37,4,0.75,0.7606878330466486,-1.0257898731268367
37,4,0.5,0.7726862761638378,-2.2256341848457595
37,4,0.25,0.7964609348691669,-4.603100055378673
37,4,0.0,0.7588335885443618,-0.8403654228981594
37,5,1.0,0.7504299343153802,0.0
37,5,0.75,0.7579397477479489,-0.7509813432568735
37,5,0.5,0.74690794081024,0.3521993505140153
37,5,0.25,0.736277729608642,1.415220470673817
37,5,0.0,0.725175033989006,2.525490032637423
37,6,1.0,0.7504299343153802,0.0
37,6,0.75,0.7391691361724325,1.126079814294767
37,6,0.5,0.7406979320486429,0.9732002266737316
37,6,0.25,0.7123742052641711,3.805572905120913
37,6,0.0,0.7052524594861054,4.517747482927481
37,7,1.0,0.7504299343153802,0.0
37,7,0.75,0.7396787832227787,1.0751151092601496
37,7,0.5,0.7008221633469629,4.960777096841729
37,7,0.25,0.6784133720301508,7.201656228522935
37,7,0.0,0.6683169253787968,8.211300893658336
37,8,1.0,0.7504299343153802,0.0
37,8,0.75,0.7190406151253917,3.138931918998844
37,8,0.5,0.7086432016212494,4.17867326941308
37,8,0.25,0.7011659705487538,4.926396376662634
37,8,0.0,0.6847446494652869,6.568528485009328
38,0,1.0,0.7396211272542192,0.0
38,0,0.75,0.7242989633265897,1.5322163927629529
38,0,0.5,0.681915450919419,5.770567633480028
38,0,0.25,0.651443651748219,8.81774755060002
38,0,0.0,0.647586409877055,9.203471737716429
38,1,1.0,0.7396211272542192,0.0
38,1,0.75,0.7471782630048908,-0.7557135750671518
38,1,0.5,0.7420624481978526,-0.24413209436333627
38,1,0.25,0.7313298646943783,0.8291262559840917
38,1,0.0,0.7118459642589599,2.7775162995259395
38,2,1.0,0.7396211272542192,0.0
38,2,0.75,0.7200702401394231,1.9550887114796134
38,2,0.5,0.7208882725960525,1.8732854658166764
38,2,0.25,0.7197173065239026,1.9903820730316601
38,2,0.0,0.7029490504618909,3.667207679232831
38,3,1.0,0.7396211272542192,0.0
38,3,0.75,0.7595003032618809,-1.9879176007661647
38,3,0.5,0.777937965021503,-3.8316837767283785
38,3,0.25,0.7763713504011276,-3.6750223146908345
38,3,0.0,0.7514018357064949,-1.1780708452275634
38,4,1.0,0.7396211272542192,0.0
38,4,0.75,0.7323253389790167,0.7295788275202497
38,4,0.5,0.7160425036433101,2.357862361090912
38,4,0.25,0.711624446290144,2.799668096407526
38,4,0.0,0.6838779935794952,5.5743133674724055
38,5,1.0,0.7396211272542192,0.0
38,5,0.75,0.7342907923386854,0.5330334915533808
38,5,0.5,0.6979301156082552,4.1691011645964
38,5,0.25,0.5184460614169907,22.117506583722857
38,5,0.0,0.47676665784589217,26.285446940832706
38,6,1.0,0.7396211272542192,0.0
38,6,0.75,0.7397776353692712,-0.01565081150519676
38,6,0.5,0.7301700307626559,0.9451096491563393
38,6,0.25,0.7280022162121553,1.1618911042063917
38,6,0.0,0.7215821273122272,1.8038999941992095
38,7,1.0,0.7396211272542192,0.0
38,7,0.75,0.7221568429747763,1.746428427944291
38,7,0.5,0.7076662961071943,3.195483114702491
38,7,0.25,0.6698153049780341,6.980582227618514
38,7,0.0,0.6289221943431132,11.0698932911106
38,8,1.0,0.7396211272542192,0.0
38,8,0.75,0.7263744960442208,1.3246631209998472
38,8,0.5,0.7060186053773061,3.360252187691315
38,8,0.25,0.6898807168114482,4.9740410442771
38,8,0.0,0.6778978379010407,6.17232893531785
39,0,1.0,0.7405652006435007,0.0
39,0,0.75,0.6751858025611531,6.537939808234761
39,0,0.5,0.6412580404360873,9.930716020741349
39,0,0.25,0.586181200002045,15.438400064145574
39,0,0.0,0.5496025437201908,19.096265692330995
39,1,1.0,0.7405652006435007,0.0
39,1,0.75,0.7350258595536463,0.5539341089854433
39,1,0.5,0.7158808186125046,2.46843820309961
39,1,0.25,0.6979292766168286,4.263592402667216
39,1,0.0,0.6832745040653119,5.729069657818886
39,2,1.0,0.7405652006435007,0.0
39,2,0.75,0.7740325667509179,-3.3467366107417185
39,2,0.5,0.7498905829957544,-0.9325382352253664
39,2,0.25,0.7296540154799346,1.091118516356615
39,2,0.0,0.7187962936810687,2.1768906962432055
39,3,1.0,0.7405652006435007,0.0
39,3,0.75,0.6902505884078038,5.031461223569689
39,3,0.5,0.6213979038803633,11.916729676313743
39,3,0.25,0.5752681096556569,16.529709098784384
39,3,0.0,0.5356054159669073,20.49597846765935
39,4,1.0,0.7405652006435007,0.0
39,4,0.75,0.7545293097349404,-1.3964109091439636
39,4,0.5,0.7537859999044042,-1.322079926090347
39,4,0.25,0.7439005476124565,-0.3335346968955766
39,4,0.0,0.6692818973075966,7.128330333590416
39,5,1.0,0.7405652006435007,0.0
39,5,0.75,0.7067472397433118,3.381796090018896
39,5,0.5,0.6364376103462052,10.412759029729557
39,5,0.25,0.5059640330075394,23.46011676359613
39,5,0.0,0.4102206906478006,33.03445099957001
39,6,1.0,0.7405652006435007,0.0
39,6,0.75,0.7252178949729213,1.5347305670579403
39,6,0.5,0.7053162887575344,3.524891188596635
39,6,0.25,0.7169872549238754,2.357794571962535
39,6,0.0,0.7419049424104179,-0.13397417669172018
39,7,1.0,0.7405652006435007,0.0
39,7,0.75,0.7435708465469486,-0.30056459034478733
39,7,0.5,0.7644982359845789,-2.3933035341078157
39,7,0.25,0.7035944477048809,3.6970752938619844
39,7,0.0,0.6487971516307798,9.176804901272096
39,8,1.0,0.7405652006435007,0.0
39,8,0.75,0.791609458341108,-5.104425769760724
39,8,0.5,0.77990668763195,-3.9341486988449303
39,8,0.25,0.7541717754537806,-1.3606574810279826
39,8,0.0,0.7138688794726931,2.669632117080767
40,0,1.0,0.7668369773396659,0.0
40,0,0.75,0.7653567745128509,0.1480202826815047
40,0,0.5,0.7454406330168447,2.1396344322821226
40,0,0.25,0.7099838872688714,5.685309007079454
40,0,0.0,0.6780010212522025,8.883595608746342
40,1,1.0,0.7668369773396659,0.0
40,1,0.75,0.7456726223527086,2.1164354986957346
40,1,0.5,0.7295670147362564,3.7269962603409534
40,1,0.25,0.7055241652228638,6.131281211680218
40,1,0.0,0.6936137065447411,7.322327079492485
40,2,1.0,0.7668369773396659,0.0
40,2,0.75,0.7732488639739018,-0.6411886634235864
40,2,0.5,0.7504261032599008,1.6410874079765159
40,2,0.25,0.7427464237633571,2.409055357630885
40,2,0.0,0.7055354036023181,6.130157373734779
40,3,1.0,0.7668369773396659,0.0
40,3,0.75,0.7492785205339444,1.7558456805721545
40,3,0.5,0.7415210962746174,2.531588106504856
40,3,0.25,0.7004709173960029,6.636605994366307
40,3,0.0,0.6707018206389704,9.61351567006955
40,4,1.0,0.7668369773396659,0.0
40,4,0.75,0.7624736939775075,0.436328336215841
40,4,0.5,0.7541927307156447,1.2644246624021194
40,4,0.25,0.7419475850013835,2.4889392338282468
40,4,0.0,0.71946478712706,4.7372190212605965
40,5,1.0,0.7668369773396659,0.0
40,5,0.75,0.7867151271697663,-1.987814983010039
40,5,0.5,0.7858083490398649,-1.8971371700198914
40,5,0.25,0.7594054681676968,0.7431509171969108
40,5,0.0,0.7356101453908113,3.122683194885467
40,6,1.0,0.7668369773396659,0.0
40,6,0.75,0.7710939848351456,-0.42570074954796366
40,6,0.5,0.7626344351067865,0.4202542232879414
40,6,0.25,0.7374070739536398,2.9429903386026135
40,6,0.0,0.7285080257906346,3.8328951549031376
40,7,1.0,0.7668369773396659,0.0
40,7,0.75,0.738538625271016,2.8298352068649946
40,7,0.5,0.7140203839164049,5.2816593423261065
40,7,0.25,0.6827280233323436,8.410895400732233
40,7,0.0,0.6427157345062415,12.41212428334244
40,8,1.0,0.7668369773396659,0.0
40,8,0.75,0.7671670135420644,-0.03300362023984649
40,8,0.5,0.7428264448911631,2.401053244850282
40,8,0.25,0.7069223799332529,5.991459740641303
40,8,0.0,0.6656477714431969,10.118920589646907
