subject,channel,f1_full,f1_occluded,drop_pp
1,0,0.5929294952381527,0.5060908266840783,8.683866855407441
1,1,0.5929294952381527,0.629592015553601,-3.6662520315448255
1,2,0.5929294952381527,0.5219425948701977,7.0986900367955075
1,3,0.5929294952381527,0.4851862630511662,10.774323218698656
1,4,0.5929294952381527,0.5651834629245159,2.7746032313636815
1,5,0.5929294952381527,0.43304010363623335,15.98893916019194
1,6,0.5929294952381527,0.6364942440078245,-4.356474876967176
1,7,0.5929294952381527,0.5038631449217945,8.906635031635822
1,8,0.5929294952381527,0.4708357980566056,12.209369718154717
2,0,0.7888395815251374,0.7223327900978763,6.650679142726112
2,1,0.7888395815251374,0.7022540237038789,8.658555782125854
2,2,0.7888395815251374,0.5876374468309952,20.120213469414228
2,3,0.7888395815251374,0.7589234223470628,2.9916159178074664
2,4,0.7888395815251374,0.7380203075758629,5.081927394927455
2,5,0.7888395815251374,0.4627123120810397,32.61272694440977
2,6,0.7888395815251374,0.7325732348582541,5.626634666688335
2,7,0.7888395815251374,0.6697467305915177,11.909285093361976
2,8,0.7888395815251374,0.6393713516875282,14.94682298376092
3,0,0.8073581020168699,0.771907093855761,3.545100816110891
3,1,0.8073581020168699,0.7693000891171259,3.8058012899743976
3,2,0.8073581020168699,0.6934416358597335,11.391646615713636
3,3,0.8073581020168699,0.5837284808215041,22.36296211953658
3,4,0.8073581020168699,0.6906778932644482,11.668020875242169
3,5,0.8073581020168699,0.6573159951791945,15.004210683767539
3,6,0.8073581020168699,0.8068251673425695,0.05329346743003782
3,7,0.8073581020168699,0.740002477812317,6.735562420455288
3,8,0.8073581020168699,0.7215108244436294,8.584727757324051
4,0,0.8574900723325988,0.632700389488086,22.478968284451273
4,1,0.8574900723325988,0.7057303949869512,15.175967734564754
4,2,0.8574900723325988,0.7605182141264615,9.69718582061373
4,3,0.8574900723325988,0.6949765275205834,16.251354481201542
4,4,0.8574900723325988,0.7788624770638273,7.86275952687715
4,5,0.8574900723325988,0.6145223179367447,24.296775439585407
4,6,0.8574900723325988,0.8091686581465842,4.832141418601454
4,7,0.8574900723325988,0.7914405039323511,6.604956840024768
4,8,0.8574900723325988,0.7737658377003048,8.372423463229396
5,0,0.5470320934547909,0.5229630675990393,2.4069025855751547
5,1,0.5470320934547909,0.5189170888727856,2.811500458200522
5,2,0.5470320934547909,0.5302312936334364,1.6800799821354517
5,3,0.5470320934547909,0.5752627409844654,-2.8230647529674524
5,4,0.5470320934547909,0.51441051104444,3.2621582410350847
5,5,0.5470320934547909,0.46008066067216385,8.695143278262702
5,6,0.5470320934547909,0.5569798939672487,-0.9947800512457805
5,7,0.5470320934547909,0.5452317783464922,0.18003151082987
5,8,0.5470320934547909,0.5040762608983556,4.295583255643532
6,0,0.7773804209462383,0.6604803661175688,11.69000548286695
6,1,0.7773804209462383,0.5756616574887481,20.17187634574902
6,2,0.7773804209462383,0.7011937377336726,7.618668321256572
6,3,0.7773804209462383,0.6359667577077336,14.141366323850468
6,4,0.7773804209462383,0.7123565794771929,6.5023841469045385
6,5,0.7773804209462383,0.6496665377122455,12.771388323399279
6,6,0.7773804209462383,0.6906767705967594,8.670365034947892
6,7,0.7773804209462383,0.5284432324999833,24.8937188446255
6,8,0.7773804209462383,0.6653011382511406,11.20792826950977
7,0,0.7473469450117429,0.6271588081007459,12.018813691099705
7,1,0.7473469450117429,0.7425095222547451,0.48374227569978334
7,2,0.7473469450117429,0.6193697364378566,12.797720857388628
7,3,0.7473469450117429,0.6357868992967246,11.156004571501832
7,4,0.7473469450117429,0.6852380570203266,6.2108887991416335
7,5,0.7473469450117429,0.5507581851389024,19.658875987284052
7,6,0.7473469450117429,0.6168297612212539,13.051718379048904
7,7,0.7473469450117429,0.5706668650462527,17.66800799654902
7,8,0.7473469450117429,0.6624998439728029,8.484710103893999
8,0,0.7875923205015183,0.7199546053906394,6.76377151108789
8,1,0.7875923205015183,0.7554593303370519,3.2132990164466357
8,2,0.7875923205015183,0.7664975515692071,2.1094768932311214
8,3,0.7875923205015183,0.6734262937895513,11.416602671196696
8,4,0.7875923205015183,0.6995919094895169,8.80004110120014
8,5,0.7875923205015183,0.6689728972897289,11.861942321178942
8,6,0.7875923205015183,0.7775593109183004,1.0033009583217845
8,7,0.7875923205015183,0.6357413635798367,15.18509569216816
8,8,0.7875923205015183,0.6532403334601937,13.435198704132457
9,0,0.7810308837753335,0.7662073171101923,1.4823566665141175
9,1,0.7810308837753335,0.7123893301494508,6.8641553625882645
9,2,0.7810308837753335,0.7010241758004437,8.000670797488974
9,3,0.7810308837753335,0.7614461139543787,1.9584769820954806
9,4,0.7810308837753335,0.7797668519094507,0.12640318658827532
9,5,0.7810308837753335,0.6632823724192326,11.774851135610087
9,6,0.7810308837753335,0.7528881065120647,2.814277726326875
9,7,0.7810308837753335,0.7199914679693504,6.103941580598304
9,8,0.7810308837753335,0.67725860193197,10.377228184336351
10,0,0.7197549410721746,0.6111510567482497,10.860388432392497
10,1,0.7197549410721746,0.6317596542298789,8.799528684229575
10,2,0.7197549410721746,0.6024806893127505,11.727425175942418
10,3,0.7197549410721746,0.6061194894512889,11.363545162088574
10,4,0.7197549410721746,0.6570453563975016,6.2709584674673025
10,5,0.7197549410721746,0.6105134467996485,10.924149427252615
10,6,0.7197549410721746,0.6709816569675877,4.877328410458692
10,7,0.7197549410721746,0.48663753347454664,23.3117407597628
10,8,0.7197549410721746,0.6051350937912309,11.461984728094377
11,0,0.890288698424068,0.7596837481468524,13.060495027721563
11,1,0.890288698424068,0.7408741958900085,14.941450253405952
11,2,0.890288698424068,0.8265413457962242,6.374735262784381
11,3,0.890288698424068,0.8066905064626927,8.35981919613753
11,4,0.890288698424068,0.8153039824314614,7.498471599260659
11,5,0.890288698424068,0.7032394934295867,18.70492049944813
11,6,0.890288698424068,0.8753416315841465,1.494706683992153
11,7,0.890288698424068,0.6985482051278614,19.174049329620658
11,8,0.890288698424068,0.7688555503637942,12.143314806027384
12,0,0.8324323712507073,0.7729504760512206,5.948189519948677
12,1,0.8324323712507073,0.7470605660670526,8.537180518365473
12,2,0.8324323712507073,0.7954164187819798,3.7015952468727575
12,3,0.8324323712507073,0.7461205855578998,8.63117856928075
12,4,0.8324323712507073,0.6579001526804769,17.45322185702305
12,5,0.8324323712507073,0.7032094406330704,12.922293061763689
12,6,0.8324323712507073,0.8260089193779057,0.6423451872801689
12,7,0.8324323712507073,0.7489435310675631,8.348884018314429
12,8,0.8324323712507073,0.7313021362221231,10.11302350285842
13,0,0.8929342216263367,0.7186888108253878,17.42454108009489
13,1,0.8929342216263367,0.7583919951244041,13.454222650193259
13,2,0.8929342216263367,0.7846030443357259,10.833117729061081
13,3,0.8929342216263367,0.8582910657557982,3.4643155870538567
13,4,0.8929342216263367,0.7798113330781561,11.312288854818064
13,5,0.8929342216263367,0.6537942477954014,23.913997383093534
13,6,0.8929342216263367,0.8062264529071799,8.670776871915686
13,7,0.8929342216263367,0.8411702394164049,5.176398220993184
13,8,0.8929342216263367,0.819752246026814,7.318197559952278
14,0,0.7646255704563008,0.6779245834329451,8.67009870233556
14,1,0.7646255704563008,0.6916621849956872,7.296338546061354
14,2,0.7646255704563008,0.6642913070328802,10.033426342342056
14,3,0.7646255704563008,0.6692293171821153,9.539625327418545
14,4,0.7646255704563008,0.7078586228817858,5.676694757451495
14,5,0.7646255704563008,0.5556507962192855,20.897477423701527
14,6,0.7646255704563008,0.7595192686137198,0.5106301842580985
14,7,0.7646255704563008,0.6673767976644426,9.724877279185817
14,8,0.7646255704563008,0.685011951226649,7.961361922965171
15,0,0.8269745706226898,0.7043571997554832,12.26173708672066
15,1,0.8269745706226898,0.7484267872297079,7.854778339298186
15,2,0.8269745706226898,0.7793815051701424,4.759306545254738
15,3,0.8269745706226898,0.7422899734996276,8.46845971230622
15,4,0.8269745706226898,0.7529001343639542,7.407443625873555
15,5,0.8269745706226898,0.4325500557736366,39.44245148490532
15,6,0.8269745706226898,0.7566082886909895,7.036628193170024
15,7,0.8269745706226898,0.7291441500142538,9.783042060843595
15,8,0.8269745706226898,0.7617284077924509,6.524616283023887
16,0,0.8347108490956276,0.6816473284540254,15.306352064160222
16,1,0.8347108490956276,0.7967522110233518,3.795863807227584
16,2,0.8347108490956276,0.73955034048492,9.516050861070768
16,3,0.8347108490956276,0.7968812323925932,3.782961670303442
16,4,0.8347108490956276,0.6703783753583796,16.433247373724804
16,5,0.8347108490956276,0.6137424884992264,22.096836059640125
16,6,0.8347108490956276,0.7953365997448444,3.9374249350783264
16,7,0.8347108490956276,0.7303638285200738,10.43470205755539
16,8,0.8347108490956276,0.8050702674515519,2.964058164407579
17,0,0.7516214398890606,0.6385419482740003,11.307949161506025
17,1,0.7516214398890606,0.7136538505404274,3.79675893486332
17,2,0.7516214398890606,0.5598475724167443,19.17738674723163
17,3,0.7516214398890606,0.7183482738247731,3.327316606428754
17,4,0.7516214398890606,0.6791951137884873,7.242632610057331
17,5,0.7516214398890606,0.5730090607650901,17.861237912397055
17,6,0.7516214398890606,0.7326191117363428,1.9002328152717851
17,7,0.7516214398890606,0.6927818865253147,5.883955336374591
17,8,0.7516214398890606,0.6720962688138722,7.952517107518842
18,0,0.7414810397577964,0.6929588371900547,4.852220256774176
18,1,0.7414810397577964,0.6816737119730379,5.980732778475851
18,2,0.7414810397577964,0.6648357150348508,7.66453247229456
18,3,0.7414810397577964,0.5705017110456166,17.09793287121798
18,4,0.7414810397577964,0.6367890038355835,10.469203592221298
18,5,0.7414810397577964,0.5298968721010615,21.158416765673493
18,6,0.7414810397577964,0.7654525711119258,-2.3971531354129327
18,7,0.7414810397577964,0.6722790217317611,6.920201802603532
18,8,0.7414810397577964,0.6583288211733269,8.315221858446954
19,0,0.8364363208789638,0.7849490554354984,5.1487265443465375
19,1,0.8364363208789638,0.7627404200264374,7.369590085252642
19,2,0.8364363208789638,0.7742180562965787,6.22182645823851
19,3,0.8364363208789638,0.5875510589041892,24.888526197477457
19,4,0.8364363208789638,0.724512727245385,11.192359363357884
19,5,0.8364363208789638,0.6258015880013157,21.06347328776481
19,6,0.8364363208789638,0.8525700585629364,-1.6133737683972638
19,7,0.8364363208789638,0.6895084254977841,14.692789538117967
19,8,0.8364363208789638,0.6987733881770837,13.766293270188012
20,0,0.7766091331804914,0.6885130516715238,8.809608150896764
20,1,0.7766091331804914,0.6649006902042421,11.170844297624926
20,2,0.7766091331804914,0.6755373015183236,10.107183166216782
20,3,0.7766091331804914,0.7256303277896855,5.09788053908059
20,4,0.7766091331804914,0.6749408760633546,10.166825711713678
20,5,0.7766091331804914,0.6526454575248644,12.396367565562706
20,6,0.7766091331804914,0.7282758882755446,4.833324490494684
20,7,0.7766091331804914,0.6780257104272291,9.858342275326226
20,8,0.7766091331804914,0.6945611039612735,8.204802921921795
21,0,0.79689381485689,0.6491923488250336,14.77014660318564
21,1,0.79689381485689,0.7100242248639304,8.686958999295967
21,2,0.79689381485689,0.7362649663823067,6.0628848474583386
21,3,0.79689381485689,0.7590921317119175,3.7801683144972564
21,4,0.79689381485689,0.7894417543229386,0.7452060533951421
21,5,0.79689381485689,0.6686552155114642,12.82385993454258
21,6,0.79689381485689,0.7911964415202708,0.5697373336619238
21,7,0.79689381485689,0.7914604155679319,0.5433399288958141
21,8,0.79689381485689,0.7227269724387066,7.416684241818339
22,0,0.6882565319894095,0.49655386650358246,19.170266548582703
22,1,0.6882565319894095,0.6658445000088042,2.2412031980605263
22,2,0.6882565319894095,0.6109097065815877,7.734682540782178
22,3,0.6882565319894095,0.5033725256223234,18.48840063670861
22,4,0.6882565319894095,0.6218044442758367,6.6452087713572805
22,5,0.6882565319894095,0.4696825236516705,21.857400833773898
22,6,0.6882565319894095,0.6580485935262902,3.020793846311931
22,7,0.6882565319894095,0.5646894224532282,12.356710953618133
22,8,0.6882565319894095,0.5992732008349708,8.898333115443869
23,0,0.6581892567258144,0.6111933981249681,4.699585860084632
23,1,0.6581892567258144,0.6325960784816551,2.55931782441593
23,2,0.6581892567258144,0.6486875201396277,0.9501736586186693
23,3,0.6581892567258144,0.6469777408637873,1.1211515862027066
23,4,0.6581892567258144,0.5711671814051689,8.702207532064554
23,5,0.6581892567258144,0.5041314636569931,15.405779306882128
23,6,0.6581892567258144,0.6539792022334641,0.4210054492350346
23,7,0.6581892567258144,0.5626807170156818,9.550853971013263
23,8,0.6581892567258144,0.5892986980966899,6.889055862912452
24,0,0.7384519858204068,0.6544707712147845,8.398121460562235
24,1,0.7384519858204068,0.6793092202483773,5.914276557202958
24,2,0.7384519858204068,0.6423097043487825,9.614228147162429
24,3,0.7384519858204068,0.7571085012059423,-1.8656515385535477
24,4,0.7384519858204068,0.610748586404845,12.770339941556186
24,5,0.7384519858204068,0.47842831362875315,26.002367219165368
24,6,0.7384519858204068,0.6889814544206067,4.947053139980017
24,7,0.7384519858204068,0.6353228715728716,10.312911424753523
24,8,0.7384519858204068,0.662293680773265,7.615830504714182
25,0,0.7920117864061014,0.7262259514593101,6.578583494679124
25,1,0.7920117864061014,0.7519811215491438,4.003066485695761
25,2,0.7920117864061014,0.6940331234478554,9.797866295824598
25,3,0.7920117864061014,0.6775386314585069,11.447315494759447
25,4,0.7920117864061014,0.7046140844916609,8.739770191444052
25,5,0.7920117864061014,0.5635803190898994,22.8431467316202
25,6,0.7920117864061014,0.8073093908710347,-1.5297604464933334
25,7,0.7920117864061014,0.712601281909195,7.941050449690634
25,8,0.7920117864061014,0.7713664962008521,2.06452902052493
26,0,0.7266528092919866,0.666706085395776,5.9946723896210585
26,1,0.7266528092919866,0.6860263377698802,4.062647152210641
26,2,0.7266528092919866,0.6094597018024468,11.719310748953982
26,3,0.7266528092919866,0.7233889007933855,0.32639084986011424
26,4,0.7266528092919866,0.6285274720362246,9.8125337255762
26,5,0.7266528092919866,0.4779319900473893,24.87208192445973
26,6,0.7266528092919866,0.7232527388415477,0.34000704504388857
26,7,0.7266528092919866,0.7201006490288933,0.6552160263093354
26,8,0.7266528092919866,0.6441616246161515,8.249118467583516
27,0,0.8143284053664619,0.7409161272636602,7.341227810280171
27,1,0.8143284053664619,0.7762529678029981,3.8075437563463765
27,2,0.8143284053664619,0.7110997314250319,10.322867394142998
27,3,0.8143284053664619,0.7603803831167122,5.3948022249749705
27,4,0.8143284053664619,0.6561196024112761,15.820880295518581
27,5,0.8143284053664619,0.5596427655972873,25.46856397691746
27,6,0.8143284053664619,0.8033302342378185,1.099817112864343
27,7,0.8143284053664619,0.6180113568757437,19.631704849071816
27,8,0.8143284053664619,0.8363063638485042,-2.1977958482042315
28,0,0.7406665128468303,0.7595250158515444,-1.8858503004714144
28,1,0.7406665128468303,0.7370992815764732,0.3567231270357074
28,2,0.7406665128468303,0.6643837544279092,7.628275841892107
28,3,0.7406665128468303,0.7154248914426147,2.5241621404215597
28,4,0.7406665128468303,0.6797582996756466,6.090821317118367
28,5,0.7406665128468303,0.5410357663006458,19.963074654618453
28,6,0.7406665128468303,0.7248894637377964,1.577704910903388
28,7,0.7406665128468303,0.6877835442782538,5.288296856857643
28,8,0.7406665128468303,0.7032187984627652,3.7447714384065023
29,0,0.7903259965318661,0.5718956648664429,21.843033166542313
29,1,0.7903259965318661,0.7613421535740432,2.898384295782286
29,2,0.7903259965318661,0.5812279852542225,20.90980112776436
29,3,0.7903259965318661,0.76705745235157,2.3268544180296113
29,4,0.7903259965318661,0.704897384413803,8.542861211806308
29,5,0.7903259965318661,0.6117548806847469,17.857111584711916
29,6,0.7903259965318661,0.7862079834433238,0.4118013088542316
29,7,0.7903259965318661,0.7118544962209102,7.847150031095584
29,8,0.7903259965318661,0.6880053671100312,10.232062942183484
30,0,0.8326638399424384,0.7872778233092451,4.53860166331933
30,1,0.8326638399424384,0.7006978802883975,13.19659596540409
30,2,0.8326638399424384,0.7342836448908413,9.838019505159712
30,3,0.8326638399424384,0.7843164243046377,4.834741563780076
30,4,0.8326638399424384,0.7414239195479069,9.123992039453155
30,5,0.8326638399424384,0.6568250600387661,17.583877990367235
30,6,0.8326638399424384,0.819498456180942,1.3165383761496452
30,7,0.8326638399424384,0.7088845117147003,12.377932822773808
30,8,0.8326638399424384,0.780326526179998,5.2337313762440445
31,0,0.7485679651615634,0.6499474311696769,9.862053399188653
31,1,0.7485679651615634,0.7082361980564476,4.033176710511588
31,2,0.7485679651615634,0.6328334692883633,11.573449587320017
31,3,0.7485679651615634,0.732437822118229,1.6130143043334377
31,4,0.7485679651615634,0.6899016661442446,5.866629901731879
31,5,0.7485679651615634,0.6253671354186059,12.320082974295754
31,6,0.7485679651615634,0.7409733855887702,0.7594579572793192
31,7,0.7485679651615634,0.6383070598718394,11.026090528972398
31,8,0.7485679651615634,0.6246906783289775,12.387728683258592
32,0,0.8111902134697675,0.7165249976249772,9.466521584479025
32,1,0.8111902134697675,0.7179158723533792,9.327434111638834
32,2,0.8111902134697675,0.721442537089748,8.974767638001946
32,3,0.8111902134697675,0.7642880553988844,4.690215807088305
32,4,0.8111902134697675,0.6413290505377403,16.986116293202723
32,5,0.8111902134697675,0.5909197260834869,22.027048738628064
32,6,0.8111902134697675,0.7520128280130101,5.917738545675744
32,7,0.8111902134697675,0.6640027020388111,14.718751143095643
32,8,0.8111902134697675,0.7158255276603859,9.536468580938163
33,0,0.9196712591463804,0.8008124159269412,11.885884321943918
33,1,0.9196712591463804,0.8354402158510554,8.423104329532494
33,2,0.9196712591463804,0.8754631865394197,4.420807260696069
33,3,0.9196712591463804,0.8755390217818376,4.413223736454275
33,4,0.9196712591463804,0.8487869697545977,7.088428939178271
33,5,0.9196712591463804,0.857514474266005,6.215678488037534
33,6,0.9196712591463804,0.8979806119683273,2.1690647178053024
33,7,0.9196712591463804,0.7897137122055841,12.995754694079631
33,8,0.9196712591463804,0.8188161572956263,10.085510185075409
34,0,0.84202146960909,0.7233272966219271,11.86941729871629
34,1,0.84202146960909,0.7640100468409933,7.801142276809669
34,2,0.84202146960909,0.7867241705946706,5.529729901441938
34,3,0.84202146960909,0.8022664570850258,3.9755012524064215
34,4,0.84202146960909,0.7654859118116443,7.65355577974457
34,5,0.84202146960909,0.7221701864015082,11.985128320758175
34,6,0.84202146960909,0.7990863772128376,4.293509239625237
34,7,0.84202146960909,0.7158245509458215,12.619691866326843
34,8,0.84202146960909,0.7758249162169526,6.619655339213737
35,0,0.6156207801170586,0.6093509579339539,0.6269822183104679
35,1,0.6156207801170586,0.6379406637945125,-2.2319883677453967
35,2,0.6156207801170586,0.6102240556299277,0.5396724487130911
35,3,0.6156207801170586,0.5572062132100666,5.841456690699198
35,4,0.6156207801170586,0.5914192901791424,2.4201489937916154
35,5,0.6156207801170586,0.530876596528482,8.47441835885766
35,6,0.6156207801170586,0.6189435990970619,-0.3322818980003306
35,7,0.6156207801170586,0.6074753954946417,0.8145384622416874
35,8,0.6156207801170586,0.5744184622045034,4.120231791255513
36,0,0.6065195678795661,0.627992516856716,-2.147294897714991
36,1,0.6065195678795661,0.5932868899796909,1.3232677899875145
36,2,0.6065195678795661,0.5770928549183911,2.942671296117494
36,3,0.6065195678795661,0.6272104193477392,-2.0690851468173177
36,4,0.6065195678795661,0.6153531236465458,-0.883355576697975
36,5,0.6065195678795661,0.448926275249929,15.759329262963707
36,6,0.6065195678795661,0.5685374468942005,3.7982120985365575
36,7,0.6065195678795661,0.5300521625964247,7.646740528314133
36,8,0.6065195678795661,0.5023008469482716,10.421872093129448
37,0,0.7504299343153802,0.6834822028712759,6.694773144410426
37,1,0.7504299343153802,0.7262225703343588,2.4207363981021413
37,2,0.7504299343153802,0.6932371816490195,5.71927526663607
37,3,0.7504299343153802,0.716515188642925,3.3914745672455227
37,4,0.7504299343153802,0.7588335885443618,-0.8403654228981594
37,5,0.7504299343153802,0.725175033989006,2.525490032637423
37,6,0.7504299343153802,0.7052524594861054,4.517747482927481
37,7,0.7504299343153802,0.6683169253787968,8.211300893658336
37,8,0.7504299343153802,0.6847446494652869,6.568528485009328
38,0,0.7396211272542192,0.647586409877055,9.203471737716429
38,1,0.7396211272542192,0.7118459642589599,2.7775162995259395
38,2,0.7396211272542192,0.7029490504618909,3.667207679232831
38,3,0.7396211272542192,0.7514018357064949,-1.1780708452275634
38,4,0.7396211272542192,0.6838779935794952,5.5743133674724055
38,5,0.7396211272542192,0.47676665784589217,26.285446940832706
38,6,0.7396211272542192,0.7215821273122272,1.8038999941992095
38,7,0.7396211272542192,0.6289221943431132,11.0698932911106
38,8,0.7396211272542192,0.6778978379010407,6.17232893531785
39,0,0.7405652006435007,0.5496025437201908,19.096265692330995
39,1,0.7405652006435007,0.6832745040653119,5.729069657818886
39,2,0.7405652006435007,0.7187962936810687,2.1768906962432055
39,3,0.7405652006435007,0.5356054159669073,20.49597846765935
39,4,0.7405652006435007,0.6692818973075966,7.128330333590416
39,5,0.7405652006435007,0.4102206906478006,33.03445099957001
39,6,0.7405652006435007,0.7419049424104179,-0.13397417669172018
39,7,0.7405652006435007,0.6487971516307798,9.176804901272096
39,8,0.7405652006435007,0.7138688794726931,2.669632117080767
40,0,0.7668369773396659,0.6780010212522025,8.883595608746342
40,1,0.7668369773396659,0.6936137065447411,7.322327079492485
40,2,0.7668369773396659,0.7055354036023181,6.130157373734779
40,3,0.7668369773396659,0.6707018206389704,9.61351567006955
40,4,0.7668369773396659,0.71946478712706,4.7372190212605965
40,5,0.7668369773396659,0.7356101453908113,3.122683194885467
40,6,0.7668369773396659,0.7285080257906346,3.8328951549031376
40,7,0.7668369773396659,0.6427157345062415,12.41212428334244
40,8,0.7668369773396659,0.6656477714431969,10.118920589646907
