subject,channel,r,f1_drop_mean,f1_drop_sd
1,0,5,0.1003409041258591,0.010101248658641902
1,1,5,0.07646839536860164,0.010903426103332788
1,2,5,0.07387615453356959,0.007952600905842586
1,3,5,0.07695686663136052,0.007800661978889884
1,4,5,0.018548738461328762,0.011147936223625964
1,5,5,0.04641302345929972,0.005419746921381997
1,6,5,0.04065577849009723,0.01148945852046708
1,7,5,0.1037055430643695,0.006178346803975181
1,8,5,0.12250447811495846,0.013083204831265783
2,0,5,0.1295688885347539,0.015557224529886912
2,1,5,0.11150154364332181,0.019421616123460543
2,2,5,0.14051150770751644,0.010282063970898803
2,3,5,0.08460677063806188,0.010129045424610182
2,4,5,0.08069737820209603,0.016771477461371413
2,5,5,0.2069064230015853,0.0052805249808951195
2,6,5,0.11529856682031363,0.018456225389332524
2,7,5,0.19026845644826737,0.018319957626328147
2,8,5,0.16000439946655115,0.02222641238687492
3,0,5,0.14288440597207336,0.012059694150456301
3,1,5,0.1310995423639927,0.014832287763834209
3,2,5,0.13475339868783914,0.011436306163115025
3,3,5,0.15934804947925824,0.011016203364356205
3,4,5,0.1686574799878005,0.0159235922669021
3,5,5,0.10560414401111104,0.008065681190564451
3,6,5,-0.013847231561914253,0.016488850420887234
3,7,5,0.08219996151541842,0.010623647113940315
3,8,5,0.1308410080126129,0.01086920826354259
4,0,5,0.2256073794153592,0.019514177150083356
4,1,5,0.21419068814804892,0.01342411218564726
4,2,5,0.12315520789070007,0.010385968948359466
4,3,5,0.1824964871292078,0.009904557481825631
4,4,5,0.13600630127195626,0.014970824800227094
4,5,5,0.19781886909446328,0.008944025312199204
4,6,5,0.06997046351378584,0.008403517277620379
4,7,5,0.128029867660664,0.012128044902794902
4,8,5,0.15331132573044975,0.009605808379901883
5,0,5,0.04354094495757076,0.02420348957092158
5,1,5,0.04331814334809547,0.006812316360031
5,2,5,0.06294361516320868,0.019586567103275096
5,3,5,0.03608814497323719,0.012514516705103952
5,4,5,0.04139827753541333,0.009985399388015034
5,5,5,0.06844419848485073,0.016042336594132674
5,6,5,0.01767966080690968,0.01208065063553665
5,7,5,0.0248127823616755,0.008412233262400384
5,8,5,0.08041697097606788,0.009942003718109785
6,0,5,0.11643601750459229,0.01598612330984876
6,1,5,0.17704951481635794,0.02137872428704308
6,2,5,0.1257956085362349,0.004416636502271235
6,3,5,0.10718049963353135,0.00866583675885686
6,4,5,0.11946463158143976,0.014539372202086885
6,5,5,0.17167307912189758,0.008304087410446076
6,6,5,0.06428266630040562,0.010473140957307127
6,7,5,0.18976455875676698,0.015359740995383127
6,8,5,0.14419986408237834,0.021649505085806243
7,0,5,0.09604808435702625,0.011364827542243406
7,1,5,0.07620309444300874,0.007321693966751922
7,2,5,0.117828980392004,0.007510451799851664
7,3,5,0.10468844374540624,0.010331713393628207
7,4,5,0.111413628025676,0.02151559390160801
7,5,5,0.12496912906111231,0.007203031943800259
7,6,5,0.10542803052981538,0.006999868902645438
7,7,5,0.11787575055281985,0.015328314883175294
7,8,5,0.18058115832277719,0.011394178766355154
8,0,5,0.09436129735151573,0.012017942970280913
8,1,5,0.0698958538439564,0.013658446447147476
8,2,5,0.09336834827754574,0.011779037706948532
8,3,5,0.1448266030922752,0.014342719452695291
8,4,5,0.1398204606045597,0.012288209367843512
8,5,5,0.1706238931904096,0.003910268307408006
8,6,5,0.0339251136412372,0.0113774989784849
8,7,5,0.1998040091837518,0.010399701583652055
8,8,5,0.1834469529673311,0.0194761458964921
9,0,5,0.0811478777162881,0.014128358097156728
9,1,5,0.13984339083526204,0.0157700625484455
9,2,5,0.13165431482852222,0.012124127527361712
9,3,5,0.05134764090544519,0.009310574465079014
9,4,5,0.05038195567171071,0.01022455137164975
9,5,5,0.13593690689030918,0.01268803535739339
9,6,5,0.06031160689942079,0.014877082366831733
9,7,5,0.15046313341088868,0.009026560030831219
9,8,5,0.1609819359726124,0.012811689444195794
10,0,5,0.1467352590065225,0.016960431041426107
10,1,5,0.10393799565786688,0.01790506687635997
10,2,5,0.12953562411619435,0.010621845118945953
10,3,5,0.16723733181285447,0.010173378627976593
10,4,5,0.07399174778715974,0.017632780652930072
10,5,5,0.08346103275600958,0.015412906437785298
10,6,5,0.09057166529769974,0.017630071004607756
10,7,5,0.1997850784453339,0.013248447782936703
10,8,5,0.14769345892869146,0.019124308269499984
11,0,5,0.1422404472917092,0.007849576463339744
11,1,5,0.17503312294836654,0.02301095632143866
11,2,5,0.16817148745082425,0.015769808958450076
11,3,5,0.14523673233970052,0.017076914732051005
11,4,5,0.11718871741576734,0.0039561269843401015
11,5,5,0.17531084434347663,0.017492584196619615
11,6,5,0.044404598569781094,0.011045239421772136
11,7,5,0.21098138428382285,0.010487108188971
11,8,5,0.16607678655467326,0.014201291101115489
12,0,5,0.11566327737295146,0.011024883515791256
12,1,5,0.12829831901750985,0.023310931147450954
12,2,5,0.16820473697911795,0.031174085028500574
12,3,5,0.1306461390306089,0.02146347528889274
12,4,5,0.14249467719659983,0.014574357650276752
12,5,5,0.0890093397235947,0.011070088169060655
12,6,5,0.030949507827625733,0.008344055957123273
12,7,5,0.14507832832019985,0.009631285278055417
12,8,5,0.10897965120040351,0.008580601930025852
13,0,5,0.18692193660105816,0.01863870205835806
13,1,5,0.1412970435651804,0.013094309712102027
13,2,5,0.14846064480649082,0.017392993975919094
13,3,5,0.06159988256362248,0.013886434249730822
13,4,5,0.15150317045112863,0.017295920590033032
13,5,5,0.20381794316915883,0.016185261795383207
13,6,5,0.09509622852664193,0.008983197772661827
13,7,5,0.1333521731210887,0.008819248803220095
13,8,5,0.16475556134438804,0.010638875797756473
14,0,5,0.12061234666744244,0.014137249929967757
14,1,5,0.13047381772606756,0.014465815799071064
14,2,5,0.09895945481823402,0.009573261986522452
14,3,5,0.11048172062917745,0.012525727870594158
14,4,5,0.16893868788086466,0.009399691597388921
14,5,5,0.16005390343250347,0.00881095105521509
14,6,5,0.03397505165409156,0.007692350532064709
14,7,5,0.1274618357360477,0.005874701933323458
14,8,5,0.13257497793273149,0.013841693320626852
15,0,5,0.1529515474373919,0.010253352748857586
15,1,5,0.1820068477332643,0.02008933204937196
15,2,5,0.12860891957573622,0.01701047092523798
15,3,5,0.1240786977614992,0.011946820297292876
15,4,5,0.2192506149355566,0.01592334618215315
15,5,5,0.22613645124624684,0.013372874496051242
15,6,5,0.11840863122031678,0.005136418532983241
15,7,5,0.12281553417031396,0.01846190910815579
15,8,5,0.151561749172751,0.012304037081964937
16,0,5,0.11100159566899684,0.012087207948997055
16,1,5,0.12586246222133304,0.013924728609307428
16,2,5,0.14344293724311294,0.010328569157012898
16,3,5,0.14392006399063645,0.007987618793455978
16,4,5,0.15312045459899154,0.00866885911709177
16,5,5,0.20542335147127583,0.013711519266280095
16,6,5,0.05670309771889999,0.006901398814190308
16,7,5,0.18480357625343025,0.008761763474389414
16,8,5,0.1730680913251574,0.011357429317485799
17,0,5,0.16253538914569227,0.006142029676595704
17,1,5,0.08975681695550615,0.01941003748901969
17,2,5,0.1296761735784719,0.0019516034171266163
17,3,5,0.048734719269177204,0.010976299921835473
17,4,5,0.15219546022799568,0.013262090806774405
17,5,5,0.19568940849954825,0.012490641089571184
17,6,5,0.047382526241594246,0.007854136106098546
17,7,5,0.06232964542062471,0.011704389988520011
17,8,5,0.1150295066387886,0.006150711749478114
18,0,5,0.08754418956131924,0.01537856737149221
18,1,5,0.06161236531908263,0.010304539636724876
18,2,5,0.069351153549707,0.015133496491283614
18,3,5,0.13976542658687874,0.017293825648366574
18,4,5,0.14732423361947797,0.00475857840232197
18,5,5,0.16331285284094813,0.022460860843915808
18,6,5,0.03609564021255511,0.024207308542767345
18,7,5,0.141718917329192,0.00210484097264962
18,8,5,0.16568024355933336,0.0071781118598077355
19,0,5,0.11529622034856375,0.005297889170614651
19,1,5,0.12191848093989137,0.012428825543865856
19,2,5,0.1407949307274582,0.008050445511561213
19,3,5,0.15324319587092286,0.011551608248998294
19,4,5,0.0764108949055758,0.00872116927963013
19,5,5,0.16175036366017653,0.0067703483763653476
19,6,5,0.023600888534924636,0.0029261208053558544
19,7,5,0.21960355216281985,0.01208250548699335
19,8,5,0.1668448036790673,0.004866946459398048
20,0,5,0.12934987029838635,0.015405406679841235
20,1,5,0.12735608811640525,0.026247276255097853
20,2,5,0.15898824486519755,0.016938968035755116
20,3,5,0.07756508174658565,0.011664595759815547
20,4,5,0.1609062045864183,0.020136672700501138
20,5,5,0.12329452934047094,0.015736304741331086
20,6,5,0.056663640661803,0.0086241434780798
20,7,5,0.10358581178169057,0.011828254978898795
20,8,5,0.16301670785986552,0.009292567362879683
21,0,5,0.15329373556249928,0.012902956119136133
21,1,5,0.1230139225248363,0.02022721231727878
21,2,5,0.15448258392868525,0.011881205015752383
21,3,5,0.06198093009526606,0.006083299894507902
21,4,5,0.07342431431315677,0.018022224444081393
21,5,5,0.167549652519446,0.014321639310914847
21,6,5,0.04218315817016203,0.01112067648847984
21,7,5,0.11116418143764224,0.011010913358642599
21,8,5,0.10628560782326138,0.007915368625027286
22,0,5,0.11796637595472237,0.018690738179032416
22,1,5,0.08633494069151444,0.00719765070967965
22,2,5,0.19139234702080785,0.010662548209375875
22,3,5,0.0981421385727872,0.01814324069908369
22,4,5,0.10617252362288357,0.008695921889664456
22,5,5,0.11696995448342125,0.009453889334329524
22,6,5,0.019755587733707135,0.0046257943048230174
22,7,5,0.1286314499064133,0.014660463123595925
22,8,5,0.13551027014217343,0.010800916530006394
23,0,5,0.07830046536438517,0.017129195053614342
23,1,5,0.0913606347473285,0.00800670326815158
23,2,5,0.06130699434981932,0.009795443723881811
23,3,5,0.03445373139150589,0.01031566851784494
23,4,5,0.08644446637568248,0.009605232774383774
23,5,5,0.15389961812859407,0.019052028404397788
23,6,5,0.08331004553168544,0.012150453358750096
23,7,5,0.13797065324192498,0.009909788317545768
23,8,5,0.1024266639924084,0.00582607507944297
24,0,5,0.09728001719682233,0.010131977292536436
24,1,5,0.13270208075379172,0.013812124672408381
24,2,5,0.16783983105237632,0.017795568681890816
24,3,5,0.047729031451539616,0.015058238238419817
24,4,5,0.1562046199231728,0.015771287311629852
24,5,5,0.10574555357684215,0.011014187658769313
24,6,5,0.03346207327781545,0.005332832497067155
24,7,5,0.16404737066892705,0.00968890839329748
24,8,5,0.10486104602446913,0.016581601136370118
25,0,5,0.13118597685611805,0.023789609098350907
25,1,5,0.14258859444522973,0.009656092533014306
25,2,5,0.16424204638727757,0.011503321091236973
25,3,5,0.13816265491876875,0.013712288661042939
25,4,5,0.12733660146802608,0.010251411178821166
25,5,5,0.20297142016457084,0.02218187962649611
25,6,5,0.014916121674521587,0.006208925387899006
25,7,5,0.11527679517535135,0.006212754905013723
25,8,5,0.09738208867310909,0.007374681514228205
26,0,5,0.09865876823089396,0.009221309038155882
26,1,5,0.1241344668490646,0.01915224428465695
26,2,5,0.14991922403284147,0.013321793361580653
26,3,5,0.03830597031053788,0.008819331506456272
26,4,5,0.12505607220449522,0.009219819905986087
26,5,5,0.1785229903695209,0.012004375612439827
26,6,5,0.027674783953480553,0.004579345918007835
26,7,5,0.130984931391503,0.01193842255544865
26,8,5,0.13322889523450596,0.015803085636937733
27,0,5,0.1172814313806361,0.008552415585938075
27,1,5,0.08584938993809699,0.0175226496416817
27,2,5,0.15741119862833808,0.007831312828950443
27,3,5,0.06753743058621928,0.008422678666635285
27,4,5,0.19052359267945057,0.008850158320991968
27,5,5,0.1938168642317935,0.014166569218057354
27,6,5,0.06251692123323718,0.017373949388780174
27,7,5,0.17788240418383433,0.017505970780171205
27,8,5,0.12081928209008161,0.008298365135948975
28,0,5,0.1053863051568561,0.014465336428975132
28,1,5,0.05864806587018347,0.011637493812124165
28,2,5,0.09399604084733874,0.00619713345657935
28,3,5,0.09188143381470962,0.023787593235581776
28,4,5,0.0965156111089291,0.0110502134523534
28,5,5,0.23001393205006954,0.020250992290214775
28,6,5,0.04642149819628498,0.010070055641931365
28,7,5,0.09179927331718116,0.007464180982793505
28,8,5,0.13043726299272151,0.013634044261643335
29,0,5,0.19635226472716874,0.016733824680805715
29,1,5,0.035962179341124154,0.014204349891042637
29,2,5,0.17158278200090582,0.014688706012606632
29,3,5,0.039651928303653786,0.011898864828632129
29,4,5,0.15531871751074816,0.008344637476790252
29,5,5,0.24773742303663787,0.02250701434869725
29,6,5,0.03267229631014279,0.0067757827713389234
29,7,5,0.11577287440907753,0.016936449267520158
29,8,5,0.16850247796990223,0.009330787731515145
30,0,5,0.14893022081171964,0.015122308698471835
30,1,5,0.09141466489386504,0.01929339648957702
30,2,5,0.13931776111950206,0.013054561343410504
30,3,5,0.06038755703884946,0.013267715992892332
30,4,5,0.09911855360681265,0.015478556749169583
30,5,5,0.20166206329222955,0.011888873945439143
30,6,5,0.05941867316579317,0.01863174593174317
30,7,5,0.17057320835746925,0.007392359412862186
30,8,5,0.11963348379859795,0.01894157564304285
31,0,5,0.11955764664344766,0.01408178091372208
31,1,5,0.10005353212195991,0.015179105373568452
31,2,5,0.13278590664017587,0.008730224947402608
31,3,5,0.03924722911427203,0.018593436136982517
31,4,5,0.14489521619159737,0.012717224597126741
31,5,5,0.11699874309786776,0.013653450309597684
31,6,5,0.05409610364643884,0.009179614006821562
31,7,5,0.16378502526758565,0.006873645584064332
31,8,5,0.16321214292755107,0.014976570046814144
32,0,5,0.13570545919694,0.009503126978841705
32,1,5,0.08995941954767075,0.023674906651384435
32,2,5,0.17266480616334787,0.006641644579442874
32,3,5,0.06645595926119907,0.009011277434375131
32,4,5,0.1925127441527427,0.019988999020734977
32,5,5,0.25207662683803667,0.029370445060681143
32,6,5,0.08560999612600743,0.01602285631514367
32,7,5,0.14989956433141985,0.013680150434676231
32,8,5,0.1596226144114073,0.011172421545836584
33,0,5,0.1691139797478967,0.009882588452096818
33,1,5,0.14958617343007058,0.014423696537126518
33,2,5,0.14743286741490771,0.017648596815991593
33,3,5,0.10225479331462492,0.00960846973285628
33,4,5,0.08593131317849409,0.012861912985836742
33,5,5,0.06999163179116649,0.009275594260144798
33,6,5,0.0554230417804553,0.009937620856210048
33,7,5,0.16573418531419665,0.010103617389141596
33,8,5,0.16415723904534446,0.013746145210333165
34,0,5,0.1372796146335725,0.014298952107493216
34,1,5,0.1048316595425421,0.015848132755960503
34,2,5,0.09574853394479614,0.014307637713823219
34,3,5,0.09100410789204778,0.006856377872227751
34,4,5,0.0868192780697233,0.019654784411531935
34,5,5,0.10150340309145015,0.009358724614205553
34,6,5,0.07460889965945387,0.00546532270072154
34,7,5,0.20569484767623733,0.012650116188173357
34,8,5,0.1355310134556817,0.006654409560745694
35,0,5,0.08504344011410059,0.012360442191934374
35,1,5,0.07192431068955345,0.011170132714936118
35,2,5,0.058723732740048606,0.00650610756124182
35,3,5,0.07483882740134207,0.014100858853667294
35,4,5,0.02584785925668511,0.012207965721208601
35,5,5,0.10675896333988825,0.01596953262575019
35,6,5,0.03657337372681346,0.008847663612127988
35,7,5,0.062336718768722335,0.005901609996428931
35,8,5,0.06232636747160312,0.005103535748629931
36,0,5,0.021659749049469167,0.01020941745241959
36,1,5,0.04707803176151346,0.004839317143540994
36,2,5,0.034736350277299044,0.013183995356752022
36,3,5,0.031458466865887845,0.003530939197199501
36,4,5,0.10442090962551398,0.008078143625850763
36,5,5,0.057240267572329515,0.011373682980569323
36,6,5,0.07503298398372285,0.011953026979365273
36,7,5,0.10541894816529732,0.009739423860443268
36,8,5,0.10119570562941269,0.0064523963614700735
37,0,5,0.14717888451895977,0.0064123281311187705
37,1,5,0.08166932420943625,0.014043937790467895
37,2,5,0.09415762534659453,0.012360411293800517
37,3,5,0.027069678991629265,0.008253184703298555
37,4,5,0.13738828647525303,0.01935337946861296
37,5,5,0.14414552115396995,0.01107939194020755
37,6,5,0.07087114339619349,0.005910878043361725
37,7,5,0.0996169433937835,0.00962354167084007
37,8,5,0.11769532609675762,0.017237340103548795
38,0,5,0.14331042037201727,0.006918658140509062
38,1,5,0.1173319546441642,0.007713627027156672
38,2,5,0.06979832200004185,0.0132042501210863
38,3,5,0.09260971369868747,0.008171471521027006
38,4,5,0.14302873006112385,0.00942721534998964
38,5,5,0.14578896831621485,0.006214412401001929
38,6,5,0.026045909418707547,0.0079955379058537
38,7,5,0.12130298078967294,0.01200445874600079
38,8,5,0.08204807002932724,0.015539069322044697
39,0,5,0.20040322610691946,0.005017603311360374
39,1,5,0.06426464164809627,0.008170497044660517
39,2,5,0.12380860345883289,0.01713080579411871
39,3,5,0.16097298185551714,0.015209544154438264
39,4,5,0.0362639748075249,0.01140043169993408
39,5,5,0.24692460488548104,0.006526135965896621
39,6,5,0.0727292260887458,0.012021125906194807
39,7,5,0.1512990431431343,0.006695674236700639
39,8,5,0.11139693943340911,0.014239274800661478
40,0,5,0.12099735997731738,0.019483030440565655
40,1,5,0.12910111943192434,0.028376461430834554
40,2,5,0.1497726276776299,0.011833190879436139
40,3,5,0.05030650546673403,0.01712206956264526
40,4,5,0.0990014332373439,0.01093641788070857
40,5,5,0.07554466037086546,0.014082447334724333
40,6,5,0.07204912757271731,0.013801660227390733
40,7,5,0.16195344213039714,0.013248505294770153
40,8,5,0.11748400999341742,0.00866115598509075
