subject,channel,alpha,f1,drop_pp
1,0,1.0,0.7320660924481406,0.0
1,0,0.75,0.7242623670908634,0.7803725357277136
1,0,0.5,0.7100373012558353,2.2028791192305275
1,0,0.25,0.7092164888539526,2.2849603594187973
1,0,0.0,0.6908546441542677,4.1211448293872905
1,1,1.0,0.7320660924481406,0.0
1,1,0.75,0.7422507719065885,-1.018467945844792
1,1,0.5,0.7418519233598118,-0.9785830911671178
1,1,0.25,0.7443320750818018,-1.2265982633661188
1,1,0.0,0.7394609184082868,-0.7394825960146179
1,2,1.0,0.7320660924481406,0.0
1,2,0.75,0.735191300594985,-0.31252081468444715
1,2,0.5,0.7284547354383117,0.36113570098288417
1,2,0.25,0.738283185164524,-0.6217092716383377
1,2,0.0,0.7289050730665462,0.316101938159441
1,3,1.0,0.7320660924481406,0.0
1,3,0.75,0.7286564714639235,0.34096209842170433
1,3,0.5,0.7099488699538352,2.2117222494305366
1,3,0.25,0.6950483616905232,3.7017730757617384
1,3,0.0,0.6769178069923336,5.514828545580697
1,4,1.0,0.7320660924481406,0.0
1,4,0.75,0.7621245340963414,-3.0058441648200818
1,4,0.5,0.7647759086161163,-3.2709816167975747
1,4,0.25,0.7540931947870724,-2.202710233893179
1,4,0.0,0.7254516973561623,0.6614395091978253
1,5,1.0,0.7320660924481406,0.0
1,5,0.75,0.705408037010586,2.6658055437554617
1,5,0.5,0.6373366226018551,9.47294698462855
1,5,0.25,0.6171573913311609,11.490870111697971
1,5,0.0,0.5855769343914793,14.64891580566613
1,6,1.0,0.7320660924481406,0.0
1,6,0.75,0.739977026815303,-0.7910934367162392
1,6,0.5,0.7316851083476096,0.03809841005310011
1,6,0.25,0.7317359460530106,0.03301463951299599
1,6,0.0,0.7451380988874882,-1.3072006439347583
1,7,1.0,0.7320660924481406,0.0
1,7,0.75,0.7096118185771612,2.2454273870979424
1,7,0.5,0.6956586748452156,3.6407417602924985
1,7,0.25,0.6764756191583908,5.559047328974975
1,7,0.0,0.6465809680094586,8.548512443868194
1,8,1.0,0.7320660924481406,0.0
1,8,0.75,0.7291400143265345,0.2926078121606057
1,8,0.5,0.7148171209103397,1.7248971537800917
1,8,0.25,0.7121705672039502,1.989552524419036
1,8,0.0,0.6981912043884296,3.387488805971095
2,0,1.0,0.8895509322587882,0.0
2,0,0.75,0.9057042895188576,-1.615335726006939
2,0,0.5,0.9052950416428164,-1.5744109384028149
2,0,0.25,0.9046395711132917,-1.508863885450351
2,0,0.0,0.897089943330669,-0.7539011071880819
2,1,1.0,0.8895509322587882,0.0
2,1,0.75,0.8775031100160634,1.2047822242724826
2,1,0.5,0.8723511803935655,1.7199751865222712
2,1,0.25,0.8648423515765173,2.4708580682270886
2,1,0.0,0.8587151933041635,3.083573895462477
2,2,1.0,0.8895509322587882,0.0
2,2,0.75,0.8807024951215259,0.8848437137262355
2,2,0.5,0.8732381916134692,1.6312740645319068
2,2,0.25,0.8616250808059325,2.7925851452855754
2,2,0.0,0.8493947019072833,4.015623035150496
2,3,1.0,0.8895509322587882,0.0
2,3,0.75,0.8887383611090198,0.0812571149768404
2,3,0.5,0.8855363949028399,0.40145373559483666
2,3,0.25,0.880465569324265,0.9085362934523222
2,3,0.0,0.8708867145462948,1.866421771249338
2,4,1.0,0.8895509322587882,0.0
2,4,0.75,0.8784331455506502,1.111778670813801
2,4,0.5,0.8739190315210804,1.5631900737707816
2,4,0.25,0.8807915470536039,0.8759385205184378
2,4,0.0,0.8859941725881157,0.35567596706724824
2,5,1.0,0.8895509322587882,0.0
2,5,0.75,0.8752191717760375,1.4331760482750755
2,5,0.5,0.8673611111111112,2.218982114767698
2,5,0.25,0.8674518493164236,2.2099082942364623
2,5,0.0,0.8669839645856737,2.25669676731145
2,6,1.0,0.8895509322587882,0.0
2,6,0.75,0.8789714044492906,1.0579527809497669
2,6,0.5,0.8636345783983715,2.5916353860416685
2,6,0.25,0.8676618419769977,2.1889090281790535
2,6,0.0,0.8661110393280809,2.3439892930707362
2,7,1.0,0.8895509322587882,0.0
2,7,0.75,0.891807340604507,-0.2256408345718719
2,7,0.5,0.8869212521030747,0.2629680155713521
2,7,0.25,0.869640942467541,1.9909989791247251
2,7,0.0,0.8594364468640305,3.0114485394757695
2,8,1.0,0.8895509322587882,0.0
2,8,0.75,0.8738723998064059,1.5678532452382377
2,8,0.5,0.8755941578083138,1.3956774450474385
2,8,0.25,0.8726961114590648,1.6854820799723447
2,8,0.0,0.8609999256723606,2.855100658642762
3,0,1.0,0.8966522155674702,0.0
3,0,0.75,0.8988935748201872,-0.22413592527169568
3,0,0.5,0.9042037843499353,-0.7551568782465101
3,0,0.25,0.8969420977421024,-0.028988217463221666
3,0,0.0,0.8839390269643652,1.2713188603104997
3,1,1.0,0.8966522155674702,0.0
3,1,0.75,0.8897371655151323,0.6915050052337945
3,1,0.5,0.882910181286264,1.374203428120624
3,1,0.25,0.8881486193847402,0.850359618273
3,1,0.0,0.8840706168831168,1.258159868435338
3,2,1.0,0.8966522155674702,0.0
3,2,0.75,0.899656192202659,-0.300397663518881
3,2,0.5,0.891350336777196,0.5301878790274217
3,2,0.25,0.9013882013761373,-0.4735985808667076
3,2,0.0,0.8975243622592508,-0.08721466917805953
3,3,1.0,0.8966522155674702,0.0
3,3,0.75,0.8735502761059334,2.3101939461536825
3,3,0.5,0.8502663806857716,4.638583488169856
3,3,0.25,0.8213381023163631,7.5314113251107155
3,3,0.0,0.7665476839944925,13.010453157297775
3,4,1.0,0.8966522155674702,0.0
3,4,0.75,0.9052607386519592,-0.8608523084489006
3,4,0.5,0.9121640767916553,-1.551186122418513
3,4,0.25,0.9085574230580661,-1.190520749059587
3,4,0.0,0.9175396029582916,-2.088738739082141
3,5,1.0,0.8966522155674702,0.0
3,5,0.75,0.889454622917143,0.7197592650327267
3,5,0.5,0.903608138886044,-0.6955923318573753
3,5,0.25,0.9067037843499353,-1.0051568782465048
3,5,0.0,0.9068129567116046,-1.0160741144134344
3,6,1.0,0.8966522155674702,0.0
3,6,0.75,0.8952453681835774,0.14068473838928508
3,6,0.5,0.8920928772623689,0.4559338305101357
3,6,0.25,0.8940377204447033,0.2614495122766902
3,6,0.0,0.8876395210130777,0.9012694554392464
3,7,1.0,0.8966522155674702,0.0
3,7,0.75,0.892935821155676,0.3716394411794166
3,7,0.5,0.8873063664753449,0.9345849092125325
3,7,0.25,0.8743163626137673,2.2335852953702884
3,7,0.0,0.8602199629074909,3.643225265997929
3,8,1.0,0.8966522155674702,0.0
3,8,0.75,0.8869303011549218,0.9721914412548438
3,8,0.5,0.8822386374245532,1.4413578142916994
3,8,0.25,0.8887655969692368,0.7886618598233364
3,8,0.0,0.8829977312685869,1.3654484298883274
4,0,1.0,0.8630467203185692,0.0
4,0,0.75,0.850206456657109,1.2840263661460183
4,0,0.5,0.8399922540143835,2.305446630418573
4,0,0.25,0.8243682941301668,3.867842618840245
4,0,0.0,0.8106439552551323,5.2402765063436885
4,1,1.0,0.8630467203185692,0.0
4,1,0.75,0.8401181103194344,2.292860999913482
4,1,0.5,0.8364942528735633,2.6552467445005945
4,1,0.25,0.8095332419250139,5.351347839355536
4,1,0.0,0.7933998904213448,6.964682989722437
4,2,1.0,0.8630467203185692,0.0
4,2,0.75,0.8516617233874123,1.138499693115691
4,2,0.5,0.8357951127428587,2.7251607575710546
4,2,0.25,0.8409739399700463,2.207278034852289
4,2,0.0,0.8228655749648751,4.01811453536941
4,3,1.0,0.8630467203185692,0.0
4,3,0.75,0.8747318301714534,-1.168510985288418
4,3,0.5,0.8809422643744808,-1.7895544055911539
4,3,0.25,0.8869036969182326,-2.385697659966335
4,3,0.0,0.890077606920489,-2.703088660191977
4,4,1.0,0.8630467203185692,0.0
4,4,0.75,0.8775462196859725,-1.4499499367403246
4,4,0.5,0.870682396897612,-0.7635676579042738
4,4,0.25,0.8727156066162247,-0.9668886297655499
4,4,0.0,0.8775369258702523,-1.4490205551683122
4,5,1.0,0.8630467203185692,0.0
4,5,0.75,0.860961271045234,0.20854492733352048
4,5,0.5,0.8851886249861289,-2.214190466755972
4,5,0.25,0.8833175732542119,-2.027085293564268
4,5,0.0,0.8739083353607523,-1.0861615042183081
4,6,1.0,0.8630467203185692,0.0
4,6,0.75,0.8529037269417111,1.014299337685809
4,6,0.5,0.8419676555588583,2.1079064759710886
4,6,0.25,0.8353384966694964,2.770822364907277
4,6,0.0,0.8519856434453941,1.1061076873175146
4,7,1.0,0.8630467203185692,0.0
4,7,0.75,0.8519877863660079,1.10589339525613
4,7,0.5,0.8607875494561181,0.22591708624510876
4,7,0.25,0.853922450432973,0.9124269885596226
4,7,0.0,0.8547740180982886,0.8272702220280648
4,8,1.0,0.8630467203185692,0.0
4,8,0.75,0.8612073826786466,0.18393376399226113
4,8,0.5,0.8603951678619544,0.26515524566148585
4,8,0.25,0.8577902388348635,0.5256481483705722
4,8,0.0,0.8518279162222688,1.1218804096300383
5,0,1.0,0.6603674975202154,0.0
5,0,0.75,0.6586417523804845,0.17257451397308943
5,0,0.5,0.6561594084220319,0.42080890981834873
5,0,0.25,0.6548572299544408,0.5510267565774551
5,0,0.0,0.6520922742371742,0.82752232830412
5,1,1.0,0.6603674975202154,0.0
5,1,0.75,0.6710871839286274,-1.0719686408412032
5,1,0.5,0.6756844243461344,-1.5316926825919008
5,1,0.25,0.6765852684608219,-1.6217770940606502
5,1,0.0,0.6728623793625756,-1.249488184236025
5,2,1.0,0.6603674975202154,0.0
5,2,0.75,0.6617494766991272,-0.13819791789118074
5,2,0.5,0.6551042300590196,0.5263267461195764
5,2,0.25,0.6587471125543614,0.1620384965854038
5,2,0.0,0.6574541442694585,0.29133532507569226
5,3,1.0,0.6603674975202154,0.0
5,3,0.75,0.6878559212704841,-2.748842375026872
5,3,0.5,0.7141924609636505,-5.3824963443435125
5,3,0.25,0.7326665251967619,-7.22990276765465
5,3,0.0,0.7378750630830502,-7.750756556283478
5,4,1.0,0.6603674975202154,0.0
5,4,0.75,0.6549257941575463,0.5441703362669137
5,4,0.5,0.6398075327402157,2.055996477999966
5,4,0.25,0.6579173356835317,0.2450161836683673
5,4,0.0,0.6662306062269594,-0.5863108706744002
5,5,1.0,0.6603674975202154,0.0
5,5,0.75,0.6497816916004209,1.0585805919794522
5,5,0.5,0.6478338507900894,1.2533646730126025
5,5,0.25,0.6489755238964636,1.1391973623751772
5,5,0.0,0.6480589688907268,1.2308528629488613
5,6,1.0,0.6603674975202154,0.0
5,6,0.75,0.6631381917146449,-0.2770694194429546
5,6,0.5,0.6587080284838349,0.16594690363804787
5,6,0.25,0.6597640348646414,0.060346265557398304
5,6,0.0,0.6515411661010282,0.8826331419187206
5,7,1.0,0.6603674975202154,0.0
5,7,0.75,0.6642550168590344,-0.38875193388190343
5,7,0.5,0.6706096877489252,-1.0242190228709758
5,7,0.25,0.6456457701772851,1.4721727342930313
5,7,0.0,0.638587180687465,2.178031683275039
5,8,1.0,0.6603674975202154,0.0
5,8,0.75,0.6680854090500077,-0.7717911529792287
5,8,0.5,0.666606587643557,-0.6239090123341562
5,8,0.25,0.6560419026250994,0.43255948951159695
5,8,0.0,0.6468871403882925,1.348035713192286
6,0,1.0,0.7708703908465939,0.0
6,0,0.75,0.7658761622438897,0.4994228602704265
6,0,0.5,0.7804149739805538,-0.9544583133959894
6,0,0.25,0.7751813999243353,-0.4311009077741401
6,0,0.0,0.7520929058638337,1.8777484982760217
6,1,1.0,0.7708703908465939,0.0
6,1,0.75,0.7656758291399945,0.5194561706599377
6,1,0.5,0.7622751866481358,0.8595204198458162
6,1,0.25,0.7628944493006993,0.7975941545894649
6,1,0.0,0.7472801285093644,2.3590262337229495
6,2,1.0,0.7708703908465939,0.0
6,2,0.75,0.7753798809885565,-0.45094901419625577
6,2,0.5,0.773947107604546,-0.30767167579520693
6,2,0.25,0.7741629683563322,-0.3292577509738326
6,2,0.0,0.766403981748946,0.446640909764795
6,3,1.0,0.7708703908465939,0.0
6,3,0.75,0.7803434479511286,-0.9473057104534721
6,3,0.5,0.7803434479511286,-0.9473057104534721
6,3,0.25,0.7917166666936253,-2.084627584703136
6,3,0.0,0.800041849642949,-2.9171458796355076
6,4,1.0,0.7708703908465939,0.0
6,4,0.75,0.7463753873679934,2.4495003478600563
6,4,0.5,0.7382492273449323,3.2621163501661665
6,4,0.25,0.7267074184447065,4.416297240188738
6,4,0.0,0.7511153433720723,1.9755047474521614
6,5,1.0,0.7708703908465939,0.0
6,5,0.75,0.7651139563371496,0.5756434509444297
6,5,0.5,0.7665522226201322,0.4318168226461694
6,5,0.25,0.7683832539944826,0.24871368521113268
6,5,0.0,0.7511190717914327,1.9751319055161254
6,6,1.0,0.7708703908465939,0.0
6,6,0.75,0.7633330873797277,0.7537303466866208
6,6,0.5,0.7513226872554444,1.9547703591149546
6,6,0.25,0.7567398008216091,1.4130590024984846
6,6,0.0,0.7703643267252669,0.05060641213270323
6,7,1.0,0.7708703908465939,0.0
6,7,0.75,0.7483682809472212,2.2502109899372735
6,7,0.5,0.7339597271308458,3.6910663715748138
6,7,0.25,0.7024666779344696,6.840371291212433
6,7,0.0,0.6811851637342484,8.96852271123455
6,8,1.0,0.7708703908465939,0.0
6,8,0.75,0.7419265174971726,2.894387334942128
6,8,0.5,0.7455862624176217,2.528412842897221
6,8,0.25,0.7317465752174572,3.9123815629136693
6,8,0.0,0.7186700767263428,5.220031412025117
7,0,1.0,0.7990373874759406,0.0
7,0,0.75,0.7780074931976091,2.1029894278331462
7,0,0.5,0.7868420946441081,1.2195292831832405
7,0,0.25,0.7930221832185649,0.6015204257375673
7,0,0.0,0.7793727564204987,1.9664631055441806
7,1,1.0,0.7990373874759406,0.0
7,1,0.75,0.7806174458847236,1.841994159121696
7,1,0.5,0.7768604738897518,2.2176913586188784
7,1,0.25,0.7803464103666357,1.8690977109304896
7,1,0.0,0.784983996629198,1.4053390846742508
7,2,1.0,0.7990373874759406,0.0
7,2,0.75,0.7966259501890038,0.2411437286936713
7,2,0.5,0.7845445433778804,1.4492844098060176
7,2,0.25,0.7779038647442277,2.1133522731712873
7,2,0.0,0.7503661411573408,4.867124631859976
7,3,1.0,0.7990373874759406,0.0
7,3,0.75,0.8030218420865408,-0.3984454610600263
7,3,0.5,0.797943264525671,0.10941229502695604
7,3,0.25,0.7970174833218311,0.20199041541094642
7,3,0.0,0.7854579146957508,1.3579472780189783
7,4,1.0,0.7990373874759406,0.0
7,4,0.75,0.7819410005922623,1.7096386883678205
7,4,0.5,0.7751019490717187,2.3935438404221854
7,4,0.25,0.7826404365468907,1.6396950929049803
7,4,0.0,0.7955436451856297,0.3493742290310853
7,5,1.0,0.7990373874759406,0.0
7,5,0.75,0.797010355989907,0.20270314860335592
7,5,0.5,0.7969122643630325,0.21251231129080228
7,5,0.25,0.8058766483043059,-0.683926082836539
7,5,0.0,0.8366150775690387,-3.7577690093098193
7,6,1.0,0.7990373874759406,0.0
7,6,0.75,0.7991846258820197,-0.014723840607910876
7,6,0.5,0.7959942290329243,0.30431584430162806
7,6,0.25,0.7930735312286366,0.5963856247304
7,6,0.0,0.7964561349433706,0.2581252532569911
7,7,1.0,0.7990373874759406,0.0
7,7,0.75,0.7773743143311181,2.166307314482241
7,7,0.5,0.7671691172363801,3.1868270239560403
7,7,0.25,0.7633492498375687,3.5688137638371864
7,7,0.0,0.7564816328892541,4.255575458668648
7,8,1.0,0.7990373874759406,0.0
7,8,0.75,0.7902052364293476,0.8832151046592962
7,8,0.5,0.7861612769871167,1.2876110488823866
7,8,0.25,0.7591735455381763,3.9863841937764266
7,8,0.0,0.7490255178499916,5.001186962594895
8,0,1.0,0.7886082215217686,0.0
8,0,0.75,0.7943046722490366,-0.5696450727267988
8,0,0.5,0.7917299393148343,-0.31217177930656925
8,0,0.25,0.7918857439032414,-0.32775223814728305
8,0,0.0,0.7857581989429347,0.2850022578833822
8,1,1.0,0.7886082215217686,0.0
8,1,0.75,0.7819536736016706,0.6654547920098008
8,1,0.5,0.7900250192552696,-0.14167977335010074
8,1,0.25,0.7907726696172179,-0.2164448095449356
8,1,0.0,0.8045226351562259,-1.5914413634457336
8,2,1.0,0.7886082215217686,0.0
8,2,0.75,0.7949524731214785,-0.6344251599709971
8,2,0.5,0.8032997144204552,-1.4691492898686653
8,2,0.25,0.8031248480901152,-1.4516626568346624
8,2,0.0,0.7903664466662743,-0.17582251445057429
8,3,1.0,0.7886082215217686,0.0
8,3,0.75,0.7941192287172114,-0.5511007195442841
8,3,0.5,0.7848532596071673,0.3754961914601229
8,3,0.25,0.7799817424072071,0.8626479114561492
8,3,0.0,0.7776331101574107,1.0975111364357915
8,4,1.0,0.7886082215217686,0.0
8,4,0.75,0.7819305741084164,0.6677647413352195
8,4,0.5,0.7742753947819306,1.4332826739837934
8,4,0.25,0.7503835993231704,3.8224622198598124
8,4,0.0,0.7497483204392916,3.8859901082476944
8,5,1.0,0.7886082215217686,0.0
8,5,0.75,0.7494418827280759,3.916633879369269
8,5,0.5,0.7162780175074275,7.233020401434109
8,5,0.25,0.7160113644029065,7.25968571188621
8,5,0.0,0.7226534431482412,6.595477837352737
8,6,1.0,0.7886082215217686,0.0
8,6,0.75,0.794733166303184,-0.6124944781415453
8,6,0.5,0.7913075913808464,-0.2699369859077816
8,6,0.25,0.7923721687658176,-0.37639472440490485
8,6,0.0,0.779306705527609,0.9301515994159626
8,7,1.0,0.7886082215217686,0.0
8,7,0.75,0.8141800191247748,-2.5571797603006208
8,7,0.5,0.8139362452810537,-2.532802375928511
8,7,0.25,0.7939749029265544,-0.53666814047858
8,7,0.0,0.768027610689636,2.0580610832132584
8,8,1.0,0.7886082215217686,0.0
8,8,0.75,0.792542915324365,-0.39346938025964784
8,8,0.5,0.7921681355522168,-0.3559914030448197
8,8,0.25,0.7765219732813663,1.2086248240402275
8,8,0.0,0.769827988286313,1.8780233235455523
9,0,1.0,0.7889579851699275,0.0
9,0,0.75,0.7862853883281777,0.2672596841749808
9,0,0.5,0.7952199517473015,-0.626196657737399
9,0,0.25,0.7843432798610928,0.4614705308834788
9,0,0.0,0.776249523849383,1.2708461320544595
9,1,1.0,0.7889579851699275,0.0
9,1,0.75,0.7900498069865575,-0.10918218166299232
9,1,0.5,0.7839815409316404,0.49764442382871366
9,1,0.25,0.7606514150414455,2.8306570128482034
9,1,0.0,0.7360228389876496,5.293514618227791
9,2,1.0,0.7889579851699275,0.0
9,2,0.75,0.7966606277815325,-0.7702642611604915
9,2,0.5,0.7996004999642932,-1.064251479436562
9,2,0.25,0.7752462948190206,1.3711690350906913
9,2,0.0,0.7511588665944455,3.7799118575482016
9,3,1.0,0.7889579851699275,0.0
9,3,0.75,0.7923134904918869,-0.33555053219593844
9,3,0.5,0.7919855811850203,-0.3027596015092726
9,3,0.25,0.7964019967618848,-0.7444011591957289
9,3,0.0,0.7911318114027206,-0.21738262327930524
9,4,1.0,0.7889579851699275,0.0
9,4,0.75,0.7843114663262649,0.4646518843662628
9,4,0.5,0.7732682876621864,1.5689697507741185
9,4,0.25,0.7687875137892075,2.0170471380720034
9,4,0.0,0.7738066912314826,1.5151293938444943
9,5,1.0,0.7889579851699275,0.0
9,5,0.75,0.7870703259601689,0.1887659209758641
9,5,0.5,0.7822308371440927,0.672714802583485
9,5,0.25,0.7692059562296346,1.9752028940292932
9,5,0.0,0.7507685058485355,3.818947932139205
9,6,1.0,0.7889579851699275,0.0
9,6,0.75,0.7888984797464258,0.005950542350174892
9,6,0.5,0.7804248984966506,0.8533086673276902
9,6,0.25,0.7780409050494538,1.0917080120473766
9,6,0.0,0.7890346939664348,-0.007670879650722995
9,7,1.0,0.7889579851699275,0.0
9,7,0.75,0.7795800250369602,0.9377960132967322
9,7,0.5,0.7691421391236989,1.9815846046228658
9,7,0.25,0.7644934628130736,2.4464522356853924
9,7,0.0,0.7591248733535968,2.983311181633075
9,8,1.0,0.7889579851699275,0.0
9,8,0.75,0.8022407058973671,-1.3282720727439523
9,8,0.5,0.8118678426189593,-2.2909857449031734
9,8,0.25,0.8098629469225348,-2.0904961752607254
9,8,0.0,0.7955613963332369,-0.6603411163309314
10,0,1.0,0.7666876264338782,0.0
10,0,0.75,0.757283917341347,0.9403709092531187
10,0,0.5,0.7524987859159529,1.418884051792535
10,0,0.25,0.7685821658472429,-0.18945394133647042
10,0,0.0,0.7764120761934837,-0.9724449759605513
10,1,1.0,0.7666876264338782,0.0
10,1,0.75,0.7612438940238561,0.5443732410022162
10,1,0.5,0.750210299811674,1.6477326622204247
10,1,0.25,0.7370473597787572,2.9640266655120984
10,1,0.0,0.7347779580232696,3.1909668410608605
10,2,1.0,0.7666876264338782,0.0
10,2,0.75,0.7681011807120295,-0.14135542781512633
10,2,0.5,0.7575575611853661,0.913006524851212
10,2,0.25,0.7696864299755389,-0.29988035416607106
10,2,0.0,0.7731795782343851,-0.6491951800506879
10,3,1.0,0.7666876264338782,0.0
10,3,0.75,0.7653477346912875,0.13398917425907486
10,3,0.5,0.7628122071726722,0.3875419261206048
10,3,0.25,0.7575797122953425,0.9107914138535733
10,3,0.0,0.7459811038239392,2.0706522609938993
10,4,1.0,0.7666876264338782,0.0
10,4,0.75,0.7613276172616701,0.5360009172208136
10,4,0.5,0.7548213066379396,1.1866319795938662
10,4,0.25,0.747767930167822,1.8919696266056274
10,4,0.0,0.7498748473748474,1.681277905903078
10,5,1.0,0.7666876264338782,0.0
10,5,0.75,0.7520602552557439,1.4627371178134285
10,5,0.5,0.7496731183417986,1.7014508092079605
10,5,0.25,0.7641995770271162,0.24880494067620607
10,5,0.0,0.7647720921135315,0.19155343203467456
10,6,1.0,0.7666876264338782,0.0
10,6,0.75,0.7619486038400087,0.4739022593869491
10,6,0.5,0.7679885945294619,-0.13009680955836656
10,6,0.25,0.7646423268291438,0.20452996047344296
10,6,0.0,0.768597010425025,-0.1909383991146818
10,7,1.0,0.7666876264338782,0.0
10,7,0.75,0.7785821930129093,-1.1894566579031096
10,7,0.5,0.7707707307879952,-0.4083104354116962
10,7,0.25,0.7651549769164065,0.15326495174716737
10,7,0.0,0.7540919953453085,1.2595631088569759
10,8,1.0,0.7666876264338782,0.0
10,8,0.75,0.7642296679363747,0.24579584975035207
10,8,0.5,0.7648353837450292,0.18522426888489818
10,8,0.25,0.7663885177312637,0.02991087026145145
10,8,0.0,0.7656005286911987,0.10870977426795658
11,0,1.0,0.9427509975336064,0.0
11,0,0.75,0.9404292700969916,0.232172743661474
11,0,0.5,0.9434883198562445,-0.07373223226381231
11,0,0.25,0.9442514357331915,-0.1500438199585119
11,0,0.0,0.9466392887904516,-0.38882912568452
11,1,1.0,0.9427509975336064,0.0
11,1,0.75,0.943593827059017,-0.08428295254105933
11,1,0.5,0.9406521607861807,0.20988367474256142
11,1,0.25,0.9264931489963205,1.6257848537285846
11,1,0.0,0.9133279241974894,2.9423073336116934
11,2,1.0,0.9427509975336064,0.0
11,2,0.75,0.938047179893557,0.4703817640049346
11,2,0.5,0.9281792264707532,1.4571771062853123
11,2,0.25,0.9193490889730042,2.3401908560602203
11,2,0.0,0.9070378731904207,3.571312434318563
11,3,1.0,0.9427509975336064,0.0
11,3,0.75,0.9417669850544783,0.09840124791280491
11,3,0.5,0.9416449409552857,0.11060565783206355
11,3,0.25,0.9371863878614821,0.5564609672124243
11,3,0.0,0.9034364780127493,3.931451952085707
11,4,1.0,0.9427509975336064,0.0
11,4,0.75,0.9271492044799852,1.5601793053621194
11,4,0.5,0.9176176730011499,2.5133324532456425
11,4,0.25,0.9214542797160756,2.129671781753073
11,4,0.0,0.9267215426513155,1.6029454882290906
11,5,1.0,0.9427509975336064,0.0
11,5,0.75,0.9178084384190901,2.494255911451626
11,5,0.5,0.9213476165693911,2.1403380964215235
11,5,0.25,0.9259070690405609,1.6843928493045501
11,5,0.0,0.9220619352654643,2.0689062268142044
11,6,1.0,0.9427509975336064,0.0
11,6,0.75,0.9418267642761862,0.09242332574201928
11,6,0.5,0.9409726911330791,0.17783064005272298
11,6,0.25,0.9398938546764635,0.28571428571428914
11,6,0.0,0.9362127105589464,0.6538286974659968
11,7,1.0,0.9427509975336064,0.0
11,7,0.75,0.946627299169916,-0.3876301636309587
11,7,0.5,0.9400108391729886,0.2740158360617806
11,7,0.25,0.9321554917635195,1.0595505770086833
11,7,0.0,0.9238917666903086,1.885923084329777
11,8,1.0,0.9427509975336064,0.0
11,8,0.75,0.9456150661014813,-0.2864068567874911
11,8,0.5,0.9473960898212418,-0.4645092287635433
11,8,0.25,0.9443439810451665,-0.15929835115601199
11,8,0.0,0.9381927467056939,0.4558250827912502
12,0,1.0,0.8915049147235498,0.0
12,0,0.75,0.8885660840040241,0.2938830719525609
12,0,0.5,0.8901928475664559,0.13120671570938658
12,0,0.25,0.8902363884444628,0.12685262790869123
12,0,0.0,0.8982691024252913,-0.6764187701741586
12,1,1.0,0.8915049147235498,0.0
12,1,0.75,0.8901210119763749,0.13839027471748144
12,1,0.5,0.880719635265647,1.0785279457902752
12,1,0.25,0.873842644766069,1.766226995748077
12,1,0.0,0.8530551886664539,3.8449726057095845
12,2,1.0,0.8915049147235498,0.0
12,2,0.75,0.886554235272184,0.4950679451365736
12,2,0.5,0.8817640692640693,0.9740845459480507
12,2,0.25,0.8650473481464256,2.645756657712417
12,2,0.0,0.8554379478599291,3.6066966863620653
12,3,1.0,0.8915049147235498,0.0
12,3,0.75,0.889397020302173,0.21078944213767103
12,3,0.5,0.8793861603620099,1.2118754361539863
12,3,0.25,0.8708673320979183,2.0637582625631423
12,3,0.0,0.8602693982720063,3.1235516451543432
12,4,1.0,0.8915049147235498,0.0
12,4,0.75,0.8791429214979889,1.2361993225560863
12,4,0.5,0.8791865888180024,1.2318325905547378
12,4,0.25,0.8745524671170413,1.6952447606508492
12,4,0.0,0.8865980247872762,0.49068899362735285
12,5,1.0,0.8915049147235498,0.0
12,5,0.75,0.894175376813088,-0.267046208953825
12,5,0.5,0.8887661539276813,0.27387607958684335
12,5,0.25,0.8831776659324252,0.8327248791124564
12,5,0.0,0.8892905926461883,0.2214322077361497
12,6,1.0,0.8915049147235498,0.0
12,6,0.75,0.8950537575356983,-0.35488428121485116
12,6,0.5,0.9019349999593917,-1.043008523584199
12,6,0.25,0.9056925578435594,-1.418764312000964
12,6,0.0,0.9058479016729577,-1.4342986949407943
12,7,1.0,0.8915049147235498,0.0
12,7,0.75,0.8875045830608009,0.4000331662748824
12,7,0.5,0.8795701034952332,1.1934811228316522
12,7,0.25,0.8775592949176049,1.3945619805944887
12,7,0.0,0.8863886466452815,0.511626807826826
12,8,1.0,0.8915049147235498,0.0
12,8,0.75,0.8851956860550068,0.6309228668542999
12,8,0.5,0.8906715202874316,0.08333944361181844
12,8,0.25,0.88135685286941,1.0148061854139745
12,8,0.0,0.8634280030266124,2.807691169693738
13,0,1.0,0.8739268224231604,0.0
13,0,0.75,0.8738289906483102,0.00978317748502322
13,0,0.5,0.8714799587207364,0.24468637024240847
13,0,0.25,0.8476896343795657,2.623718804359476
13,0,0.0,0.8248354005155052,4.909142190765525
13,1,1.0,0.8739268224231604,0.0
13,1,0.75,0.8690297200992874,0.48971023238730815
13,1,0.5,0.8586130946130421,1.5313727810118305
13,1,0.25,0.855927330227129,1.7999492196031475
13,1,0.0,0.8594377282793412,1.448909414381927
13,2,1.0,0.8739268224231604,0.0
13,2,0.75,0.8714925105138009,0.2434311909359499
13,2,0.5,0.8739589549631397,-0.0032132539979246033
13,2,0.25,0.8629127888806732,1.10140335424872
13,2,0.0,0.8555581184188603,1.836870400430013
13,3,1.0,0.8739268224231604,0.0
13,3,0.75,0.8753370622346249,-0.14102398114644865
13,3,0.5,0.8651953798409464,0.8731442582214033
13,3,0.25,0.8493932260007726,2.4533596422387838
13,3,0.0,0.8350924854673708,3.883433695578964
13,4,1.0,0.8739268224231604,0.0
13,4,0.75,0.8665734557525732,0.735336667058728
13,4,0.5,0.8580930504489527,1.5833771974207766
13,4,0.25,0.8573500277528714,1.6576794670289052
13,4,0.0,0.848195390239928,2.5731432183232483
13,5,1.0,0.8739268224231604,0.0
13,5,0.75,0.8645805711371749,0.9346251285985541
13,5,0.5,0.8711194875718692,0.28073348512912544
13,5,0.25,0.8763587380379269,-0.24319156147664112
13,5,0.0,0.8462013639607229,2.772545846243757
13,6,1.0,0.8739268224231604,0.0
13,6,0.75,0.8662731989220804,0.7653623501080009
13,6,0.5,0.8535740984536351,2.0352723969525366
13,6,0.25,0.852221877801205,2.170494462195549
13,6,0.0,0.8497272726834042,2.4199549739756243
13,7,1.0,0.8739268224231604,0.0
13,7,0.75,0.8641805053474975,0.974631707566298
13,7,0.5,0.8518358875070241,2.209093491613634
13,7,0.25,0.8430176908437778,3.0909131579382687
13,7,0.0,0.8167573943040649,5.716942811909553
13,8,1.0,0.8739268224231604,0.0
13,8,0.75,0.8716575534154487,0.22692690077117383
13,8,0.5,0.8730481479683406,0.08786744548198167
13,8,0.25,0.8627109601119689,1.1215862311191538
13,8,0.0,0.8519739450050368,2.1952877418123684
14,0,1.0,0.8348992122511845,0.0
14,0,0.75,0.8302744110222048,0.462480122897968
14,0,0.5,0.8262217351142153,0.8677477136969203
14,0,0.25,0.8208534163672468,1.4045795883937617
14,0,0.0,0.8188316981231192,1.6067514128065286
14,1,1.0,0.8348992122511845,0.0
14,1,0.75,0.8277707578056641,0.7128454445520349
14,1,0.5,0.8242243061962411,1.0674906054943367
14,1,0.25,0.8189827760615429,1.5916436189641558
14,1,0.0,0.8239959663004237,1.0903245950760754
14,2,1.0,0.8348992122511845,0.0
14,2,0.75,0.8337811959104917,0.11180163406927512
14,2,0.5,0.823638965134355,1.1260247116829492
14,2,0.25,0.8238611143930401,1.1038097858144358
14,2,0.0,0.8244076028161474,1.049160943503702
14,3,1.0,0.8348992122511845,0.0
14,3,0.75,0.8240982119552732,1.0801000295911245
14,3,0.5,0.8017802519118308,3.3118960339353687
14,3,0.25,0.7961649545368378,3.8734257714346687
14,3,0.0,0.7820918108114542,5.280740143973029
14,4,1.0,0.8348992122511845,0.0
14,4,0.75,0.8480693827055614,-1.3170170454376962
14,4,0.5,0.8441597451774636,-0.9260532926279152
14,4,0.25,0.8459727582291316,-1.1073545977947186
14,4,0.0,0.834725011193251,0.017420105793342078
14,5,1.0,0.8348992122511845,0.0
14,5,0.75,0.8450762217940747,-1.0177009542890247
14,5,0.5,0.8393483169324262,-0.4449104681241711
14,5,0.25,0.8366601192413662,-0.1760906990181721
14,5,0.0,0.8280741340739026,0.682507817728184
14,6,1.0,0.8348992122511845,0.0
14,6,0.75,0.8365109171744991,-0.16117049233146385
14,6,0.5,0.8296385802646327,0.52606319865518
14,6,0.25,0.8226756658443912,1.222354640679324
14,6,0.0,0.8149199458344394,1.9979266416745078
14,7,1.0,0.8348992122511845,0.0
14,7,0.75,0.8080814757403635,2.6817736510820978
14,7,0.5,0.7802135036343072,5.468570861687727
14,7,0.25,0.7625129557566296,7.2386256494554875
14,7,0.0,0.7562195608978133,7.867965135337118
14,8,1.0,0.8348992122511845,0.0
14,8,0.75,0.8274132773200708,0.7485934931113714
14,8,0.5,0.8203407254255459,1.455848682563854
14,8,0.25,0.8186748435315643,1.6224368719620186
14,8,0.0,0.8007969359596537,3.410227629153073
15,0,1.0,0.8397215955858027,0.0
15,0,0.75,0.8310675249522403,0.8654070633562383
15,0,0.5,0.8237670650803224,1.5954530505480347
15,0,0.25,0.8068346273579505,3.28869682278522
15,0,0.0,0.7732220685317773,6.64995270540254
15,1,1.0,0.8397215955858027,0.0
15,1,0.75,0.838928539815265,0.07930557705376762
15,1,0.5,0.8133053195625023,2.6416276023300433
15,1,0.25,0.8109726720113638,2.8748923574438923
15,1,0.0,0.8015414972471131,3.8180098338689628
15,2,1.0,0.8397215955858027,0.0
15,2,0.75,0.8307816871755433,0.8939908410259378
15,2,0.5,0.8306671983362848,0.9054397249517954
15,2,0.25,0.8229006246049878,1.682097098081492
15,2,0.0,0.8119684044083478,2.7753191177454895
15,3,1.0,0.8397215955858027,0.0
15,3,0.75,0.8387063222047908,0.10152733810119274
15,3,0.5,0.8399441651024258,-0.022256951662302793
15,3,0.25,0.8286243388015105,1.1097256784292187
15,3,0.0,0.7888780925994973,5.084350298630547
15,4,1.0,0.8397215955858027,0.0
15,4,0.75,0.8362554143462783,0.34661812395244684
15,4,0.5,0.8360841881452744,0.36374074405283174
15,4,0.25,0.8341636680798006,0.5557927506002147
15,4,0.0,0.8281620192559063,1.155957632989646
15,5,1.0,0.8397215955858027,0.0
15,5,0.75,0.8365802305959158,0.314136498988693
15,5,0.5,0.8355770548784054,0.4144540707397337
15,5,0.25,0.8151906411631336,2.453095442266917
15,5,0.0,0.7960742798994949,4.364731568630786
15,6,1.0,0.8397215955858027,0.0
15,6,0.75,0.8199801389069405,1.974145667886218
15,6,0.5,0.8185708537551087,2.1150741830693987
15,6,0.25,0.8133412260527999,2.6380369533002823
15,6,0.0,0.8005887342858089,3.9132861299993826
15,7,1.0,0.8397215955858027,0.0
15,7,0.75,0.8351252284859368,0.45963670998658834
15,7,0.5,0.8304790131785009,0.9242582407301803
15,7,0.25,0.8161696942216301,2.3551901364172623
15,7,0.0,0.8092178651009958,3.0503730484806924
15,8,1.0,0.8397215955858027,0.0
15,8,0.75,0.8412502666674114,-0.15286710816087012
15,8,0.5,0.8384966233988269,0.12249721869758146
15,8,0.25,0.8506568949698216,-1.0935299384018826
15,8,0.0,0.8468277032780466,-0.7106107692243846
16,0,1.0,0.8773723232976044,0.0
16,0,0.75,0.8788695413981129,-0.14972181005085128
16,0,0.5,0.8693821402619143,0.7990183035690102
16,0,0.25,0.8626881206077669,1.46842026898375
16,0,0.0,0.8557154525457722,2.1656870751832202
16,1,1.0,0.8773723232976044,0.0
16,1,0.75,0.8775000168037329,-0.012769350612851227
16,1,0.5,0.8775000168037329,-0.012769350612851227
16,1,0.25,0.8841849043226365,-0.6812581025032127
16,1,0.0,0.8618363246693774,1.5535998628226966
16,2,1.0,0.8773723232976044,0.0
16,2,0.75,0.8823512562839205,-0.49789329863161313
16,2,0.5,0.8814262674849533,-0.40539441873489457
16,2,0.25,0.863083948592658,1.4288374704946372
16,2,0.0,0.8468814815100246,3.049084178757977
16,3,1.0,0.8773723232976044,0.0
16,3,0.75,0.8751920053578107,0.21803179397936745
16,3,0.5,0.8719473675203363,0.5424955777268092
16,3,0.25,0.8662905848544763,1.1081738443128097
16,3,0.0,0.8648522222031716,1.25201010944328
16,4,1.0,0.8773723232976044,0.0
16,4,0.75,0.8711371936502095,0.6235129647394921
16,4,0.5,0.8612188122608749,1.6153511036729462
16,4,0.25,0.8421579684540925,3.5214354843511875
16,4,0.0,0.8460459288970245,3.1326394400579938
16,5,1.0,0.8773723232976044,0.0
16,5,0.75,0.8495920971652386,2.778022613236575
16,5,0.5,0.837921269695926,3.9451053601678443
16,5,0.25,0.836452770129942,4.091955316766239
16,5,0.0,0.835962595940196,4.140972735740844
16,6,1.0,0.8773723232976044,0.0
16,6,0.75,0.8872342784027566,-0.9861955105152198
16,6,0.5,0.8846789051206458,-0.7306581823041447
16,6,0.25,0.8817600115988928,-0.43876883012884393
16,6,0.0,0.8837493473907317,-0.6377024093127348
16,7,1.0,0.8773723232976044,0.0
16,7,0.75,0.8667014305344128,1.0670892763191553
16,7,0.5,0.8467009749257958,3.0671348371808627
16,7,0.25,0.8301318791238566,4.724044417374785
16,7,0.0,0.8138253438712154,6.354697942638898
16,8,1.0,0.8773723232976044,0.0
16,8,0.75,0.8804756646314604,-0.31033413338560356
16,8,0.5,0.8850754024340959,-0.7703079136491486
16,8,0.25,0.8728013981962304,0.4570925101374024
16,8,0.0,0.8610334933102939,1.633882998731051
17,0,1.0,0.8613266720768242,0.0
17,0,0.75,0.8417003125454439,1.9626359531380366
17,0,0.5,0.8382354710521003,2.309120102472395
17,0,0.25,0.838745888526512,2.2580783550312233
17,0,0.0,0.8426643832288712,1.8662288847953068
17,1,1.0,0.8613266720768242,0.0
17,1,0.75,0.8618745422115944,-0.054787013477020086
17,1,0.5,0.8582319430067855,0.30947290700387153
17,1,0.25,0.8558062732504468,0.5520398826377448
17,1,0.0,0.8609725253203515,0.03541467564727174
17,2,1.0,0.8613266720768242,0.0
17,2,0.75,0.8566583222160267,0.46683498607975604
17,2,0.5,0.8560191102707174,0.5307561806106809
17,2,0.25,0.8541204414277089,0.7206230649115297
17,2,0.0,0.8475220168352582,1.3804655241566044
17,3,1.0,0.8613266720768242,0.0
17,3,0.75,0.8562089541081853,0.5117717968638913
17,3,0.5,0.8555756661925589,0.5751005884265359
17,3,0.25,0.8429518083478565,1.8374863728967683
17,3,0.0,0.8378945734312786,2.343209864554563
17,4,1.0,0.8613266720768242,0.0
17,4,0.75,0.8653918081130683,-0.40651360362440325
17,4,0.5,0.8518612460679414,0.9465426008882782
17,4,0.25,0.8428855382343754,1.8441133842448831
17,4,0.0,0.8623574318180024,-0.10307597411781666
17,5,1.0,0.8613266720768242,0.0
17,5,0.75,0.8457073543376612,1.561931773916303
17,5,0.5,0.8334388742740103,2.788779780281392
17,5,0.25,0.8117169222188784,4.960974985794586
17,5,0.0,0.8318497298622822,2.9476942214542
17,6,1.0,0.8613266720768242,0.0
17,6,0.75,0.8672828455069305,-0.5956173430106237
17,6,0.5,0.8584614705589616,0.28652015178626256
17,6,0.25,0.8561019638938959,0.5224708182928306
17,6,0.0,0.8397370641143973,2.1589607962426927
17,7,1.0,0.8613266720768242,0.0
17,7,0.75,0.8616203347364734,-0.029366265964914096
17,7,0.5,0.8349277765160119,2.639889556081232
17,7,0.25,0.8186505283046405,4.267614377218376
17,7,0.0,0.8019857871550422,5.934088492178202
17,8,1.0,0.8613266720768242,0.0
17,8,0.75,0.8661019519019098,-0.4775279825085521
17,8,0.5,0.8656327277429204,-0.4306055666096209
17,8,0.25,0.8558166881637675,0.5509983913056682
17,8,0.0,0.842367266927126,1.8959405149698183
18,0,1.0,0.9000117029568924,0.0
18,0,0.75,0.9026511997926098,-0.2639496835717403
18,0,0.5,0.888581272624623,1.1430430332269315
18,0,0.25,0.8894576033605919,1.0554099596300492
18,0,0.0,0.8785639378780041,2.1447765078888237
18,1,1.0,0.9000117029568924,0.0
18,1,0.75,0.8999544258723293,0.005727708456304548
18,1,0.5,0.8967609393190789,0.3250763637813514
18,1,0.25,0.8867446706557287,1.3267032301163662
18,1,0.0,0.8882401503258994,1.1771552630992943
18,2,1.0,0.9000117029568924,0.0
18,2,0.75,0.9056057687368366,-0.5594065779944257
18,2,0.5,0.9118431092471474,-1.183140629025503
18,2,0.25,0.9175452688307084,-1.7533565873816048
18,2,0.0,0.9077379942579433,-0.7726291301050958
18,3,1.0,0.9000117029568924,0.0
18,3,0.75,0.8849158950177736,1.50958079391188
18,3,0.5,0.8687274538346654,3.1284249122226937
18,3,0.25,0.8393025748281069,6.070912812878548
18,3,0.0,0.7951040380828309,10.490766487406145
18,4,1.0,0.9000117029568924,0.0
18,4,0.75,0.8994535186222513,0.05581843346410542
18,4,0.5,0.8938013147908954,0.621038816599695
18,4,0.25,0.880125507189187,1.988619576770534
18,4,0.0,0.8761117437105616,2.3899959246330815
18,5,1.0,0.9000117029568924,0.0
18,5,0.75,0.8972866710708339,0.27250318860584377
18,5,0.5,0.8935912828386419,0.6420420118250503
18,5,0.25,0.8963877905001943,0.36239124566980196
18,5,0.0,0.8964374444874957,0.35742584693966295
18,6,1.0,0.9000117029568924,0.0
18,6,0.75,0.8995030326980534,0.05086702588389391
18,6,0.5,0.8941700667953725,0.5841636161519892
18,6,0.25,0.8864071422723023,1.360456068459004
18,6,0.0,0.8846335039243916,1.5378199032500817
18,7,1.0,0.9000117029568924,0.0
18,7,0.75,0.8781804422828249,2.1831260674067487
18,7,0.5,0.8634969717775032,3.6514731179389193
18,7,0.25,0.872130019323261,2.7881683633631416
18,7,0.0,0.8606046183025493,3.940708465434306
18,8,1.0,0.9000117029568924,0.0
18,8,0.75,0.9072226355075829,-0.7210932550690496
18,8,0.5,0.9004351688305172,-0.04234658736248509
18,8,0.25,0.9003546802509204,-0.03429772940279907
18,8,0.0,0.8880940275585691,1.1917675398323224
19,0,1.0,0.8413013069498967,0.0
19,0,0.75,0.8516156826624894,-1.031437571259275
19,0,0.5,0.8537268032191047,-1.242549626920797
19,0,0.25,0.8451331534523385,-0.3831846502441838
19,0,0.0,0.8527907446681244,-1.1489437718227746
19,1,1.0,0.8413013069498967,0.0
19,1,0.75,0.8385075588152899,0.2793748134606755
19,1,0.5,0.8426019574278958,-0.1300650477999099
19,1,0.25,0.8354278138454789,0.587349310441776
19,1,0.0,0.8304850243087372,1.0816282641159525
19,2,1.0,0.8413013069498967,0.0
19,2,0.75,0.8353057691158121,0.5995537834084574
19,2,0.5,0.8337783726859431,0.7522934263953562
19,2,0.25,0.8341228053545704,0.7178501595326292
19,2,0.0,0.8307222595064483,1.0579047443448397
19,3,1.0,0.8413013069498967,0.0
19,3,0.75,0.8377796057463174,0.3521701203579308
19,3,0.5,0.8458784771824359,-0.45771702325392294
19,3,0.25,0.8367670332405838,0.45342737093129193
19,3,0.0,0.8287285569100667,1.2572750039829939
19,4,1.0,0.8413013069498967,0.0
19,4,0.75,0.8444131825468976,-0.31118755970008793
19,4,0.5,0.8306628193421622,1.0638487607734448
19,4,0.25,0.8208627868979905,2.043852005190616
19,4,0.0,0.833561142356025,0.7740164593871723
19,5,1.0,0.8413013069498967,0.0
19,5,0.75,0.832251515516288,0.9049791433608734
19,5,0.5,0.8260989334499698,1.5202373499926924
19,5,0.25,0.8178220428220428,2.347926412785384
19,5,0.0,0.8188308921092382,2.247041484065848
19,6,1.0,0.8413013069498967,0.0
19,6,0.75,0.8450023543694828,-0.3701047419586101
19,6,0.5,0.8486939822851676,-0.7392675335270882
19,6,0.25,0.848689155139188,-0.738784818929128
19,6,0.0,0.8481746930107131,-0.6873386060816444
19,7,1.0,0.8413013069498967,0.0
19,7,0.75,0.8310469200154444,1.0254386934452242
19,7,0.5,0.8238261888316337,1.7475118118262967
19,7,0.25,0.8255195807957992,1.5781726154097453
19,7,0.0,0.8147650571683267,2.6536249781569987
19,8,1.0,0.8413013069498967,0.0
19,8,0.75,0.8491801750610735,-0.7878868111176773
19,8,0.5,0.8474229613676849,-0.6121654417788225
19,8,0.25,0.8350708964402431,0.6230410509653561
19,8,0.0,0.8168832021736521,2.441810477624462
20,0,1.0,0.804856970404605,0.0
20,0,0.75,0.8052672885151924,-0.04103181105873377
20,0,0.5,0.8073748878889244,-0.25179174843193985
20,0,0.25,0.8057693956015868,-0.09124251969817587
20,0,0.0,0.8068658473400109,-0.20088769354058567
20,1,1.0,0.804856970404605,0.0
20,1,0.75,0.8014237622057716,0.3433208198833415
20,1,0.5,0.7991412197311623,0.5715750673442765
20,1,0.25,0.7957376238859115,0.9119346518693505
20,1,0.0,0.7846503024641622,2.020666794044279
20,2,1.0,0.804856970404605,0.0
20,2,0.75,0.8067918533459405,-0.19348829413354807
20,2,0.5,0.80388145832448,0.09755120801250294
20,2,0.25,0.804267103765619,0.05898666389859697
20,2,0.0,0.7858975866465989,1.8959383758006099
20,3,1.0,0.804856970404605,0.0
20,3,0.75,0.8063084525251286,-0.1451482120523595
20,3,0.5,0.8045711404813081,0.02858299232969541
20,3,0.25,0.7976315948664204,0.7225375538184586
20,3,0.0,0.8035938539466305,0.12631164579745002
20,4,1.0,0.804856970404605,0.0
20,4,0.75,0.8110522177474593,-0.619524734285426
20,4,0.5,0.8151698858337365,-1.0312915429131486
20,4,0.25,0.819759891089265,-1.4902920684659926
20,4,0.0,0.8229491569939514,-1.8092186589346415
20,5,1.0,0.804856970404605,0.0
20,5,0.75,0.8152305190135313,-1.0373548608926253
20,5,0.5,0.8184341016110079,-1.3577131206402915
20,5,0.25,0.8138848078804819,-0.9027837475876876
20,5,0.0,0.8228174724557221,-1.79605020511171
20,6,1.0,0.804856970404605,0.0
20,6,0.75,0.807286423126643,-0.24294527220379836
20,6,0.5,0.8130896586778558,-0.8232688273250743
20,6,0.25,0.8191721363374207,-1.4315165932815677
20,6,0.0,0.8096214299254392,-0.4764459520834152
20,7,1.0,0.804856970404605,0.0
20,7,0.75,0.8124197326480593,-0.7562762243454313
20,7,0.5,0.8226773821270886,-1.782041172248361
20,7,0.25,0.8209104314802844,-1.6053461075679398
20,7,0.0,0.8192857939193621,-1.442882351475705
20,8,1.0,0.804856970404605,0.0
20,8,0.75,0.7989796438227759,0.5877326581829156
20,8,0.5,0.7760056386761497,2.885133172845533
20,8,0.25,0.7783487385408194,2.650823186378559
20,8,0.0,0.7369541972020932,6.790277320251182
21,0,1.0,0.7800187994381078,0.0
21,0,0.75,0.7744668279359154,0.5551971502192443
21,0,0.5,0.7817901287935219,-0.17713293554141307
21,0,0.25,0.7783739835112108,0.16448159268970253
21,0,0.0,0.7637192137702341,1.6299585667873706
21,1,1.0,0.7800187994381078,0.0
21,1,0.75,0.7916567613177783,-1.1637961879670478
21,1,0.5,0.7989166896985266,-1.889789026041877
21,1,0.25,0.8059245523826952,-2.5905752944587412
21,1,0.0,0.8007754817442563,-2.0756682306148466
21,2,1.0,0.7800187994381078,0.0
21,2,0.75,0.7893334922754591,-0.9314692837351313
21,2,0.5,0.7848546919720418,-0.48358925339340164
21,2,0.25,0.7722071088893436,0.7811690548764183
21,2,0.0,0.765860267933852,1.4158531504255834
21,3,1.0,0.7800187994381078,0.0
21,3,0.75,0.7778547106504552,0.21640887876526183
21,3,0.5,0.7827522540233494,-0.2733454585241546
21,3,0.25,0.7690583395352684,1.0960459902839448
21,3,0.0,0.7448715516175516,3.5147247820556227
21,4,1.0,0.7800187994381078,0.0
21,4,0.75,0.7971761663443271,-1.7157366906219274
21,4,0.5,0.7989797114156094,-1.8960911977501604
21,4,0.25,0.7845084409136047,-0.44896414754969083
21,4,0.0,0.7745427877040914,0.5476011734016462
21,5,1.0,0.7800187994381078,0.0
21,5,0.75,0.7872147335437009,-0.7195934105593049
21,5,0.5,0.7967002101987236,-1.66814107606158
21,5,0.25,0.8073284669690138,-2.7309667530906023
21,5,0.0,0.8008479620268547,-2.0829162588746897
21,6,1.0,0.7800187994381078,0.0
21,6,0.75,0.7807978103646109,-0.07790109265031209
21,6,0.5,0.7823220593886064,-0.23032599504986262
21,6,0.25,0.7748111336718535,0.520766576625431
21,6,0.0,0.7779813890196945,0.20374104184133213
21,7,1.0,0.7800187994381078,0.0
21,7,0.75,0.7884657941247101,-0.844699468660226
21,7,0.5,0.80975268968556,-2.973389024745221
21,7,0.25,0.8202441828443352,-4.022538340622739
21,7,0.0,0.8165625607479569,-3.6543761309849043
21,8,1.0,0.7800187994381078,0.0
21,8,0.75,0.7953836054639689,-1.53648060258611
21,8,0.5,0.8142881020291773,-3.426930259106953
21,8,0.25,0.7984884597722881,-1.8469660334180293
21,8,0.0,0.7867335038578644,-0.6714704419756634
22,0,1.0,0.8056069397884495,0.0
22,0,0.75,0.8092922858015738,-0.3685346013124202
22,0,0.5,0.8020765088540849,0.353043093436467
22,0,0.25,0.8120908777078832,-0.6483937919433691
22,0,0.0,0.8227222040835702,-1.711526429512067
22,1,1.0,0.8056069397884495,0.0
22,1,0.75,0.8104479579747776,-0.48410181863280943
22,1,0.5,0.8234642823782168,-1.7857342589767233
22,1,0.25,0.827676014643254,-2.206907485480447
22,1,0.0,0.8309211589090562,-2.5314219120606607
22,2,1.0,0.8056069397884495,0.0
22,2,0.75,0.800355385493537,0.525155429491253
22,2,0.5,0.8100665777993803,-0.44596380109307443
22,2,0.25,0.818684024044643,-1.3077084256193472
22,2,0.0,0.8274584604067693,-2.185152061831974
22,3,1.0,0.8056069397884495,0.0
22,3,0.75,0.7887728264235279,1.6834113364921688
22,3,0.5,0.7819331234148201,2.367381637362942
22,3,0.25,0.7647936610396017,4.0813278748847885
22,3,0.0,0.7453491195995874,6.025782018886217
22,4,1.0,0.8056069397884495,0.0
22,4,0.75,0.8120547672195586,-0.6447827431109054
22,4,0.5,0.8119006042228502,-0.6293664434400603
22,4,0.25,0.8043328503313786,0.12740894570709704
22,4,0.0,0.8116751255633742,-0.6068185774924628
22,5,1.0,0.8056069397884495,0.0
22,5,0.75,0.796871537437943,0.8735402350506516
22,5,0.5,0.7924642208553946,1.3142718933054964
22,5,0.25,0.7905415892557954,1.506535053265412
22,5,0.0,0.801115502253951,0.44914375344985435
22,6,1.0,0.8056069397884495,0.0
22,6,0.75,0.8030669628201668,0.25399769682827866
22,6,0.5,0.7999386719293439,0.566826785910568
22,6,0.25,0.8027551999926862,0.2851739795763364
22,6,0.0,0.7892979876431462,1.6308952145303368
22,7,1.0,0.8056069397884495,0.0
22,7,0.75,0.8030997030037978,0.2507236784651701
22,7,0.5,0.7879278304082921,1.7679109380157487
22,7,0.25,0.7737158029404424,3.189113684800715
22,7,0.0,0.7449390126730984,6.066792711535118
22,8,1.0,0.8056069397884495,0.0
22,8,0.75,0.8000615556732809,0.5545384115168694
22,8,0.5,0.7940488726063057,1.1558067182143805
22,8,0.25,0.7903871971694977,1.521974261895187
22,8,0.0,0.78054881120849,2.5058128579959593
23,0,1.0,0.7789641151363218,0.0
23,0,0.75,0.7717879861605378,0.7176128975784013
23,0,0.5,0.7505331251412696,2.8430989995052225
23,0,0.25,0.7404280033858914,3.853611175043037
23,0,0.0,0.7141519619076719,6.481215322864986
23,1,1.0,0.7789641151363218,0.0
23,1,0.75,0.7790629466095856,-0.009883147326383845
23,1,0.5,0.7782283473703682,0.07357677659536321
23,1,0.25,0.7740107859971058,0.49533291392159784
23,1,0.0,0.7681490947241311,1.0815020412190735
23,2,1.0,0.7789641151363218,0.0
23,2,0.75,0.7938466670890353,-1.4882551952713485
23,2,0.5,0.8001141072492165,-2.11499921128947
23,2,0.25,0.8062099491188213,-2.7245833982499468
23,2,0.0,0.8022469407186402,-2.3282825582318423
23,3,1.0,0.7789641151363218,0.0
23,3,0.75,0.7970841389457123,-1.8120023809390484
23,3,0.5,0.8125363457206881,-3.3572230584366314
23,3,0.25,0.8189819377771593,-4.001782264083753
23,3,0.0,0.8024736342085637,-2.350951907224186
23,4,1.0,0.7789641151363218,0.0
23,4,0.75,0.7796127604498635,-0.06486453135416959
23,4,0.5,0.7740109400851576,0.4953175051164216
23,4,0.25,0.7547356552399441,2.4228459896377674
23,4,0.0,0.7534548112417515,2.550930389457029
23,5,1.0,0.7789641151363218,0.0
23,5,0.75,0.7897115719086772,-1.0747456772355446
23,5,0.5,0.782187033362112,-0.3222918225790239
23,5,0.25,0.7857996839512936,-0.6835568814971826
23,5,0.0,0.7880328991743777,-0.9068784038055888
23,6,1.0,0.7789641151363218,0.0
23,6,0.75,0.798604681466582,-1.9640566330260234
23,6,0.5,0.7999441014421839,-2.0979986305862064
23,6,0.25,0.8032577573997586,-2.4293642263436777
23,6,0.0,0.7897700527758567,-1.0805937639534857
23,7,1.0,0.7789641151363218,0.0
23,7,0.75,0.7945622076581829,-1.5598092521861062
23,7,0.5,0.795849930714791,-1.6885815578469243
23,7,0.25,0.7911742501572019,-1.2210135020880086
23,7,0.0,0.8138157231399993,-3.485160800367748
23,8,1.0,0.7789641151363218,0.0
23,8,0.75,0.7753849623225413,0.35791528137805173
23,8,0.5,0.7758717890615519,0.30923260747699466
23,8,0.25,0.775641335740635,0.33227793956868146
23,8,0.0,0.7410609969366442,3.790311819967762
24,0,1.0,0.7818333953205359,0.0
24,0,0.75,0.7812996100791698,0.05337852413660471
24,0,0.5,0.7655662159133778,1.626717940715805
24,0,0.25,0.7611352756911738,2.0698119629362077
24,0,0.0,0.7585813076599753,2.3252087660560528
24,1,1.0,0.7818333953205359,0.0
24,1,0.75,0.7789695755226472,0.2863819797888634
24,1,0.5,0.7904756678058655,-0.8642272485329672
24,1,0.25,0.7920383636394592,-1.0204968318923369
24,1,0.0,0.79586753540128,-1.4034140080744106
24,2,1.0,0.7818333953205359,0.0
24,2,0.75,0.7941155460569662,-1.2282150736430353
24,2,0.5,0.7864255814709595,-0.45921861504236716
24,2,0.25,0.7699190013075486,1.1914394012987217
24,2,0.0,0.7575498217750635,2.428357354547239
24,3,1.0,0.7818333953205359,0.0
24,3,0.75,0.8155812466690145,-3.3747851348478686
24,3,0.5,0.8303236594671393,-4.84902641466034
24,3,0.25,0.8425162920091926,-6.068289668865678
24,3,0.0,0.8409219517097908,-5.908855638925492
24,4,1.0,0.7818333953205359,0.0
24,4,0.75,0.7804150267590823,0.1418368561453609
24,4,0.5,0.7542153429502246,2.761805237031123
24,4,0.25,0.7305132489343015,5.132014638623438
24,4,0.0,0.7356834745742904,4.6149920746245465
24,5,1.0,0.7818333953205359,0.0
24,5,0.75,0.7591579755960647,2.267541972447118
24,5,0.5,0.7318742594041036,4.99591359164323
24,5,0.25,0.7351326241378625,4.670077118267335
24,5,0.0,0.7578282594768556,2.4005135843680248
24,6,1.0,0.7818333953205359,0.0
24,6,0.75,0.7815444916102776,0.028890371025824813
24,6,0.5,0.7743985797464761,0.7434815574059783
24,6,0.25,0.7584564619082311,2.3376933412304735
24,6,0.0,0.7555918106541955,2.624158466634041
24,7,1.0,0.7818333953205359,0.0
24,7,0.75,0.7932731926429202,-1.1439797322384315
24,7,0.5,0.7901380692526042,-0.8304673932068352
24,7,0.25,0.7787176923552769,0.3115702965258982
24,7,0.0,0.7539588318026427,2.787456351789319
24,8,1.0,0.7818333953205359,0.0
24,8,0.75,0.7769247901546125,0.49086051659233965
24,8,0.5,0.7718462146356884,0.9987180684847496
24,8,0.25,0.7475736218137056,3.4259773506830293
24,8,0.0,0.7300699694781789,5.176342584235694
25,0,1.0,0.8602785378238721,0.0
25,0,0.75,0.8641279939182474,-0.38494560943752587
25,0,0.5,0.8631752698157086,-0.28967319918364876
25,0,0.25,0.8744393898839479,-1.416085206007578
25,0,0.0,0.8690352276224853,-0.8756689798613215
25,1,1.0,0.8602785378238721,0.0
25,1,0.75,0.8660822814399252,-0.580374361605307
25,1,0.5,0.8666501252865244,-0.6371587462652317
25,1,0.25,0.8723388652296681,-1.206032740579599
25,1,0.0,0.8606970705959365,-0.04185327720643839
25,2,1.0,0.8602785378238721,0.0
25,2,0.75,0.8589006614178283,0.13778764060438098
25,2,0.5,0.8598009637992967,0.04775740245753779
25,2,0.25,0.8556682309081933,0.46103069156787635
25,2,0.0,0.855789213375119,0.44893244487530515
25,3,1.0,0.8602785378238721,0.0
25,3,0.75,0.8677971669825986,-0.7518629158726475
25,3,0.5,0.8744135352284264,-1.4134997404554261
25,3,0.25,0.8804108292927689,-2.0132291468896835
25,3,0.0,0.8576791894973713,0.2599348326500772
25,4,1.0,0.8602785378238721,0.0
25,4,0.75,0.8443541370451387,1.592440077873336
25,4,0.5,0.8340259080492936,2.625262977457854
25,4,0.25,0.8328088524621444,2.746968536172767
25,4,0.0,0.8520519816402685,0.8226556183603573
25,5,1.0,0.8602785378238721,0.0
25,5,0.75,0.8591811052495604,0.10974325743117186
25,5,0.5,0.8513774110472695,0.8901126776602597
25,5,0.25,0.8445993919018602,1.5679145922011917
25,5,0.0,0.8563296498131162,0.394888801075588
25,6,1.0,0.8602785378238721,0.0
25,6,0.75,0.8708737240214438,-1.0595186197571715
25,6,0.5,0.8791261240713292,-1.8847586247457082
25,6,0.25,0.8824595208073003,-2.218098298342819
25,6,0.0,0.8798186448469524,-1.9540107023080289
25,7,1.0,0.8602785378238721,0.0
25,7,0.75,0.8664615523679987,-0.6183014544126619
25,7,0.5,0.8680148153529099,-0.7736277529037827
25,7,0.25,0.8506147454544625,0.9663792369409618
25,7,0.0,0.8114781983039244,4.880033951994767
25,8,1.0,0.8602785378238721,0.0
25,8,0.75,0.8760727733381402,-1.5794235514268062
25,8,0.5,0.8820362912261586,-2.1757753402286473
25,8,0.25,0.8867401886926505,-2.6461650868778386
25,8,0.0,0.8854905751682648,-2.52120373443927
26,0,1.0,0.7807320721849969,0.0
26,0,0.75,0.7727765053344763,0.7955566850520568
26,0,0.5,0.7739377021378777,0.6794370047119136
26,0,0.25,0.7698243779619311,1.09076942230657
26,0,0.0,0.7602773305381513,2.0454741646845576
26,1,1.0,0.7807320721849969,0.0
26,1,0.75,0.7726414011123955,0.8090671072601308
26,1,0.5,0.7736365681181827,0.709550406681414
26,1,0.25,0.7714945825996182,0.9237489585378622
26,1,0.0,0.7675049723787859,1.3227099806210951
26,2,1.0,0.7807320721849969,0.0
26,2,0.75,0.7710578004822088,0.9674271702788007
26,2,0.5,0.7687962622656459,1.1935809919350948
26,2,0.25,0.7504329717527989,3.0299100432197967
26,2,0.0,0.7405407936488926,4.019127853610427
26,3,1.0,0.7807320721849969,0.0
26,3,0.75,0.7790124077865875,0.17196643984093152
26,3,0.5,0.7823459810363016,-0.16139088513047462
26,3,0.25,0.7948703228105836,-1.4138250625586712
26,3,0.0,0.7785291475010836,0.22029246839132544
26,4,1.0,0.7807320721849969,0.0
26,4,0.75,0.7680584193868446,1.2673652798152246
26,4,0.5,0.7593579983841467,2.13740738008501
26,4,0.25,0.7675475375080802,1.3184534676916604
26,4,0.0,0.7649564189439544,1.5775653241042464
26,5,1.0,0.7807320721849969,0.0
26,5,0.75,0.7533367626304136,2.7395309554583247
26,5,0.5,0.7491733609568335,3.155871122816334
26,5,0.25,0.7649733754317094,1.575869675328745
26,5,0.0,0.7511307496316721,2.9601322553324705
26,6,1.0,0.7807320721849969,0.0
26,6,0.75,0.7793987061243194,0.13333660606774655
26,6,0.5,0.7786217144779082,0.21103577070886725
26,6,0.25,0.7790663795155002,0.16656926694966767
26,6,0.0,0.774432481930101,0.6299590254895904
26,7,1.0,0.7807320721849969,0.0
26,7,0.75,0.7884133783652603,-0.7681306180263414
26,7,0.5,0.787898179316014,-0.7166107131017174
26,7,0.25,0.7842634954986829,-0.3531423313686055
26,7,0.0,0.768498928173561,1.2233144011435826
26,8,1.0,0.7807320721849969,0.0
26,8,0.75,0.7755863775558173,0.5145694629179576
26,8,0.5,0.7715360372491702,0.9196034935826658
26,8,0.25,0.7561366300313319,2.4595442153664937
26,8,0.0,0.7497623422102128,3.096972997478409
27,0,1.0,0.8872114361201061,0.0
27,0,0.75,0.8941069794826192,-0.6895543362513079
27,0,0.5,0.9030574126978342,-1.5845976577728127
27,0,0.25,0.9028398285729884,-1.5628392452882278
27,0,0.0,0.9027818001131788,-1.5570363993072656
27,1,1.0,0.8872114361201061,0.0
27,1,0.75,0.8902777008027112,-0.3066264682605069
27,1,0.5,0.8920519606572688,-0.48405245371626604
27,1,0.25,0.8862619794739759,0.09494566461302201
27,1,0.0,0.8894749749800169,-0.22635388599108186
27,2,1.0,0.8872114361201061,0.0
27,2,0.75,0.8891178335181981,-0.19063973980919524
27,2,0.5,0.8810496626632458,0.6161773456860309
27,2,0.25,0.8691167202506588,1.809471586944733
27,2,0.0,0.8626923650697108,2.4519071050395302
27,3,1.0,0.8872114361201061,0.0
27,3,0.75,0.889114385632848,-0.1902949512741836
27,3,0.5,0.8891708615402419,-0.19594254201358297
27,3,0.25,0.8836048849566981,0.3606551163408023
27,3,0.0,0.8814463629592103,0.5765073160895806
27,4,1.0,0.8872114361201061,0.0
27,4,0.75,0.8917604480654575,-0.45490119453514
27,4,0.5,0.8886247111856869,-0.14132750655807547
27,4,0.25,0.8833373164512273,0.38741196688788504
27,4,0.0,0.8884934605176826,-0.128202439757652
27,5,1.0,0.8872114361201061,0.0
27,5,0.75,0.8798264152133655,0.7385020906740647
27,5,0.5,0.8878206745659515,-0.06092384458453726
27,5,0.25,0.8920104487079885,-0.4799012587882401
27,5,0.0,0.8892506159423753,-0.20391798222691992
27,6,1.0,0.8872114361201061,0.0
27,6,0.75,0.8975972150149617,-1.038577889485559
27,6,0.5,0.911514293386039,-2.4302857265932842
27,6,0.25,0.9055608294082544,-1.834939328814833
27,6,0.0,0.8963758317606956,-0.9164395640589462
27,7,1.0,0.8872114361201061,0.0
27,7,0.75,0.8850206170569479,0.21908190631582114
27,7,0.5,0.8824299713681087,0.47814647519973663
27,7,0.25,0.8824513278821589,0.4760108237947258
27,7,0.0,0.8784085692311158,0.8802866888990346
27,8,1.0,0.8872114361201061,0.0
27,8,0.75,0.8960533832148126,-0.8841947094706537
27,8,0.5,0.8946986776238439,-0.7487241503737807
27,8,0.25,0.8971814976675937,-0.9970061547487585
27,8,0.0,0.8962856023609184,-0.9074166240812254
28,0,1.0,0.80271709700802,0.0
28,0,0.75,0.8398828197688057,-3.716572276078578
28,0,0.5,0.8582624536392573,-5.554535663123739
28,0,0.25,0.8783022017411423,-7.55851047331223
28,0,0.0,0.8632011925862454,-6.048409557822543
28,1,1.0,0.80271709700802,0.0
28,1,0.75,0.809916474592844,-0.7199377584824029
28,1,0.5,0.8164956496087716,-1.377855260075167
28,1,0.25,0.807460931501927,-0.47438344939070287
28,1,0.0,0.7998867259644435,0.28303710435764184
28,2,1.0,0.80271709700802,0.0
28,2,0.75,0.7940047579616167,0.8712339046403228
28,2,0.5,0.7726203002138057,3.0096796794214287
28,2,0.25,0.7547964215685798,4.792067543944012
28,2,0.0,0.746973659300358,5.574343770766199
28,3,1.0,0.80271709700802,0.0
28,3,0.75,0.8024521537750899,0.02649432329300261
28,3,0.5,0.8018845801876,0.08325168204199596
28,3,0.25,0.8150342309108127,-1.2317133902792765
28,3,0.0,0.8216374924993493,-1.892039549132929
28,4,1.0,0.80271709700802,0.0
28,4,0.75,0.7993362019010887,0.3380895106931292
28,4,0.5,0.7862465355288447,1.647056147917525
28,4,0.25,0.7795603083844391,2.3156788623580837
28,4,0.0,0.8051976124643272,-0.24805154563072307
28,5,1.0,0.80271709700802,0.0
28,5,0.75,0.7133451707106917,8.937192629732827
28,5,0.5,0.6771717524311635,12.554534457685651
28,5,0.25,0.6670821828928789,13.563491411514105
28,5,0.0,0.6601182443783749,14.259885262964511
28,6,1.0,0.80271709700802,0.0
28,6,0.75,0.7987988650420852,0.3918231965934771
28,6,0.5,0.7928918696739604,0.982522733405955
28,6,0.25,0.7821170419794273,2.0600055028592634
28,6,0.0,0.7655162162235878,3.7200880784432178
28,7,1.0,0.80271709700802,0.0
28,7,0.75,0.8049620437286862,-0.22449467206662188
28,7,0.5,0.7969210608481385,0.5796036159881446
28,7,0.25,0.7809334217852542,2.178367522276581
28,7,0.0,0.779743670133417,2.297342687460291
28,8,1.0,0.80271709700802,0.0
28,8,0.75,0.8323800080926659,-2.9662911084645915
28,8,0.5,0.8605973328230886,-5.788023581506863
28,8,0.25,0.8473222867936365,-4.460518978561656
28,8,0.0,0.8241260173183846,-2.1408920310364676
29,0,1.0,0.7439197379566085,0.0
29,0,0.75,0.7503116640871655,-0.6391926130557057
29,0,0.5,0.7583502140345513,-1.4430476077942789
29,0,0.25,0.7386149346707314,0.5304803285877124
29,0,0.0,0.725724992615539,1.8194745341069463
29,1,1.0,0.7439197379566085,0.0
29,1,0.75,0.7458701484267927,-0.1950410470184183
29,1,0.5,0.750292814575069,-0.6373076618460538
29,1,0.25,0.756773384635679,-1.2853646679070518
29,1,0.0,0.7452003100284155,-0.12805720718069846
29,2,1.0,0.7439197379566085,0.0
29,2,0.75,0.7464174736939299,-0.24977357373213716
29,2,0.5,0.7386394073830654,0.5280330573543046
29,2,0.25,0.7439761875586361,-0.005644960202766391
29,2,0.0,0.7435112785656843,0.040845939092415406
29,3,1.0,0.7439197379566085,0.0
29,3,0.75,0.7607659949170863,-1.6846256960477812
29,3,0.5,0.7659791283825172,-2.2059390425908765
29,3,0.25,0.7556296648734919,-1.170992691688344
29,3,0.0,0.748298097357032,-0.4378359400423526
29,4,1.0,0.7439197379566085,0.0
29,4,0.75,0.7337971827937952,1.012255516281324
29,4,0.5,0.7208594132059382,2.3060324750670325
29,4,0.25,0.7186377430923168,2.5281994864291724
29,4,0.0,0.726861077722508,1.705866023410052
29,5,1.0,0.7439197379566085,0.0
29,5,0.75,0.738631578502103,0.5288159454505448
29,5,0.5,0.7171989975352677,2.672074042134076
29,5,0.25,0.6977288373542999,4.619090060230857
29,5,0.0,0.6887018123765568,5.521792558005167
29,6,1.0,0.7439197379566085,0.0
29,6,0.75,0.748141986257741,-0.4222248301132492
29,6,0.5,0.7491647532528035,-0.5245015296195032
29,6,0.25,0.7545142548580082,-1.0594516901399675
29,6,0.0,0.7525521291932874,-0.8632391236678916
29,7,1.0,0.7439197379566085,0.0
29,7,0.75,0.7443279129477696,-0.0408174991161081
29,7,0.5,0.7331632884579875,1.075644949862098
29,7,0.25,0.7301728730066575,1.3746864949951032
29,7,0.0,0.7123891095663688,3.153062839023968
29,8,1.0,0.7439197379566085,0.0
29,8,0.75,0.7380608946350794,0.5858843321529084
29,8,0.5,0.7299863060827372,1.3933431873871305
29,8,0.25,0.7129807447599121,3.093899319669635
29,8,0.0,0.6905851653118702,5.333457264473829
30,0,1.0,0.8118692383609917,0.0
30,0,0.75,0.8190183990087557,-0.7149160647764052
30,0,0.5,0.8285222609046499,-1.6653022543658191
30,0,0.25,0.8256012897687468,-1.373205140775513
30,0,0.0,0.8381017647128681,-2.623252635187645
30,1,1.0,0.8118692383609917,0.0
30,1,0.75,0.8087672582070136,0.3101980153978112
30,1,0.5,0.8056519413150127,0.6217297045978953
30,1,0.25,0.78947920339865,2.239003496234171
30,1,0.0,0.8005745760326776,1.129466232831411
30,2,1.0,0.8118692383609917,0.0
30,2,0.75,0.819492084893422,-0.7622846532430283
30,2,0.5,0.8241162672539253,-1.224702889293361
30,2,0.25,0.8300041267172915,-1.8134888356299839
30,2,0.0,0.8473316683861662,-3.5462430025174574
30,3,1.0,0.8118692383609917,0.0
30,3,0.75,0.8024498839960734,0.9419354364918253
30,3,0.5,0.7974719170233603,1.4397321337631386
30,3,0.25,0.7741457481094739,3.7723490251517777
30,3,0.0,0.7592536014346152,5.261563692637649
30,4,1.0,0.8118692383609917,0.0
30,4,0.75,0.8043153698224531,0.7553868538538566
30,4,0.5,0.7918373641761646,2.0031874184827103
30,4,0.25,0.790959704234209,2.0909534126782647
30,4,0.0,0.7923618235214211,1.9507414839570525
30,5,1.0,0.8118692383609917,0.0
30,5,0.75,0.8051752164027285,0.6694021958263185
30,5,0.5,0.7893635645916786,2.2505673769313117
30,5,0.25,0.784172357729692,2.7696880631299714
30,5,0.0,0.7765702711947218,3.52989671662699
30,6,1.0,0.8118692383609917,0.0
30,6,0.75,0.8060923830455521,0.5776855315439589
30,6,0.5,0.8215026804697934,-0.9633442108801682
30,6,0.25,0.8227764767724852,-1.0907238411493547
30,6,0.0,0.8212545400731001,-0.9385301712108385
30,7,1.0,0.8118692383609917,0.0
30,7,0.75,0.8082122610060095,0.36569773549821605
30,7,0.5,0.8048405927626384,0.7028645598353256
30,7,0.25,0.79191873832504,1.9950500035951668
30,7,0.0,0.7913369087429485,2.053232961804319
30,8,1.0,0.8118692383609917,0.0
30,8,0.75,0.8156710434970641,-0.38018051360724225
30,8,0.5,0.8311974576288609,-1.9328219267869207
30,8,0.25,0.8378192255083274,-2.5949987147335762
30,8,0.0,0.8432774415714082,-3.1408203210416485
31,0,1.0,0.7792917108915225,0.0
31,0,0.75,0.7848251049893822,-0.553339409785969
31,0,0.5,0.7693575753586163,0.993413553290623
31,0,0.25,0.7743024169589634,0.4989293932559091
31,0,0.0,0.7544053545804548,2.4886356311067725
31,1,1.0,0.7792917108915225,0.0
31,1,0.75,0.7739218597787622,0.5369851112760338
31,1,0.5,0.7591895049771693,2.010220591435319
31,1,0.25,0.758436160645394,2.0855550246128507
31,1,0.0,0.7556972392024128,2.3594471689109664
31,2,1.0,0.7792917108915225,0.0
31,2,0.75,0.7717599734599273,0.7531737431595187
31,2,0.5,0.7780772888259917,0.12144220655307958
31,2,0.25,0.7716535225338043,0.7638188357718234
31,2,0.0,0.7657907812047622,1.350092968676031
31,3,1.0,0.7792917108915225,0.0
31,3,0.75,0.7877749850647077,-0.8483274173185174
31,3,0.5,0.7857891573761332,-0.6497446484610703
31,3,0.25,0.7956271706724,-1.633545978087747
31,3,0.0,0.7709269028357963,0.8364808055726147
31,4,1.0,0.7792917108915225,0.0
31,4,0.75,0.7633652124829061,1.5926498408616374
31,4,0.5,0.7556894445548302,2.360226633669227
31,4,0.25,0.7442275730536889,3.5064137837833576
31,4,0.0,0.7547355725440068,2.455613834751569
31,5,1.0,0.7792917108915225,0.0
31,5,0.75,0.7761416459639761,0.31500649275464365
31,5,0.5,0.7751231887882014,0.4168522103321082
31,5,0.25,0.7851026308231099,-0.5810919931587444
31,5,0.0,0.7802997674333225,-0.10080565418000287
31,6,1.0,0.7792917108915225,0.0
31,6,0.75,0.7742941289266079,0.49975819649146214
31,6,0.5,0.7649941457463536,1.429756514516889
31,6,0.25,0.7644168349531195,1.4874875938402976
31,6,0.0,0.751685611761884,2.7606099129638517
31,7,1.0,0.7792917108915225,0.0
31,7,0.75,0.763884494659072,1.540721623245045
31,7,0.5,0.7527761866253341,2.6515524266188417
31,7,0.25,0.7335229043259894,4.576880656553306
31,7,0.0,0.7143275394364093,6.496417145511324
31,8,1.0,0.7792917108915225,0.0
31,8,0.75,0.7639083288124209,1.5383382079101615
31,8,0.5,0.7552355674196375,2.4056143471885005
31,8,0.25,0.735550585840561,4.37411250509615
31,8,0.0,0.7107583587628806,6.853335212864186
32,0,1.0,0.8262761636059087,0.0
32,0,0.75,0.8231914619789985,0.30847016269102134
32,0,0.5,0.8216186122831692,0.4657551322739484
32,0,0.25,0.8217355168014457,0.4540646804462978
32,0,0.0,0.7994146802647005,2.686148334120819
32,1,1.0,0.8262761636059087,0.0
32,1,0.75,0.8201659803402934,0.6110183265615299
32,1,0.5,0.8184730023548277,0.7803161251081048
32,1,0.25,0.8151870301168347,1.1089133489074032
32,1,0.0,0.807888471676153,1.8387691929755756
32,2,1.0,0.8262761636059087,0.0
32,2,0.75,0.8269491830617316,-0.06730194558228764
32,2,0.5,0.823147885748378,0.312827785753067
32,2,0.25,0.8101702376843243,1.610592592158444
32,2,0.0,0.7920283133421899,3.4247850263718793
32,3,1.0,0.8262761636059087,0.0
32,3,0.75,0.8276846722891,-0.14085086831913118
32,3,0.5,0.8228730142714604,0.34031493344482966
32,3,0.25,0.8308614525983355,-0.4585288992426828
32,3,0.0,0.8255507520332318,0.0725411572676915
32,4,1.0,0.8262761636059087,0.0
32,4,0.75,0.8251443327819972,0.11318308239115504
32,4,0.5,0.8224635546040037,0.3812609001905054
32,4,0.25,0.8214387791833353,0.4837384422573421
32,4,0.0,0.8346807979166371,-0.8404634310728354
32,5,1.0,0.8262761636059087,0.0
32,5,0.75,0.8323431147660498,-0.606695116014111
32,5,0.5,0.8260829524199311,0.019321118597759313
32,5,0.25,0.8336977383567318,-0.7421574750823057
32,5,0.0,0.8426066319467335,-1.6330468340824744
32,6,1.0,0.8262761636059087,0.0
32,6,0.75,0.8272008793524768,-0.092471574656805
32,6,0.5,0.8323402185462795,-0.6064054940370767
32,6,0.25,0.8374862540929322,-1.1210090487023483
32,6,0.0,0.8399615016176847,-1.368533801177596
32,7,1.0,0.8262761636059087,0.0
32,7,0.75,0.8267861391712538,-0.05099755653450444
32,7,0.5,0.815816811378807,1.0459352227101704
32,7,0.25,0.7999756661729369,2.6300497432971803
32,7,0.0,0.7864131330840128,3.986303052189588
32,8,1.0,0.8262761636059087,0.0
32,8,0.75,0.8356561533876816,-0.9379989781772902
32,8,0.5,0.8372984664006715,-1.1022302794762795
32,8,0.25,0.8372546871524078,-1.0978523546499086
32,8,0.0,0.8320094863311354,-0.5733322725226642
33,0,1.0,0.9164652678917047,0.0
33,0,0.75,0.9160655456023573,0.039972228934737064
33,0,0.5,0.9015946646645782,1.4870603227126522
33,0,0.25,0.8874813458146792,2.8983922077025492
33,0,0.0,0.8830456208437882,3.3419647047916445
33,1,1.0,0.9164652678917047,0.0
33,1,0.75,0.9047811179800646,1.168414991164013
33,1,0.5,0.8967054031237269,1.9759864767977753
33,1,0.25,0.9074847071619856,0.8980560729719089
33,1,0.0,0.9194230776445935,-0.29578097528888403
33,2,1.0,0.9164652678917047,0.0
33,2,0.75,0.9145856571791492,0.18796107125554906
33,2,0.5,0.9152766602754793,0.11886076162254122
33,2,0.25,0.9089347186151662,0.7530549276538512
33,2,0.0,0.899468674466013,1.6996593425691708
33,3,1.0,0.9164652678917047,0.0
33,3,0.75,0.9120103889972435,0.4454878894461167
33,3,0.5,0.8985910721590085,1.7874195732696219
33,3,0.25,0.8882778822445253,2.8187385647179375
33,3,0.0,0.881582720321902,3.488254756980269
33,4,1.0,0.9164652678917047,0.0
33,4,0.75,0.9140071734316492,0.24580944600555155
33,4,0.5,0.91300033081332,0.3464937078384689
33,4,0.25,0.9080483686468045,0.8416899244900189
33,4,0.0,0.9320349503768646,-1.5569682485159886
33,5,1.0,0.9164652678917047,0.0
33,5,0.75,0.9178767320437974,-0.14114641520927007
33,5,0.5,0.9143318093497832,0.21334585419214847
33,5,0.25,0.9195455901782992,-0.30803222865944946
33,5,0.0,0.9091813045632592,0.7283963328445497
33,6,1.0,0.9164652678917047,0.0
33,6,0.75,0.9095554065530939,0.6909861338610823
33,6,0.5,0.9029764927478616,1.3488775143843057
33,6,0.25,0.9066671816183326,0.9798086273372086
33,6,0.0,0.9003622915054872,1.6102976386217493
33,7,1.0,0.9164652678917047,0.0
33,7,0.75,0.9050988055882645,1.1366462303440183
33,7,0.5,0.9102987224503516,0.6166545441353088
33,7,0.25,0.8982413691972515,1.8223898694453178
33,7,0.0,0.8961989307325502,2.026633715915449
33,8,1.0,0.9164652678917047,0.0
33,8,0.75,0.9167480366917273,-0.028276880002264804
33,8,0.5,0.9288959831428875,-1.2430715251182778
33,8,0.25,0.9122949805054895,0.41702873862151657
33,8,0.0,0.8999350238564041,1.6530244035300568
34,0,1.0,0.9134375067714405,0.0
34,0,0.75,0.9161854457623541,-0.2747938990913523
34,0,0.5,0.9078384287454637,0.5599078025976811
34,0,0.25,0.8968234738877269,1.6614032883713659
34,0,0.0,0.8800192094857987,3.341829728564183
34,1,1.0,0.9134375067714405,0.0
34,1,0.75,0.9152883612737628,-0.18508545023222522
34,1,0.5,0.9251515800714087,-1.1714073299968208
34,1,0.25,0.924786347161318,-1.134884038987749
34,1,0.0,0.9206920618406927,-0.7254555069252211
34,2,1.0,0.9134375067714405,0.0
34,2,0.75,0.9302548401157242,-1.6817333344283703
34,2,0.5,0.9293601255166424,-1.5922618745201844
34,2,0.25,0.9248921405544869,-1.1454633783046342
34,2,0.0,0.9136114670882514,-0.017396031681082835
34,3,1.0,0.9134375067714405,0.0
34,3,0.75,0.9092317593584047,0.42057474130358097
34,3,0.5,0.9007990243483373,1.263848242310328
34,3,0.25,0.8917166272887318,2.1720879482708733
34,3,0.0,0.888380176417747,2.5057330353693508
34,4,1.0,0.9134375067714405,0.0
34,4,0.75,0.9138014129494748,-0.036390617803427894
34,4,0.5,0.898961037934022,1.4476468837418488
34,4,0.25,0.8818172244642833,3.162028230715719
34,4,0.0,0.891280620084968,2.2156886686472532
34,5,1.0,0.9134375067714405,0.0
34,5,0.75,0.9030446512662706,1.0392855505169885
34,5,0.5,0.9038929529011874,0.9544553870253103
34,5,0.25,0.904694079053513,0.8743427717927577
34,5,0.0,0.887313415021249,2.612409175019148
34,6,1.0,0.9134375067714405,0.0
34,6,0.75,0.9121550758578556,0.1282430913584931
34,6,0.5,0.9146975568604966,-0.1260050089056053
34,6,0.25,0.9151627491303806,-0.17252423589401156
34,6,0.0,0.9121836877714442,0.12538189999963256
34,7,1.0,0.9134375067714405,0.0
34,7,0.75,0.9161069610879538,-0.266945431651322
34,7,0.5,0.8966254177499741,1.681208902146647
34,7,0.25,0.8882919841712833,2.5145522600157233
34,7,0.0,0.883910996661543,2.9526510109897486
34,8,1.0,0.9134375067714405,0.0
34,8,0.75,0.9117184348527633,0.17190719186772618
34,8,0.5,0.8990455567547091,1.4391950016731436
34,8,0.25,0.8858505701350322,2.758693663640832
34,8,0.0,0.8697490120675916,4.368849470384895
35,0,1.0,0.6247763597083482,0.0
35,0,0.75,0.6279723553374531,-0.31959956291048863
35,0,0.5,0.6137522561489459,1.102410355940231
35,0,0.25,0.5992289496674241,2.554741004092409
35,0,0.0,0.5905971973038739,3.4179162404474273
35,1,1.0,0.6247763597083482,0.0
35,1,0.75,0.6305120025737572,-0.5735642865408952
35,1,0.5,0.617114606789424,0.7661752918924236
35,1,0.25,0.6253928332674388,-0.06164735590905579
35,1,0.0,0.6297493585229434,-0.4972998814595231
35,2,1.0,0.6247763597083482,0.0
35,2,0.75,0.624787866419788,-0.001150671143979043
35,2,0.5,0.6317845801512025,-0.7008220442854318
35,2,0.25,0.6323821399328281,-0.7605780224479886
35,2,0.0,0.6320334777966209,-0.7257118088272674
35,3,1.0,0.6247763597083482,0.0
35,3,0.75,0.6359356620307841,-1.1159302322435893
35,3,0.5,0.6351955847945921,-1.0419225086243933
35,3,0.25,0.6230493143637824,0.1727045344565803
35,3,0.0,0.6178161075036075,0.6960252204740724
35,4,1.0,0.6247763597083482,0.0
35,4,0.75,0.6302373002292532,-0.5460940520904956
35,4,0.5,0.642057286784949,-1.7280927076600783
35,4,0.25,0.6388358040665509,-1.4059444358202722
35,4,0.0,0.6296450977364659,-0.4868738028117714
35,5,1.0,0.6247763597083482,0.0
35,5,0.75,0.6202276121091451,0.45487475992030957
35,5,0.5,0.6166784900942974,0.809786961405079
35,5,0.25,0.6020833047557422,2.2693054952605984
35,5,0.0,0.5814021367960096,4.337422291233861
35,6,1.0,0.6247763597083482,0.0
35,6,0.75,0.6205575032794165,0.42188564289317165
35,6,0.5,0.6156850743234558,0.9091285384892456
35,6,0.25,0.6128094821185528,1.1966877589795422
35,6,0.0,0.6041970093440832,2.057935036426506
35,7,1.0,0.6247763597083482,0.0
35,7,0.75,0.6225013957530334,0.22749639553147905
35,7,0.5,0.6265965388645037,-0.18201791561555103
35,7,0.25,0.6425916359996109,-1.7815276291262672
35,7,0.0,0.6267009492255184,-0.19245895171702276
35,8,1.0,0.6247763597083482,0.0
35,8,0.75,0.6278421303692003,-0.30657706608521185
35,8,0.5,0.6259222992458681,-0.11459395375198467
35,8,0.25,0.6296777667303292,-0.49014070219809414
35,8,0.0,0.6426913857663035,-1.7915026057955252
36,0,1.0,0.7958199646740349,0.0
36,0,0.75,0.7955799146914319,0.024004998260307442
36,0,0.5,0.7844260532117153,1.1393911462319606
36,0,0.25,0.7875736683771559,0.8246296296879008
36,0,0.0,0.7874612841266252,0.8358680547409736
36,1,1.0,0.7958199646740349,0.0
36,1,0.75,0.7991926557125364,-0.3372691038501463
36,1,0.5,0.7871025614140794,0.8717403259955514
36,1,0.25,0.7756651480542504,2.0154816619784577
36,1,0.0,0.7746210653144123,2.1198899359622603
36,2,1.0,0.7958199646740349,0.0
36,2,0.75,0.7889276233444137,0.6892341329621243
36,2,0.5,0.7787724737049729,1.7047490969061996
36,2,0.25,0.7651110937151963,3.0708870958838674
36,2,0.0,0.7641209201990489,3.169904447498606
36,3,1.0,0.7958199646740349,0.0
36,3,0.75,0.7901914007014109,0.5628563972624012
36,3,0.5,0.777060857459832,1.875910721420293
36,3,0.25,0.7640749940987994,3.174497057523551
36,3,0.0,0.7480309866656123,4.778897800842263
36,4,1.0,0.7958199646740349,0.0
36,4,0.75,0.7999652300076667,-0.4145265333631798
36,4,0.5,0.8045035061190958,-0.8683541445060894
36,4,0.25,0.8077375420125953,-1.191757733856036
36,4,0.0,0.8086939694406267,-1.287400476659173
36,5,1.0,0.7958199646740349,0.0
36,5,0.75,0.7940683040232019,0.17516606508329868
36,5,0.5,0.7913543136118268,0.4465651062208087
36,5,0.25,0.8119514028086927,-1.6131438134657783
36,5,0.0,0.8298871940061074,-3.4067229332072513
36,6,1.0,0.7958199646740349,0.0
36,6,0.75,0.7969894819819137,-0.11695173078787313
36,6,0.5,0.7934535029263845,0.2366461747650428
36,6,0.25,0.7903941816400196,0.5425783034015308
36,6,0.0,0.7861216271714155,0.9698337502619392
36,7,1.0,0.7958199646740349,0.0
36,7,0.75,0.7906805825091908,0.5139382164844108
36,7,0.5,0.7749140085214216,2.090595615261337
36,7,0.25,0.7458857098186366,4.993425485539838
36,7,0.0,0.7307804096822361,6.503955499179881
36,8,1.0,0.7958199646740349,0.0
36,8,0.75,0.7879939582659876,0.7826006408047315
36,8,0.5,0.7710978907540896,2.4722073919945298
36,8,0.25,0.7480091411642316,4.781082350980337
36,8,0.0,0.7286430734471383,6.717689122689663
37,0,1.0,0.8790741959937955,0.0
37,0,0.75,0.8719867278293362,0.7087468164459376
37,0,0.5,0.8715549053786074,0.751929061518819
37,0,0.25,0.8659500584004947,1.3124137593300889
37,0,0.0,0.861655490444299,1.7418705549496538
37,1,1.0,0.8790741959937955,0.0
37,1,0.75,0.8795330827606497,-0.045888676685412744
37,1,0.5,0.8699999769058984,0.9074219087897184
37,1,0.25,0.8758479497070144,0.32262462867811426
37,1,0.0,0.8677441521036433,1.1330043890152242
37,2,1.0,0.8790741959937955,0.0
37,2,0.75,0.876766849069376,0.23073469244195843
37,2,0.5,0.8740300940755745,0.5044101918221022
37,2,0.25,0.8689492318617139,1.0124964132081637
37,2,0.0,0.855561568896859,2.351262709693658
37,3,1.0,0.8790741959937955,0.0
37,3,0.75,0.8773685348555613,0.17056611382342268
37,3,0.5,0.8802331547093127,-0.11589587155171888
37,3,0.25,0.8821429520264119,-0.306875603261636
37,3,0.0,0.8689743042478637,1.0099891745931844
37,4,1.0,0.8790741959937955,0.0
37,4,0.75,0.874290723735136,0.47834722586594935
37,4,0.5,0.871526064872397,0.7548131121398516
37,4,0.25,0.8793920725944693,-0.03178766006737277
37,4,0.0,0.8939182670517087,-1.4844071057913188
37,5,1.0,0.8790741959937955,0.0
37,5,0.75,0.878896639981279,0.01775560125165665
37,5,0.5,0.864473935824689,1.4600260169106538
37,5,0.25,0.8549294852003059,2.4144710793489677
37,5,0.0,0.8647249604619529,1.4349235531842641
37,6,1.0,0.8790741959937955,0.0
37,6,0.75,0.8713986784220045,0.767551757179108
37,6,0.5,0.8714004052730844,0.7673790720711171
37,6,0.25,0.871192688601004,0.7881507392791587
37,6,0.0,0.8606586182257112,1.8415577768084335
37,7,1.0,0.8790741959937955,0.0
37,7,0.75,0.864763238999583,1.4310956994212587
37,7,0.5,0.8393711911283815,3.9703004865414004
37,7,0.25,0.8317952985108533,4.727889748294222
37,7,0.0,0.827077892399262,5.199630359453355
37,8,1.0,0.8790741959937955,0.0
37,8,0.75,0.8810028182073549,-0.19286222135593833
37,8,0.5,0.8880529700128833,-0.8978774019087754
37,8,0.25,0.8807863600762071,-0.17121640824115936
37,8,0.0,0.8663517685830059,1.272242741078966
38,0,1.0,0.856698434380668,0.0
38,0,0.75,0.8470582604404837,0.9640173940184238
38,0,0.5,0.8360660913701857,2.0632343010482224
38,0,0.25,0.8273747056227373,2.9323728757930656
38,0,0.0,0.8401162374436362,1.658219693703178
38,1,1.0,0.856698434380668,0.0
38,1,0.75,0.8557954709012603,0.09029634794076591
38,1,0.5,0.8596581260811705,-0.2959691700502587
38,1,0.25,0.8733104899324785,-1.6612055551810556
38,1,0.0,0.8719226909354062,-1.5224256554738247
38,2,1.0,0.856698434380668,0.0
38,2,0.75,0.854593617634995,0.21048167456729772
38,2,0.5,0.8532800218237886,0.3418412556879358
38,2,0.25,0.8639357030930928,-0.7237268712424805
38,2,0.0,0.8608679087115464,-0.4169474330878442
38,3,1.0,0.856698434380668,0.0
38,3,0.75,0.8608226997193472,-0.4124265338679267
38,3,0.5,0.8655800015772379,-0.8881567196569962
38,3,0.25,0.8612512722682214,-0.45528378875534514
38,3,0.0,0.8613993902714407,-0.47009558907727955
38,4,1.0,0.856698434380668,0.0
38,4,0.75,0.8398736029812567,1.6824831399411266
38,4,0.5,0.8429858563970082,1.3712577983659768
38,4,0.25,0.8348643344442065,2.183409993646146
38,4,0.0,0.8389330273306692,1.7765407049998738
38,5,1.0,0.856698434380668,0.0
38,5,0.75,0.8327349428337874,2.39634915468806
38,5,0.5,0.8316863598330573,2.5012074547610674
38,5,0.25,0.8452409693959669,1.1457464984701016
38,5,0.0,0.8519029690207458,0.47954653599221464
38,6,1.0,0.856698434380668,0.0
38,6,0.75,0.8537611285291633,0.2937305851504646
38,6,0.5,0.8427524860196588,1.3945948361009153
38,6,0.25,0.8406740083278544,1.6024426052813512
38,6,0.0,0.8418746833462321,1.4823751034435895
38,7,1.0,0.856698434380668,0.0
38,7,0.75,0.8535972485212446,0.31011858594233166
38,7,0.5,0.8409284641628326,1.5769970217835327
38,7,0.25,0.84564701485652,1.1051419524147899
38,7,0.0,0.8412326581576027,1.546577622306522
38,8,1.0,0.856698434380668,0.0
38,8,0.75,0.8611764676307959,-0.4478033250127966
38,8,0.5,0.8570020160536042,-0.030358167293620397
38,8,0.25,0.8606949830162022,-0.3996548635534225
38,8,0.0,0.8642135385410238,-0.7515104160355834
39,0,1.0,0.8112024515538929,0.0
39,0,0.75,0.8128974798632655,-0.1695028309372626
39,0,0.5,0.8019829661295961,0.9219485424296847
39,0,0.25,0.7982378178058079,1.2964633748084986
39,0,0.0,0.805904499067575,0.5297952486317925
39,1,1.0,0.8112024515538929,0.0
39,1,0.75,0.8172784279196199,-0.6075976365726987
39,1,0.5,0.8243958070564931,-1.3193355502600146
39,1,0.25,0.813431000117512,-0.22285485636190927
39,1,0.0,0.8044155367573621,0.6786914796530819
39,2,1.0,0.8112024515538929,0.0
39,2,0.75,0.8067041986696486,0.4498252884244325
39,2,0.5,0.7975185050796711,1.3683946474221775
39,2,0.25,0.8017211656073222,0.9481285946570717
39,2,0.0,0.795191994608675,1.6010456945217966
39,3,1.0,0.8112024515538929,0.0
39,3,0.75,0.8095615645337607,0.1640887020132209
39,3,0.5,0.7918597238154287,1.9342727738464238
39,3,0.25,0.7502016573313874,6.100079422250548
39,3,0.0,0.6969479399243912,11.425451162950173
39,4,1.0,0.8112024515538929,0.0
39,4,0.75,0.799624926902687,1.1577524651205873
39,4,0.5,0.794971293955657,1.6231157598235901
39,4,0.25,0.7708115371123458,4.039091444154708
39,4,0.0,0.7604412025700882,5.076124898380474
39,5,1.0,0.8112024515538929,0.0
39,5,0.75,0.8233157651200591,-1.2113313566166184
39,5,0.5,0.8197788229369841,-0.8576371383091197
39,5,0.25,0.8162215250610194,-0.5019073507126492
39,5,0.0,0.8120074355912821,-0.08049840373891559
39,6,1.0,0.8112024515538929,0.0
39,6,0.75,0.8269817424073842,-1.577929085349128
39,6,0.5,0.8255022358601249,-1.4299784306232022
39,6,0.25,0.8238699190221216,-1.2667467468228666
39,6,0.0,0.840395587268761,-2.9193135714868035
39,7,1.0,0.8112024515538929,0.0
39,7,0.75,0.805760641368527,0.5441810185365936
39,7,0.5,0.808777106879113,0.242534467477995
39,7,0.25,0.8096102845286207,0.15921670252722064
39,7,0.0,0.8315661294719705,-2.0363677918077583
39,8,1.0,0.8112024515538929,0.0
39,8,0.75,0.8305622433811365,-1.9359791827243567
39,8,0.5,0.8367084859289162,-2.55060343750233
39,8,0.25,0.8432483358776156,-3.2045884323722684
39,8,0.0,0.8386896436021727,-2.7487192048279763
40,0,1.0,0.8260492338495158,0.0
40,0,0.75,0.8198562424246831,0.619299142483265
40,0,0.5,0.8010467026762464,2.500253117326934
40,0,0.25,0.787373508784697,3.8675725064818756
40,0,0.0,0.7807587371372748,4.529049671224095
40,1,1.0,0.8260492338495158,0.0
40,1,0.75,0.8152386563423484,1.0810577507167407
40,1,0.5,0.804073330920001,2.197590292951479
40,1,0.25,0.7875005899978217,3.8548643851694098
40,1,0.0,0.7769787769917404,4.9070456857775335
40,2,1.0,0.8260492338495158,0.0
40,2,0.75,0.8440280030958166,-1.7978769246300819
40,2,0.5,0.8459119398282159,-1.9862705978700101
40,2,0.25,0.8509088692272836,-2.485963537776781
40,2,0.0,0.8534313047685059,-2.7382070918990142
40,3,1.0,0.8260492338495158,0.0
40,3,0.75,0.8284289580041028,-0.23797241545869818
40,3,0.5,0.8082825025102868,1.7766731339229014
40,3,0.25,0.8115044237327202,1.4544810116795537
40,3,0.0,0.7997503430823745,2.6298890767141314
40,4,1.0,0.8260492338495158,0.0
40,4,0.75,0.8329841152307881,-0.6934881381272295
40,4,0.5,0.8268763570449573,-0.0827123195441537
40,4,0.25,0.8208064630137176,0.5242770835798161
40,4,0.0,0.8153537281888176,1.0695505660698212
40,5,1.0,0.8260492338495158,0.0
40,5,0.75,0.8422491638795986,-1.6199930030082799
40,5,0.5,0.8448854751111596,-1.883624126164385
40,5,0.25,0.840934585256599,-1.4885351407083247
40,5,0.0,0.840934585256599,-1.4885351407083247
40,6,1.0,0.8260492338495158,0.0
40,6,0.75,0.8232787466234932,0.27704872260225777
40,6,0.5,0.8237689555634157,0.22802782861001125
40,6,0.25,0.8148740289052485,1.117520494426727
40,6,0.0,0.8192060009932328,0.6843232856282966
40,7,1.0,0.8260492338495158,0.0
40,7,0.75,0.8083963305981606,1.7652903251355156
40,7,0.5,0.797328132749063,2.8721101100452784
40,7,0.25,0.8061731923106309,1.9876041538884892
40,7,0.0,0.7964916807178712,2.9557553131644543
40,8,1.0,0.8260492338495158,0.0
40,8,0.75,0.827614270339207,-0.1565036489691196
40,8,0.5,0.8203348069308716,0.5714426918644211
40,8,0.25,0.8127901150824423,1.325911876707353
40,8,0.0,0.8100323037589829,1.6016930090532844
