subject,channel,f1_full,f1_occluded,drop_pp
1,0,0.7320660924481406,0.6908546441542677,4.1211448293872905
1,1,0.7320660924481406,0.7394609184082868,-0.7394825960146179
1,2,0.7320660924481406,0.7289050730665462,0.316101938159441
1,3,0.7320660924481406,0.6769178069923336,5.514828545580697
1,4,0.7320660924481406,0.7254516973561623,0.6614395091978253
1,5,0.7320660924481406,0.5855769343914793,14.64891580566613
1,6,0.7320660924481406,0.7451380988874882,-1.3072006439347583
1,7,0.7320660924481406,0.6465809680094586,8.548512443868194
1,8,0.7320660924481406,0.6981912043884296,3.387488805971095
2,0,0.8895509322587882,0.897089943330669,-0.7539011071880819
2,1,0.8895509322587882,0.8587151933041635,3.083573895462477
2,2,0.8895509322587882,0.8493947019072833,4.015623035150496
2,3,0.8895509322587882,0.8708867145462948,1.866421771249338
2,4,0.8895509322587882,0.8859941725881157,0.35567596706724824
2,5,0.8895509322587882,0.8669839645856737,2.25669676731145
2,6,0.8895509322587882,0.8661110393280809,2.3439892930707362
2,7,0.8895509322587882,0.8594364468640305,3.0114485394757695
2,8,0.8895509322587882,0.8609999256723606,2.855100658642762
3,0,0.8966522155674702,0.8839390269643652,1.2713188603104997
3,1,0.8966522155674702,0.8840706168831168,1.258159868435338
3,2,0.8966522155674702,0.8975243622592508,-0.08721466917805953
3,3,0.8966522155674702,0.7665476839944925,13.010453157297775
3,4,0.8966522155674702,0.9175396029582916,-2.088738739082141
3,5,0.8966522155674702,0.9068129567116046,-1.0160741144134344
3,6,0.8966522155674702,0.8876395210130777,0.9012694554392464
3,7,0.8966522155674702,0.8602199629074909,3.643225265997929
3,8,0.8966522155674702,0.8829977312685869,1.3654484298883274
4,0,0.8630467203185692,0.8106439552551323,5.2402765063436885
4,1,0.8630467203185692,0.7933998904213448,6.964682989722437
4,2,0.8630467203185692,0.8228655749648751,4.01811453536941
4,3,0.8630467203185692,0.890077606920489,-2.703088660191977
4,4,0.8630467203185692,0.8775369258702523,-1.4490205551683122
4,5,0.8630467203185692,0.8739083353607523,-1.0861615042183081
4,6,0.8630467203185692,0.8519856434453941,1.1061076873175146
4,7,0.8630467203185692,0.8547740180982886,0.8272702220280648
4,8,0.8630467203185692,0.8518279162222688,1.1218804096300383
5,0,0.6603674975202154,0.6520922742371742,0.82752232830412
5,1,0.6603674975202154,0.6728623793625756,-1.249488184236025
5,2,0.6603674975202154,0.6574541442694585,0.29133532507569226
5,3,0.6603674975202154,0.7378750630830502,-7.750756556283478
5,4,0.6603674975202154,0.6662306062269594,-0.5863108706744002
5,5,0.6603674975202154,0.6480589688907268,1.2308528629488613
5,6,0.6603674975202154,0.6515411661010282,0.8826331419187206
5,7,0.6603674975202154,0.638587180687465,2.178031683275039
5,8,0.6603674975202154,0.6468871403882925,1.348035713192286
6,0,0.7708703908465939,0.7520929058638337,1.8777484982760217
6,1,0.7708703908465939,0.7472801285093644,2.3590262337229495
6,2,0.7708703908465939,0.766403981748946,0.446640909764795
6,3,0.7708703908465939,0.800041849642949,-2.9171458796355076
6,4,0.7708703908465939,0.7511153433720723,1.9755047474521614
6,5,0.7708703908465939,0.7511190717914327,1.9751319055161254
6,6,0.7708703908465939,0.7703643267252669,0.05060641213270323
6,7,0.7708703908465939,0.6811851637342484,8.96852271123455
6,8,0.7708703908465939,0.7186700767263428,5.220031412025117
7,0,0.7990373874759406,0.7793727564204987,1.9664631055441806
7,1,0.7990373874759406,0.784983996629198,1.4053390846742508
7,2,0.7990373874759406,0.7503661411573408,4.867124631859976
7,3,0.7990373874759406,0.7854579146957508,1.3579472780189783
7,4,0.7990373874759406,0.7955436451856297,0.3493742290310853
7,5,0.7990373874759406,0.8366150775690387,-3.7577690093098193
7,6,0.7990373874759406,0.7964561349433706,0.2581252532569911
7,7,0.7990373874759406,0.7564816328892541,4.255575458668648
7,8,0.7990373874759406,0.7490255178499916,5.001186962594895
8,0,0.7886082215217686,0.7857581989429347,0.2850022578833822
8,1,0.7886082215217686,0.8045226351562259,-1.5914413634457336
8,2,0.7886082215217686,0.7903664466662743,-0.17582251445057429
8,3,0.7886082215217686,0.7776331101574107,1.0975111364357915
8,4,0.7886082215217686,0.7497483204392916,3.8859901082476944
8,5,0.7886082215217686,0.7226534431482412,6.595477837352737
8,6,0.7886082215217686,0.779306705527609,0.9301515994159626
8,7,0.7886082215217686,0.768027610689636,2.0580610832132584
8,8,0.7886082215217686,0.769827988286313,1.8780233235455523
9,0,0.7889579851699275,0.776249523849383,1.2708461320544595
9,1,0.7889579851699275,0.7360228389876496,5.293514618227791
9,2,0.7889579851699275,0.7511588665944455,3.7799118575482016
9,3,0.7889579851699275,0.7911318114027206,-0.21738262327930524
9,4,0.7889579851699275,0.7738066912314826,1.5151293938444943
9,5,0.7889579851699275,0.7507685058485355,3.818947932139205
9,6,0.7889579851699275,0.7890346939664348,-0.007670879650722995
9,7,0.7889579851699275,0.7591248733535968,2.983311181633075
9,8,0.7889579851699275,0.7955613963332369,-0.6603411163309314
10,0,0.7666876264338782,0.7764120761934837,-0.9724449759605513
10,1,0.7666876264338782,0.7347779580232696,3.1909668410608605
10,2,0.7666876264338782,0.7731795782343851,-0.6491951800506879
10,3,0.7666876264338782,0.7459811038239392,2.0706522609938993
10,4,0.7666876264338782,0.7498748473748474,1.681277905903078
10,5,0.7666876264338782,0.7647720921135315,0.19155343203467456
10,6,0.7666876264338782,0.768597010425025,-0.1909383991146818
10,7,0.7666876264338782,0.7540919953453085,1.2595631088569759
10,8,0.7666876264338782,0.7656005286911987,0.10870977426795658
11,0,0.9427509975336064,0.9466392887904516,-0.38882912568452
11,1,0.9427509975336064,0.9133279241974894,2.9423073336116934
11,2,0.9427509975336064,0.9070378731904207,3.571312434318563
11,3,0.9427509975336064,0.9034364780127493,3.931451952085707
11,4,0.9427509975336064,0.9267215426513155,1.6029454882290906
11,5,0.9427509975336064,0.9220619352654643,2.0689062268142044
11,6,0.9427509975336064,0.9362127105589464,0.6538286974659968
11,7,0.9427509975336064,0.9238917666903086,1.885923084329777
11,8,0.9427509975336064,0.9381927467056939,0.4558250827912502
12,0,0.8915049147235498,0.8982691024252913,-0.6764187701741586
12,1,0.8915049147235498,0.8530551886664539,3.8449726057095845
12,2,0.8915049147235498,0.8554379478599291,3.6066966863620653
12,3,0.8915049147235498,0.8602693982720063,3.1235516451543432
12,4,0.8915049147235498,0.8865980247872762,0.49068899362735285
12,5,0.8915049147235498,0.8892905926461883,0.2214322077361497
12,6,0.8915049147235498,0.9058479016729577,-1.4342986949407943
12,7,0.8915049147235498,0.8863886466452815,0.511626807826826
12,8,0.8915049147235498,0.8634280030266124,2.807691169693738
13,0,0.8739268224231604,0.8248354005155052,4.909142190765525
13,1,0.8739268224231604,0.8594377282793412,1.448909414381927
13,2,0.8739268224231604,0.8555581184188603,1.836870400430013
13,3,0.8739268224231604,0.8350924854673708,3.883433695578964
13,4,0.8739268224231604,0.848195390239928,2.5731432183232483
13,5,0.8739268224231604,0.8462013639607229,2.772545846243757
13,6,0.8739268224231604,0.8497272726834042,2.4199549739756243
13,7,0.8739268224231604,0.8167573943040649,5.716942811909553
13,8,0.8739268224231604,0.8519739450050368,2.1952877418123684
14,0,0.8348992122511845,0.8188316981231192,1.6067514128065286
14,1,0.8348992122511845,0.8239959663004237,1.0903245950760754
14,2,0.8348992122511845,0.8244076028161474,1.049160943503702
14,3,0.8348992122511845,0.7820918108114542,5.280740143973029
14,4,0.8348992122511845,0.834725011193251,0.017420105793342078
14,5,0.8348992122511845,0.8280741340739026,0.682507817728184
14,6,0.8348992122511845,0.8149199458344394,1.9979266416745078
14,7,0.8348992122511845,0.7562195608978133,7.867965135337118
14,8,0.8348992122511845,0.8007969359596537,3.410227629153073
15,0,0.8397215955858027,0.7732220685317773,6.64995270540254
15,1,0.8397215955858027,0.8015414972471131,3.8180098338689628
15,2,0.8397215955858027,0.8119684044083478,2.7753191177454895
15,3,0.8397215955858027,0.7888780925994973,5.084350298630547
15,4,0.8397215955858027,0.8281620192559063,1.155957632989646
15,5,0.8397215955858027,0.7960742798994949,4.364731568630786
15,6,0.8397215955858027,0.8005887342858089,3.9132861299993826
15,7,0.8397215955858027,0.8092178651009958,3.0503730484806924
15,8,0.8397215955858027,0.8468277032780466,-0.7106107692243846
16,0,0.8773723232976044,0.8557154525457722,2.1656870751832202
16,1,0.8773723232976044,0.8618363246693774,1.5535998628226966
16,2,0.8773723232976044,0.8468814815100246,3.049084178757977
16,3,0.8773723232976044,0.8648522222031716,1.25201010944328
16,4,0.8773723232976044,0.8460459288970245,3.1326394400579938
16,5,0.8773723232976044,0.835962595940196,4.140972735740844
16,6,0.8773723232976044,0.8837493473907317,-0.6377024093127348
16,7,0.8773723232976044,0.8138253438712154,6.354697942638898
16,8,0.8773723232976044,0.8610334933102939,1.633882998731051
17,0,0.8613266720768242,0.8426643832288712,1.8662288847953068
17,1,0.8613266720768242,0.8609725253203515,0.03541467564727174
17,2,0.8613266720768242,0.8475220168352582,1.3804655241566044
17,3,0.8613266720768242,0.8378945734312786,2.343209864554563
17,4,0.8613266720768242,0.8623574318180024,-0.10307597411781666
17,5,0.8613266720768242,0.8318497298622822,2.9476942214542
17,6,0.8613266720768242,0.8397370641143973,2.1589607962426927
17,7,0.8613266720768242,0.8019857871550422,5.934088492178202
17,8,0.8613266720768242,0.842367266927126,1.8959405149698183
18,0,0.9000117029568924,0.8785639378780041,2.1447765078888237
18,1,0.9000117029568924,0.8882401503258994,1.1771552630992943
18,2,0.9000117029568924,0.9077379942579433,-0.7726291301050958
18,3,0.9000117029568924,0.7951040380828309,10.490766487406145
18,4,0.9000117029568924,0.8761117437105616,2.3899959246330815
18,5,0.9000117029568924,0.8964374444874957,0.35742584693966295
18,6,0.9000117029568924,0.8846335039243916,1.5378199032500817
18,7,0.9000117029568924,0.8606046183025493,3.940708465434306
18,8,0.9000117029568924,0.8880940275585691,1.1917675398323224
19,0,0.8413013069498967,0.8527907446681244,-1.1489437718227746
19,1,0.8413013069498967,0.8304850243087372,1.0816282641159525
19,2,0.8413013069498967,0.8307222595064483,1.0579047443448397
19,3,0.8413013069498967,0.8287285569100667,1.2572750039829939
19,4,0.8413013069498967,0.833561142356025,0.7740164593871723
19,5,0.8413013069498967,0.8188308921092382,2.247041484065848
19,6,0.8413013069498967,0.8481746930107131,-0.6873386060816444
19,7,0.8413013069498967,0.8147650571683267,2.6536249781569987
19,8,0.8413013069498967,0.8168832021736521,2.441810477624462
20,0,0.804856970404605,0.8068658473400109,-0.20088769354058567
20,1,0.804856970404605,0.7846503024641622,2.020666794044279
20,2,0.804856970404605,0.7858975866465989,1.8959383758006099
20,3,0.804856970404605,0.8035938539466305,0.12631164579745002
20,4,0.804856970404605,0.8229491569939514,-1.8092186589346415
20,5,0.804856970404605,0.8228174724557221,-1.79605020511171
20,6,0.804856970404605,0.8096214299254392,-0.4764459520834152
20,7,0.804856970404605,0.8192857939193621,-1.442882351475705
20,8,0.804856970404605,0.7369541972020932,6.790277320251182
21,0,0.7800187994381078,0.7637192137702341,1.6299585667873706
21,1,0.7800187994381078,0.8007754817442563,-2.0756682306148466
21,2,0.7800187994381078,0.765860267933852,1.4158531504255834
21,3,0.7800187994381078,0.7448715516175516,3.5147247820556227
21,4,0.7800187994381078,0.7745427877040914,0.5476011734016462
21,5,0.7800187994381078,0.8008479620268547,-2.0829162588746897
21,6,0.7800187994381078,0.7779813890196945,0.20374104184133213
21,7,0.7800187994381078,0.8165625607479569,-3.6543761309849043
21,8,0.7800187994381078,0.7867335038578644,-0.6714704419756634
22,0,0.8056069397884495,0.8227222040835702,-1.711526429512067
22,1,0.8056069397884495,0.8309211589090562,-2.5314219120606607
22,2,0.8056069397884495,0.8274584604067693,-2.185152061831974
22,3,0.8056069397884495,0.7453491195995874,6.025782018886217
22,4,0.8056069397884495,0.8116751255633742,-0.6068185774924628
22,5,0.8056069397884495,0.801115502253951,0.44914375344985435
22,6,0.8056069397884495,0.7892979876431462,1.6308952145303368
22,7,0.8056069397884495,0.7449390126730984,6.066792711535118
22,8,0.8056069397884495,0.78054881120849,2.5058128579959593
23,0,0.7789641151363218,0.7141519619076719,6.481215322864986
23,1,0.7789641151363218,0.7681490947241311,1.0815020412190735
23,2,0.7789641151363218,0.8022469407186402,-2.3282825582318423
23,3,0.7789641151363218,0.8024736342085637,-2.350951907224186
23,4,0.7789641151363218,0.7534548112417515,2.550930389457029
23,5,0.7789641151363218,0.7880328991743777,-0.9068784038055888
23,6,0.7789641151363218,0.7897700527758567,-1.0805937639534857
23,7,0.7789641151363218,0.8138157231399993,-3.485160800367748
23,8,0.7789641151363218,0.7410609969366442,3.790311819967762
24,0,0.7818333953205359,0.7585813076599753,2.3252087660560528
24,1,0.7818333953205359,0.79586753540128,-1.4034140080744106
24,2,0.7818333953205359,0.7575498217750635,2.428357354547239
24,3,0.7818333953205359,0.8409219517097908,-5.908855638925492
24,4,0.7818333953205359,0.7356834745742904,4.6149920746245465
24,5,0.7818333953205359,0.7578282594768556,2.4005135843680248
24,6,0.7818333953205359,0.7555918106541955,2.624158466634041
24,7,0.7818333953205359,0.7539588318026427,2.787456351789319
24,8,0.7818333953205359,0.7300699694781789,5.176342584235694
25,0,0.8602785378238721,0.8690352276224853,-0.8756689798613215
25,1,0.8602785378238721,0.8606970705959365,-0.04185327720643839
25,2,0.8602785378238721,0.855789213375119,0.44893244487530515
25,3,0.8602785378238721,0.8576791894973713,0.2599348326500772
25,4,0.8602785378238721,0.8520519816402685,0.8226556183603573
25,5,0.8602785378238721,0.8563296498131162,0.394888801075588
25,6,0.8602785378238721,0.8798186448469524,-1.9540107023080289
25,7,0.8602785378238721,0.8114781983039244,4.880033951994767
25,8,0.8602785378238721,0.8854905751682648,-2.52120373443927
26,0,0.7807320721849969,0.7602773305381513,2.0454741646845576
26,1,0.7807320721849969,0.7675049723787859,1.3227099806210951
26,2,0.7807320721849969,0.7405407936488926,4.019127853610427
26,3,0.7807320721849969,0.7785291475010836,0.22029246839132544
26,4,0.7807320721849969,0.7649564189439544,1.5775653241042464
26,5,0.7807320721849969,0.7511307496316721,2.9601322553324705
26,6,0.7807320721849969,0.774432481930101,0.6299590254895904
26,7,0.7807320721849969,0.768498928173561,1.2233144011435826
26,8,0.7807320721849969,0.7497623422102128,3.096972997478409
27,0,0.8872114361201061,0.9027818001131788,-1.5570363993072656
27,1,0.8872114361201061,0.8894749749800169,-0.22635388599108186
27,2,0.8872114361201061,0.8626923650697108,2.4519071050395302
27,3,0.8872114361201061,0.8814463629592103,0.5765073160895806
27,4,0.8872114361201061,0.8884934605176826,-0.128202439757652
27,5,0.8872114361201061,0.8892506159423753,-0.20391798222691992
27,6,0.8872114361201061,0.8963758317606956,-0.9164395640589462
27,7,0.8872114361201061,0.8784085692311158,0.8802866888990346
27,8,0.8872114361201061,0.8962856023609184,-0.9074166240812254
28,0,0.80271709700802,0.8632011925862454,-6.048409557822543
28,1,0.80271709700802,0.7998867259644435,0.28303710435764184
28,2,0.80271709700802,0.746973659300358,5.574343770766199
28,3,0.80271709700802,0.8216374924993493,-1.892039549132929
28,4,0.80271709700802,0.8051976124643272,-0.24805154563072307
28,5,0.80271709700802,0.6601182443783749,14.259885262964511
28,6,0.80271709700802,0.7655162162235878,3.7200880784432178
28,7,0.80271709700802,0.779743670133417,2.297342687460291
28,8,0.80271709700802,0.8241260173183846,-2.1408920310364676
29,0,0.7439197379566085,0.725724992615539,1.8194745341069463
29,1,0.7439197379566085,0.7452003100284155,-0.12805720718069846
29,2,0.7439197379566085,0.7435112785656843,0.040845939092415406
29,3,0.7439197379566085,0.748298097357032,-0.4378359400423526
29,4,0.7439197379566085,0.726861077722508,1.705866023410052
29,5,0.7439197379566085,0.6887018123765568,5.521792558005167
29,6,0.7439197379566085,0.7525521291932874,-0.8632391236678916
29,7,0.7439197379566085,0.7123891095663688,3.153062839023968
29,8,0.7439197379566085,0.6905851653118702,5.333457264473829
30,0,0.8118692383609917,0.8381017647128681,-2.623252635187645
30,1,0.8118692383609917,0.8005745760326776,1.129466232831411
30,2,0.8118692383609917,0.8473316683861662,-3.5462430025174574
30,3,0.8118692383609917,0.7592536014346152,5.261563692637649
30,4,0.8118692383609917,0.7923618235214211,1.9507414839570525
30,5,0.8118692383609917,0.7765702711947218,3.52989671662699
30,6,0.8118692383609917,0.8212545400731001,-0.9385301712108385
30,7,0.8118692383609917,0.7913369087429485,2.053232961804319
30,8,0.8118692383609917,0.8432774415714082,-3.1408203210416485
31,0,0.7792917108915225,0.7544053545804548,2.4886356311067725
31,1,0.7792917108915225,0.7556972392024128,2.3594471689109664
31,2,0.7792917108915225,0.7657907812047622,1.350092968676031
31,3,0.7792917108915225,0.7709269028357963,0.8364808055726147
31,4,0.7792917108915225,0.7547355725440068,2.455613834751569
31,5,0.7792917108915225,0.7802997674333225,-0.10080565418000287
31,6,0.7792917108915225,0.751685611761884,2.7606099129638517
31,7,0.7792917108915225,0.7143275394364093,6.496417145511324
31,8,0.7792917108915225,0.7107583587628806,6.853335212864186
32,0,0.8262761636059087,0.7994146802647005,2.686148334120819
32,1,0.8262761636059087,0.807888471676153,1.8387691929755756
32,2,0.8262761636059087,0.7920283133421899,3.4247850263718793
32,3,0.8262761636059087,0.8255507520332318,0.0725411572676915
32,4,0.8262761636059087,0.8346807979166371,-0.8404634310728354
32,5,0.8262761636059087,0.8426066319467335,-1.6330468340824744
32,6,0.8262761636059087,0.8399615016176847,-1.368533801177596
32,7,0.8262761636059087,0.7864131330840128,3.986303052189588
32,8,0.8262761636059087,0.8320094863311354,-0.5733322725226642
33,0,0.9164652678917047,0.8830456208437882,3.3419647047916445
33,1,0.9164652678917047,0.9194230776445935,-0.29578097528888403
33,2,0.9164652678917047,0.899468674466013,1.6996593425691708
33,3,0.9164652678917047,0.881582720321902,3.488254756980269
33,4,0.9164652678917047,0.9320349503768646,-1.5569682485159886
33,5,0.9164652678917047,0.9091813045632592,0.7283963328445497
33,6,0.9164652678917047,0.9003622915054872,1.6102976386217493
33,7,0.9164652678917047,0.8961989307325502,2.026633715915449
33,8,0.9164652678917047,0.8999350238564041,1.6530244035300568
34,0,0.9134375067714405,0.8800192094857987,3.341829728564183
34,1,0.9134375067714405,0.9206920618406927,-0.7254555069252211
34,2,0.9134375067714405,0.9136114670882514,-0.017396031681082835
34,3,0.9134375067714405,0.888380176417747,2.5057330353693508
34,4,0.9134375067714405,0.891280620084968,2.2156886686472532
34,5,0.9134375067714405,0.887313415021249,2.612409175019148
34,6,0.9134375067714405,0.9121836877714442,0.12538189999963256
34,7,0.9134375067714405,0.883910996661543,2.9526510109897486
34,8,0.9134375067714405,0.8697490120675916,4.368849470384895
35,0,0.6247763597083482,0.5905971973038739,3.4179162404474273
35,1,0.6247763597083482,0.6297493585229434,-0.4972998814595231
35,2,0.6247763597083482,0.6320334777966209,-0.7257118088272674
35,3,0.6247763597083482,0.6178161075036075,0.6960252204740724
35,4,0.6247763597083482,0.6296450977364659,-0.4868738028117714
35,5,0.6247763597083482,0.5814021367960096,4.337422291233861
35,6,0.6247763597083482,0.6041970093440832,2.057935036426506
35,7,0.6247763597083482,0.6267009492255184,-0.19245895171702276
35,8,0.6247763597083482,0.6426913857663035,-1.7915026057955252
36,0,0.7958199646740349,0.7874612841266252,0.8358680547409736
36,1,0.7958199646740349,0.7746210653144123,2.1198899359622603
36,2,0.7958199646740349,0.7641209201990489,3.169904447498606
36,3,0.7958199646740349,0.7480309866656123,4.778897800842263
36,4,0.7958199646740349,0.8086939694406267,-1.287400476659173
36,5,0.7958199646740349,0.8298871940061074,-3.4067229332072513
36,6,0.7958199646740349,0.7861216271714155,0.9698337502619392
36,7,0.7958199646740349,0.7307804096822361,6.503955499179881
36,8,0.7958199646740349,0.7286430734471383,6.717689122689663
37,0,0.8790741959937955,0.861655490444299,1.7418705549496538
37,1,0.8790741959937955,0.8677441521036433,1.1330043890152242
37,2,0.8790741959937955,0.855561568896859,2.351262709693658
37,3,0.8790741959937955,0.8689743042478637,1.0099891745931844
37,4,0.8790741959937955,0.8939182670517087,-1.4844071057913188
37,5,0.8790741959937955,0.8647249604619529,1.4349235531842641
37,6,0.8790741959937955,0.8606586182257112,1.8415577768084335
37,7,0.8790741959937955,0.827077892399262,5.199630359453355
37,8,0.8790741959937955,0.8663517685830059,1.272242741078966
38,0,0.856698434380668,0.8401162374436362,1.658219693703178
38,1,0.856698434380668,0.8719226909354062,-1.5224256554738247
38,2,0.856698434380668,0.8608679087115464,-0.4169474330878442
38,3,0.856698434380668,0.8613993902714407,-0.47009558907727955
38,4,0.856698434380668,0.8389330273306692,1.7765407049998738
38,5,0.856698434380668,0.8519029690207458,0.47954653599221464
38,6,0.856698434380668,0.8418746833462321,1.4823751034435895
38,7,0.856698434380668,0.8412326581576027,1.546577622306522
38,8,0.856698434380668,0.8642135385410238,-0.7515104160355834
39,0,0.8112024515538929,0.805904499067575,0.5297952486317925
39,1,0.8112024515538929,0.8044155367573621,0.6786914796530819
39,2,0.8112024515538929,0.795191994608675,1.6010456945217966
39,3,0.8112024515538929,0.6969479399243912,11.425451162950173
39,4,0.8112024515538929,0.7604412025700882,5.076124898380474
39,5,0.8112024515538929,0.8120074355912821,-0.08049840373891559
39,6,0.8112024515538929,0.840395587268761,-2.9193135714868035
39,7,0.8112024515538929,0.8315661294719705,-2.0363677918077583
39,8,0.8112024515538929,0.8386896436021727,-2.7487192048279763
40,0,0.8260492338495158,0.7807587371372748,4.529049671224095
40,1,0.8260492338495158,0.7769787769917404,4.9070456857775335
40,2,0.8260492338495158,0.8534313047685059,-2.7382070918990142
40,3,0.8260492338495158,0.7997503430823745,2.6298890767141314
40,4,0.8260492338495158,0.8153537281888176,1.0695505660698212
40,5,0.8260492338495158,0.840934585256599,-1.4885351407083247
40,6,0.8260492338495158,0.8192060009932328,0.6843232856282966
40,7,0.8260492338495158,0.7964916807178712,2.9557553131644543
40,8,0.8260492338495158,0.8100323037589829,1.6016930090532844
