subject,channel,f1_full,f1_occluded,drop_pp
1,0,0.6307276294142132,0.5403438908362537,9.038373857795957
1,1,0.6307276294142132,0.6447474571876808,-1.4019827773467552
1,2,0.6307276294142132,0.5417943109820618,8.893331843215147
1,3,0.6307276294142132,0.5133215196210503,11.74061097931629
1,4,0.6307276294142132,0.5512008944924696,7.952673492174367
1,5,0.6307276294142132,0.44333332952254434,18.73942998916689
1,6,0.6307276294142132,0.6332555017258112,-0.2527872311598012
1,7,0.6307276294142132,0.5740288905722482,5.669873884196508
1,8,0.6307276294142132,0.5924037503539445,3.8323879060268684
2,0,0.8366329350417911,0.7715183476172308,6.511458742456034
2,1,0.8366329350417911,0.7224381647756171,11.419477026617407
2,2,0.8366329350417911,0.7703657461809635,6.626718886082761
2,3,0.8366329350417911,0.7675527844562924,6.908015058549877
2,4,0.8366329350417911,0.7905840224158172,4.604891262597399
2,5,0.8366329350417911,0.7533321924313594,8.330074261043174
2,6,0.8366329350417911,0.7546716826454316,8.196125239635954
2,7,0.8366329350417911,0.600387277964507,23.62456570772842
2,8,0.8366329350417911,0.7265560255015533,11.007690954023786
3,0,0.7966295840114412,0.7425692171437446,5.406036686769666
3,1,0.7966295840114412,0.7353050067658253,6.132457724561591
3,2,0.7966295840114412,0.5412073905886475,25.54221934227937
3,3,0.7966295840114412,0.5518542866022296,24.477529740921167
3,4,0.7966295840114412,0.6846514075293306,11.19781764821106
3,5,0.7966295840114412,0.5745844762174243,22.204510779401698
3,6,0.7966295840114412,0.7329594866135767,6.367009739786456
3,7,0.7966295840114412,0.6415808329601433,15.50487510512979
3,8,0.7966295840114412,0.6912234369820714,10.54061470293698
4,0,0.7316079001627073,0.6309280185376677,10.06798816250396
4,1,0.7316079001627073,0.6487695685666357,8.283833159607157
4,2,0.7316079001627073,0.5685975609756098,16.301033918709752
4,3,0.7316079001627073,0.5883006819933616,14.330721816934567
4,4,0.7316079001627073,0.7155473013425112,1.606059882019606
4,5,0.7316079001627073,0.6722422532503285,5.936564691237878
4,6,0.7316079001627073,0.6771933848050312,5.441451535767605
4,7,0.7316079001627073,0.6133858851664633,11.822201499624397
4,8,0.7316079001627073,0.6983344349696116,3.327346519309571
5,0,0.6038496196256005,0.5238328479745986,8.001677165100185
5,1,0.6038496196256005,0.5579653123935241,4.588430723207637
5,2,0.6038496196256005,0.6134202043476238,-0.9570584722023323
5,3,0.6038496196256005,0.5980245093579681,0.5825110267632327
5,4,0.6038496196256005,0.5808527202898388,2.2996899335761656
5,5,0.6038496196256005,0.5051934680087377,9.86561516168628
5,6,0.6038496196256005,0.6068706208805293,-0.3021001254928879
5,7,0.6038496196256005,0.5550406334448679,4.880898618073259
5,8,0.6038496196256005,0.48689789878662326,11.69517208389772
6,0,0.7560806532837614,0.6476115057429771,10.84691475407843
6,1,0.7560806532837614,0.6629772294000167,9.31034238837447
6,2,0.7560806532837614,0.723020011397551,3.3060641886210385
6,3,0.7560806532837614,0.7253186909488711,3.076196233489026
6,4,0.7560806532837614,0.6430429934103117,11.30376598734497
6,5,0.7560806532837614,0.6931514380385175,6.292921524524386
6,6,0.7560806532837614,0.6167942418804016,13.928641140335984
6,7,0.7560806532837614,0.568342813770568,18.773783951319345
6,8,0.7560806532837614,0.6282651260077224,12.781552727603895
7,0,0.7387171240021089,0.6753310797910005,6.338604421110839
7,1,0.7387171240021089,0.6080515987155561,13.066552528655272
7,2,0.7387171240021089,0.5757065345213461,16.301058948076275
7,3,0.7387171240021089,0.6487838201332632,8.993330386884569
7,4,0.7387171240021089,0.6549361911506,8.37809328515089
7,5,0.7387171240021089,0.7175902350286155,2.112688897349335
7,6,0.7387171240021089,0.6865139213718532,5.2203202630255685
7,7,0.7387171240021089,0.5441487318691396,19.456839213296927
7,8,0.7387171240021089,0.6353878635829832,10.332926041912572
8,0,0.7656028787223629,0.7064030495538252,5.9199829168537725
8,1,0.7656028787223629,0.7440190817850393,2.1583796937323596
8,2,0.7656028787223629,0.775945700151312,-1.0342821428949156
8,3,0.7656028787223629,0.7334983555227536,3.2104523199609325
8,4,0.7656028787223629,0.7112174234593114,5.43854552630515
8,5,0.7656028787223629,0.5662085373682952,19.939434135406763
8,6,0.7656028787223629,0.7366009429156598,2.900193580670307
8,7,0.7656028787223629,0.7161401915682488,4.9462687154114064
8,8,0.7656028787223629,0.6374390842560752,12.816379446628767
9,0,0.7854441854441854,0.7561711017455212,2.9273083698664215
9,1,0.7854441854441854,0.6842920385796838,10.115214686450159
9,2,0.7854441854441854,0.7467130632214757,3.873112222270969
9,3,0.7854441854441854,0.7500341619768793,3.541002346730604
9,4,0.7854441854441854,0.7085913547294475,7.685283071473792
9,5,0.7854441854441854,0.6486170840595242,13.682710138466113
9,6,0.7854441854441854,0.7418394599285534,4.360472551563199
9,7,0.7854441854441854,0.6978687978687979,8.757538757538752
9,8,0.7854441854441854,0.7209487496429441,6.4495435801241285
10,0,0.7242751687406718,0.5924376968076908,13.183747193298101
10,1,0.7242751687406718,0.6282265553268818,9.604861341379001
10,2,0.7242751687406718,0.6547447855939889,6.953038314668292
10,3,0.7242751687406718,0.5972803741379593,12.699479460271245
10,4,0.7242751687406718,0.6758532589079707,4.842190983270111
10,5,0.7242751687406718,0.6586287728802611,6.564639586041066
10,6,0.7242751687406718,0.6778982631866856,4.637690555398621
10,7,0.7242751687406718,0.6051557701548473,11.911939858582443
10,8,0.7242751687406718,0.600329244192829,12.39459245478428
11,0,0.8275010332660137,0.7863378597940351,4.116317347197851
11,1,0.8275010332660137,0.7634925601717434,6.400847309427027
11,2,0.8275010332660137,0.7396717452884854,8.78292879775282
11,3,0.8275010332660137,0.7688650212132719,5.863601205274172
11,4,0.8275010332660137,0.7779901717359818,4.951086153003182
11,5,0.8275010332660137,0.6461804853048486,18.132054796116503
11,6,0.8275010332660137,0.8235557153329036,0.39453179331100374
11,7,0.8275010332660137,0.7099863709120272,11.751466235398645
11,8,0.8275010332660137,0.7645665723011569,6.2934460964856775
12,0,0.8268960591880793,0.7691948513505242,5.770120783755505
12,1,0.8268960591880793,0.6868437310297776,14.00523281583017
12,2,0.8268960591880793,0.7661001920735537,6.079586711452556
12,3,0.8268960591880793,0.6960997159216624,13.079634326641687
12,4,0.8268960591880793,0.6845055458985705,14.23905132895088
12,5,0.8268960591880793,0.6945499116592351,13.234614752884422
12,6,0.8268960591880793,0.7977633371075994,2.91327220804799
12,7,0.8268960591880793,0.7400856946912994,8.681036449677993
12,8,0.8268960591880793,0.7487346024117226,7.816145677635666
13,0,0.91250101555948,0.7821908523843926,13.031016317508747
13,1,0.91250101555948,0.841033674339301,7.1467341220179055
13,2,0.91250101555948,0.859625669086628,5.287534647285208
13,3,0.91250101555948,0.8687072018809643,4.379381367851575
13,4,0.91250101555948,0.8588855483924291,5.3615467167050905
13,5,0.91250101555948,0.792430376402925,12.007063915655502
13,6,0.91250101555948,0.8647821351761511,4.771888038332895
13,7,0.91250101555948,0.7867624755682314,12.573853999124863
13,8,0.91250101555948,0.8681412721871641,4.435974337231596
14,0,0.7603864266345501,0.7175583573040719,4.282806933047823
14,1,0.7603864266345501,0.7109245099505793,4.946191668397082
14,2,0.7603864266345501,0.6866194034730939,7.376702316145622
14,3,0.7603864266345501,0.6795228970873,8.086352954725019
14,4,0.7603864266345501,0.6992486023271418,6.113782430740833
14,5,0.7603864266345501,0.6243408207558471,13.604560587870306
14,6,0.7603864266345501,0.7422436818179649,1.8142744816585288
14,7,0.7603864266345501,0.7392834561241365,2.1102970510413654
14,8,0.7603864266345501,0.6419413401396445,11.84450864949056
15,0,0.86594063205103,0.7863250586707785,7.961557338025149
15,1,0.86594063205103,0.7623548527115798,10.358577933945023
15,2,0.86594063205103,0.7262410290663184,13.969960298471163
15,3,0.86594063205103,0.8026863312184058,6.325430083262418
15,4,0.86594063205103,0.8200216216396827,4.591901041134728
15,5,0.86594063205103,0.563256583149151,30.268404890187906
15,6,0.86594063205103,0.7800949896667759,8.584564238425408
15,7,0.86594063205103,0.7941370627742773,7.180356927675269
15,8,0.86594063205103,0.823316627590472,4.262400446055803
16,0,0.8513640741215224,0.7182164779292377,13.314759619228466
16,1,0.8513640741215224,0.7022855065073895,14.907856761413285
16,2,0.8513640741215224,0.6946075689602115,15.675650516131089
16,3,0.8513640741215224,0.7963413259280678,5.502274819345454
16,4,0.8513640741215224,0.701958535645131,14.940553847639137
16,5,0.8513640741215224,0.6725699150700285,17.879415905149386
16,6,0.8513640741215224,0.8878667992930139,-3.6502725171491557
16,7,0.8513640741215224,0.7625516343476855,8.88124397738369
16,8,0.8513640741215224,0.7361553945909785,11.520867953054392
17,0,0.7852379209135342,0.6651686409560122,12.006927995752193
17,1,0.7852379209135342,0.7490952326873388,3.6142688226195374
17,2,0.7852379209135342,0.7413097400617381,4.392818085179606
17,3,0.7852379209135342,0.7377134701226463,4.752445079088785
17,4,0.7852379209135342,0.7332531669600993,5.198475395343483
17,5,0.7852379209135342,0.4557629042271921,32.9475016686342
17,6,0.7852379209135342,0.789746185278637,-0.45082643651028764
17,7,0.7852379209135342,0.7447680282192204,4.0469892694313785
17,8,0.7852379209135342,0.6818918583208582,10.334606259267598
18,0,0.7455094614792942,0.6783218562582424,6.718760522105183
18,1,0.7455094614792942,0.712374641932653,3.3134819546641214
18,2,0.7455094614792942,0.6666436678326542,7.886579364664003
18,3,0.7455094614792942,0.6155126597811701,12.999680169812411
18,4,0.7455094614792942,0.6254050412435506,12.010442023574363
18,5,0.7455094614792942,0.5667455907583808,17.876387072091337
18,6,0.7455094614792942,0.7550404992539255,-0.9531037774631268
18,7,0.7455094614792942,0.6673299310328918,7.817953044640236
18,8,0.7455094614792942,0.6783250223629628,6.718443911633143
19,0,0.8530043616041059,0.7767265969554702,7.627776464863567
19,1,0.8530043616041059,0.7551515790831687,9.785278252093722
19,2,0.8530043616041059,0.8090846962143313,4.391966538977455
19,3,0.8530043616041059,0.657745093136164,19.525926846794185
19,4,0.8530043616041059,0.7537519816517131,9.925237995239279
19,5,0.8530043616041059,0.6149142358887387,23.809012571536712
19,6,0.8530043616041059,0.7982277269140451,5.477663469006078
19,7,0.8530043616041059,0.6469186422332798,20.60857193708261
19,8,0.8530043616041059,0.7568232052069968,9.618115639710911
20,0,0.7943788855148263,0.7042585786385531,9.012030687627314
20,1,0.7943788855148263,0.7260019882970703,6.837689721775597
20,2,0.7943788855148263,0.7842614500547189,1.011743546010735
20,3,0.7943788855148263,0.7340687534949351,6.031013201989122
20,4,0.7943788855148263,0.7572550644652554,3.7123821049570904
20,5,0.7943788855148263,0.6919947006544128,10.238418486041345
20,6,0.7943788855148263,0.7166279029304251,7.775098258440116
20,7,0.7943788855148263,0.659991567774781,13.43873177400453
20,8,0.7943788855148263,0.7220620485225198,7.231683699230651
21,0,0.7483666795064619,0.6378656247605914,11.050105474587046
21,1,0.7483666795064619,0.7555738987555431,-0.7207219249081298
21,2,0.7483666795064619,0.710497956245399,3.786872326106283
21,3,0.7483666795064619,0.6820412663886273,6.6325413117834575
21,4,0.7483666795064619,0.7233904437116873,2.4976235794774593
21,5,0.7483666795064619,0.638593832790033,10.977284671642884
21,6,0.7483666795064619,0.7494446003006201,-0.10779207941582492
21,7,0.7483666795064619,0.7608438796660552,-1.2477200159593305
21,8,0.7483666795064619,0.7191485293907554,2.92181501157065
22,0,0.7368093091494448,0.6814781607146916,5.5331148434753175
22,1,0.7368093091494448,0.681875181563864,5.4934127585580805
22,2,0.7368093091494448,0.6081031003049879,12.870620884445682
22,3,0.7368093091494448,0.5857929552786278,15.101635387081691
22,4,0.7368093091494448,0.6469868180798923,8.982249106955242
22,5,0.7368093091494448,0.5451583533883542,19.16509557610906
22,6,0.7368093091494448,0.699763572640786,3.704573650865872
22,7,0.7368093091494448,0.5418153343959796,19.499397475346512
22,8,0.7368093091494448,0.6264236961328554,11.038561301658934
23,0,0.7380472125091024,0.6170488605444765,12.099835196462594
23,1,0.7380472125091024,0.7087944180416507,2.925279446745177
23,2,0.7380472125091024,0.6521905493994151,8.585666310968731
23,3,0.7380472125091024,0.6694474939323957,6.859971857670677
23,4,0.7380472125091024,0.6000962815546929,13.795093095440958
23,5,0.7380472125091024,0.5473944750313919,19.06527374777105
23,6,0.7380472125091024,0.6756123891288499,6.243482338025252
23,7,0.7380472125091024,0.5927359810568932,14.531123145220926
23,8,0.7380472125091024,0.6760724449106501,6.197476759845233
24,0,0.7155570591087171,0.6049123610602231,11.06446980484941
24,1,0.7155570591087171,0.6110426001533052,10.45144589554119
24,2,0.7155570591087171,0.6053655546020245,11.019150450669269
24,3,0.7155570591087171,0.7821839366761623,-6.662687756744512
24,4,0.7155570591087171,0.6551891695245341,6.036788958418304
24,5,0.7155570591087171,0.50397718208338,21.15798770253371
24,6,0.7155570591087171,0.6151724527024811,10.038460640623603
24,7,0.7155570591087171,0.5617915872383776,15.376547187033951
24,8,0.7155570591087171,0.6641369357187435,5.142012338997359
25,0,0.7915679679545122,0.6900297491941572,10.153821876035508
25,1,0.7915679679545122,0.7012850733233271,9.028289463118512
25,2,0.7915679679545122,0.6469120829261483,14.46558850283639
25,3,0.7915679679545122,0.7451726942651123,4.639527368939989
25,4,0.7915679679545122,0.5899976346404918,20.15703333140204
25,5,0.7915679679545122,0.5565801001877109,23.498786776680134
25,6,0.7915679679545122,0.7393847989373451,5.2183169017167135
25,7,0.7915679679545122,0.6936171882146717,9.795077973984057
25,8,0.7915679679545122,0.7803809417357608,1.118702621875145
26,0,0.7032238706281341,0.6280610675104128,7.516280311772128
26,1,0.7032238706281341,0.678182561902299,2.50413087258351
26,2,0.7032238706281341,0.6596788451112682,4.35450255168659
26,3,0.7032238706281341,0.6750332211737742,2.8190649454359895
26,4,0.7032238706281341,0.6045611999969549,9.866267063117917
26,5,0.7032238706281341,0.5023000270502993,20.092384357783477
26,6,0.7032238706281341,0.6373451601693885,6.587871045874561
26,7,0.7032238706281341,0.6447385034837876,5.848536714434649
26,8,0.7032238706281341,0.6171347357768036,8.608913485133051
27,0,0.8586905110643954,0.7894785864221651,6.9211924642230365
27,1,0.8586905110643954,0.7933736714747027,6.5316839589692695
27,2,0.8586905110643954,0.70223718527419,15.645332579020543
27,3,0.8586905110643954,0.6874674709610165,17.122304010337896
27,4,0.8586905110643954,0.8123602812040601,4.633022986033531
27,5,0.8586905110643954,0.6945514166271044,16.413909443729104
27,6,0.8586905110643954,0.8028144584468835,5.587605261751194
27,7,0.8586905110643954,0.7603741524742957,9.831635859009968
27,8,0.8586905110643954,0.7743613083073695,8.432920275702593
28,0,0.7786930762935701,0.758244377957679,2.0448698335891136
28,1,0.7786930762935701,0.7005038700540801,7.8189206239489994
28,2,0.7786930762935701,0.6910875794480759,8.760549684549424
28,3,0.7786930762935701,0.6775729286496907,10.112014764387943
28,4,0.7786930762935701,0.7272322752010701,5.146080109249995
28,5,0.7786930762935701,0.46108965447709727,31.76034218164728
28,6,0.7786930762935701,0.711501593058564,6.719148323500612
28,7,0.7786930762935701,0.6772735556317119,10.141952066185823
28,8,0.7786930762935701,0.7313040092190466,4.738906707452351
29,0,0.7914176599662076,0.6625331419846492,12.888451798155842
29,1,0.7914176599662076,0.709590589819914,8.182707014629365
29,2,0.7914176599662076,0.7446830968270489,4.673456313915869
29,3,0.7914176599662076,0.7473801241865733,4.403753577963432
29,4,0.7914176599662076,0.6652286644852591,12.618899548094852
29,5,0.7914176599662076,0.6524776048896714,13.894005507653617
29,6,0.7914176599662076,0.7920477527241992,-0.06300927579916404
29,7,0.7914176599662076,0.7515029476308763,3.991471233533128
29,8,0.7914176599662076,0.6624724239932104,12.894523597299724
30,0,0.8142813957398102,0.7659051208836098,4.8376274856200325
30,1,0.8142813957398102,0.7280960884215244,8.618530731828578
30,2,0.8142813957398102,0.7088545713831618,10.54268243566484
30,3,0.8142813957398102,0.7424967446139106,7.17846511258996
30,4,0.8142813957398102,0.7583158781379997,5.596551760181045
30,5,0.8142813957398102,0.6345272655541052,17.975413018570496
30,6,0.8142813957398102,0.8188250814536697,-0.45436857138595466
30,7,0.8142813957398102,0.6868218312537295,12.745956448608064
30,8,0.8142813957398102,0.7131990078489836,10.108238789082657
31,0,0.7504068549897279,0.6822251051193051,6.81817498704228
31,1,0.7504068549897279,0.6750706968332693,7.533615815645867
31,2,0.7504068549897279,0.673810731510646,7.659612347908196
31,3,0.7504068549897279,0.7607299409186201,-1.0323085928892195
31,4,0.7504068549897279,0.6707920398875362,7.961481510219171
31,5,0.7504068549897279,0.699642699328004,5.076415566172388
31,6,0.7504068549897279,0.7061229520809016,4.428390290882634
31,7,0.7504068549897279,0.6323785701872141,11.802828480251382
31,8,0.7504068549897279,0.6288783263461843,12.152852864354358
32,0,0.7802908540629692,0.6901145065085792,9.017634755438998
32,1,0.7802908540629692,0.667804829039673,11.248602502329618
32,2,0.7802908540629692,0.6878519753519754,9.243887871099377
32,3,0.7802908540629692,0.6614330637915543,11.885779027141485
32,4,0.7802908540629692,0.6511742308584199,12.91166232045493
32,5,0.7802908540629692,0.6693175869049282,11.097326715804101
32,6,0.7802908540629692,0.6806073756565618,9.968347840640735
32,7,0.7802908540629692,0.5965876021839798,18.37032518789894
32,8,0.7802908540629692,0.6509655814708832,12.932527259208593
33,0,0.8582354434530057,0.7785267948783667,7.9708648574639
33,1,0.8582354434530057,0.8256144613272479,3.2620982125757814
33,2,0.8582354434530057,0.7981980424866337,6.0037400966372
33,3,0.8582354434530057,0.8212655333052272,3.6969910147778506
33,4,0.8582354434530057,0.8353935403965087,2.2841903056497026
33,5,0.8582354434530057,0.7657074407874762,9.252800266552953
33,6,0.8582354434530057,0.7869235685683613,7.131187488464441
33,7,0.8582354434530057,0.7708680582639085,8.736738518909725
33,8,0.8582354434530057,0.8121074130697219,4.612803038328384
34,0,0.8428134232130371,0.75488320030324,8.793022290979714
34,1,0.8428134232130371,0.779540685138028,6.3272738075009105
34,2,0.8428134232130371,0.839991797037025,0.28216261760121153
34,3,0.8428134232130371,0.8199419304134153,2.287149279962175
34,4,0.8428134232130371,0.7870770428714828,5.573638034155426
34,5,0.8428134232130371,0.7555939939341222,8.72194292789149
34,6,0.8428134232130371,0.7974071157686435,4.540630744439356
34,7,0.8428134232130371,0.8076472851781433,3.516613803489377
34,8,0.8428134232130371,0.7840896998746189,5.872372333841824
35,0,0.7278588203773675,0.6879711893547165,3.9887631022651027
35,1,0.7278588203773675,0.660927386248744,6.693143412862346
35,2,0.7278588203773675,0.6937274221139862,3.4131398263381296
35,3,0.7278588203773675,0.6733707908830124,5.448802949435505
35,4,0.7278588203773675,0.7017535435449862,2.6105276832381286
35,5,0.7278588203773675,0.6805841067340314,4.7274713643336135
35,6,0.7278588203773675,0.683660365601127,4.419845477624051
35,7,0.7278588203773675,0.6884455776590213,3.941324271834623
35,8,0.7278588203773675,0.6697560189968632,5.810280138050428
36,0,0.717484520762008,0.6223190996298472,9.516542113216076
36,1,0.717484520762008,0.647670365995888,6.981415476611996
36,2,0.717484520762008,0.6464015364694241,7.108298429258387
36,3,0.717484520762008,0.6486160153471183,6.886850541488965
36,4,0.717484520762008,0.6976787824521269,1.9805738309881082
36,5,0.717484520762008,0.6997242077513615,1.7760313010646511
36,6,0.717484520762008,0.6477275260579918,6.9756994704016195
36,7,0.717484520762008,0.5987383744394188,11.874614632258918
36,8,0.717484520762008,0.6311242710260943,8.636024973591372
37,0,0.88835934799337,0.791408218261728,9.6951129731642
37,1,0.88835934799337,0.8479420692493698,4.041727874400025
37,2,0.88835934799337,0.7771745639739341,11.118478401943587
37,3,0.88835934799337,0.8579211269132778,3.04382210800922
37,4,0.88835934799337,0.7971238671429962,9.123548085037381
37,5,0.88835934799337,0.781400402170333,10.6958945823037
37,6,0.88835934799337,0.8535442195707685,3.4815128422601482
37,7,0.88835934799337,0.7982560811854054,9.010326680796465
37,8,0.88835934799337,0.8195382057964756,6.88211421968944
38,0,0.7646124701858463,0.6817076212847215,8.29048489011248
38,1,0.7646124701858463,0.6905432884834861,7.406918170236021
38,2,0.7646124701858463,0.6463329421453092,11.827952804053709
38,3,0.7646124701858463,0.7248620398061631,3.9750430379683177
38,4,0.7646124701858463,0.6283438067333869,13.626866345245947
38,5,0.7646124701858463,0.5409055070677835,22.37069631180628
38,6,0.7646124701858463,0.7216600199401795,4.295245024566685
38,7,0.7646124701858463,0.7303501655977153,3.4262304588131065
38,8,0.7646124701858463,0.7417753495417536,2.283712064409271
39,0,0.7664347748684046,0.6597751653590973,10.665960950930732
39,1,0.7664347748684046,0.7295832263458504,3.6851548522554234
39,2,0.7664347748684046,0.7104186516831515,5.601612318525307
39,3,0.7664347748684046,0.6432603040052257,12.31744708631789
39,4,0.7664347748684046,0.6666405505228815,9.97942243455231
39,5,0.7664347748684046,0.5284258450248658,23.800892984353883
39,6,0.7664347748684046,0.7611319162577881,0.5302858610616523
39,7,0.7664347748684046,0.7133965804163044,5.3038194452100225
39,8,0.7664347748684046,0.7227670229349099,4.36677519334947
40,0,0.7609335877349094,0.6994581161247828,6.147547161012657
40,1,0.7609335877349094,0.7582931399263905,0.26404478085189087
40,2,0.7609335877349094,0.7372772340685134,2.3656353666395957
40,3,0.7609335877349094,0.7496102621715526,1.13233255633568
40,4,0.7609335877349094,0.7676494183298201,-0.6715830594910766
40,5,0.7609335877349094,0.7492717238746769,1.166186386023249
40,6,0.7609335877349094,0.7152211364789595,4.5712451255949915
40,7,0.7609335877349094,0.6483779478443998,11.255563989050954
40,8,0.7609335877349094,0.6184614458109838,14.247214192392555
