subject,block,block_width,feature_channel,gate_mean,gate_sd
1,0,32,0,0.44549742341041565,0.045790255069732666
1,0,32,1,0.520844578742981,0.04921720549464226
1,0,32,2,0.536505401134491,0.039682622998952866
1,0,32,3,0.435688853263855,0.0399758480489254
1,0,32,4,0.4100183844566345,0.04122867435216904
1,0,32,5,0.6210437417030334,0.05229010060429573
1,0,32,6,0.5698582530021667,0.06330543756484985
1,0,32,7,0.43491581082344055,0.05130903422832489
1,0,32,8,0.41866931319236755,0.039034921675920486
1,0,32,9,0.43344464898109436,0.03126629441976547
1,0,32,10,0.4144116938114166,0.04715424031019211
1,0,32,11,0.40703752636909485,0.020554451271891594
1,0,32,12,0.6155239939689636,0.038280487060546875
1,0,32,13,0.5094519853591919,0.0338946171104908
1,0,32,14,0.4291914701461792,0.03976292535662651
1,0,32,15,0.5289183259010315,0.029567301273345947
1,0,32,16,0.5063779950141907,0.032643407583236694
1,0,32,17,0.5513637661933899,0.025762077420949936
1,0,32,18,0.509773850440979,0.03972320631146431
1,0,32,19,0.48893314599990845,0.023065051063895226
1,0,32,20,0.415603905916214,0.0463322252035141
1,0,32,21,0.49601471424102783,0.038757435977458954
1,0,32,22,0.48133528232574463,0.03470165282487869
1,0,32,23,0.43320992588996887,0.027856653556227684
1,0,32,24,0.598328173160553,0.017637619748711586
1,0,32,25,0.46185633540153503,0.019736383110284805
1,0,32,26,0.473315566778183,0.03301442787051201
1,0,32,27,0.428752601146698,0.03797144815325737
1,0,32,28,0.39801087975502014,0.0505308099091053
1,0,32,29,0.5870775580406189,0.03954298794269562
1,0,32,30,0.5256938338279724,0.023541858419775963
1,0,32,31,0.4435856342315674,0.01576746068894863
1,1,32,0,0.554338812828064,0.053824227303266525
1,1,32,1,0.6441701650619507,0.035293955355882645
1,1,32,2,0.37977269291877747,0.017133796587586403
1,1,32,3,0.5187377333641052,0.012055160477757454
1,1,32,4,0.6236482858657837,0.021945612505078316
1,1,32,5,0.516995370388031,0.030707838013768196
1,1,32,6,0.4643426537513733,0.04629065841436386
1,1,32,7,0.4107515513896942,0.03617500513792038
1,1,32,8,0.5059618353843689,0.029708867892622948
1,1,32,9,0.3846351206302643,0.035385843366384506
1,1,32,10,0.36342790722846985,0.017068561166524887
1,1,32,11,0.5703451633453369,0.03676818683743477
1,1,32,12,0.4836001992225647,0.04334612935781479
1,1,32,13,0.5608925819396973,0.04732223600149155
1,1,32,14,0.45610228180885315,0.0339542031288147
1,1,32,15,0.6041017174720764,0.015867717564105988
1,1,32,16,0.46755069494247437,0.07571827620267868
1,1,32,17,0.5948219895362854,0.024523138999938965
1,1,32,18,0.47822558879852295,0.0312550812959671
1,1,32,19,0.44922032952308655,0.029086625203490257
1,1,32,20,0.4058990180492401,0.022206058725714684
1,1,32,21,0.35105592012405396,0.05793601647019386
1,1,32,22,0.4301532208919525,0.060796190053224564
1,1,32,23,0.5397891402244568,0.013307450339198112
1,1,32,24,0.533794105052948,0.03591655194759369
1,1,32,25,0.5229020118713379,0.04994768649339676
1,1,32,26,0.5697535276412964,0.028021426871418953
1,1,32,27,0.6217823028564453,0.0444854274392128
1,1,32,28,0.555598258972168,0.0665176659822464
1,1,32,29,0.576065719127655,0.07999198138713837
1,1,32,30,0.3979758024215698,0.03992586210370064
1,1,32,31,0.5377901196479797,0.029905686154961586
1,2,64,0,0.5559313297271729,0.06695790588855743
1,2,64,1,0.4837082624435425,0.09525138884782791
1,2,64,2,0.5993677377700806,0.02443877048790455
1,2,64,3,0.4102984368801117,0.05424576625227928
1,2,64,4,0.578205406665802,0.0982225239276886
1,2,64,5,0.5141069293022156,0.09856947511434555
1,2,64,6,0.6400543451309204,0.04511652886867523
1,2,64,7,0.6225945949554443,0.040620654821395874
1,2,64,8,0.5256041884422302,0.051675040274858475
1,2,64,9,0.5878520607948303,0.038527924567461014
1,2,64,10,0.2756469249725342,0.05725400894880295
1,2,64,11,0.48323673009872437,0.06578907370567322
1,2,64,12,0.41156652569770813,0.03229682147502899
1,2,64,13,0.6266363859176636,0.06566484272480011
1,2,64,14,0.5502092242240906,0.07417000085115433
1,2,64,15,0.47921276092529297,0.0623215027153492
1,2,64,16,0.5900875926017761,0.06559374183416367
1,2,64,17,0.4182984232902527,0.05168776959180832
1,2,64,18,0.4836024045944214,0.023632677271962166
1,2,64,19,0.4210774600505829,0.08754053711891174
1,2,64,20,0.5243080258369446,0.10502118617296219
1,2,64,21,0.5775793790817261,0.030377672985196114
1,2,64,22,0.5334591269493103,0.09895429760217667
1,2,64,23,0.33302220702171326,0.05113694816827774
1,2,64,24,0.5162450075149536,0.042265892028808594
1,2,64,25,0.4177437126636505,0.07486137002706528
1,2,64,26,0.43530702590942383,0.09083123505115509
1,2,64,27,0.42748692631721497,0.045210111886262894
1,2,64,28,0.4628825783729553,0.03545890003442764
1,2,64,29,0.37595134973526,0.05954695865511894
1,2,64,30,0.45254793763160706,0.06560376286506653
1,2,64,31,0.44465482234954834,0.05744500085711479
1,2,64,32,0.4041115641593933,0.03497697785496712
1,2,64,33,0.5127179622650146,0.08374561369419098
1,2,64,34,0.5637828707695007,0.08362539857625961
1,2,64,35,0.487527072429657,0.10993324965238571
1,2,64,36,0.5894995927810669,0.1329745352268219
1,2,64,37,0.4374127686023712,0.12039178609848022
1,2,64,38,0.424089252948761,0.03464750200510025
1,2,64,39,0.45539069175720215,0.08463840186595917
1,2,64,40,0.4675549566745758,0.10111232101917267
1,2,64,41,0.37143146991729736,0.06713543832302094
1,2,64,42,0.514743983745575,0.05844665691256523
1,2,64,43,0.43112823367118835,0.08203475922346115
1,2,64,44,0.4943031072616577,0.0718844011425972
1,2,64,45,0.5786442160606384,0.04384218528866768
1,2,64,46,0.5790356397628784,0.06753749400377274
1,2,64,47,0.3836700916290283,0.08480187505483627
1,2,64,48,0.38937631249427795,0.10299810022115707
1,2,64,49,0.4989429712295532,0.05093533918261528
1,2,64,50,0.4336101710796356,0.023483017459511757
1,2,64,51,0.43869876861572266,0.10577782988548279
1,2,64,52,0.5466100573539734,0.11950934678316116
1,2,64,53,0.5341488122940063,0.07498417049646378
1,2,64,54,0.5190246105194092,0.0738629475235939
1,2,64,55,0.4791429936885834,0.07273833453655243
1,2,64,56,0.5807968974113464,0.1079629510641098
1,2,64,57,0.519978940486908,0.06071777269244194
1,2,64,58,0.5459009408950806,0.07710923999547958
1,2,64,59,0.39475929737091064,0.08697228878736496
1,2,64,60,0.3816079795360565,0.03731899708509445
1,2,64,61,0.46853718161582947,0.06852119415998459
1,2,64,62,0.39634642004966736,0.04257173836231232
1,2,64,63,0.46217474341392517,0.04456663131713867
1,3,64,0,0.5740237832069397,0.040481891483068466
1,3,64,1,0.6122663617134094,0.04353742301464081
1,3,64,2,0.5765166878700256,0.05802660062909126
1,3,64,3,0.4582405090332031,0.10340365022420883
1,3,64,4,0.5898650288581848,0.05316310375928879
1,3,64,5,0.47457849979400635,0.06019051373004913
1,3,64,6,0.5098912715911865,0.06664442270994186
1,3,64,7,0.5153608918190002,0.04708057641983032
1,3,64,8,0.4256965219974518,0.028104685246944427
1,3,64,9,0.6163567304611206,0.0722966194152832
1,3,64,10,0.579616367816925,0.1079629510641098
1,3,64,11,0.4453475773334503,0.050396889448165894
1,3,64,12,0.4403054118156433,0.05467526987195015
1,3,64,13,0.5487208366394043,0.07891658693552017
1,3,64,14,0.5814658999443054,0.050574060529470444
1,3,64,15,0.5133744478225708,0.0276167169213295
1,3,64,16,0.5052697062492371,0.05026925727725029
1,3,64,17,0.5419837236404419,0.03771033138036728
1,3,64,18,0.5002871751785278,0.10821457952260971
1,3,64,19,0.41504374146461487,0.042148929089307785
1,3,64,20,0.4648105800151825,0.05465726926922798
1,3,64,21,0.5696773529052734,0.03560023009777069
1,3,64,22,0.44311416149139404,0.046761900186538696
1,3,64,23,0.49732506275177,0.06768081337213516
1,3,64,24,0.5453198552131653,0.0828874334692955
1,3,64,25,0.45108479261398315,0.0278468020260334
1,3,64,26,0.5523932576179504,0.031881898641586304
1,3,64,27,0.5185011029243469,0.09413197636604309
1,3,64,28,0.5600945949554443,0.06331118941307068
1,3,64,29,0.40466034412384033,0.09371310472488403
1,3,64,30,0.5241007208824158,0.03426392748951912
1,3,64,31,0.5359534025192261,0.10385595262050629
1,3,64,32,0.4140808880329132,0.08476755768060684
1,3,64,33,0.4071524739265442,0.10355588793754578
1,3,64,34,0.6008840799331665,0.05888194218277931
1,3,64,35,0.5798352360725403,0.030352231115102768
1,3,64,36,0.38577014207839966,0.07575589418411255
1,3,64,37,0.4962737262248993,0.03029359132051468
1,3,64,38,0.41606900095939636,0.03368665650486946
1,3,64,39,0.4244348406791687,0.05791141465306282
1,3,64,40,0.5672828555107117,0.054883792996406555
1,3,64,41,0.4319201111793518,0.0234527587890625
1,3,64,42,0.44382527470588684,0.07035362720489502
1,3,64,43,0.605490505695343,0.08805928379297256
1,3,64,44,0.5722219347953796,0.051958806812763214
1,3,64,45,0.5557088255882263,0.031963568180799484
1,3,64,46,0.4293256103992462,0.06621092557907104
1,3,64,47,0.48138347268104553,0.08625372499227524
1,3,64,48,0.5487135052680969,0.051680661737918854
1,3,64,49,0.5689494013786316,0.08479643613100052
1,3,64,50,0.43369245529174805,0.03136756271123886
1,3,64,51,0.468306303024292,0.048205338418483734
1,3,64,52,0.480612188577652,0.08314444124698639
1,3,64,53,0.41249242424964905,0.04866847023367882
1,3,64,54,0.36183586716651917,0.0741945207118988
1,3,64,55,0.4962332546710968,0.049521543085575104
1,3,64,56,0.4454140067100525,0.041223037987947464
1,3,64,57,0.4875401556491852,0.05064694583415985
1,3,64,58,0.5502131581306458,0.03443695604801178
1,3,64,59,0.5021915435791016,0.020317068323493004
1,3,64,60,0.5028771162033081,0.11622577160596848
1,3,64,61,0.5228577256202698,0.07205711305141449
1,3,64,62,0.45394670963287354,0.11691772192716599
1,3,64,63,0.47777071595191956,0.026801103726029396
1,4,128,0,0.5162877440452576,0.0647314190864563
1,4,128,1,0.5963274240493774,0.10977675765752792
1,4,128,2,0.49130141735076904,0.08182855695486069
1,4,128,3,0.5173501968383789,0.16139258444309235
1,4,128,4,0.5924383401870728,0.048622604459524155
1,4,128,5,0.4166720509529114,0.0960138738155365
1,4,128,6,0.6648976802825928,0.0879891961812973
1,4,128,7,0.5522736310958862,0.15083584189414978
1,4,128,8,0.4924916923046112,0.09987955540418625
1,4,128,9,0.4264541268348694,0.11959093809127808
1,4,128,10,0.4747721254825592,0.12355061620473862
1,4,128,11,0.597251832485199,0.11823403090238571
1,4,128,12,0.4747321605682373,0.12452100217342377
1,4,128,13,0.64173424243927,0.08969909697771072
1,4,128,14,0.6032982468605042,0.07647638767957687
1,4,128,15,0.5279057025909424,0.03777606040239334
1,4,128,16,0.5029557347297668,0.08535720407962799
1,4,128,17,0.4712056517601013,0.03965558856725693
1,4,128,18,0.527133047580719,0.1709429919719696
1,4,128,19,0.5283334255218506,0.18349966406822205
1,4,128,20,0.3576480448246002,0.12007411569356918
1,4,128,21,0.48935192823410034,0.09041403234004974
1,4,128,22,0.5424251556396484,0.11636730283498764
1,4,128,23,0.5899097323417664,0.07113093137741089
1,4,128,24,0.5314638614654541,0.06723738461732864
1,4,128,25,0.565125584602356,0.044457245618104935
1,4,128,26,0.43788501620292664,0.05485259369015694
1,4,128,27,0.5864038467407227,0.0626479908823967
1,4,128,28,0.5443418025970459,0.06684409081935883
1,4,128,29,0.5596434473991394,0.054415591061115265
1,4,128,30,0.44352230429649353,0.11163487285375595
1,4,128,31,0.4401990473270416,0.05502614006400108
1,4,128,32,0.5236672163009644,0.048912812024354935
1,4,128,33,0.42715921998023987,0.11164376139640808
1,4,128,34,0.5656243562698364,0.03677620366215706
1,4,128,35,0.49619778990745544,0.07781744003295898
1,4,128,36,0.43351253867149353,0.07270611822605133
1,4,128,37,0.5044044852256775,0.025123534724116325
1,4,128,38,0.5478401184082031,0.06068696081638336
1,4,128,39,0.5338399410247803,0.0642058253288269
1,4,128,40,0.5131811499595642,0.05006764829158783
1,4,128,41,0.49835270643234253,0.0650034174323082
1,4,128,42,0.6027957797050476,0.040689680725336075
1,4,128,43,0.5421608090400696,0.07590562850236893
1,4,128,44,0.5165999531745911,0.06902999430894852
1,4,128,45,0.5899340510368347,0.15649965405464172
1,4,128,46,0.46342578530311584,0.14830809831619263
1,4,128,47,0.45618945360183716,0.08781812340021133
1,4,128,48,0.5317538380622864,0.04235873743891716
1,4,128,49,0.48601746559143066,0.07128465175628662
1,4,128,50,0.4714677333831787,0.05008678138256073
1,4,128,51,0.6787897944450378,0.10261792689561844
1,4,128,52,0.5303342938423157,0.04943842813372612
1,4,128,53,0.5422776937484741,0.02284141443669796
1,4,128,54,0.48908647894859314,0.12425615638494492
1,4,128,55,0.5283950567245483,0.054034288972616196
1,4,128,56,0.393635094165802,0.05791182443499565
1,4,128,57,0.5663247108459473,0.03155047073960304
1,4,128,58,0.490268349647522,0.053642794489860535
1,4,128,59,0.5844143033027649,0.10796218365430832
1,4,128,60,0.4773280918598175,0.11632625758647919
1,4,128,61,0.482300341129303,0.05931995436549187
1,4,128,62,0.5034463405609131,0.0603107251226902
1,4,128,63,0.5441843867301941,0.07388949394226074
1,4,128,64,0.5302990078926086,0.03793653845787048
1,4,128,65,0.5048075914382935,0.135642409324646
1,4,128,66,0.4525355100631714,0.06447049230337143
1,4,128,67,0.5497140288352966,0.04714404419064522
1,4,128,68,0.5525888800621033,0.05228227749466896
1,4,128,69,0.5466244220733643,0.09701847285032272
1,4,128,70,0.35422283411026,0.05985042080283165
1,4,128,71,0.4930819869041443,0.11645747721195221
1,4,128,72,0.4950811266899109,0.10678810626268387
1,4,128,73,0.5891866087913513,0.11930210888385773
1,4,128,74,0.4964120090007782,0.07336356490850449
1,4,128,75,0.6042060852050781,0.05769038945436478
1,4,128,76,0.471769243478775,0.03921099379658699
1,4,128,77,0.5397343039512634,0.05035659670829773
1,4,128,78,0.5833296179771423,0.11864080280065536
1,4,128,79,0.5952592492103577,0.13328205049037933
1,4,128,80,0.5971153378486633,0.15240544080734253
1,4,128,81,0.32310378551483154,0.06902554631233215
1,4,128,82,0.49061062932014465,0.07621181756258011
1,4,128,83,0.5572410821914673,0.041982270777225494
1,4,128,84,0.661572277545929,0.13947375118732452
1,4,128,85,0.6178641319274902,0.07337621599435806
1,4,128,86,0.4197970926761627,0.07599233090877533
1,4,128,87,0.5370656847953796,0.11308354139328003
1,4,128,88,0.488982617855072,0.09245813637971878
1,4,128,89,0.3182702362537384,0.09919384866952896
1,4,128,90,0.6586599349975586,0.08106483519077301
1,4,128,91,0.5942260026931763,0.09414929896593094
1,4,128,92,0.5696702003479004,0.04631557688117027
1,4,128,93,0.5508850812911987,0.12007170915603638
1,4,128,94,0.5703033804893494,0.170610249042511
1,4,128,95,0.5370445251464844,0.04697117954492569
1,4,128,96,0.5661994218826294,0.07951512187719345
1,4,128,97,0.5700409412384033,0.06897300481796265
1,4,128,98,0.5238690972328186,0.050946179777383804
1,4,128,99,0.5721191763877869,0.06665771454572678
1,4,128,100,0.6184408664703369,0.12507769465446472
1,4,128,101,0.4625868499279022,0.053673114627599716
1,4,128,102,0.47553324699401855,0.0630689188838005
1,4,128,103,0.501200258731842,0.1962100714445114
1,4,128,104,0.5490766167640686,0.07327715307474136
1,4,128,105,0.6611011624336243,0.1305287778377533
1,4,128,106,0.4280887246131897,0.06790157407522202
1,4,128,107,0.3762475848197937,0.13380257785320282
1,4,128,108,0.454275518655777,0.08442512154579163
1,4,128,109,0.48882728815078735,0.06093877553939819
1,4,128,110,0.505501925945282,0.03934318944811821
1,4,128,111,0.5646108984947205,0.0751967653632164
1,4,128,112,0.6472076773643494,0.1173962727189064
1,4,128,113,0.38506990671157837,0.09652040153741837
1,4,128,114,0.6120563745498657,0.062313150614500046
1,4,128,115,0.5130183100700378,0.03669379651546478
1,4,128,116,0.5826643705368042,0.08314555883407593
1,4,128,117,0.5441128611564636,0.05762891098856926
1,4,128,118,0.5763495564460754,0.04241911321878433
1,4,128,119,0.6722574234008789,0.059907156974077225
1,4,128,120,0.4360351860523224,0.05727589502930641
1,4,128,121,0.5095647573471069,0.13626998662948608
1,4,128,122,0.5403587222099304,0.07632182538509369
1,4,128,123,0.5334231853485107,0.13748104870319366
1,4,128,124,0.5395227670669556,0.09960117936134338
1,4,128,125,0.4695659577846527,0.09695015847682953
1,4,128,126,0.4722279906272888,0.08051594346761703
1,4,128,127,0.6241196990013123,0.05617855489253998
1,5,128,0,0.5424102544784546,0.17870783805847168
1,5,128,1,0.5812259316444397,0.09439533203840256
1,5,128,2,0.6085615158081055,0.11466167867183685
1,5,128,3,0.4915477931499481,0.09886899590492249
1,5,128,4,0.41155996918678284,0.052004314959049225
1,5,128,5,0.5227726101875305,0.13502009212970734
1,5,128,6,0.6775215268135071,0.10778149962425232
1,5,128,7,0.38077908754348755,0.08968326449394226
1,5,128,8,0.4931093156337738,0.054129645228385925
1,5,128,9,0.5650916695594788,0.08378594368696213
1,5,128,10,0.4920888841152191,0.02959374152123928
1,5,128,11,0.492156982421875,0.06131289154291153
1,5,128,12,0.471169114112854,0.13109858334064484
1,5,128,13,0.5800710320472717,0.1025388240814209
1,5,128,14,0.5175620317459106,0.06703365594148636
1,5,128,15,0.48056095838546753,0.09757999330759048
1,5,128,16,0.569693922996521,0.13492947816848755
1,5,128,17,0.4607498049736023,0.058756887912750244
1,5,128,18,0.5657103657722473,0.07700049877166748
1,5,128,19,0.4905613958835602,0.03901145979762077
1,5,128,20,0.49021023511886597,0.12101125717163086
1,5,128,21,0.6320462226867676,0.1711522787809372
1,5,128,22,0.46447160840034485,0.10707982629537582
1,5,128,23,0.4671764373779297,0.0887802466750145
1,5,128,24,0.6048482060432434,0.1646372526884079
1,5,128,25,0.535767674446106,0.11030794680118561
1,5,128,26,0.3813616633415222,0.14854273200035095
1,5,128,27,0.5393387079238892,0.20227468013763428
1,5,128,28,0.5349672436714172,0.054924510419368744
1,5,128,29,0.601283848285675,0.09671580791473389
1,5,128,30,0.3911527693271637,0.06930307298898697
1,5,128,31,0.4963562786579132,0.0947566032409668
1,5,128,32,0.4646734595298767,0.10909410566091537
1,5,128,33,0.395754873752594,0.11082562059164047
1,5,128,34,0.6287656426429749,0.09624907374382019
1,5,128,35,0.5940807461738586,0.0947439968585968
1,5,128,36,0.48316025733947754,0.03178970888257027
1,5,128,37,0.5379993319511414,0.06403057277202606
1,5,128,38,0.6518041491508484,0.09721127897500992
1,5,128,39,0.37019240856170654,0.06622330099344254
1,5,128,40,0.5624367594718933,0.15621699392795563
1,5,128,41,0.5607311129570007,0.06573090702295303
1,5,128,42,0.599120557308197,0.1570434272289276
1,5,128,43,0.5051525831222534,0.05359520763158798
1,5,128,44,0.6906800866127014,0.11315619200468063
1,5,128,45,0.5124931931495667,0.06562604010105133
1,5,128,46,0.5672606825828552,0.18409520387649536
1,5,128,47,0.47690871357917786,0.06794325262308121
1,5,128,48,0.6723572015762329,0.12018989771604538
1,5,128,49,0.5271465182304382,0.07158757001161575
1,5,128,50,0.42817240953445435,0.1111714169383049
1,5,128,51,0.6805245876312256,0.15263907611370087
1,5,128,52,0.467900812625885,0.09989225119352341
1,5,128,53,0.42274531722068787,0.09977846592664719
1,5,128,54,0.623694121837616,0.06607465445995331
1,5,128,55,0.6717758178710938,0.0953386202454567
1,5,128,56,0.5287591814994812,0.05438760668039322
1,5,128,57,0.5107499361038208,0.13663965463638306
1,5,128,58,0.6598972678184509,0.11982248723506927
1,5,128,59,0.3979438245296478,0.14392732083797455
1,5,128,60,0.42717137932777405,0.06633270531892776
1,5,128,61,0.5163233876228333,0.028643276542425156
1,5,128,62,0.6119181513786316,0.08455812931060791
1,5,128,63,0.5237178802490234,0.036202747374773026
1,5,128,64,0.6550905108451843,0.12071768194437027
1,5,128,65,0.5999112725257874,0.043767645955085754
1,5,128,66,0.5752514600753784,0.03387998417019844
1,5,128,67,0.6015433073043823,0.12358134984970093
1,5,128,68,0.46707627177238464,0.06227096542716026
1,5,128,69,0.541632354259491,0.1223742738366127
1,5,128,70,0.5336545705795288,0.13799889385700226
1,5,128,71,0.40920206904411316,0.11876736581325531
1,5,128,72,0.6020941734313965,0.07582056522369385
1,5,128,73,0.3476526737213135,0.08290945738554001
1,5,128,74,0.5992163419723511,0.053973548114299774
1,5,128,75,0.6731196641921997,0.10470928996801376
1,5,128,76,0.6233921051025391,0.07153188437223434
1,5,128,77,0.5088149309158325,0.06587114185094833
1,5,128,78,0.4609140157699585,0.025301050394773483
1,5,128,79,0.566354513168335,0.1596735417842865
1,5,128,80,0.5369582772254944,0.1375948190689087
1,5,128,81,0.3636103570461273,0.11170566082000732
1,5,128,82,0.634513258934021,0.07747699320316315
1,5,128,83,0.41754093766212463,0.07548640668392181
1,5,128,84,0.6366695165634155,0.18126177787780762
1,5,128,85,0.6236605644226074,0.05939607322216034
1,5,128,86,0.43305423855781555,0.07039829343557358
1,5,128,87,0.5535104870796204,0.07909035682678223
1,5,128,88,0.69870924949646,0.10597128421068192
1,5,128,89,0.5338265299797058,0.03953325003385544
1,5,128,90,0.55288165807724,0.09653602540493011
1,5,128,91,0.4340251684188843,0.08040093630552292
1,5,128,92,0.5365701913833618,0.08364816009998322
1,5,128,93,0.6179839968681335,0.10888531804084778
1,5,128,94,0.6391692757606506,0.10033702850341797
1,5,128,95,0.6783501505851746,0.12712015211582184
1,5,128,96,0.5880566835403442,0.16800497472286224
1,5,128,97,0.6023503541946411,0.12150496989488602
1,5,128,98,0.5638030171394348,0.05375365540385246
1,5,128,99,0.6759522557258606,0.12034238874912262
1,5,128,100,0.4975600838661194,0.06249648332595825
1,5,128,101,0.48987191915512085,0.13064639270305634
1,5,128,102,0.6082239747047424,0.09343011677265167
1,5,128,103,0.4598408043384552,0.08224628865718842
1,5,128,104,0.5060245394706726,0.062470510601997375
1,5,128,105,0.6219670176506042,0.22144556045532227
1,5,128,106,0.6122463345527649,0.0966881513595581
1,5,128,107,0.4565994441509247,0.042401399463415146
1,5,128,108,0.49737876653671265,0.09188374131917953
1,5,128,109,0.5513790249824524,0.09584754705429077
1,5,128,110,0.6110417246818542,0.151683509349823
1,5,128,111,0.5484659671783447,0.1365223228931427
1,5,128,112,0.6555889248847961,0.08115649223327637
1,5,128,113,0.5313819646835327,0.11788061261177063
1,5,128,114,0.5715264678001404,0.028612550348043442
1,5,128,115,0.531790554523468,0.02569064125418663
1,5,128,116,0.5705029368400574,0.07491125166416168
1,5,128,117,0.5903809666633606,0.12058965861797333
1,5,128,118,0.5906153321266174,0.09122038632631302
1,5,128,119,0.6279928684234619,0.08791443705558777
1,5,128,120,0.6951808333396912,0.11368592828512192
1,5,128,121,0.588918149471283,0.14324764907360077
1,5,128,122,0.612418532371521,0.16559019684791565
1,5,128,123,0.6171918511390686,0.09052430838346481
1,5,128,124,0.427280068397522,0.20787875354290009
1,5,128,125,0.6213983297348022,0.17579448223114014
1,5,128,126,0.6048673987388611,0.11499044299125671
1,5,128,127,0.4899783730506897,0.017355473712086678
2,0,32,0,0.6196255683898926,0.07601746171712875
2,0,32,1,0.5707920789718628,0.030680276453495026
2,0,32,2,0.4944652318954468,0.05195169150829315
2,0,32,3,0.4781914949417114,0.08431810140609741
2,0,32,4,0.5083317756652832,0.07433901727199554
2,0,32,5,0.47763437032699585,0.08889807015657425
2,0,32,6,0.5864171981811523,0.025214646011590958
2,0,32,7,0.5293964743614197,0.061687201261520386
2,0,32,8,0.44915199279785156,0.057254474610090256
2,0,32,9,0.6355213522911072,0.026269951835274696
2,0,32,10,0.43813538551330566,0.022522354498505592
2,0,32,11,0.5014686584472656,0.06155501306056976
2,0,32,12,0.5500892996788025,0.07693681865930557
2,0,32,13,0.5885491371154785,0.09181613475084305
2,0,32,14,0.43018776178359985,0.06396527588367462
2,0,32,15,0.4930281937122345,0.06203566864132881
2,0,32,16,0.48021724820137024,0.0943342000246048
2,0,32,17,0.5507299900054932,0.08413189649581909
2,0,32,18,0.6392931342124939,0.04717016965150833
2,0,32,19,0.424530029296875,0.0757455974817276
2,0,32,20,0.4892265796661377,0.08473563194274902
2,0,32,21,0.38913872838020325,0.03800619766116142
2,0,32,22,0.5711962580680847,0.07077405601739883
2,0,32,23,0.5898169279098511,0.02862219326198101
2,0,32,24,0.48541510105133057,0.05301036313176155
2,0,32,25,0.5992115139961243,0.029982367530465126
2,0,32,26,0.5406600832939148,0.023310134187340736
2,0,32,27,0.4941432774066925,0.06556892395019531
2,0,32,28,0.5821482539176941,0.06470868736505508
2,0,32,29,0.42317551374435425,0.060903795063495636
2,0,32,30,0.4319692850112915,0.0663948729634285
2,0,32,31,0.40651580691337585,0.06276872009038925
2,1,32,0,0.4665798544883728,0.10910646617412567
2,1,32,1,0.40355056524276733,0.05772243067622185
2,1,32,2,0.4567369222640991,0.12251894921064377
2,1,32,3,0.4806274175643921,0.09316632151603699
2,1,32,4,0.4579274356365204,0.1115669533610344
2,1,32,5,0.4732092022895813,0.10629285871982574
2,1,32,6,0.49332141876220703,0.12069093436002731
2,1,32,7,0.38372325897216797,0.08072573691606522
2,1,32,8,0.3572123944759369,0.09112155437469482
2,1,32,9,0.4467058777809143,0.0942697525024414
2,1,32,10,0.5399401187896729,0.04210703447461128
2,1,32,11,0.476752370595932,0.06913088262081146
2,1,32,12,0.4783734679222107,0.11042865365743637
2,1,32,13,0.5139217376708984,0.09554975479841232
2,1,32,14,0.3497234284877777,0.06764302402734756
2,1,32,15,0.5000764727592468,0.1251114010810852
2,1,32,16,0.5202524662017822,0.05709518492221832
2,1,32,17,0.5387699007987976,0.11759761720895767
2,1,32,18,0.33384039998054504,0.08502421528100967
2,1,32,19,0.5266078114509583,0.10855542123317719
2,1,32,20,0.3551557958126068,0.06203904375433922
2,1,32,21,0.6169600486755371,0.04517228156328201
2,1,32,22,0.4174167513847351,0.10439066588878632
2,1,32,23,0.5260142683982849,0.1242530420422554
2,1,32,24,0.4031050205230713,0.12537629902362823
2,1,32,25,0.48461583256721497,0.04147825017571449
2,1,32,26,0.35389482975006104,0.10785360634326935
2,1,32,27,0.5265179872512817,0.06458907574415207
2,1,32,28,0.5968902707099915,0.07030414044857025
2,1,32,29,0.3992396891117096,0.11598162353038788
2,1,32,30,0.40694159269332886,0.09706107527017593
2,1,32,31,0.3876032531261444,0.11042103916406631
2,2,64,0,0.5725962519645691,0.1257380098104477
2,2,64,1,0.49874454736709595,0.10653195530176163
2,2,64,2,0.6547439694404602,0.07740259915590286
2,2,64,3,0.4487294852733612,0.042701028287410736
2,2,64,4,0.44482409954071045,0.06904013454914093
2,2,64,5,0.5532420873641968,0.10254717618227005
2,2,64,6,0.4162781834602356,0.0828443169593811
2,2,64,7,0.6328825354576111,0.09251590073108673
2,2,64,8,0.47637471556663513,0.059234511107206345
2,2,64,9,0.3536742627620697,0.0937732383608818
2,2,64,10,0.4097740948200226,0.07586952298879623
2,2,64,11,0.39183446764945984,0.07034706324338913
2,2,64,12,0.38600414991378784,0.053651995956897736
2,2,64,13,0.5316606760025024,0.14765013754367828
2,2,64,14,0.475172758102417,0.16094616055488586
2,2,64,15,0.5774609446525574,0.12317807227373123
2,2,64,16,0.3781167268753052,0.09367692470550537
2,2,64,17,0.3620675206184387,0.07937942445278168
2,2,64,18,0.4709436893463135,0.0977373868227005
2,2,64,19,0.5679517388343811,0.11913684755563736
2,2,64,20,0.4913322329521179,0.07857276499271393
2,2,64,21,0.541723370552063,0.10179606080055237
2,2,64,22,0.6387876868247986,0.09829223901033401
2,2,64,23,0.5137467384338379,0.1255156695842743
2,2,64,24,0.5435882210731506,0.10984955728054047
2,2,64,25,0.42803388833999634,0.07654968649148941
2,2,64,26,0.5814658999443054,0.09479048103094101
2,2,64,27,0.4114200472831726,0.07302495837211609
2,2,64,28,0.4335266947746277,0.06409935653209686
2,2,64,29,0.4414518475532532,0.09210270643234253
2,2,64,30,0.5532726049423218,0.11437670886516571
2,2,64,31,0.48976975679397583,0.10635045170783997
2,2,64,32,0.4811103343963623,0.13962595164775848
2,2,64,33,0.40068989992141724,0.059020478278398514
2,2,64,34,0.4871722459793091,0.09150132536888123
2,2,64,35,0.5134783983230591,0.09234212338924408
2,2,64,36,0.4465678930282593,0.10492585599422455
2,2,64,37,0.40388020873069763,0.13441182672977448
2,2,64,38,0.48415595293045044,0.056054890155792236
2,2,64,39,0.5275528430938721,0.13663384318351746
2,2,64,40,0.39730361104011536,0.09072890132665634
2,2,64,41,0.4799124300479889,0.13674123585224152
2,2,64,42,0.4848474860191345,0.09595417231321335
2,2,64,43,0.38383615016937256,0.06706967204809189
2,2,64,44,0.5260133743286133,0.09902900457382202
2,2,64,45,0.4471937119960785,0.08261912316083908
2,2,64,46,0.4520282447338104,0.1285594254732132
2,2,64,47,0.4832315742969513,0.11912763118743896
2,2,64,48,0.5402370095252991,0.1273077130317688
2,2,64,49,0.4921235144138336,0.059072986245155334
2,2,64,50,0.4986514151096344,0.09600186347961426
2,2,64,51,0.4443505108356476,0.09002155065536499
2,2,64,52,0.42879295349121094,0.052102282643318176
2,2,64,53,0.46441173553466797,0.05918700620532036
2,2,64,54,0.53119957447052,0.09183983504772186
2,2,64,55,0.45504313707351685,0.1013183444738388
2,2,64,56,0.5647169947624207,0.08775446563959122
2,2,64,57,0.3813641667366028,0.08579227328300476
2,2,64,58,0.5315002799034119,0.0774347111582756
2,2,64,59,0.43238765001296997,0.03298375383019447
2,2,64,60,0.5264109373092651,0.09189584106206894
2,2,64,61,0.4685342609882355,0.052440669387578964
2,2,64,62,0.5116612315177917,0.1939125955104828
2,2,64,63,0.4798140227794647,0.12025381624698639
2,3,64,0,0.4821988642215729,0.11286427080631256
2,3,64,1,0.5007174015045166,0.08589876443147659
2,3,64,2,0.47691652178764343,0.04982953146100044
2,3,64,3,0.5054466128349304,0.1304931342601776
2,3,64,4,0.5440078973770142,0.10823092609643936
2,3,64,5,0.5113897919654846,0.11207881569862366
2,3,64,6,0.44866058230400085,0.11261680722236633
2,3,64,7,0.5888856649398804,0.10309939831495285
2,3,64,8,0.5136842727661133,0.08141480386257172
2,3,64,9,0.49298495054244995,0.11258944123983383
2,3,64,10,0.5533008575439453,0.08541620522737503
2,3,64,11,0.5957388281822205,0.07637610286474228
2,3,64,12,0.5301619172096252,0.07812942564487457
2,3,64,13,0.48769670724868774,0.07050909101963043
2,3,64,14,0.4909017086029053,0.132948637008667
2,3,64,15,0.5088471174240112,0.09313643723726273
2,3,64,16,0.4383704960346222,0.12138355523347855
2,3,64,17,0.3826969563961029,0.09434893727302551
2,3,64,18,0.4876626431941986,0.04743635281920433
2,3,64,19,0.4440944194793701,0.08919559419155121
2,3,64,20,0.4176620841026306,0.08411384373903275
2,3,64,21,0.6540943384170532,0.06684364378452301
2,3,64,22,0.5741444826126099,0.06164519861340523
2,3,64,23,0.5031231641769409,0.10262387245893478
2,3,64,24,0.48469117283821106,0.0921085849404335
2,3,64,25,0.47607776522636414,0.072291798889637
2,3,64,26,0.555452287197113,0.062335167080163956
2,3,64,27,0.37228748202323914,0.07154195010662079
2,3,64,28,0.458686888217926,0.10298310965299606
2,3,64,29,0.5162385702133179,0.059706300497055054
2,3,64,30,0.5404528975486755,0.11590629070997238
2,3,64,31,0.5585994720458984,0.04889337345957756
2,3,64,32,0.5476431846618652,0.06748295575380325
2,3,64,33,0.5523615479469299,0.0787435844540596
2,3,64,34,0.3944774866104126,0.12589488923549652
2,3,64,35,0.37952443957328796,0.07629319280385971
2,3,64,36,0.4125339984893799,0.08015792071819305
2,3,64,37,0.5858638286590576,0.0756211131811142
2,3,64,38,0.4699714183807373,0.07579568028450012
2,3,64,39,0.6377594470977783,0.10890372842550278
2,3,64,40,0.4660288393497467,0.06525559723377228
2,3,64,41,0.48457083106040955,0.10707655549049377
2,3,64,42,0.42021870613098145,0.060171496123075485
2,3,64,43,0.4132339656352997,0.1134224385023117
2,3,64,44,0.38461607694625854,0.04665640741586685
2,3,64,45,0.4711569845676422,0.09591466188430786
2,3,64,46,0.4591559171676636,0.0800619050860405
2,3,64,47,0.6557776927947998,0.08922708034515381
2,3,64,48,0.41304564476013184,0.10503919422626495
2,3,64,49,0.589123010635376,0.08221840858459473
2,3,64,50,0.594229519367218,0.06533069908618927
2,3,64,51,0.5122837424278259,0.04827873781323433
2,3,64,52,0.4906163811683655,0.0688793733716011
2,3,64,53,0.44340160489082336,0.08526747673749924
2,3,64,54,0.4017481505870819,0.14944806694984436
2,3,64,55,0.49331894516944885,0.107783243060112
2,3,64,56,0.44096413254737854,0.08255324512720108
2,3,64,57,0.4563392996788025,0.07998914271593094
2,3,64,58,0.4856572449207306,0.11774113029241562
2,3,64,59,0.5105991959571838,0.09857162088155746
2,3,64,60,0.525815486907959,0.08943364769220352
2,3,64,61,0.5599815249443054,0.0618603453040123
2,3,64,62,0.44500648975372314,0.10054665803909302
2,3,64,63,0.5310476422309875,0.0823751762509346
2,4,128,0,0.5873371362686157,0.10420722514390945
2,4,128,1,0.6500484943389893,0.34969237446784973
2,4,128,2,0.5209660530090332,0.11761511117219925
2,4,128,3,0.7449676990509033,0.2529887855052948
2,4,128,4,0.622271716594696,0.33221790194511414
2,4,128,5,0.45709022879600525,0.3425401449203491
2,4,128,6,0.7006489634513855,0.15098336338996887
2,4,128,7,0.5413811206817627,0.2720712423324585
2,4,128,8,0.8231900334358215,0.1221824437379837
2,4,128,9,0.6402967572212219,0.09279857575893402
2,4,128,10,0.7201962471008301,0.23366014659404755
2,4,128,11,0.6055419445037842,0.13117177784442902
2,4,128,12,0.722414493560791,0.14297261834144592
2,4,128,13,0.6934736371040344,0.23351867496967316
2,4,128,14,0.5841577649116516,0.09159567952156067
2,4,128,15,0.634968638420105,0.12922143936157227
2,4,128,16,0.6611201763153076,0.2865809202194214
2,4,128,17,0.6162468194961548,0.3682819902896881
2,4,128,18,0.6366718411445618,0.09688937664031982
2,4,128,19,0.43746310472488403,0.19549843668937683
2,4,128,20,0.6614797115325928,0.24613513052463531
2,4,128,21,0.7493038177490234,0.22253428399562836
2,4,128,22,0.6739785671234131,0.09173125773668289
2,4,128,23,0.5704407095909119,0.13313820958137512
2,4,128,24,0.6293943524360657,0.3343415856361389
2,4,128,25,0.5546079874038696,0.22763444483280182
2,4,128,26,0.5001760125160217,0.1557694971561432
2,4,128,27,0.46592992544174194,0.16264042258262634
2,4,128,28,0.7330668568611145,0.08935212343931198
2,4,128,29,0.7308540344238281,0.09444224089384079
2,4,128,30,0.4822845757007599,0.2523753345012665
2,4,128,31,0.7032729387283325,0.23073570430278778
2,4,128,32,0.3746677041053772,0.32536131143569946
2,4,128,33,0.49122142791748047,0.13238868117332458
2,4,128,34,0.6104317307472229,0.16393208503723145
2,4,128,35,0.752338707447052,0.20856471359729767
2,4,128,36,0.654151439666748,0.25910723209381104
2,4,128,37,0.4534965455532074,0.2948499321937561
2,4,128,38,0.4189804494380951,0.09009236842393875
2,4,128,39,0.5692950487136841,0.11121957749128342
2,4,128,40,0.4820176661014557,0.22033865749835968
2,4,128,41,0.3045156002044678,0.2889879643917084
2,4,128,42,0.27068814635276794,0.2528699040412903
2,4,128,43,0.6936150193214417,0.08325541764497757
2,4,128,44,0.7250415086746216,0.11155806481838226
2,4,128,45,0.6435831189155579,0.29748672246932983
2,4,128,46,0.6104379892349243,0.24219484627246857
2,4,128,47,0.6325913667678833,0.3405429720878601
2,4,128,48,0.5742864608764648,0.248368501663208
2,4,128,49,0.5874899625778198,0.05910457670688629
2,4,128,50,0.30187636613845825,0.15287712216377258
2,4,128,51,0.7209553122520447,0.27313628792762756
2,4,128,52,0.3028241693973541,0.15465529263019562
2,4,128,53,0.5004106760025024,0.22947674989700317
2,4,128,54,0.7980212569236755,0.1806095391511917
2,4,128,55,0.6050282716751099,0.32542896270751953
2,4,128,56,0.3791550099849701,0.349957674741745
2,4,128,57,0.6339605450630188,0.2609674036502838
2,4,128,58,0.7557503581047058,0.1528206616640091
2,4,128,59,0.726895272731781,0.24861310422420502
2,4,128,60,0.6466466784477234,0.10055612772703171
2,4,128,61,0.7565829753875732,0.07633882015943527
2,4,128,62,0.7579655051231384,0.14805667102336884
2,4,128,63,0.6884017586708069,0.28447526693344116
2,4,128,64,0.6801192164421082,0.07152999937534332
2,4,128,65,0.7340161800384521,0.07897040247917175
2,4,128,66,0.38989031314849854,0.17294812202453613
2,4,128,67,0.47471028566360474,0.07252993434667587
2,4,128,68,0.7251758575439453,0.11861605942249298
2,4,128,69,0.6481353640556335,0.2549116313457489
2,4,128,70,0.4096052348613739,0.09598729014396667
2,4,128,71,0.44680285453796387,0.23902733623981476
2,4,128,72,0.6132194995880127,0.08113228529691696
2,4,128,73,0.4265801012516022,0.06977424770593643
2,4,128,74,0.36825940012931824,0.2676776051521301
2,4,128,75,0.3395967483520508,0.1251956820487976
2,4,128,76,0.6671134233474731,0.34755510091781616
2,4,128,77,0.39411821961402893,0.08846879005432129
2,4,128,78,0.6666386127471924,0.29132509231567383
2,4,128,79,0.491282194852829,0.28468233346939087
2,4,128,80,0.6836840510368347,0.12321030348539352
2,4,128,81,0.7118315696716309,0.10509905964136124
2,4,128,82,0.5807315111160278,0.13783414661884308
2,4,128,83,0.44957730174064636,0.25277385115623474
2,4,128,84,0.7905359864234924,0.13801242411136627
2,4,128,85,0.631875216960907,0.23414580523967743
2,4,128,86,0.6372459530830383,0.31187525391578674
2,4,128,87,0.29454267024993896,0.1693257838487625
2,4,128,88,0.6199930310249329,0.13882111012935638
2,4,128,89,0.5917931795120239,0.22566606104373932
2,4,128,90,0.7153924107551575,0.2118064910173416
2,4,128,91,0.6461893320083618,0.27231135964393616
2,4,128,92,0.23816056549549103,0.17891094088554382
2,4,128,93,0.5529235005378723,0.12624938786029816
2,4,128,94,0.48510339856147766,0.2953057885169983
2,4,128,95,0.6267409324645996,0.21792030334472656
2,4,128,96,0.6790816187858582,0.08908502012491226
2,4,128,97,0.43172359466552734,0.23228655755519867
2,4,128,98,0.43568772077560425,0.06574397534132004
2,4,128,99,0.5709540247917175,0.06784302741289139
2,4,128,100,0.44814351201057434,0.1071772351861
2,4,128,101,0.4407031536102295,0.1746111512184143
2,4,128,102,0.37582677602767944,0.21953049302101135
2,4,128,103,0.6451998353004456,0.36020511388778687
2,4,128,104,0.643217921257019,0.27528008818626404
2,4,128,105,0.32807213068008423,0.08927427232265472
2,4,128,106,0.7282342314720154,0.15302109718322754
2,4,128,107,0.38931336998939514,0.22692324221134186
2,4,128,108,0.6853347420692444,0.2932814955711365
2,4,128,109,0.6004266142845154,0.12601499259471893
2,4,128,110,0.7072443962097168,0.08930090814828873
2,4,128,111,0.3834822177886963,0.19993534684181213
2,4,128,112,0.8198246955871582,0.1294250637292862
2,4,128,113,0.5601081252098083,0.20523719489574432
2,4,128,114,0.6834151744842529,0.12827558815479279
2,4,128,115,0.5347020030021667,0.20349282026290894
2,4,128,116,0.25259706377983093,0.11997218430042267
2,4,128,117,0.5152645111083984,0.13724945485591888
2,4,128,118,0.6719524264335632,0.2040506899356842
2,4,128,119,0.692861795425415,0.20054495334625244
2,4,128,120,0.18426182866096497,0.12402967363595963
2,4,128,121,0.6478128433227539,0.3368845283985138
2,4,128,122,0.3483641445636749,0.18822221457958221
2,4,128,123,0.6328904628753662,0.04537612199783325
2,4,128,124,0.3912031054496765,0.2571444511413574
2,4,128,125,0.6376619935035706,0.11278945952653885
2,4,128,126,0.6215574741363525,0.0745517835021019
2,4,128,127,0.5652227401733398,0.14242687821388245
2,5,128,0,0.5512270331382751,0.09304837882518768
2,5,128,1,0.5997406244277954,0.051386356353759766
2,5,128,2,0.5836828351020813,0.2872488498687744
2,5,128,3,0.6550426483154297,0.04110567644238472
2,5,128,4,0.6266152858734131,0.19475674629211426
2,5,128,5,0.7120139598846436,0.058719001710414886
2,5,128,6,0.6556000113487244,0.1380564421415329
2,5,128,7,0.4256001114845276,0.07858988642692566
2,5,128,8,0.5756767988204956,0.15905632078647614
2,5,128,9,0.4827418625354767,0.0718560442328453
2,5,128,10,0.4548477530479431,0.039738211780786514
2,5,128,11,0.5664477944374084,0.14960679411888123
2,5,128,12,0.6050962209701538,0.12349715828895569
2,5,128,13,0.5939813256263733,0.10146436840295792
2,5,128,14,0.6730741262435913,0.05889279767870903
2,5,128,15,0.6772750616073608,0.13192225992679596
2,5,128,16,0.6028342843055725,0.23088736832141876
2,5,128,17,0.7070702910423279,0.1284906417131424
2,5,128,18,0.7071590423583984,0.17291522026062012
2,5,128,19,0.4481146037578583,0.08969085663557053
2,5,128,20,0.36998316645622253,0.09238338470458984
2,5,128,21,0.657524824142456,0.10011415183544159
2,5,128,22,0.6383697390556335,0.12076195329427719
2,5,128,23,0.47951266169548035,0.04805908352136612
2,5,128,24,0.6856811046600342,0.1994004100561142
2,5,128,25,0.5095663666725159,0.11491534858942032
2,5,128,26,0.4341895282268524,0.08255434036254883
2,5,128,27,0.49814465641975403,0.0918383002281189
2,5,128,28,0.7451288104057312,0.06444106251001358
2,5,128,29,0.40752702951431274,0.12266036123037338
2,5,128,30,0.39652901887893677,0.08025437593460083
2,5,128,31,0.494253009557724,0.08869845420122147
2,5,128,32,0.46780237555503845,0.20539429783821106
2,5,128,33,0.7010447382926941,0.0929749384522438
2,5,128,34,0.5297949314117432,0.04408511519432068
2,5,128,35,0.6990454196929932,0.20008903741836548
2,5,128,36,0.5780083537101746,0.14867115020751953
2,5,128,37,0.6698794960975647,0.059986989945173264
2,5,128,38,0.38599109649658203,0.2172626405954361
2,5,128,39,0.7214140295982361,0.13639017939567566
2,5,128,40,0.6668578386306763,0.09084054082632065
2,5,128,41,0.3959839940071106,0.08074943721294403
2,5,128,42,0.45296406745910645,0.18236680328845978
2,5,128,43,0.698207437992096,0.15422841906547546
2,5,128,44,0.6581608653068542,0.18468384444713593
2,5,128,45,0.666899561882019,0.11733850091695786
2,5,128,46,0.6092000603675842,0.11240953952074051
2,5,128,47,0.6290149092674255,0.23338715732097626
2,5,128,48,0.7159329056739807,0.10110780596733093
2,5,128,49,0.6115838885307312,0.07020378112792969
2,5,128,50,0.5642518997192383,0.10017576068639755
2,5,128,51,0.6111153960227966,0.12534163892269135
2,5,128,52,0.488607257604599,0.03968659043312073
2,5,128,53,0.5795148015022278,0.040517114102840424
2,5,128,54,0.6911000609397888,0.18531642854213715
2,5,128,55,0.6729530692100525,0.124829962849617
2,5,128,56,0.6738013029098511,0.05622125044465065
2,5,128,57,0.438105970621109,0.11323752999305725
2,5,128,58,0.6807212829589844,0.16486817598342896
2,5,128,59,0.6306595206260681,0.06930448859930038
2,5,128,60,0.6766923666000366,0.056016307324171066
2,5,128,61,0.5105029344558716,0.12833952903747559
2,5,128,62,0.8244380950927734,0.07545419037342072
2,5,128,63,0.6356234550476074,0.16451694071292877
2,5,128,64,0.5742455720901489,0.17992332577705383
2,5,128,65,0.7922188639640808,0.05848442390561104
2,5,128,66,0.5826277136802673,0.11818726360797882
2,5,128,67,0.566891074180603,0.12028831988573074
2,5,128,68,0.5217975974082947,0.08909603953361511
2,5,128,69,0.4899415671825409,0.05192777141928673
2,5,128,70,0.5180948376655579,0.1796785145998001
2,5,128,71,0.5678538680076599,0.02668200619518757
2,5,128,72,0.47274866700172424,0.09805715829133987
2,5,128,73,0.5265881419181824,0.16507726907730103
2,5,128,74,0.3725362718105316,0.1886252462863922
2,5,128,75,0.40120333433151245,0.09615817666053772
2,5,128,76,0.6889718770980835,0.0911015123128891
2,5,128,77,0.5884244441986084,0.20479924976825714
2,5,128,78,0.6841490268707275,0.20675402879714966
2,5,128,79,0.4490906000137329,0.12645359337329865
2,5,128,80,0.610535204410553,0.15456299483776093
2,5,128,81,0.6789342164993286,0.09574992209672928
2,5,128,82,0.3024745583534241,0.055286720395088196
2,5,128,83,0.4018995761871338,0.08156958967447281
2,5,128,84,0.5905871987342834,0.1449575573205948
2,5,128,85,0.7012642025947571,0.2064599096775055
2,5,128,86,0.5413740277290344,0.059076715260744095
2,5,128,87,0.7899355292320251,0.08922713249921799
2,5,128,88,0.5507985353469849,0.06360675394535065
2,5,128,89,0.6201574206352234,0.12575720250606537
2,5,128,90,0.6193718314170837,0.062147147953510284
2,5,128,91,0.7067117691040039,0.1401442438364029
2,5,128,92,0.6391952037811279,0.08798206597566605
2,5,128,93,0.5437870621681213,0.21086925268173218
2,5,128,94,0.6732228398323059,0.07052972912788391
2,5,128,95,0.496614009141922,0.18207278847694397
2,5,128,96,0.6939001679420471,0.1128508597612381
2,5,128,97,0.7028015851974487,0.08636262267827988
2,5,128,98,0.5740691423416138,0.038885097950696945
2,5,128,99,0.6670551300048828,0.07072672992944717
2,5,128,100,0.6661829352378845,0.1949087679386139
2,5,128,101,0.5761347413063049,0.08155336230993271
2,5,128,102,0.5501531362533569,0.09829390048980713
2,5,128,103,0.7790219187736511,0.061681583523750305
2,5,128,104,0.47889232635498047,0.16667748987674713
2,5,128,105,0.5009954571723938,0.07566185295581818
2,5,128,106,0.6295219659805298,0.04729453846812248
2,5,128,107,0.7397168278694153,0.09087561070919037
2,5,128,108,0.6062742471694946,0.10574059933423996
2,5,128,109,0.6302345991134644,0.056181952357292175
2,5,128,110,0.6636572480201721,0.10884880274534225
2,5,128,111,0.5790420770645142,0.07377315312623978
2,5,128,112,0.5772855877876282,0.14221738278865814
2,5,128,113,0.6515559554100037,0.1621546447277069
2,5,128,114,0.6761620044708252,0.11646144092082977
2,5,128,115,0.55733722448349,0.17734497785568237
2,5,128,116,0.4457992613315582,0.17691345512866974
2,5,128,117,0.5218667984008789,0.13376185297966003
2,5,128,118,0.6712762713432312,0.07067209482192993
2,5,128,119,0.6110592484474182,0.19940152764320374
2,5,128,120,0.4759077727794647,0.08636968582868576
2,5,128,121,0.48669061064720154,0.10839605331420898
2,5,128,122,0.37895163893699646,0.17157436907291412
2,5,128,123,0.5668572187423706,0.15479061007499695
2,5,128,124,0.4671327769756317,0.2838061451911926
2,5,128,125,0.6373242139816284,0.08510413020849228
2,5,128,126,0.6345174908638,0.04630985110998154
2,5,128,127,0.6539347767829895,0.14203038811683655
3,0,32,0,0.644519031047821,0.09519373625516891
3,0,32,1,0.3936319053173065,0.040786754339933395
3,0,32,2,0.4411833882331848,0.025541633367538452
3,0,32,3,0.5225175023078918,0.10796520859003067
3,0,32,4,0.4917108714580536,0.06809592992067337
3,0,32,5,0.4632558524608612,0.06170334294438362
3,0,32,6,0.5279198288917542,0.07333655655384064
3,0,32,7,0.5534353256225586,0.056214943528175354
3,0,32,8,0.3478182256221771,0.0743597224354744
3,0,32,9,0.4805748462677002,0.10011308640241623
3,0,32,10,0.3715827465057373,0.03168519213795662
3,0,32,11,0.5279216170310974,0.10983303934335709
3,0,32,12,0.5582965612411499,0.047140657901763916
3,0,32,13,0.4336701035499573,0.04837162420153618
3,0,32,14,0.4466001093387604,0.07246959209442139
3,0,32,15,0.41549283266067505,0.09377168118953705
3,0,32,16,0.4102366268634796,0.08571429550647736
3,0,32,17,0.45313024520874023,0.026762714609503746
3,0,32,18,0.5965095162391663,0.08668870478868484
3,0,32,19,0.4118189811706543,0.028220972046256065
3,0,32,20,0.6303621530532837,0.09396010637283325
3,0,32,21,0.49225685000419617,0.09464966505765915
3,0,32,22,0.4771006107330322,0.10582675784826279
3,0,32,23,0.5924400687217712,0.08690091222524643
3,0,32,24,0.48160699009895325,0.05136044695973396
3,0,32,25,0.5221145749092102,0.05897849053144455
3,0,32,26,0.5016775131225586,0.06484325975179672
3,0,32,27,0.5490081310272217,0.06790190935134888
3,0,32,28,0.5142849087715149,0.12059690803289413
3,0,32,29,0.5304176807403564,0.06743451207876205
3,0,32,30,0.4347860515117645,0.09863530844449997
3,0,32,31,0.4422922432422638,0.05894708260893822
3,1,32,0,0.4513019621372223,0.0796622633934021
3,1,32,1,0.5343623757362366,0.04518876597285271
3,1,32,2,0.4884953796863556,0.046501707285642624
3,1,32,3,0.5632984638214111,0.0477251298725605
3,1,32,4,0.6113839745521545,0.0783931240439415
3,1,32,5,0.5394383668899536,0.021598298102617264
3,1,32,6,0.3994288444519043,0.03470242768526077
3,1,32,7,0.49420079588890076,0.013266379944980145
3,1,32,8,0.5760987401008606,0.03242182731628418
3,1,32,9,0.5165477991104126,0.10867036879062653
3,1,32,10,0.43184131383895874,0.052502550184726715
3,1,32,11,0.4125961661338806,0.04236280545592308
3,1,32,12,0.5705752372741699,0.030499959364533424
3,1,32,13,0.4380771517753601,0.05229151248931885
3,1,32,14,0.45343491435050964,0.028429973870515823
3,1,32,15,0.44126826524734497,0.04374902695417404
3,1,32,16,0.5333757996559143,0.05677790567278862
3,1,32,17,0.45029416680336,0.098683662712574
3,1,32,18,0.6052859425544739,0.06411364674568176
3,1,32,19,0.5063934922218323,0.017117202281951904
3,1,32,20,0.36211535334587097,0.0430360808968544
3,1,32,21,0.42501071095466614,0.05970850586891174
3,1,32,22,0.393863707780838,0.0905199721455574
3,1,32,23,0.49086281657218933,0.03056761622428894
3,1,32,24,0.353444367647171,0.041965875774621964
3,1,32,25,0.4845714569091797,0.0389782190322876
3,1,32,26,0.4203327000141144,0.0531608909368515
3,1,32,27,0.624163806438446,0.02262730523943901
3,1,32,28,0.4029550552368164,0.0333748459815979
3,1,32,29,0.44271916151046753,0.04840882122516632
3,1,32,30,0.563218355178833,0.06450562924146652
3,1,32,31,0.4346628487110138,0.02142391912639141
3,2,64,0,0.5360660552978516,0.07624398171901703
3,2,64,1,0.5208624601364136,0.07685297727584839
3,2,64,2,0.4393613040447235,0.13896319270133972
3,2,64,3,0.3604557514190674,0.11605459451675415
3,2,64,4,0.44105616211891174,0.11543014645576477
3,2,64,5,0.39142704010009766,0.07033594697713852
3,2,64,6,0.4682396650314331,0.06202453747391701
3,2,64,7,0.4303889274597168,0.05997040495276451
3,2,64,8,0.43831831216812134,0.14706826210021973
3,2,64,9,0.4782599210739136,0.07165057957172394
3,2,64,10,0.4660743772983551,0.13749070465564728
3,2,64,11,0.44681310653686523,0.0590151771903038
3,2,64,12,0.4813637137413025,0.07224080711603165
3,2,64,13,0.5245208144187927,0.05544763430953026
3,2,64,14,0.5538222193717957,0.0783410519361496
3,2,64,15,0.507612943649292,0.12315993010997772
3,2,64,16,0.5528805255889893,0.09657739847898483
3,2,64,17,0.446042001247406,0.04525953531265259
3,2,64,18,0.4545491635799408,0.09834794700145721
3,2,64,19,0.5553774833679199,0.10419325530529022
3,2,64,20,0.5387853384017944,0.10053074359893799
3,2,64,21,0.4713515043258667,0.08296600729227066
3,2,64,22,0.39581623673439026,0.13166572153568268
3,2,64,23,0.49142342805862427,0.142215758562088
3,2,64,24,0.5830842852592468,0.05697319284081459
3,2,64,25,0.5388248562812805,0.11335782706737518
3,2,64,26,0.5304759740829468,0.08297652006149292
3,2,64,27,0.5120413899421692,0.05158422142267227
3,2,64,28,0.4650903046131134,0.05095016211271286
3,2,64,29,0.4850338101387024,0.07573925703763962
3,2,64,30,0.5061909556388855,0.13632622361183167
3,2,64,31,0.4248421788215637,0.03965960070490837
3,2,64,32,0.4520365297794342,0.0894673615694046
3,2,64,33,0.4242018163204193,0.16968978941440582
3,2,64,34,0.43825575709342957,0.02216235361993313
3,2,64,35,0.5151368379592896,0.07561317086219788
3,2,64,36,0.4590268135070801,0.047008100897073746
3,2,64,37,0.5086053609848022,0.1274835169315338
3,2,64,38,0.5080437064170837,0.11089121550321579
3,2,64,39,0.5241816639900208,0.10872317105531693
3,2,64,40,0.39968064427375793,0.037988658994436264
3,2,64,41,0.5375321507453918,0.050337791442871094
3,2,64,42,0.509952187538147,0.0654812604188919
3,2,64,43,0.5128565430641174,0.11746899038553238
3,2,64,44,0.45662033557891846,0.0818123072385788
3,2,64,45,0.40564796328544617,0.04526204615831375
3,2,64,46,0.36205095052719116,0.08766934275627136
3,2,64,47,0.47850263118743896,0.04334740340709686
3,2,64,48,0.6072396636009216,0.06693243980407715
3,2,64,49,0.5979598760604858,0.0655142143368721
3,2,64,50,0.4445762634277344,0.07752680033445358
3,2,64,51,0.4932926595211029,0.09855613112449646
3,2,64,52,0.5366188883781433,0.05780884996056557
3,2,64,53,0.46424347162246704,0.07529513537883759
3,2,64,54,0.4688965380191803,0.10288359224796295
3,2,64,55,0.4484238624572754,0.11273054778575897
3,2,64,56,0.4382669925689697,0.10697096586227417
3,2,64,57,0.5463913679122925,0.12244162708520889
3,2,64,58,0.43090343475341797,0.10308440774679184
3,2,64,59,0.5035810470581055,0.13203097879886627
3,2,64,60,0.44503912329673767,0.0866800919175148
3,2,64,61,0.46401017904281616,0.11820024251937866
3,2,64,62,0.5119637250900269,0.0380634069442749
3,2,64,63,0.4684445261955261,0.08495280891656876
3,3,64,0,0.4773997664451599,0.04693888500332832
3,3,64,1,0.43490180373191833,0.11052956432104111
3,3,64,2,0.5112057328224182,0.0986316129565239
3,3,64,3,0.5034273862838745,0.06781399250030518
3,3,64,4,0.5326279401779175,0.10515929013490677
3,3,64,5,0.5473939776420593,0.053228266537189484
3,3,64,6,0.47756731510162354,0.049257516860961914
3,3,64,7,0.5307528972625732,0.09096165746450424
3,3,64,8,0.5483300685882568,0.06866694986820221
3,3,64,9,0.509011447429657,0.14765805006027222
3,3,64,10,0.5134668946266174,0.04715398699045181
3,3,64,11,0.545689046382904,0.05170498043298721
3,3,64,12,0.4551418423652649,0.07786774635314941
3,3,64,13,0.37566182017326355,0.08700846880674362
3,3,64,14,0.5323719382286072,0.10561483353376389
3,3,64,15,0.5814177393913269,0.048799917101860046
3,3,64,16,0.4475284218788147,0.08924028277397156
3,3,64,17,0.4979170858860016,0.09351058304309845
3,3,64,18,0.40061864256858826,0.052735183387994766
3,3,64,19,0.6271495819091797,0.06865078210830688
3,3,64,20,0.38520506024360657,0.0438406839966774
3,3,64,21,0.5564896464347839,0.10646424442529678
3,3,64,22,0.4101220667362213,0.13985304534435272
3,3,64,23,0.5393118858337402,0.13071882724761963
3,3,64,24,0.47165051102638245,0.04822583124041557
3,3,64,25,0.4661071002483368,0.11789356917142868
3,3,64,26,0.5238040685653687,0.03598836436867714
3,3,64,27,0.3716561496257782,0.10417047142982483
3,3,64,28,0.3858662247657776,0.11248693615198135
3,3,64,29,0.4211333692073822,0.018390823155641556
3,3,64,30,0.5181612968444824,0.10261692106723785
3,3,64,31,0.46795952320098877,0.04940859600901604
3,3,64,32,0.5217007398605347,0.116607166826725
3,3,64,33,0.5774338841438293,0.08685434609651566
3,3,64,34,0.4150505065917969,0.04246195778250694
3,3,64,35,0.513678789138794,0.04197259247303009
3,3,64,36,0.38436028361320496,0.07929916679859161
3,3,64,37,0.5129690170288086,0.06213410198688507
3,3,64,38,0.5341747999191284,0.06334546953439713
3,3,64,39,0.38075879216194153,0.11111431568861008
3,3,64,40,0.54288649559021,0.055796340107917786
3,3,64,41,0.45556384325027466,0.06024566665291786
3,3,64,42,0.5618120431900024,0.08670803159475327
3,3,64,43,0.5380529761314392,0.08830724656581879
3,3,64,44,0.5214812159538269,0.045702990144491196
3,3,64,45,0.41484326124191284,0.09196139127016068
3,3,64,46,0.5007785558700562,0.06409794092178345
3,3,64,47,0.5080230236053467,0.1211782842874527
3,3,64,48,0.5097171664237976,0.0889548733830452
3,3,64,49,0.45477649569511414,0.06234591081738472
3,3,64,50,0.4625105857849121,0.15091736614704132
3,3,64,51,0.3846031725406647,0.06447702646255493
3,3,64,52,0.47872745990753174,0.11837949603796005
3,3,64,53,0.5769122242927551,0.027201220393180847
3,3,64,54,0.4827652871608734,0.05698881670832634
3,3,64,55,0.5128614902496338,0.09961062669754028
3,3,64,56,0.46173182129859924,0.12718535959720612
3,3,64,57,0.6272699236869812,0.07619370520114899
3,3,64,58,0.5297186970710754,0.07380899786949158
3,3,64,59,0.5547578930854797,0.10276006162166595
3,3,64,60,0.4609290361404419,0.04155821353197098
3,3,64,61,0.426820307970047,0.05232413113117218
3,3,64,62,0.3582375943660736,0.033062901347875595
3,3,64,63,0.5833870768547058,0.038192201405763626
3,4,128,0,0.7393458485603333,0.18087859451770782
3,4,128,1,0.6526620984077454,0.3040923774242401
3,4,128,2,0.5366477370262146,0.18215742707252502
3,4,128,3,0.40250107645988464,0.10098890215158463
3,4,128,4,0.6516742706298828,0.26963311433792114
3,4,128,5,0.765106201171875,0.15095651149749756
3,4,128,6,0.6539013981819153,0.1856929361820221
3,4,128,7,0.7053278088569641,0.24305643141269684
3,4,128,8,0.7187438607215881,0.21351923048496246
3,4,128,9,0.7766094207763672,0.15658605098724365
3,4,128,10,0.7242589592933655,0.2435903698205948
3,4,128,11,0.6800732612609863,0.29861417412757874
3,4,128,12,0.6948332786560059,0.2431972324848175
3,4,128,13,0.5822949409484863,0.17869152128696442
3,4,128,14,0.5655190944671631,0.08039937168359756
3,4,128,15,0.38484397530555725,0.10750783234834671
3,4,128,16,0.29638606309890747,0.06607409566640854
3,4,128,17,0.6054401397705078,0.046561069786548615
3,4,128,18,0.4786756634712219,0.18874967098236084
3,4,128,19,0.7389936447143555,0.1345866620540619
3,4,128,20,0.39187943935394287,0.1653430461883545
3,4,128,21,0.36572927236557007,0.1457972526550293
3,4,128,22,0.7191677093505859,0.21249796450138092
3,4,128,23,0.3492089509963989,0.09842861443758011
3,4,128,24,0.6393629908561707,0.20065352320671082
3,4,128,25,0.5129513144493103,0.08000357449054718
3,4,128,26,0.7682854533195496,0.1467311531305313
3,4,128,27,0.7225648760795593,0.23416535556316376
3,4,128,28,0.5320737957954407,0.15012800693511963
3,4,128,29,0.4213747978210449,0.12885145843029022
3,4,128,30,0.7351133823394775,0.12438885122537613
3,4,128,31,0.5177059173583984,0.1215280070900917
3,4,128,32,0.45907869935035706,0.14691559970378876
3,4,128,33,0.31021296977996826,0.19789107143878937
3,4,128,34,0.4860660135746002,0.14944612979888916
3,4,128,35,0.4752950966358185,0.10112129151821136
3,4,128,36,0.4549722373485565,0.1031210795044899
3,4,128,37,0.622879683971405,0.10985635966062546
3,4,128,38,0.44658082723617554,0.057121556252241135
3,4,128,39,0.3661675751209259,0.16766272485256195
3,4,128,40,0.5331095457077026,0.16863936185836792
3,4,128,41,0.5699465870857239,0.12064249813556671
3,4,128,42,0.4035845994949341,0.1161058247089386
3,4,128,43,0.5331802368164062,0.11845586448907852
3,4,128,44,0.2866441607475281,0.12120093405246735
3,4,128,45,0.560741662979126,0.04496658593416214
3,4,128,46,0.5702102780342102,0.09124327450990677
3,4,128,47,0.37609151005744934,0.17187850177288055
3,4,128,48,0.6305232644081116,0.21368850767612457
3,4,128,49,0.683456301689148,0.21312813460826874
3,4,128,50,0.5159980654716492,0.07379470765590668
3,4,128,51,0.7207772135734558,0.2497771978378296
3,4,128,52,0.7121768593788147,0.20679864287376404
3,4,128,53,0.4174861013889313,0.2414160966873169
3,4,128,54,0.5595958828926086,0.03657561540603638
3,4,128,55,0.7778058648109436,0.13680054247379303
3,4,128,56,0.7084794044494629,0.19956618547439575
3,4,128,57,0.4531435966491699,0.05943046137690544
3,4,128,58,0.6177898645401001,0.0624072402715683
3,4,128,59,0.5892462730407715,0.25150081515312195
3,4,128,60,0.6640981435775757,0.19178225100040436
3,4,128,61,0.3313291072845459,0.22536182403564453
3,4,128,62,0.5649205446243286,0.1453876495361328
3,4,128,63,0.39043697714805603,0.21715600788593292
3,4,128,64,0.6504306197166443,0.2565757632255554
3,4,128,65,0.4770670533180237,0.19792664051055908
3,4,128,66,0.470473051071167,0.18326540291309357
3,4,128,67,0.6594595909118652,0.24508322775363922
3,4,128,68,0.35216760635375977,0.15936687588691711
3,4,128,69,0.7481034994125366,0.1603587567806244
3,4,128,70,0.4431876838207245,0.04561437666416168
3,4,128,71,0.5649877190589905,0.14179570972919464
3,4,128,72,0.3606318533420563,0.17026367783546448
3,4,128,73,0.4422692656517029,0.05369561165571213
3,4,128,74,0.519956111907959,0.09158053994178772
3,4,128,75,0.4871470034122467,0.06500311940908432
3,4,128,76,0.5577751398086548,0.19285809993743896
3,4,128,77,0.31360897421836853,0.1750890016555786
3,4,128,78,0.37812697887420654,0.13175733387470245
3,4,128,79,0.6493291854858398,0.08128365874290466
3,4,128,80,0.6573731899261475,0.06459081918001175
3,4,128,81,0.604280948638916,0.12406205385923386
3,4,128,82,0.6523544788360596,0.2635710537433624
3,4,128,83,0.38482266664505005,0.08322752267122269
3,4,128,84,0.6618887186050415,0.2361002266407013
3,4,128,85,0.5621505379676819,0.2556193768978119
3,4,128,86,0.5306412577629089,0.09158862382173538
3,4,128,87,0.5734050273895264,0.059332504868507385
3,4,128,88,0.6949360966682434,0.1477203071117401
3,4,128,89,0.515358567237854,0.08260804414749146
3,4,128,90,0.6699560284614563,0.07567669451236725
3,4,128,91,0.6767628192901611,0.07328134775161743
3,4,128,92,0.6907171010971069,0.11775977164506912
3,4,128,93,0.39411231875419617,0.05434461683034897
3,4,128,94,0.35661256313323975,0.11883030831813812
3,4,128,95,0.6867146492004395,0.26459598541259766
3,4,128,96,0.5864152908325195,0.09743059426546097
3,4,128,97,0.7267187833786011,0.07397140562534332
3,4,128,98,0.4783075451850891,0.10271745175123215
3,4,128,99,0.6928976774215698,0.18293605744838715
3,4,128,100,0.6439281702041626,0.26232630014419556
3,4,128,101,0.25020676851272583,0.16417551040649414
3,4,128,102,0.34830716252326965,0.1207803413271904
3,4,128,103,0.7010043263435364,0.12493212521076202
3,4,128,104,0.4021545648574829,0.08797571808099747
3,4,128,105,0.7303491234779358,0.13978393375873566
3,4,128,106,0.6992389559745789,0.08511096239089966
3,4,128,107,0.538477897644043,0.11215083301067352
3,4,128,108,0.44271594285964966,0.1715696156024933
3,4,128,109,0.7989444732666016,0.17509958148002625
3,4,128,110,0.40857434272766113,0.16327577829360962
3,4,128,111,0.5775967240333557,0.18990804255008698
3,4,128,112,0.6057335138320923,0.054120469838380814
3,4,128,113,0.6451213359832764,0.23771880567073822
3,4,128,114,0.7123258113861084,0.26378554105758667
3,4,128,115,0.36287370324134827,0.09611941128969193
3,4,128,116,0.4850170910358429,0.1598721444606781
3,4,128,117,0.4309654235839844,0.08372972160577774
3,4,128,118,0.6720301508903503,0.21226924657821655
3,4,128,119,0.6259289383888245,0.31314411759376526
3,4,128,120,0.48643359541893005,0.04197274520993233
3,4,128,121,0.28007593750953674,0.2166493684053421
3,4,128,122,0.31331583857536316,0.068910613656044
3,4,128,123,0.69849693775177,0.11721585690975189
3,4,128,124,0.3472099006175995,0.11162033677101135
3,4,128,125,0.7155078649520874,0.13424824178218842
3,4,128,126,0.3489202857017517,0.13626554608345032
3,4,128,127,0.42743679881095886,0.13176491856575012
3,5,128,0,0.6126483678817749,0.168441042304039
3,5,128,1,0.4294716417789459,0.030422436073422432
3,5,128,2,0.4522274434566498,0.02450907975435257
3,5,128,3,0.49542221426963806,0.05818450450897217
3,5,128,4,0.5970627665519714,0.05395612120628357
3,5,128,5,0.5804184675216675,0.16500414907932281
3,5,128,6,0.4884577691555023,0.03605009987950325
3,5,128,7,0.5540074706077576,0.04946812242269516
3,5,128,8,0.5552679300308228,0.10406719893217087
3,5,128,9,0.6850301027297974,0.10961360484361649
3,5,128,10,0.5638836622238159,0.06453600525856018
3,5,128,11,0.7009342908859253,0.07282256335020065
3,5,128,12,0.5905472040176392,0.052582912147045135
3,5,128,13,0.43699559569358826,0.08143638074398041
3,5,128,14,0.5339162349700928,0.04840950295329094
3,5,128,15,0.5714559555053711,0.12026380747556686
3,5,128,16,0.3219242990016937,0.07846938073635101
3,5,128,17,0.5622013807296753,0.10442111641168594
3,5,128,18,0.5341352224349976,0.0404718741774559
3,5,128,19,0.48649469017982483,0.054818086326122284
3,5,128,20,0.4898477792739868,0.0815325379371643
3,5,128,21,0.5744473934173584,0.12846945226192474
3,5,128,22,0.5823575854301453,0.05877978727221489
3,5,128,23,0.44078773260116577,0.10931689292192459
3,5,128,24,0.49703341722488403,0.0699797123670578
3,5,128,25,0.4186791777610779,0.02532912977039814
3,5,128,26,0.66074138879776,0.10403335839509964
3,5,128,27,0.6390666365623474,0.10303915292024612
3,5,128,28,0.47280818223953247,0.05555279925465584
3,5,128,29,0.4852945804595947,0.02806924469769001
3,5,128,30,0.5877343416213989,0.14472779631614685
3,5,128,31,0.5471208095550537,0.09598404914140701
3,5,128,32,0.43060174584388733,0.0660495012998581
3,5,128,33,0.5099037289619446,0.10332699865102768
3,5,128,34,0.5188964605331421,0.06319368630647659
3,5,128,35,0.5490368604660034,0.04219219088554382
3,5,128,36,0.5991166234016418,0.17261312901973724
3,5,128,37,0.6146445870399475,0.08311489969491959
3,5,128,38,0.472400963306427,0.13238611817359924
3,5,128,39,0.4796391725540161,0.05277988314628601
3,5,128,40,0.4912671446800232,0.03778534010052681
3,5,128,41,0.5015015602111816,0.07135093957185745
3,5,128,42,0.5013827681541443,0.06903865933418274
3,5,128,43,0.5380944609642029,0.08361370861530304
3,5,128,44,0.4064764678478241,0.0330856516957283
3,5,128,45,0.5195959210395813,0.06702935695648193
3,5,128,46,0.5165666341781616,0.041255850344896317
3,5,128,47,0.49350422620773315,0.09422284364700317
3,5,128,48,0.4310065507888794,0.03480143845081329
3,5,128,49,0.6304022073745728,0.05404823273420334
3,5,128,50,0.4484635293483734,0.08700047433376312
3,5,128,51,0.44535529613494873,0.021153248846530914
3,5,128,52,0.5638436675071716,0.054017771035432816
3,5,128,53,0.5053281188011169,0.042249854654073715
3,5,128,54,0.5682315826416016,0.10647541284561157
3,5,128,55,0.5873585343360901,0.09221198409795761
3,5,128,56,0.5023462772369385,0.028818711638450623
3,5,128,57,0.4598090648651123,0.041376762092113495
3,5,128,58,0.46975472569465637,0.027953537181019783
3,5,128,59,0.5155960321426392,0.06796295195817947
3,5,128,60,0.5174029469490051,0.06705880910158157
3,5,128,61,0.5782984495162964,0.05556178465485573
3,5,128,62,0.47577694058418274,0.06546738743782043
3,5,128,63,0.4167211949825287,0.07224346697330475
3,5,128,64,0.5429283976554871,0.11070749163627625
3,5,128,65,0.4998904764652252,0.04413045942783356
3,5,128,66,0.5238924622535706,0.09299081563949585
3,5,128,67,0.5583088397979736,0.04103607311844826
3,5,128,68,0.4056903123855591,0.10992477089166641
3,5,128,69,0.566476583480835,0.05465204268693924
3,5,128,70,0.4725610911846161,0.05188693106174469
3,5,128,71,0.468601793050766,0.038397494703531265
3,5,128,72,0.4565746784210205,0.07919756323099136
3,5,128,73,0.5283597111701965,0.12977908551692963
3,5,128,74,0.5470255613327026,0.05900530517101288
3,5,128,75,0.611961305141449,0.09974104911088943
3,5,128,76,0.5671924352645874,0.103457011282444
3,5,128,77,0.39730608463287354,0.07300522923469543
3,5,128,78,0.545109212398529,0.047486383467912674
3,5,128,79,0.5508663654327393,0.06276577711105347
3,5,128,80,0.507655918598175,0.03400328382849693
3,5,128,81,0.44484943151474,0.07176121324300766
3,5,128,82,0.6370486617088318,0.058131180703639984
3,5,128,83,0.4768510162830353,0.052727483212947845
3,5,128,84,0.5325704216957092,0.08690053969621658
3,5,128,85,0.5553179979324341,0.06686345487833023
3,5,128,86,0.5205820798873901,0.04422580078244209
3,5,128,87,0.6006824970245361,0.04582442715764046
3,5,128,88,0.6208972334861755,0.11104852706193924
3,5,128,89,0.5868319869041443,0.11779499053955078
3,5,128,90,0.5192992091178894,0.062283094972372055
3,5,128,91,0.4244208037853241,0.06145493686199188
3,5,128,92,0.5038803815841675,0.0827794224023819
3,5,128,93,0.48726266622543335,0.04036584869027138
3,5,128,94,0.40312662720680237,0.0703321024775505
3,5,128,95,0.6460747122764587,0.13364531099796295
3,5,128,96,0.49468836188316345,0.08263184130191803
3,5,128,97,0.5633001923561096,0.05404895544052124
3,5,128,98,0.4876899719238281,0.07489322870969772
3,5,128,99,0.6276013255119324,0.08616427332162857
3,5,128,100,0.47875669598579407,0.07160817831754684
3,5,128,101,0.4728062152862549,0.07226118445396423
3,5,128,102,0.6136521697044373,0.10091917961835861
3,5,128,103,0.6328502893447876,0.10627231746912003
3,5,128,104,0.5477439165115356,0.07259280234575272
3,5,128,105,0.5756474137306213,0.05767335370182991
3,5,128,106,0.5048332810401917,0.04078924283385277
3,5,128,107,0.6138684749603271,0.08784642070531845
3,5,128,108,0.5727930068969727,0.05551770329475403
3,5,128,109,0.5244078040122986,0.06316255033016205
3,5,128,110,0.48266297578811646,0.04499853402376175
3,5,128,111,0.4465743601322174,0.04145792871713638
3,5,128,112,0.46662014722824097,0.0614517405629158
3,5,128,113,0.4250555634498596,0.0554187037050724
3,5,128,114,0.5493801832199097,0.05142292007803917
3,5,128,115,0.4158465266227722,0.054697196930646896
3,5,128,116,0.4927731454372406,0.05224967747926712
3,5,128,117,0.42812851071357727,0.07688499242067337
3,5,128,118,0.43104836344718933,0.08319910615682602
3,5,128,119,0.4168429970741272,0.05550559237599373
3,5,128,120,0.5316348671913147,0.06718898564577103
3,5,128,121,0.5388673543930054,0.08044049143791199
3,5,128,122,0.6004678606987,0.1232294887304306
3,5,128,123,0.6833112835884094,0.10999542474746704
3,5,128,124,0.5226086378097534,0.06743531674146652
3,5,128,125,0.594176709651947,0.08443482220172882
3,5,128,126,0.5103168487548828,0.03119853511452675
3,5,128,127,0.3173815608024597,0.05930958688259125
4,0,32,0,0.50970458984375,0.10882186889648438
4,0,32,1,0.5910922288894653,0.11760446429252625
4,0,32,2,0.35557445883750916,0.08406884223222733
4,0,32,3,0.5188243389129639,0.10276701301336288
4,0,32,4,0.4119543135166168,0.04003221541643143
4,0,32,5,0.4729454517364502,0.09080330282449722
4,0,32,6,0.6327794194221497,0.042483169585466385
4,0,32,7,0.48305851221084595,0.014206541702151299
4,0,32,8,0.5937572717666626,0.08917991816997528
4,0,32,9,0.4208545684814453,0.08000286668539047
4,0,32,10,0.46390411257743835,0.10591703653335571
4,0,32,11,0.6324582695960999,0.10008235275745392
4,0,32,12,0.4246310293674469,0.041586048901081085
4,0,32,13,0.6508756875991821,0.08594406396150589
4,0,32,14,0.6171246767044067,0.07287263125181198
4,0,32,15,0.5267746448516846,0.04505037143826485
4,0,32,16,0.5189580917358398,0.12215510755777359
4,0,32,17,0.3491568863391876,0.09669860452413559
4,0,32,18,0.40421155095100403,0.09560402482748032
4,0,32,19,0.5317846536636353,0.09077281504869461
4,0,32,20,0.422115683555603,0.03414459526538849
4,0,32,21,0.4358401894569397,0.09827917814254761
4,0,32,22,0.5728551149368286,0.06544441729784012
4,0,32,23,0.4314174950122833,0.020135609433054924
4,0,32,24,0.6610523462295532,0.07011143118143082
4,0,32,25,0.573006808757782,0.10553520172834396
4,0,32,26,0.4619486331939697,0.12324155122041702
4,0,32,27,0.34342968463897705,0.0955396443605423
4,0,32,28,0.48989608883857727,0.10006899386644363
4,0,32,29,0.5280086994171143,0.05092659592628479
4,0,32,30,0.5252726078033447,0.01963930018246174
4,0,32,31,0.4333837628364563,0.13223224878311157
4,1,32,0,0.42891260981559753,0.0688609778881073
4,1,32,1,0.4585350751876831,0.046014197170734406
4,1,32,2,0.39427998661994934,0.014255311340093613
4,1,32,3,0.4009350538253784,0.05541985109448433
4,1,32,4,0.4934874176979065,0.07927624136209488
4,1,32,5,0.48324212431907654,0.08382119238376617
4,1,32,6,0.4565764367580414,0.07250629365444183
4,1,32,7,0.6198003888130188,0.05073004215955734
4,1,32,8,0.3813709318637848,0.032218415290117264
4,1,32,9,0.5570135116577148,0.043675411492586136
4,1,32,10,0.5685509443283081,0.0943571925163269
4,1,32,11,0.3260924518108368,0.08662600070238113
4,1,32,12,0.5289723873138428,0.09821516275405884
4,1,32,13,0.41320177912712097,0.05353041738271713
4,1,32,14,0.39271649718284607,0.07853978872299194
4,1,32,15,0.42238107323646545,0.09963814169168472
4,1,32,16,0.5500328540802002,0.04434588924050331
4,1,32,17,0.43581682443618774,0.09896628558635712
4,1,32,18,0.4255530834197998,0.04741077125072479
4,1,32,19,0.35527703166007996,0.05837468430399895
4,1,32,20,0.5437455177307129,0.1630222201347351
4,1,32,21,0.3818965554237366,0.03874212130904198
4,1,32,22,0.5680577158927917,0.04265522211790085
4,1,32,23,0.48879966139793396,0.031419768929481506
4,1,32,24,0.5362597107887268,0.012844300828874111
4,1,32,25,0.5910685658454895,0.05560356751084328
4,1,32,26,0.3003831207752228,0.1196775734424591
4,1,32,27,0.5795169472694397,0.055435970425605774
4,1,32,28,0.42538025975227356,0.07213502377271652
4,1,32,29,0.4329027831554413,0.04510324448347092
4,1,32,30,0.4340837895870209,0.09934012591838837
4,1,32,31,0.5628300905227661,0.09635006636381149
4,2,64,0,0.6192335486412048,0.17183539271354675
4,2,64,1,0.6311743259429932,0.05016963928937912
4,2,64,2,0.38877350091934204,0.10442312806844711
4,2,64,3,0.5624054670333862,0.1438932716846466
4,2,64,4,0.4206281900405884,0.05209638923406601
4,2,64,5,0.3354981243610382,0.10866813361644745
4,2,64,6,0.5788713693618774,0.1037263348698616
4,2,64,7,0.5279970169067383,0.12663817405700684
4,2,64,8,0.39220401644706726,0.1220589131116867
4,2,64,9,0.37831026315689087,0.18691058456897736
4,2,64,10,0.5056316256523132,0.06153792887926102
4,2,64,11,0.448515385389328,0.14881113171577454
4,2,64,12,0.6105589866638184,0.14050573110580444
4,2,64,13,0.47393205761909485,0.10928334295749664
4,2,64,14,0.48232191801071167,0.13205412030220032
4,2,64,15,0.5292463302612305,0.121767558157444
4,2,64,16,0.3582604229450226,0.1196080818772316
4,2,64,17,0.38246995210647583,0.06548716127872467
4,2,64,18,0.5770140886306763,0.1603846549987793
4,2,64,19,0.4960373342037201,0.11184821277856827
4,2,64,20,0.5147032141685486,0.17744986712932587
4,2,64,21,0.6446181535720825,0.11876711994409561
4,2,64,22,0.44174420833587646,0.057439275085926056
4,2,64,23,0.5372955799102783,0.16996854543685913
4,2,64,24,0.5236060619354248,0.18733926117420197
4,2,64,25,0.3740978240966797,0.12298693507909775
4,2,64,26,0.41565176844596863,0.20735925436019897
4,2,64,27,0.377507746219635,0.26656249165534973
4,2,64,28,0.49081090092658997,0.09105143696069717
4,2,64,29,0.7333542108535767,0.09194149076938629
4,2,64,30,0.39767003059387207,0.08768103271722794
4,2,64,31,0.5169834494590759,0.039546284824609756
4,2,64,32,0.47466740012168884,0.15625686943531036
4,2,64,33,0.5957576632499695,0.20295970141887665
4,2,64,34,0.32296979427337646,0.14675742387771606
4,2,64,35,0.562698483467102,0.17473788559436798
4,2,64,36,0.5647177696228027,0.08509216457605362
4,2,64,37,0.4991237223148346,0.151932954788208
4,2,64,38,0.4977971315383911,0.1002255454659462
4,2,64,39,0.31753695011138916,0.0837055891752243
4,2,64,40,0.5227702260017395,0.17769908905029297
4,2,64,41,0.30531418323516846,0.11824499815702438
4,2,64,42,0.4364945590496063,0.09261877834796906
4,2,64,43,0.5215307474136353,0.16579188406467438
4,2,64,44,0.4897666871547699,0.10810055583715439
4,2,64,45,0.37704846262931824,0.11741994321346283
4,2,64,46,0.46764424443244934,0.15501971542835236
4,2,64,47,0.5363994836807251,0.12447518110275269
4,2,64,48,0.45116499066352844,0.12506121397018433
4,2,64,49,0.6245635747909546,0.08050362765789032
4,2,64,50,0.4256512224674225,0.11166898161172867
4,2,64,51,0.3190602958202362,0.15672622621059418
4,2,64,52,0.5236369967460632,0.10157636553049088
4,2,64,53,0.5141154527664185,0.0908084362745285
4,2,64,54,0.48995599150657654,0.06709963083267212
4,2,64,55,0.458561509847641,0.25734463334083557
4,2,64,56,0.6167734265327454,0.1890752762556076
4,2,64,57,0.5488539338111877,0.19782622158527374
4,2,64,58,0.5052778124809265,0.1797119379043579
4,2,64,59,0.402037650346756,0.14981573820114136
4,2,64,60,0.3785605728626251,0.12405117601156235
4,2,64,61,0.5524493455886841,0.13140980899333954
4,2,64,62,0.5110485553741455,0.09538298100233078
4,2,64,63,0.434320330619812,0.1286201775074005
4,3,64,0,0.6019341349601746,0.09043698757886887
4,3,64,1,0.46912920475006104,0.07034480571746826
4,3,64,2,0.5457356572151184,0.043443575501441956
4,3,64,3,0.41175615787506104,0.08069223910570145
4,3,64,4,0.4814945459365845,0.09388840198516846
4,3,64,5,0.5475431084632874,0.10108184069395065
4,3,64,6,0.4334207773208618,0.08872243016958237
4,3,64,7,0.4644116759300232,0.07178524881601334
4,3,64,8,0.5694249868392944,0.1705581247806549
4,3,64,9,0.6455765962600708,0.04322332143783569
4,3,64,10,0.5056905746459961,0.1835634708404541
4,3,64,11,0.47918635606765747,0.10698477923870087
4,3,64,12,0.49823084473609924,0.07577645033597946
4,3,64,13,0.5550790429115295,0.09672483056783676
4,3,64,14,0.58133465051651,0.1314077079296112
4,3,64,15,0.43827885389328003,0.11725734919309616
4,3,64,16,0.42492157220840454,0.10770221054553986
4,3,64,17,0.44816479086875916,0.20630742609500885
4,3,64,18,0.5040686130523682,0.09824928641319275
4,3,64,19,0.5056738257408142,0.11143770068883896
4,3,64,20,0.5166439414024353,0.1900581568479538
4,3,64,21,0.6638667583465576,0.06996502727270126
4,3,64,22,0.41877007484436035,0.12206610292196274
4,3,64,23,0.41592100262641907,0.14072084426879883
4,3,64,24,0.4706788659095764,0.05787067115306854
4,3,64,25,0.5363965034484863,0.13449811935424805
4,3,64,26,0.420643150806427,0.07351450622081757
4,3,64,27,0.4875819683074951,0.061318136751651764
4,3,64,28,0.45185163617134094,0.10291852056980133
4,3,64,29,0.6099017858505249,0.15349312126636505
4,3,64,30,0.39966174960136414,0.0819067656993866
4,3,64,31,0.4905923008918762,0.09156747907400131
4,3,64,32,0.3361783027648926,0.07832680642604828
4,3,64,33,0.27025821805000305,0.1253162920475006
4,3,64,34,0.4299512803554535,0.1642264425754547
4,3,64,35,0.6410130858421326,0.08866523206233978
4,3,64,36,0.4510791003704071,0.09265093505382538
4,3,64,37,0.5658181309700012,0.09327158331871033
4,3,64,38,0.5492966175079346,0.1461314857006073
4,3,64,39,0.4302096366882324,0.08533008396625519
4,3,64,40,0.4469134509563446,0.10581231862306595
4,3,64,41,0.4449700117111206,0.13786932826042175
4,3,64,42,0.360317587852478,0.05041161924600601
4,3,64,43,0.4045808017253876,0.1319252997636795
4,3,64,44,0.41608351469039917,0.06617496907711029
4,3,64,45,0.4866282641887665,0.07971937954425812
4,3,64,46,0.5572094917297363,0.13346916437149048
4,3,64,47,0.521820068359375,0.09420131891965866
4,3,64,48,0.5616084933280945,0.06860845535993576
4,3,64,49,0.6249921321868896,0.06230788677930832
4,3,64,50,0.3936690092086792,0.13110986351966858
4,3,64,51,0.4386810064315796,0.12980832159519196
4,3,64,52,0.3787529170513153,0.1636756807565689
4,3,64,53,0.5987455248832703,0.033037371933460236
4,3,64,54,0.4505762755870819,0.06181066483259201
4,3,64,55,0.4265215992927551,0.03259054198861122
4,3,64,56,0.35326507687568665,0.1359422653913498
4,3,64,57,0.5140602588653564,0.0505838505923748
4,3,64,58,0.49283963441848755,0.09653742611408234
4,3,64,59,0.6486448049545288,0.06404674053192139
4,3,64,60,0.4186863601207733,0.09686007350683212
4,3,64,61,0.5724417567253113,0.10230562835931778
4,3,64,62,0.41500771045684814,0.07821513712406158
4,3,64,63,0.5952041149139404,0.07752509415149689
4,4,128,0,0.603076159954071,0.3000209927558899
4,4,128,1,0.5807977318763733,0.22788409888744354
4,4,128,2,0.7289334535598755,0.1699230819940567
4,4,128,3,0.6467903852462769,0.24622923135757446
4,4,128,4,0.7754221558570862,0.1334778070449829
4,4,128,5,0.6568068861961365,0.28859370946884155
4,4,128,6,0.6284947991371155,0.2783968448638916
4,4,128,7,0.3247911334037781,0.2638493478298187
4,4,128,8,0.4703112840652466,0.2969406843185425
4,4,128,9,0.6899816393852234,0.07382874935865402
4,4,128,10,0.6383639574050903,0.2855915427207947
4,4,128,11,0.3808630108833313,0.2447388917207718
4,4,128,12,0.6550443172454834,0.245538130402565
4,4,128,13,0.526353657245636,0.24098803102970123
4,4,128,14,0.5726509094238281,0.16610106825828552
4,4,128,15,0.5380772948265076,0.09046365320682526
4,4,128,16,0.5929673910140991,0.08517269790172577
4,4,128,17,0.6668906807899475,0.20575718581676483
4,4,128,18,0.24696914851665497,0.14827822148799896
4,4,128,19,0.6226458549499512,0.05450484901666641
4,4,128,20,0.44162604212760925,0.26901334524154663
4,4,128,21,0.7380082607269287,0.09434368461370468
4,4,128,22,0.2983126938343048,0.21488483250141144
4,4,128,23,0.6510254144668579,0.3017534911632538
4,4,128,24,0.632960319519043,0.14751212298870087
4,4,128,25,0.7712275981903076,0.11757767200469971
4,4,128,26,0.29101163148880005,0.13509505987167358
4,4,128,27,0.6427648067474365,0.3005514144897461
4,4,128,28,0.6993113160133362,0.22283601760864258
4,4,128,29,0.4618821144104004,0.20967601239681244
4,4,128,30,0.40378692746162415,0.3287057876586914
4,4,128,31,0.7247553467750549,0.1670791208744049
4,4,128,32,0.6793196201324463,0.09478925913572311
4,4,128,33,0.7497269511222839,0.18059450387954712
4,4,128,34,0.7909180521965027,0.08992253243923187
4,4,128,35,0.571786105632782,0.2982526421546936
4,4,128,36,0.6220460534095764,0.26722216606140137
4,4,128,37,0.46711862087249756,0.034454841166734695
4,4,128,38,0.317988783121109,0.25451165437698364
4,4,128,39,0.5558937191963196,0.158098965883255
4,4,128,40,0.46523231267929077,0.16188500821590424
4,4,128,41,0.5752737522125244,0.11524345725774765
4,4,128,42,0.687210202217102,0.2122214138507843
4,4,128,43,0.7482149600982666,0.17315056920051575
4,4,128,44,0.3369719088077545,0.27742502093315125
4,4,128,45,0.44034072756767273,0.2886025607585907
4,4,128,46,0.6718519926071167,0.17212419211864471
4,4,128,47,0.5754324793815613,0.26377275586128235
4,4,128,48,0.5992248058319092,0.08696260303258896
4,4,128,49,0.6173722147941589,0.24443307518959045
4,4,128,50,0.7268149256706238,0.203714519739151
4,4,128,51,0.7232635021209717,0.222260981798172
4,4,128,52,0.46650147438049316,0.3524639308452606
4,4,128,53,0.627959668636322,0.07391271740198135
4,4,128,54,0.3973061740398407,0.2251306027173996
4,4,128,55,0.6365486979484558,0.06849347054958344
4,4,128,56,0.676323652267456,0.24574746191501617
4,4,128,57,0.7597771286964417,0.20729516446590424
4,4,128,58,0.45927393436431885,0.2858945429325104
4,4,128,59,0.46535545587539673,0.19698908925056458
4,4,128,60,0.3356460630893707,0.1791577935218811
4,4,128,61,0.5788333415985107,0.17259077727794647
4,4,128,62,0.3208436667919159,0.16844947636127472
4,4,128,63,0.509867787361145,0.05234941467642784
4,4,128,64,0.685329020023346,0.26852357387542725
4,4,128,65,0.4355526268482208,0.22135214507579803
4,4,128,66,0.6646641492843628,0.23541824519634247
4,4,128,67,0.4340357184410095,0.12528972327709198
4,4,128,68,0.7804687023162842,0.12517160177230835
4,4,128,69,0.43577662110328674,0.10651780664920807
4,4,128,70,0.5805613398551941,0.11895399540662766
4,4,128,71,0.5129805207252502,0.2017655074596405
4,4,128,72,0.6384613513946533,0.3144027292728424
4,4,128,73,0.3700478971004486,0.08864707499742508
4,4,128,74,0.5490804314613342,0.1489585041999817
4,4,128,75,0.2640695869922638,0.14069253206253052
4,4,128,76,0.5100590586662292,0.1384574919939041
4,4,128,77,0.5837017297744751,0.17673498392105103
4,4,128,78,0.6596881151199341,0.21798239648342133
4,4,128,79,0.694239616394043,0.06728605926036835
4,4,128,80,0.36891603469848633,0.24713413417339325
4,4,128,81,0.5793260931968689,0.07625055313110352
4,4,128,82,0.5837830901145935,0.0910513699054718
4,4,128,83,0.7759151458740234,0.09762291610240936
4,4,128,84,0.70841383934021,0.2056974619626999
4,4,128,85,0.4583567678928375,0.12803849577903748
4,4,128,86,0.5654734373092651,0.09536996483802795
4,4,128,87,0.4380824565887451,0.31278276443481445
4,4,128,88,0.46212130784988403,0.38450050354003906
4,4,128,89,0.38586002588272095,0.08905015140771866
4,4,128,90,0.41126129031181335,0.31590622663497925
4,4,128,91,0.5575953125953674,0.18146798014640808
4,4,128,92,0.44713106751441956,0.21554338932037354
4,4,128,93,0.48642653226852417,0.16146306693553925
4,4,128,94,0.6405724287033081,0.25184598565101624
4,4,128,95,0.41246625781059265,0.29257628321647644
4,4,128,96,0.5973600149154663,0.16025178134441376
4,4,128,97,0.7553215026855469,0.14502541720867157
4,4,128,98,0.5605645775794983,0.14583511650562286
4,4,128,99,0.5240529775619507,0.2251431941986084
4,4,128,100,0.7398088574409485,0.20097602903842926
4,4,128,101,0.2905844748020172,0.1775849610567093
4,4,128,102,0.7358956336975098,0.16903561353683472
4,4,128,103,0.3621680438518524,0.11760314553976059
4,4,128,104,0.39759722352027893,0.09812122583389282
4,4,128,105,0.3439593017101288,0.20761914551258087
4,4,128,106,0.673770010471344,0.24884438514709473
4,4,128,107,0.6814058423042297,0.22114646434783936
4,4,128,108,0.6419650316238403,0.09590912610292435
4,4,128,109,0.8045192956924438,0.11779942363500595
4,4,128,110,0.5091917514801025,0.07578793168067932
4,4,128,111,0.6854419112205505,0.24883486330509186
4,4,128,112,0.4967191517353058,0.10506284236907959
4,4,128,113,0.4345071315765381,0.16931402683258057
4,4,128,114,0.4544525444507599,0.3401834964752197
4,4,128,115,0.4167156219482422,0.11192546039819717
4,4,128,116,0.7193456292152405,0.10437971353530884
4,4,128,117,0.5862800478935242,0.07172932475805283
4,4,128,118,0.45343899726867676,0.1325269192457199
4,4,128,119,0.5800119638442993,0.20259110629558563
4,4,128,120,0.43019017577171326,0.28542616963386536
4,4,128,121,0.6005239486694336,0.24024789035320282
4,4,128,122,0.5929281711578369,0.04220522940158844
4,4,128,123,0.4530087113380432,0.16520068049430847
4,4,128,124,0.7014290690422058,0.19915734231472015
4,4,128,125,0.3246205449104309,0.11974700540304184
4,4,128,126,0.6626737117767334,0.2565034031867981
4,4,128,127,0.6017951965332031,0.20793406665325165
4,5,128,0,0.5921211242675781,0.08096925169229507
4,5,128,1,0.6303601264953613,0.19439642131328583
4,5,128,2,0.5851426124572754,0.15915381908416748
4,5,128,3,0.5920988321304321,0.10384209454059601
4,5,128,4,0.6512888669967651,0.11544596403837204
4,5,128,5,0.702382504940033,0.1269550621509552
4,5,128,6,0.6800097823143005,0.14701922237873077
4,5,128,7,0.3759646713733673,0.115227609872818
4,5,128,8,0.5349547863006592,0.1567976325750351
4,5,128,9,0.6670641899108887,0.1571453958749771
4,5,128,10,0.527644693851471,0.14141565561294556
4,5,128,11,0.48967692255973816,0.08751983940601349
4,5,128,12,0.5958122611045837,0.21527811884880066
4,5,128,13,0.5106988549232483,0.06924264878034592
4,5,128,14,0.6602807641029358,0.10407902300357819
4,5,128,15,0.43172499537467957,0.18350423872470856
4,5,128,16,0.5537868142127991,0.039253298193216324
4,5,128,17,0.6090214848518372,0.08209249377250671
4,5,128,18,0.3423268496990204,0.057526130229234695
4,5,128,19,0.611086368560791,0.09043919295072556
4,5,128,20,0.7140727639198303,0.12458730489015579
4,5,128,21,0.7673167586326599,0.0861511379480362
4,5,128,22,0.5065903067588806,0.11307348310947418
4,5,128,23,0.5663777589797974,0.15838418900966644
4,5,128,24,0.656903088092804,0.22298304736614227
4,5,128,25,0.6899431347846985,0.10861250758171082
4,5,128,26,0.5334673523902893,0.2528457045555115
4,5,128,27,0.6504215598106384,0.1560000777244568
4,5,128,28,0.5827900171279907,0.11284397542476654
4,5,128,29,0.727729320526123,0.08744915574789047
4,5,128,30,0.3852754831314087,0.12172706425189972
4,5,128,31,0.6623600125312805,0.12245256453752518
4,5,128,32,0.6132612228393555,0.1694277822971344
4,5,128,33,0.6308251619338989,0.19660723209381104
4,5,128,34,0.7147583365440369,0.1027759239077568
4,5,128,35,0.5914670825004578,0.2285550832748413
4,5,128,36,0.6528955101966858,0.13193020224571228
4,5,128,37,0.6063270568847656,0.14523769915103912
4,5,128,38,0.4906438887119293,0.07697487622499466
4,5,128,39,0.7012563943862915,0.1901831477880478
4,5,128,40,0.44010984897613525,0.10892733931541443
4,5,128,41,0.6503539085388184,0.1538732647895813
4,5,128,42,0.613193690776825,0.2038441151380539
4,5,128,43,0.6360414624214172,0.18734999001026154
4,5,128,44,0.4152825176715851,0.05980409309267998
4,5,128,45,0.5016499757766724,0.12339166551828384
4,5,128,46,0.7336714863777161,0.12288302928209305
4,5,128,47,0.6078717112541199,0.1811869591474533
4,5,128,48,0.665680468082428,0.1376040130853653
4,5,128,49,0.7529175281524658,0.12111714482307434
4,5,128,50,0.7883114218711853,0.10295254737138748
4,5,128,51,0.6831786036491394,0.17731428146362305
4,5,128,52,0.7911340594291687,0.09660268574953079
4,5,128,53,0.8199670910835266,0.09002180397510529
4,5,128,54,0.6465033888816833,0.08435880392789841
4,5,128,55,0.5445075035095215,0.19821488857269287
4,5,128,56,0.6293414235115051,0.07855121046304703
4,5,128,57,0.5847191214561462,0.11353963613510132
4,5,128,58,0.5567477941513062,0.18827030062675476
4,5,128,59,0.6392214298248291,0.15907733142375946
4,5,128,60,0.4583294689655304,0.15644563734531403
4,5,128,61,0.5014307498931885,0.08906502276659012
4,5,128,62,0.37546971440315247,0.16549624502658844
4,5,128,63,0.3736000061035156,0.15799571573734283
4,5,128,64,0.7243276834487915,0.1452009677886963
4,5,128,65,0.6197679042816162,0.06772499531507492
4,5,128,66,0.6077224612236023,0.195162832736969
4,5,128,67,0.3791828155517578,0.1304381936788559
4,5,128,68,0.5757235288619995,0.19507236778736115
4,5,128,69,0.6161981225013733,0.24962644279003143
4,5,128,70,0.4686969220638275,0.09207753092050552
4,5,128,71,0.4092935025691986,0.14311356842517853
4,5,128,72,0.6437406539916992,0.16212865710258484
4,5,128,73,0.5868989825248718,0.2855008840560913
4,5,128,74,0.413733571767807,0.09021913260221481
4,5,128,75,0.6512962579727173,0.10069359838962555
4,5,128,76,0.5011377930641174,0.08809476345777512
4,5,128,77,0.6337977051734924,0.16617991030216217
4,5,128,78,0.5848432779312134,0.21224737167358398
4,5,128,79,0.6791818141937256,0.15391495823860168
4,5,128,80,0.5861572623252869,0.173931285738945
4,5,128,81,0.5098512768745422,0.19851064682006836
4,5,128,82,0.682151734828949,0.10477051138877869
4,5,128,83,0.4120587706565857,0.17946627736091614
4,5,128,84,0.5780521035194397,0.18489621579647064
4,5,128,85,0.7538356184959412,0.11166542023420334
4,5,128,86,0.7121044993400574,0.09171252697706223
4,5,128,87,0.5073743462562561,0.20237532258033752
4,5,128,88,0.7017513513565063,0.14378966391086578
4,5,128,89,0.6220859289169312,0.19930362701416016
4,5,128,90,0.667539656162262,0.12242956459522247
4,5,128,91,0.7470664978027344,0.11094988882541656
4,5,128,92,0.6391257643699646,0.141510009765625
4,5,128,93,0.5897661447525024,0.0984061136841774
4,5,128,94,0.6763713359832764,0.10932863503694534
4,5,128,95,0.679822564125061,0.07952915132045746
4,5,128,96,0.6006544828414917,0.13379482924938202
4,5,128,97,0.6222456693649292,0.18623536825180054
4,5,128,98,0.5883159637451172,0.28292983770370483
4,5,128,99,0.6928410530090332,0.1272357851266861
4,5,128,100,0.5210824608802795,0.23067419230937958
4,5,128,101,0.6895208954811096,0.10982184112071991
4,5,128,102,0.6983019709587097,0.17190349102020264
4,5,128,103,0.6318860650062561,0.09360850602388382
4,5,128,104,0.4530831277370453,0.1101725846529007
4,5,128,105,0.4083564281463623,0.11734180897474289
4,5,128,106,0.6188115477561951,0.06592104583978653
4,5,128,107,0.6653208136558533,0.16233207285404205
4,5,128,108,0.6991969347000122,0.11419612169265747
4,5,128,109,0.47186610102653503,0.08752253651618958
4,5,128,110,0.5983355641365051,0.11570126563310623
4,5,128,111,0.7172234654426575,0.1275796890258789
4,5,128,112,0.5454624891281128,0.14924664795398712
4,5,128,113,0.6769382357597351,0.1065378189086914
4,5,128,114,0.5962919592857361,0.09066367894411087
4,5,128,115,0.6718892455101013,0.09685245156288147
4,5,128,116,0.6495152115821838,0.24952386319637299
4,5,128,117,0.6833058595657349,0.13421811163425446
4,5,128,118,0.41224145889282227,0.18253324925899506
4,5,128,119,0.5209258794784546,0.19974906742572784
4,5,128,120,0.5318416953086853,0.1531946212053299
4,5,128,121,0.5760858654975891,0.14138785004615784
4,5,128,122,0.7676438689231873,0.09486863017082214
4,5,128,123,0.6911544799804688,0.15045593678951263
4,5,128,124,0.6198657751083374,0.05366943031549454
4,5,128,125,0.664911687374115,0.14372368156909943
4,5,128,126,0.6200255155563354,0.10393443703651428
4,5,128,127,0.5763214230537415,0.09821251034736633
5,0,32,0,0.6273088455200195,0.050940267741680145
5,0,32,1,0.4126007556915283,0.10337498784065247
5,0,32,2,0.5718255639076233,0.08674008399248123
5,0,32,3,0.45913615822792053,0.08535515516996384
5,0,32,4,0.6564623117446899,0.10337744653224945
5,0,32,5,0.5278298854827881,0.04089196026325226
5,0,32,6,0.45366570353507996,0.10024092346429825
5,0,32,7,0.550836443901062,0.08423192799091339
5,0,32,8,0.45351406931877136,0.08922654390335083
5,0,32,9,0.580169677734375,0.08682813495397568
5,0,32,10,0.5325663089752197,0.1033378466963768
5,0,32,11,0.6132698059082031,0.08352481573820114
5,0,32,12,0.4056602418422699,0.06270574778318405
5,0,32,13,0.41549721360206604,0.0896964743733406
5,0,32,14,0.4273569881916046,0.05815768986940384
5,0,32,15,0.46154487133026123,0.0922677218914032
5,0,32,16,0.39429667592048645,0.09794861823320389
5,0,32,17,0.44193124771118164,0.10526155680418015
5,0,32,18,0.4890775978565216,0.06757248193025589
5,0,32,19,0.5183291435241699,0.08494413644075394
5,0,32,20,0.5466930270195007,0.08186990022659302
5,0,32,21,0.3347548544406891,0.09797941893339157
5,0,32,22,0.33058464527130127,0.064736008644104
5,0,32,23,0.48039624094963074,0.12042301893234253
5,0,32,24,0.331809401512146,0.08801379054784775
5,0,32,25,0.37158307433128357,0.06321819126605988
5,0,32,26,0.3540951609611511,0.06999962776899338
5,0,32,27,0.5686445832252502,0.0640135109424591
5,0,32,28,0.45848849415779114,0.05317006632685661
5,0,32,29,0.5125973224639893,0.10642580687999725
5,0,32,30,0.5650004744529724,0.07297064363956451
5,0,32,31,0.33964043855667114,0.07165338099002838
5,1,32,0,0.501991331577301,0.09555906057357788
5,1,32,1,0.5082789063453674,0.07658634334802628
5,1,32,2,0.3653390407562256,0.08725530654191971
5,1,32,3,0.48182204365730286,0.07092089205980301
5,1,32,4,0.3576791286468506,0.07525471597909927
5,1,32,5,0.581972062587738,0.14279845356941223
5,1,32,6,0.35602667927742004,0.08399143815040588
5,1,32,7,0.5292777419090271,0.062301408499479294
5,1,32,8,0.46945810317993164,0.08225331455469131
5,1,32,9,0.5891939401626587,0.026274921372532845
5,1,32,10,0.47484859824180603,0.07053623348474503
5,1,32,11,0.31393682956695557,0.10552971065044403
5,1,32,12,0.5398896336555481,0.10040633380413055
5,1,32,13,0.45567092299461365,0.12987202405929565
5,1,32,14,0.440202534198761,0.08216492086648941
5,1,32,15,0.513218104839325,0.09042992442846298
5,1,32,16,0.4386119842529297,0.1084221601486206
5,1,32,17,0.4054435193538666,0.13786454498767853
5,1,32,18,0.6602798700332642,0.05555376037955284
5,1,32,19,0.5343905091285706,0.07577012479305267
5,1,32,20,0.5424418449401855,0.10356376320123672
5,1,32,21,0.3487177789211273,0.0652143731713295
5,1,32,22,0.45472148060798645,0.09640000015497208
5,1,32,23,0.49159106612205505,0.02591422013938427
5,1,32,24,0.514789342880249,0.14570659399032593
5,1,32,25,0.5445671081542969,0.0870594009757042
5,1,32,26,0.5167955756187439,0.09503626823425293
5,1,32,27,0.43346500396728516,0.0359458364546299
5,1,32,28,0.46417030692100525,0.12136577814817429
5,1,32,29,0.5324578285217285,0.04626169800758362
5,1,32,30,0.5359437465667725,0.05555656552314758
5,1,32,31,0.4134156107902527,0.06179257109761238
5,2,64,0,0.3720242381095886,0.14528954029083252
5,2,64,1,0.4141591787338257,0.10488195717334747
5,2,64,2,0.4104890525341034,0.1285746693611145
5,2,64,3,0.3192342519760132,0.14965976774692535
5,2,64,4,0.4321635067462921,0.06694835424423218
5,2,64,5,0.32450076937675476,0.1690569818019867
5,2,64,6,0.5278671979904175,0.1409928798675537
5,2,64,7,0.3249792456626892,0.12676838040351868
5,2,64,8,0.36365798115730286,0.14950358867645264
5,2,64,9,0.3684091866016388,0.13656918704509735
5,2,64,10,0.3882346749305725,0.07312425225973129
5,2,64,11,0.6332090497016907,0.11983764916658401
5,2,64,12,0.6942970752716064,0.1624499410390854
5,2,64,13,0.597943902015686,0.1600794643163681
5,2,64,14,0.6136264204978943,0.10077274590730667
5,2,64,15,0.37091347575187683,0.14846639335155487
5,2,64,16,0.34813621640205383,0.13145503401756287
5,2,64,17,0.6754118204116821,0.15549585223197937
5,2,64,18,0.5492644309997559,0.11226607859134674
5,2,64,19,0.3177640736103058,0.15979288518428802
5,2,64,20,0.40824148058891296,0.1787257045507431
5,2,64,21,0.6479979157447815,0.14644809067249298
5,2,64,22,0.5706470012664795,0.18617691099643707
5,2,64,23,0.6303331851959229,0.14268144965171814
5,2,64,24,0.40290358662605286,0.13527876138687134
5,2,64,25,0.5835950374603271,0.11500056087970734
5,2,64,26,0.40207332372665405,0.04894400015473366
5,2,64,27,0.5074728727340698,0.1330929845571518
5,2,64,28,0.34861674904823303,0.1747957020998001
5,2,64,29,0.48101529479026794,0.1667555868625641
5,2,64,30,0.528730034828186,0.1406177580356598
5,2,64,31,0.47674560546875,0.12484502047300339
5,2,64,32,0.396864116191864,0.17010174691677094
5,2,64,33,0.4996485710144043,0.11745399981737137
5,2,64,34,0.38341036438941956,0.14379297196865082
5,2,64,35,0.6071287393569946,0.1421850323677063
5,2,64,36,0.4651806354522705,0.10214473307132721
5,2,64,37,0.5954921841621399,0.16661763191223145
5,2,64,38,0.31691643595695496,0.14992061257362366
5,2,64,39,0.6060481667518616,0.07740011066198349
5,2,64,40,0.582781195640564,0.09870196878910065
5,2,64,41,0.520592987537384,0.11395186930894852
5,2,64,42,0.5905093550682068,0.15742239356040955
5,2,64,43,0.4314046800136566,0.11736863106489182
5,2,64,44,0.4973764717578888,0.10223071277141571
5,2,64,45,0.52125084400177,0.04411497712135315
5,2,64,46,0.40866801142692566,0.07172267884016037
5,2,64,47,0.5871815085411072,0.15792571008205414
5,2,64,48,0.3623864948749542,0.1343446671962738
5,2,64,49,0.6503214836120605,0.05138307064771652
5,2,64,50,0.5401277542114258,0.1201634556055069
5,2,64,51,0.4527566432952881,0.17400327324867249
5,2,64,52,0.3377285897731781,0.07827714830636978
5,2,64,53,0.3742070496082306,0.19392290711402893
5,2,64,54,0.5667101144790649,0.13747121393680573
5,2,64,55,0.6560747027397156,0.16040769219398499
5,2,64,56,0.5250282287597656,0.1001487597823143
5,2,64,57,0.5392915606498718,0.14273980259895325
5,2,64,58,0.5517988204956055,0.06186586990952492
5,2,64,59,0.36381858587265015,0.18714302778244019
5,2,64,60,0.634141206741333,0.11412730813026428
5,2,64,61,0.3687064051628113,0.09981925785541534
5,2,64,62,0.3777759075164795,0.07952184230089188
5,2,64,63,0.6022814512252808,0.1354549378156662
5,3,64,0,0.590056300163269,0.11755146831274033
5,3,64,1,0.5833042860031128,0.06885255128145218
5,3,64,2,0.3683970868587494,0.13384726643562317
5,3,64,3,0.5372589230537415,0.0554438978433609
5,3,64,4,0.563123345375061,0.15363334119319916
5,3,64,5,0.40933606028556824,0.12017425149679184
5,3,64,6,0.636207640171051,0.13796097040176392
5,3,64,7,0.44560152292251587,0.0630197525024414
5,3,64,8,0.5259861350059509,0.027316328138113022
5,3,64,9,0.5353108048439026,0.1790562868118286
5,3,64,10,0.38710832595825195,0.07367384433746338
5,3,64,11,0.2984040081501007,0.16972267627716064
5,3,64,12,0.5650752782821655,0.074390709400177
5,3,64,13,0.5328567624092102,0.06628885120153427
5,3,64,14,0.4486258924007416,0.09910859912633896
5,3,64,15,0.5484554767608643,0.14819592237472534
5,3,64,16,0.2975083291530609,0.11839298158884048
5,3,64,17,0.6597407460212708,0.052132971584796906
5,3,64,18,0.38071849942207336,0.06605668365955353
5,3,64,19,0.5072479844093323,0.09991062432527542
5,3,64,20,0.6214826703071594,0.12073163688182831
5,3,64,21,0.4776932895183563,0.05294985696673393
5,3,64,22,0.4537343978881836,0.0886337086558342
5,3,64,23,0.382841020822525,0.13772578537464142
5,3,64,24,0.5816745758056641,0.1091473326086998
5,3,64,25,0.38484036922454834,0.11751974374055862
5,3,64,26,0.3563770651817322,0.05449174344539642
5,3,64,27,0.37950366735458374,0.08922658860683441
5,3,64,28,0.5722697377204895,0.10096240043640137
5,3,64,29,0.5967828631401062,0.10092062503099442
5,3,64,30,0.5625840425491333,0.10394546389579773
5,3,64,31,0.4844167232513428,0.06775878369808197
5,3,64,32,0.35988348722457886,0.0623081810772419
5,3,64,33,0.4611019790172577,0.046359121799468994
5,3,64,34,0.3376210629940033,0.06262848526239395
5,3,64,35,0.5254963040351868,0.06943031400442123
5,3,64,36,0.42435312271118164,0.0773027166724205
5,3,64,37,0.47370225191116333,0.06439158320426941
5,3,64,38,0.6061169505119324,0.08215921372175217
5,3,64,39,0.44436848163604736,0.17566846311092377
5,3,64,40,0.47194987535476685,0.060777612030506134
5,3,64,41,0.5239064693450928,0.03312108665704727
5,3,64,42,0.5521732568740845,0.08970694243907928
5,3,64,43,0.4144754409790039,0.07370321452617645
5,3,64,44,0.29259157180786133,0.12952588498592377
5,3,64,45,0.6045425534248352,0.06618758291006088
5,3,64,46,0.5896390676498413,0.10747915506362915
5,3,64,47,0.43630102276802063,0.06513424217700958
5,3,64,48,0.5376019477844238,0.06282320618629456
5,3,64,49,0.37645846605300903,0.058306869119405746
5,3,64,50,0.5055148601531982,0.06288174539804459
5,3,64,51,0.472805917263031,0.0689469575881958
5,3,64,52,0.5235875844955444,0.09020621329545975
5,3,64,53,0.4813765287399292,0.0644502341747284
5,3,64,54,0.4833332598209381,0.12637659907341003
5,3,64,55,0.6009806990623474,0.1346653550863266
5,3,64,56,0.5242043137550354,0.09791348874568939
5,3,64,57,0.5145472884178162,0.08538808673620224
5,3,64,58,0.4891212582588196,0.043616991490125656
5,3,64,59,0.4950767457485199,0.08565076440572739
5,3,64,60,0.36452746391296387,0.15383438766002655
5,3,64,61,0.5323100686073303,0.07311366498470306
5,3,64,62,0.5261600017547607,0.06201700493693352
5,3,64,63,0.4466167390346527,0.19005854427814484
5,4,128,0,0.5321807265281677,0.2101496160030365
5,4,128,1,0.4595232903957367,0.16207267343997955
5,4,128,2,0.3655339181423187,0.2575927972793579
5,4,128,3,0.33915480971336365,0.2832947075366974
5,4,128,4,0.8162036538124084,0.1343531757593155
5,4,128,5,0.47419092059135437,0.18430384993553162
5,4,128,6,0.6926112771034241,0.18525509536266327
5,4,128,7,0.45932847261428833,0.20793011784553528
5,4,128,8,0.7462782263755798,0.19485601782798767
5,4,128,9,0.742267906665802,0.15042906999588013
5,4,128,10,0.48553407192230225,0.11052335053682327
5,4,128,11,0.641968309879303,0.10767611116170883
5,4,128,12,0.693169891834259,0.18391957879066467
5,4,128,13,0.6043915152549744,0.1632646769285202
5,4,128,14,0.34194663166999817,0.21976912021636963
5,4,128,15,0.43070247769355774,0.20100878179073334
5,4,128,16,0.5748750567436218,0.17705297470092773
5,4,128,17,0.6802935600280762,0.12167850881814957
5,4,128,18,0.786689043045044,0.17757394909858704
5,4,128,19,0.7085421681404114,0.21583537757396698
5,4,128,20,0.3771444261074066,0.06327980756759644
5,4,128,21,0.41377556324005127,0.23754563927650452
5,4,128,22,0.5372815132141113,0.1041596308350563
5,4,128,23,0.5130098462104797,0.16313530504703522
5,4,128,24,0.7290987968444824,0.23406314849853516
5,4,128,25,0.6384834051132202,0.1432621330022812
5,4,128,26,0.3515784442424774,0.16794222593307495
5,4,128,27,0.726029634475708,0.12256452441215515
5,4,128,28,0.7151176929473877,0.16944772005081177
5,4,128,29,0.6546512842178345,0.12404071539640427
5,4,128,30,0.6093839406967163,0.08924870938062668
5,4,128,31,0.7959944605827332,0.10668089985847473
5,4,128,32,0.3832469880580902,0.11515050381422043
5,4,128,33,0.5307629108428955,0.1628323197364807
5,4,128,34,0.43268510699272156,0.23561187088489532
5,4,128,35,0.8086702823638916,0.10433544218540192
5,4,128,36,0.5624122619628906,0.1063680499792099
5,4,128,37,0.6119725704193115,0.33478862047195435
5,4,128,38,0.5925328135490417,0.1842304915189743
5,4,128,39,0.4585888385772705,0.2328868955373764
5,4,128,40,0.5828383564949036,0.10858888924121857
5,4,128,41,0.719682514667511,0.19403491914272308
5,4,128,42,0.7059221863746643,0.24471524357795715
5,4,128,43,0.4253602623939514,0.11984951049089432
5,4,128,44,0.6481600999832153,0.12351097166538239
5,4,128,45,0.2815868556499481,0.21391546726226807
5,4,128,46,0.6735426187515259,0.2667395770549774
5,4,128,47,0.6183464527130127,0.10644879937171936
5,4,128,48,0.5414668917655945,0.190986767411232
5,4,128,49,0.39096811413764954,0.36535903811454773
5,4,128,50,0.5039036273956299,0.1662469059228897
5,4,128,51,0.8020216226577759,0.12419615685939789
5,4,128,52,0.32437488436698914,0.1863877773284912
5,4,128,53,0.5482257604598999,0.18528728187084198
5,4,128,54,0.4822675585746765,0.2398706078529358
5,4,128,55,0.410951167345047,0.17659959197044373
5,4,128,56,0.6306459903717041,0.08460462093353271
5,4,128,57,0.770391583442688,0.09267400950193405
5,4,128,58,0.6270343661308289,0.062160320580005646
5,4,128,59,0.43908002972602844,0.17838898301124573
5,4,128,60,0.35672298073768616,0.2654130756855011
5,4,128,61,0.38686639070510864,0.13529354333877563
5,4,128,62,0.5033159255981445,0.19164811074733734
5,4,128,63,0.5663096308708191,0.10783158987760544
5,4,128,64,0.7074239253997803,0.21156547963619232
5,4,128,65,0.6386383175849915,0.2521333694458008
5,4,128,66,0.5931469202041626,0.09499382227659225
5,4,128,67,0.5657592415809631,0.2138034701347351
5,4,128,68,0.6354043483734131,0.10208698362112045
5,4,128,69,0.4636361598968506,0.0871322825551033
5,4,128,70,0.7168934345245361,0.11896421760320663
5,4,128,71,0.7166067957878113,0.18034754693508148
5,4,128,72,0.387296199798584,0.16936184465885162
5,4,128,73,0.6108053922653198,0.09730620682239532
5,4,128,74,0.6745286583900452,0.17043574154376984
5,4,128,75,0.39793890714645386,0.09878411889076233
5,4,128,76,0.30034732818603516,0.21125270426273346
5,4,128,77,0.6853718161582947,0.17773845791816711
5,4,128,78,0.6592100858688354,0.08947467803955078
5,4,128,79,0.7390431761741638,0.2297261655330658
5,4,128,80,0.5772624611854553,0.21145763993263245
5,4,128,81,0.4513029456138611,0.3143533766269684
5,4,128,82,0.7011919617652893,0.1875210553407669
5,4,128,83,0.3006698191165924,0.18967942893505096
5,4,128,84,0.47436201572418213,0.21153244376182556
5,4,128,85,0.6342024803161621,0.06966806948184967
5,4,128,86,0.5498297810554504,0.18020206689834595
5,4,128,87,0.6964335441589355,0.15231549739837646
5,4,128,88,0.6040025949478149,0.28523045778274536
5,4,128,89,0.5694990754127502,0.09473446011543274
5,4,128,90,0.589421808719635,0.13285721838474274
5,4,128,91,0.739448070526123,0.09104298055171967
5,4,128,92,0.30225032567977905,0.24827097356319427
5,4,128,93,0.3179668188095093,0.07381443679332733
5,4,128,94,0.3212009072303772,0.23905733227729797
5,4,128,95,0.6637060046195984,0.10455664992332458
5,4,128,96,0.6389504671096802,0.13862934708595276
5,4,128,97,0.4314965605735779,0.1232558935880661
5,4,128,98,0.5911489129066467,0.10851839929819107
5,4,128,99,0.4550219178199768,0.25732871890068054
5,4,128,100,0.3354267477989197,0.17626596987247467
5,4,128,101,0.5072610378265381,0.20765647292137146
5,4,128,102,0.7101309299468994,0.2839892506599426
5,4,128,103,0.4373709559440613,0.2590312957763672
5,4,128,104,0.5008560419082642,0.11956045776605606
5,4,128,105,0.7879754900932312,0.17865382134914398
5,4,128,106,0.3823836147785187,0.19194930791854858
5,4,128,107,0.7932851314544678,0.1514400690793991
5,4,128,108,0.8191837072372437,0.1179739385843277
5,4,128,109,0.4506232440471649,0.15961536765098572
5,4,128,110,0.354134738445282,0.20386113226413727
5,4,128,111,0.7859950661659241,0.16683806478977203
5,4,128,112,0.41384968161582947,0.17028221487998962
5,4,128,113,0.8164755702018738,0.11991763114929199
5,4,128,114,0.482524037361145,0.07698725908994675
5,4,128,115,0.33949604630470276,0.2628583610057831
5,4,128,116,0.6458435654640198,0.06874819844961166
5,4,128,117,0.739755392074585,0.18045824766159058
5,4,128,118,0.3329746723175049,0.20984797179698944
5,4,128,119,0.4555893838405609,0.11673475056886673
5,4,128,120,0.38901087641716003,0.2846289873123169
5,4,128,121,0.4390949308872223,0.11684107780456543
5,4,128,122,0.7436714768409729,0.2141517698764801
5,4,128,123,0.41428229212760925,0.13799479603767395
5,4,128,124,0.7092907428741455,0.1610807627439499
5,4,128,125,0.6963633894920349,0.25259754061698914
5,4,128,126,0.3056263327598572,0.23681534826755524
5,4,128,127,0.4340086281299591,0.22893363237380981
5,5,128,0,0.5308092832565308,0.06237323209643364
5,5,128,1,0.6176143288612366,0.15392251312732697
5,5,128,2,0.5321750640869141,0.108856201171875
5,5,128,3,0.4756370186805725,0.11400485783815384
5,5,128,4,0.7373816967010498,0.1091705709695816
5,5,128,5,0.6727996468544006,0.08453663438558578
5,5,128,6,0.4704549014568329,0.10787780582904816
5,5,128,7,0.5713068842887878,0.06552784889936447
5,5,128,8,0.6890448927879333,0.06490301340818405
5,5,128,9,0.5971484780311584,0.12976427376270294
5,5,128,10,0.53520667552948,0.05477043613791466
5,5,128,11,0.37516090273857117,0.06289578974246979
5,5,128,12,0.6886445879936218,0.1601274311542511
5,5,128,13,0.7928217649459839,0.09346955269575119
5,5,128,14,0.48141101002693176,0.04252846539020538
5,5,128,15,0.4208333492279053,0.12843549251556396
5,5,128,16,0.544914186000824,0.1313735544681549
5,5,128,17,0.6468783617019653,0.07937223464250565
5,5,128,18,0.6879701614379883,0.17357081174850464
5,5,128,19,0.7097129225730896,0.11310592293739319
5,5,128,20,0.7670013308525085,0.11353407055139542
5,5,128,21,0.5277475118637085,0.14989477396011353
5,5,128,22,0.5315222144126892,0.09861837327480316
5,5,128,23,0.5462265610694885,0.1101611852645874
5,5,128,24,0.6391516923904419,0.06465766578912735
5,5,128,25,0.7558979988098145,0.10514917969703674
5,5,128,26,0.394186794757843,0.09909916669130325
5,5,128,27,0.7148959040641785,0.1267537772655487
5,5,128,28,0.6839050054550171,0.17073729634284973
5,5,128,29,0.5752905607223511,0.0892658606171608
5,5,128,30,0.5436743497848511,0.11285275965929031
5,5,128,31,0.6993924975395203,0.07509554177522659
5,5,128,32,0.5613992810249329,0.12166490405797958
5,5,128,33,0.5282894968986511,0.029936548322439194
5,5,128,34,0.7606112360954285,0.1241689920425415
5,5,128,35,0.7284406423568726,0.1131821945309639
5,5,128,36,0.5057643055915833,0.10007520020008087
5,5,128,37,0.6158602237701416,0.07384289801120758
5,5,128,38,0.7390667796134949,0.1228104755282402
5,5,128,39,0.6881372332572937,0.14316131174564362
5,5,128,40,0.7212859392166138,0.14470891654491425
5,5,128,41,0.6707072854042053,0.12205531448125839
5,5,128,42,0.7003756761550903,0.1647988110780716
5,5,128,43,0.6147716641426086,0.08345233649015427
5,5,128,44,0.45809057354927063,0.0207346323877573
5,5,128,45,0.4672570526599884,0.15858681499958038
5,5,128,46,0.6681610345840454,0.08144767582416534
5,5,128,47,0.7068929672241211,0.14747419953346252
5,5,128,48,0.6704246997833252,0.056186020374298096
5,5,128,49,0.5853593945503235,0.04218122363090515
5,5,128,50,0.4315900504589081,0.09647854417562485
5,5,128,51,0.7437921762466431,0.09859902411699295
5,5,128,52,0.5654639601707458,0.06955120712518692
5,5,128,53,0.7414257526397705,0.14627861976623535
5,5,128,54,0.642647922039032,0.10841192305088043
5,5,128,55,0.6464258432388306,0.13907453417778015
5,5,128,56,0.692115306854248,0.12663297355175018
5,5,128,57,0.6468765139579773,0.19477513432502747
5,5,128,58,0.3867272734642029,0.1123589351773262
5,5,128,59,0.5021665096282959,0.14940589666366577
5,5,128,60,0.6859766244888306,0.09653567522764206
5,5,128,61,0.6020612716674805,0.09251238405704498
5,5,128,62,0.6839470863342285,0.0665765181183815
5,5,128,63,0.6130797863006592,0.07487981766462326
5,5,128,64,0.668661892414093,0.1423673778772354
5,5,128,65,0.7036140561103821,0.09377986937761307
5,5,128,66,0.5850036144256592,0.12578535079956055
5,5,128,67,0.6006624102592468,0.06307581067085266
5,5,128,68,0.574797511100769,0.04501796141266823
5,5,128,69,0.6205739974975586,0.08859577029943466
5,5,128,70,0.6984337568283081,0.07033166289329529
5,5,128,71,0.6417136192321777,0.07484900951385498
5,5,128,72,0.4216649830341339,0.14318646490573883
5,5,128,73,0.696200430393219,0.10377009958028793
5,5,128,74,0.6227291226387024,0.1845761239528656
5,5,128,75,0.5794909596443176,0.09602411091327667
5,5,128,76,0.4789113998413086,0.21213828027248383
5,5,128,77,0.7423300743103027,0.14723998308181763
5,5,128,78,0.5144116282463074,0.1782919019460678
5,5,128,79,0.5601730942726135,0.056335289031267166
5,5,128,80,0.505509078502655,0.1934082806110382
5,5,128,81,0.8008059859275818,0.08719410002231598
5,5,128,82,0.6532745957374573,0.20664459466934204
5,5,128,83,0.6415782570838928,0.1425618976354599
5,5,128,84,0.665263831615448,0.09622153639793396
5,5,128,85,0.7152964472770691,0.12349792569875717
5,5,128,86,0.5450074076652527,0.0836867168545723
5,5,128,87,0.725549042224884,0.12702198326587677
5,5,128,88,0.7046066522598267,0.07924806326627731
5,5,128,89,0.6670228838920593,0.13248948752880096
5,5,128,90,0.7088419795036316,0.11044605821371078
5,5,128,91,0.49430856108665466,0.055878810584545135
5,5,128,92,0.6749556064605713,0.08521059900522232
5,5,128,93,0.5996344685554504,0.14379824697971344
5,5,128,94,0.6858924627304077,0.10275869816541672
5,5,128,95,0.544170081615448,0.09754523634910583
5,5,128,96,0.7217432856559753,0.11967359483242035
5,5,128,97,0.6373752951622009,0.0899810791015625
5,5,128,98,0.5355343818664551,0.10100942850112915
5,5,128,99,0.6236842274665833,0.1174108013510704
5,5,128,100,0.6076575517654419,0.06668715178966522
5,5,128,101,0.6368598937988281,0.09938482940196991
5,5,128,102,0.7541674375534058,0.10647563636302948
5,5,128,103,0.6420642733573914,0.11626166105270386
5,5,128,104,0.6270571351051331,0.08151951432228088
5,5,128,105,0.6888158917427063,0.173691526055336
5,5,128,106,0.5937355160713196,0.1943904161453247
5,5,128,107,0.6095889806747437,0.15252935886383057
5,5,128,108,0.6783084273338318,0.1867695301771164
5,5,128,109,0.5215795636177063,0.059751786291599274
5,5,128,110,0.4208137094974518,0.1375565081834793
5,5,128,111,0.6669575572013855,0.0866200178861618
5,5,128,112,0.5770066976547241,0.04039282724261284
5,5,128,113,0.770021915435791,0.1097494587302208
5,5,128,114,0.598514974117279,0.1823076456785202
5,5,128,115,0.39940595626831055,0.0827011838555336
5,5,128,116,0.7089554071426392,0.13107982277870178
5,5,128,117,0.429983913898468,0.06006894260644913
5,5,128,118,0.3225632905960083,0.1298062801361084
5,5,128,119,0.5184178352355957,0.03851999342441559
5,5,128,120,0.6411955952644348,0.13661323487758636
5,5,128,121,0.7440552711486816,0.08171607553958893
5,5,128,122,0.7530747056007385,0.10843673348426819
5,5,128,123,0.5767211318016052,0.14453370869159698
5,5,128,124,0.7799723148345947,0.11057623475790024
5,5,128,125,0.6782007813453674,0.1962154358625412
5,5,128,126,0.642447292804718,0.09333793073892593
5,5,128,127,0.6894245147705078,0.0900345891714096
6,0,32,0,0.6183054447174072,0.07251764088869095
6,0,32,1,0.3749469220638275,0.08720730245113373
6,0,32,2,0.5409032106399536,0.0779557004570961
6,0,32,3,0.46197938919067383,0.1124475970864296
6,0,32,4,0.6161987781524658,0.10846144706010818
6,0,32,5,0.5551554560661316,0.02658773586153984
6,0,32,6,0.43797022104263306,0.052673619240522385
6,0,32,7,0.5556887984275818,0.08274462819099426
6,0,32,8,0.48652395606040955,0.08930531144142151
6,0,32,9,0.5509911775588989,0.04083508253097534
6,0,32,10,0.5402065515518188,0.10111545026302338
6,0,32,11,0.6201921701431274,0.08538363873958588
6,0,32,12,0.37890559434890747,0.04664498195052147
6,0,32,13,0.4346221387386322,0.0476008802652359
6,0,32,14,0.4172980785369873,0.023418651893734932
6,0,32,15,0.4641108512878418,0.11979636549949646
6,0,32,16,0.3946394622325897,0.057533811777830124
6,0,32,17,0.45542529225349426,0.06382367014884949
6,0,32,18,0.5104641318321228,0.04836452752351761
6,0,32,19,0.48406338691711426,0.0851622074842453
6,0,32,20,0.5525591969490051,0.06024213880300522
6,0,32,21,0.34343159198760986,0.09629741311073303
6,0,32,22,0.34636908769607544,0.0484171137213707
6,0,32,23,0.49688491225242615,0.11540666967630386
6,0,32,24,0.3685755431652069,0.07934451103210449
6,0,32,25,0.3770158886909485,0.05118923261761665
6,0,32,26,0.36202776432037354,0.06209772080183029
6,0,32,27,0.6002554297447205,0.03995291143655777
6,0,32,28,0.434781014919281,0.054872941225767136
6,0,32,29,0.5343683958053589,0.08385290205478668
6,0,32,30,0.5734542608261108,0.05163678899407387
6,0,32,31,0.33492544293403625,0.08250165730714798
6,1,32,0,0.564737856388092,0.021023333072662354
6,1,32,1,0.48241791129112244,0.05362827330827713
6,1,32,2,0.39274823665618896,0.03656019642949104
6,1,32,3,0.4823698401451111,0.04682961478829384
6,1,32,4,0.32341405749320984,0.04399237781763077
6,1,32,5,0.5508456230163574,0.07976686209440231
6,1,32,6,0.3631155788898468,0.059568580240011215
6,1,32,7,0.5493254661560059,0.04151930660009384
6,1,32,8,0.42807409167289734,0.055545564740896225
6,1,32,9,0.5976026058197021,0.04384440928697586
6,1,32,10,0.4876929223537445,0.0811932235956192
6,1,32,11,0.3010004758834839,0.061857763677835464
6,1,32,12,0.6014140248298645,0.05759793519973755
6,1,32,13,0.5352048277854919,0.05487212538719177
6,1,32,14,0.44693416357040405,0.06821123510599136
6,1,32,15,0.5416778326034546,0.031119415536522865
6,1,32,16,0.47891131043434143,0.04214909300208092
6,1,32,17,0.40399467945098877,0.06948521733283997
6,1,32,18,0.6100170016288757,0.1121617779135704
6,1,32,19,0.48746293783187866,0.04199536517262459
6,1,32,20,0.5608978867530823,0.07236374169588089
6,1,32,21,0.3059038817882538,0.05556996911764145
6,1,32,22,0.4857150614261627,0.046853531152009964
6,1,32,23,0.47370070219039917,0.06736452132463455
6,1,32,24,0.5837036967277527,0.08798307180404663
6,1,32,25,0.5287768244743347,0.10342641174793243
6,1,32,26,0.4897502362728119,0.025739625096321106
6,1,32,27,0.4169240891933441,0.016354713588953018
6,1,32,28,0.44103553891181946,0.10348571091890335
6,1,32,29,0.5399776697158813,0.03486640751361847
6,1,32,30,0.5381598472595215,0.031221866607666016
6,1,32,31,0.45533549785614014,0.0724552646279335
6,2,64,0,0.3765575587749481,0.11946254968643188
6,2,64,1,0.39863163232803345,0.185365691781044
6,2,64,2,0.36768224835395813,0.10871034115552902
6,2,64,3,0.3630950450897217,0.12457150965929031
6,2,64,4,0.46723082661628723,0.11555926501750946
6,2,64,5,0.42266878485679626,0.07106601446866989
6,2,64,6,0.5182726979255676,0.1637832224369049
6,2,64,7,0.48849329352378845,0.16848726570606232
6,2,64,8,0.39643099904060364,0.1169217899441719
6,2,64,9,0.4773711860179901,0.19679197669029236
6,2,64,10,0.42190927267074585,0.030311426147818565
6,2,64,11,0.5702686309814453,0.09723298996686935
6,2,64,12,0.6274123787879944,0.07551509141921997
6,2,64,13,0.529177188873291,0.11429062485694885
6,2,64,14,0.5082291960716248,0.12116934359073639
6,2,64,15,0.4086705148220062,0.13155674934387207
6,2,64,16,0.366874635219574,0.07995066046714783
6,2,64,17,0.6427811980247498,0.10768849402666092
6,2,64,18,0.4946850836277008,0.13097554445266724
6,2,64,19,0.43524014949798584,0.15594157576560974
6,2,64,20,0.4097702205181122,0.1288127303123474
6,2,64,21,0.6221158504486084,0.06137136369943619
6,2,64,22,0.5118908286094666,0.14611037075519562
6,2,64,23,0.6230853199958801,0.07773209363222122
6,2,64,24,0.42905354499816895,0.0984359011054039
6,2,64,25,0.6033793687820435,0.09854821860790253
6,2,64,26,0.31265464425086975,0.08719377964735031
6,2,64,27,0.3323562741279602,0.14406786859035492
6,2,64,28,0.33958759903907776,0.16686785221099854
6,2,64,29,0.5346412062644958,0.1348552107810974
6,2,64,30,0.603985071182251,0.06534677743911743
6,2,64,31,0.4421710669994354,0.12285996973514557
6,2,64,32,0.407228022813797,0.17207884788513184
6,2,64,33,0.4936811327934265,0.053364936262369156
6,2,64,34,0.48746100068092346,0.20809492468833923
6,2,64,35,0.518822968006134,0.08430185168981552
6,2,64,36,0.443851113319397,0.0796237662434578
6,2,64,37,0.47495052218437195,0.09496685862541199
6,2,64,38,0.3281700313091278,0.11959411203861237
6,2,64,39,0.5811535716056824,0.0618993379175663
6,2,64,40,0.6215845346450806,0.09640365839004517
6,2,64,41,0.5674195885658264,0.10128241777420044
6,2,64,42,0.5062339901924133,0.165940061211586
6,2,64,43,0.43346887826919556,0.08598508685827255
6,2,64,44,0.4249178171157837,0.14619700610637665
6,2,64,45,0.5434666872024536,0.08819735795259476
6,2,64,46,0.45846328139305115,0.03715943917632103
6,2,64,47,0.500539243221283,0.20377285778522491
6,2,64,48,0.4822036921977997,0.21954889595508575
6,2,64,49,0.6190634965896606,0.050661228597164154
6,2,64,50,0.5288587212562561,0.08557591587305069
6,2,64,51,0.4523431062698364,0.07704800367355347
6,2,64,52,0.37848159670829773,0.09452131390571594
6,2,64,53,0.3696799874305725,0.1769285798072815
6,2,64,54,0.5003255605697632,0.10799401998519897
6,2,64,55,0.5540788769721985,0.15168870985507965
6,2,64,56,0.394136905670166,0.08806763589382172
6,2,64,57,0.5149881839752197,0.10837557166814804
6,2,64,58,0.4713243246078491,0.08550515025854111
6,2,64,59,0.48072734475135803,0.23054727911949158
6,2,64,60,0.523120105266571,0.08059053122997284
6,2,64,61,0.3102185130119324,0.06068907678127289
6,2,64,62,0.3967927396297455,0.08647052198648453
6,2,64,63,0.4339176118373871,0.12863576412200928
6,3,64,0,0.5423397421836853,0.06573958694934845
6,3,64,1,0.6853847503662109,0.09262477606534958
6,3,64,2,0.4121444523334503,0.08612289279699326
6,3,64,3,0.5240095257759094,0.12410087883472443
6,3,64,4,0.539673388004303,0.17257069051265717
6,3,64,5,0.48885229229927063,0.12958770990371704
6,3,64,6,0.5663643479347229,0.040401700884103775
6,3,64,7,0.5154563784599304,0.10758762806653976
6,3,64,8,0.4990232288837433,0.10558418929576874
6,3,64,9,0.400106817483902,0.12163423001766205
6,3,64,10,0.3798457682132721,0.057290270924568176
6,3,64,11,0.288384348154068,0.09187211096286774
6,3,64,12,0.4762782156467438,0.13683049380779266
6,3,64,13,0.48509377241134644,0.05809134617447853
6,3,64,14,0.491597443819046,0.12010083347558975
6,3,64,15,0.48931607604026794,0.1561584770679474
6,3,64,16,0.37372827529907227,0.10042279958724976
6,3,64,17,0.6644336581230164,0.07084827125072479
6,3,64,18,0.3488159775733948,0.12207243591547012
6,3,64,19,0.526863694190979,0.16792914271354675
6,3,64,20,0.5283606052398682,0.13979673385620117
6,3,64,21,0.506379246711731,0.08545238524675369
6,3,64,22,0.43569210171699524,0.12345361709594727
6,3,64,23,0.5284497141838074,0.08040019869804382
6,3,64,24,0.5373761653900146,0.12436298280954361
6,3,64,25,0.390741229057312,0.08763623982667923
6,3,64,26,0.338066965341568,0.09286057204008102
6,3,64,27,0.4095616638660431,0.0806029736995697
6,3,64,28,0.6606515645980835,0.07418587058782578
6,3,64,29,0.5742981433868408,0.10170359164476395
6,3,64,30,0.5054627060890198,0.11897703260183334
6,3,64,31,0.4910780191421509,0.10291245579719543
6,3,64,32,0.3010789155960083,0.0766284316778183
6,3,64,33,0.4654054343700409,0.13646231591701508
6,3,64,34,0.3176160156726837,0.10196240246295929
6,3,64,35,0.5675502419471741,0.09382690489292145
6,3,64,36,0.5076484084129333,0.0790998712182045
6,3,64,37,0.41465577483177185,0.09768437594175339
6,3,64,38,0.5662912726402283,0.11159954965114594
6,3,64,39,0.5099790692329407,0.13814789056777954
6,3,64,40,0.40432730317115784,0.09720643609762192
6,3,64,41,0.5507811307907104,0.09049831330776215
6,3,64,42,0.5578787326812744,0.0818738043308258
6,3,64,43,0.3655819296836853,0.10594119131565094
6,3,64,44,0.30254170298576355,0.07821062952280045
6,3,64,45,0.509514570236206,0.09734580665826797
6,3,64,46,0.49290865659713745,0.0930447205901146
6,3,64,47,0.43579545617103577,0.15581806004047394
6,3,64,48,0.576008141040802,0.06562744081020355
6,3,64,49,0.34145140647888184,0.0947517529129982
6,3,64,50,0.5583118796348572,0.07182373106479645
6,3,64,51,0.5085497498512268,0.10865776240825653
6,3,64,52,0.5352129340171814,0.0626024529337883
6,3,64,53,0.4519834816455841,0.11886575073003769
6,3,64,54,0.5227444171905518,0.1189797893166542
