SVM+RF+CNN [hard],SVM+RF+CNN [soft],SVM+RF+CNN [weighted_soft],SVM+RF+CNN [stacking],SVM+RF+RESNET_SE [hard],SVM+RF+RESNET_SE [soft],SVM+RF+RESNET_SE [weighted_soft],SVM+RF+RESNET_SE [stacking],SVM+RF+CNN+RESNET_SE [hard],SVM+RF+CNN+RESNET_SE [soft],SVM+RF+CNN+RESNET_SE [weighted_soft],SVM+RF+CNN+RESNET_SE [stacking],SVM+RF [hard],SVM+RF [soft],SVM+RF [weighted_soft],SVM+RF [stacking],SVM+RESNET_SE [hard],SVM+RESNET_SE [soft],SVM+RESNET_SE [weighted_soft],SVM+RESNET_SE [stacking],RF+RESNET_SE [hard],RF+RESNET_SE [soft],RF+RESNET_SE [weighted_soft],RF+RESNET_SE [stacking]
0.6440846153543565,0.6374189349050734,0.6374189349050734,0.6534955140144054,0.6631587774545133,0.6638221108403554,0.6657257219502737,0.6658705869835966,0.6515775469598764,0.6538359991574766,0.6534047415501631,0.6631122052550273,0.6610942948088491,0.6655803885872092,0.6655803885872092,0.6556349417622017,0.6369135198352118,0.6662139350459715,0.6609414103784977,0.6571125337360053,0.6369135198352118,0.6530523867152122,0.6526711610535625,0.6529471544715446
0.8753999605048624,0.9053564765762481,0.9053564765762481,0.8929045796157865,0.8932282373227255,0.9271164144960565,0.9271164144960565,0.9333293948019976,0.8944889653818819,0.9231482780951664,0.9199610856592912,0.9363394789010746,0.8641173938134359,0.875970146798365,0.875970146798365,0.8596222257418973,0.8892519667284784,0.938886731572223,0.9365487380211936,0.934003182136448,0.8892519667284784,0.910881053836563,0.909033506402839,0.917546859815679
0.8297556337619181,0.842464435941743,0.842464435941743,0.8385385502456809,0.856205220514431,0.8962204774989236,0.9024506015818295,0.9230645607734319,0.8814048155407856,0.8986478704867601,0.9072352298583668,0.9148026986136413,0.8026899482277057,0.8063576228759659,0.8063576228759659,0.803907109697134,0.911591275737929,0.9153489550758082,0.9153489550758082,0.920096205095941,0.911591275737929,0.9195366795366795,0.9195366795366795,0.9124430641821946
0.8082486629731985,0.8206941190384858,0.8206941190384858,0.8216578488299202,0.8149574125649812,0.8543323672569456,0.8598821258033456,0.8989895772440338,0.8220009431128359,0.8725890563636258,0.8725890563636258,0.8989895772440338,0.7679634527580891,0.7845305498139727,0.7845305498139727,0.7917284643095513,0.8967431655888143,0.8833713944149832,0.8901610959415269,0.9021129850413099,0.8967431655888143,0.9091801060426594,0.9091801060426594,0.9091801060426594
0.6760130541582146,0.6788142613105966,0.6788142613105966,0.6694648230047399,0.6927152619374821,0.7088283301996409,0.715373892785111,0.7177205790315772,0.6862003525149942,0.666057325100248,0.6696354792108985,0.7071605898844654,0.6954911174105827,0.6876949658480151,0.6876949658480151,0.6937339124839125,0.6575722460290012,0.7131905782253918,0.6994380496120438,0.7179581309143829,0.6575722460290012,0.6718359231425642,0.6698334414235809,0.6843733680980277
0.7473889882682955,0.7576077826608243,0.7576077826608243,0.7482157820393115,0.7664864088536312,0.7807897580618575,0.7861763308549303,0.8177167235405405,0.7826959526743326,0.7848456541741478,0.7848456541741478,0.8148756612200505,0.7559901477531702,0.7658137275463884,0.7658137275463884,0.7590630020876505,0.8089474753239861,0.7994877494460711,0.8001760280815139,0.822305284301754,0.8089474753239861,0.799252674866024,0.799252674866024,0.8043788985920513
0.7796071566308174,0.7659991904186692,0.7659991904186692,0.7494940107223094,0.7829956006575349,0.8145196115453218,0.8244910683571676,0.8155278972989535,0.7969415494990941,0.8088029984047952,0.809686162083247,0.8130752395381129,0.774968415788696,0.771375077340203,0.771375077340203,0.7676055771004197,0.7879275050695798,0.8213001588466575,0.8215215380552203,0.8102382153594976,0.7879275050695798,0.8034880157270357,0.8010733227567015,0.8103817271589486
0.7888681815871439,0.7849730326270367,0.7849730326270367,0.7990219296523908,0.8240621810966432,0.8578495417357537,0.8613540239631748,0.8792413459134973,0.8091085858692654,0.8494818038943317,0.8517256707666816,0.8792413459134973,0.7543530055835337,0.760642424581219,0.760642424581219,0.7581802037782315,0.8544364759411147,0.877382052488078,0.8758621169511847,0.8781615981507473,0.8544364759411147,0.8631375177096549,0.8609179450612567,0.8644415133319513
0.7917741168580525,0.8071355241071068,0.8091581008578057,0.8162389281404605,0.8270970071187853,0.8411530337063039,0.8430855436273393,0.850121937517762,0.830211262331633,0.8311723218604293,0.8382426764180442,0.8468311393384388,0.7924311503784587,0.8005993909063469,0.8005993909063469,0.7853138803040582,0.8266835341910488,0.8488024541238529,0.844511975802113,0.850121937517762,0.8266835341910488,0.8352880236177888,0.8331366384493141,0.8348451611090584
0.7418837191356661,0.7567976794548809,0.7567976794548809,0.7510189214390537,0.7584973072655637,0.7774667879286459,0.7717199841208411,0.7687222907811143,0.7386243921652845,0.7738951589031005,0.7689906554443635,0.77037835525552,0.6979028659134293,0.7279399917190869,0.7279399917190869,0.7309892957919274,0.7364832076272612,0.7578401989476289,0.762297228755022,0.7615436024122632,0.7364832076272612,0.7704107111880847,0.7704107111880847,0.7678438228438229
0.8813869404292217,0.9075908335927659,0.9075908335927659,0.9077359978097865,0.9161489856541316,0.9495169504482472,0.9584916926055428,0.9373623638888331,0.9062422031961972,0.9405464092014182,0.9437943526080672,0.9441165876502358,0.858444922684521,0.8696081810717343,0.8696081810717343,0.8783935143891162,0.9281574458359605,0.9548947732415882,0.9519107361596001,0.9392645328817402,0.9281574458359605,0.9503148400311935,0.9473900054318306,0.9418366338313047
0.8600032124816108,0.8857666802274287,0.884176099016764,0.8694977734868967,0.8832689639638825,0.9090307502243403,0.9146034775889892,0.9478495415292569,0.9014054655764031,0.9140384720199133,0.9198159215074541,0.949214931585395,0.8166930173542191,0.8313580293209556,0.8313580293209556,0.816660454293616,0.9232760841577027,0.9351051136742895,0.9402540540772522,0.9470005666331793,0.9232760841577027,0.9468331860768933,0.9406611360484192,0.9498538011695907
0.9072090305204054,0.9171261088904831,0.9164430668780535,0.9131964729990892,0.9173740098762156,0.9452999874489438,0.9499219441224412,0.9600801427654999,0.9186333521758074,0.9449177050571392,0.948761253478638,0.9602795548075986,0.9000335687796831,0.9068601506996293,0.9068601506996293,0.8999137675451275,0.9320032384807375,0.9583683370697426,0.9582292429962729,0.9553171523816235,0.9320032384807375,0.9453933298950585,0.9453933298950585,0.952669855944127
0.8023987178532632,0.8040668927905656,0.8040668927905656,0.8115029206810656,0.8231158774177267,0.8438422563049354,0.8430061786720199,0.8516577454483836,0.8040171240910157,0.8344818900654968,0.8355882222010821,0.8536416398580275,0.8077138410107172,0.8030244362150355,0.8030244362150355,0.8003636445332677,0.8259557959068353,0.8573501326924315,0.8599835193322557,0.8520896046558297,0.8259557959068353,0.8420135008431724,0.8468765261919131,0.8442401142130922
0.8310987194230436,0.8643160375430852,0.86432016431197,0.8706240387140338,0.8593919215633525,0.9137034020645204,0.9152386942371012,0.8918755698904478,0.8586560952665673,0.9151275693036739,0.9112287253398103,0.8996379146552697,0.8426218181543597,0.8294718970678874,0.8294718970678874,0.8188624846124719,0.8945577520305781,0.9252173325096358,0.9179834226980629,0.8959594248256487,0.8945577520305781,0.9084948419313744,0.9084948419313744,0.8938852705454675
0.852772072156531,0.8596720468653896,0.8596720468653896,0.8562202865410949,0.8676832985511813,0.886193937622856,0.8824486652725515,0.8860730864374031,0.8666805102627273,0.8820578264929281,0.8845664139781787,0.8846569443576445,0.8388107682115974,0.836985877334129,0.836985877334129,0.8372542254503016,0.8602969372160483,0.8853344499371106,0.8863166147457427,0.8858407843954931,0.8602969372160483,0.8760843060433192,0.8737085669748209,0.8815852633349827
0.8055889938646441,0.8209554833007735,0.8186226839442535,0.8209292001768257,0.8331056374030544,0.8741970695996122,0.8760752834115793,0.8762305761391831,0.839421421782792,0.8833321246111944,0.8834309142290233,0.8779510690493126,0.8042652517120371,0.8036813716384259,0.8036813716384259,0.7929562312164701,0.8740116833659312,0.8937732347864469,0.8937091246089548,0.8839037066994385,0.8740116833659312,0.8850078554146449,0.8803310057565039,0.8787051097720554
0.8112375726658445,0.7849206223231544,0.7849206223231544,0.7779297856780313,0.8446811493908444,0.893263375043036,0.9062971834083009,0.9226016324596941,0.8314354385785645,0.8691066495615932,0.8719418409684798,0.919413546381139,0.8234392881774706,0.8098892821322284,0.8098892821322284,0.7944478141692607,0.9057980852113593,0.9281328162994125,0.9309571245213939,0.9243791351313785,0.9057980852113593,0.911465705251483,0.9145708084305346,0.9047490419416648
0.8177063362497355,0.8273966386854564,0.8247309421760209,0.8328719936455067,0.8235062299917211,0.8353435881734066,0.8394900043667675,0.8605362184663393,0.8413646599379965,0.8542238436153735,0.8587043622409676,0.8619361059565015,0.7582753072081415,0.7732461629565595,0.7732461629565595,0.7756777731052318,0.8452531284759923,0.8562258626306614,0.8540613604661593,0.8638526081562377,0.8452531284759923,0.8473890205308784,0.8525113894733071,0.8547343543329315
0.7170922672670718,0.7542781085110741,0.7456255897603583,0.7542015580942154,0.7394610423483663,0.7788731837491967,0.7788731837491967,0.8220937006601249,0.7425365291244013,0.7945282200175705,0.7968414232820529,0.8272043326639121,0.6926349754468984,0.7178511303511304,0.7178511303511304,0.7274103898362487,0.8409122093625153,0.8027626069716814,0.818008688935989,0.818210518450428,0.8409122093625153,0.8506904919518375,0.8481161469303194,0.8443046971108348
0.7992865287119171,0.8029034972883888,0.7993102982151308,0.8052939701094011,0.8225562551610239,0.8377035546765479,0.8383244618219227,0.8730811578557978,0.8216926964449903,0.8360126659359396,0.8401849549290145,0.8637262040935766,0.7784542053178383,0.7900773402031877,0.7900773402031877,0.7870461971349576,0.8657640857497411,0.8542498274672188,0.8542498274672188,0.864341708710614,0.8657640857497411,0.8718139355469724,0.8693271162434909,0.8714283088794624
0.7581414436225022,0.7676117155839871,0.7676117155839871,0.7620084527263637,0.8033931351517607,0.8115911233476145,0.8175591045194952,0.827509061437377,0.806783874584091,0.8086214883305869,0.8101886837500648,0.836858969990038,0.7298605455735194,0.7536316694163713,0.7536316694163713,0.7617461194214923,0.8229863982628072,0.827780783198464,0.8316124833959107,0.8367736079754149,0.8229863982628072,0.8441871659545619,0.8456786427719711,0.8417248995744474
0.7518835590803601,0.7716746114212851,0.7716746114212851,0.7745216739275769,0.7805483158321598,0.8153779063879775,0.8214331579317656,0.8205144069143021,0.7983191232268185,0.8146520374922797,0.8195790948703703,0.8225585717115669,0.6764175957441693,0.7136628776187163,0.7136628776187163,0.734879143869442,0.8105694274671286,0.829120954789786,0.8298968067849777,0.8172251903146679,0.8105694274671286,0.8199619715496607,0.8192600997339408,0.8118897823729938
0.7319573703114076,0.7653337607793709,0.7670401293237862,0.765024462574977,0.7976303527619426,0.8167141999128427,0.8222204231590965,0.8244530897508271,0.7813690845936386,0.8127361249868545,0.819478115419458,0.82148837133501,0.6852724367396084,0.7196495209247232,0.7196495209247232,0.7305853530586247,0.786832906815587,0.8111822915115783,0.81483639899751,0.8189770710234725,0.786832906815587,0.8149846606143883,0.8121251937200997,0.8176296573675341
0.7801779146515119,0.7728051328345797,0.7749232654426648,0.7910244619530287,0.8154673709521076,0.8881533916332607,0.8895339092239425,0.9068837157932771,0.7989779821905714,0.8589165296008348,0.8619074174875633,0.9082832342362182,0.7680174319261338,0.7832713716252895,0.7832713716252895,0.7758407439855821,0.9082572012001204,0.907614249091239,0.915357006432518,0.9096921051526508,0.9082572012001204,0.9293566654329685,0.9278090621186182,0.928913408719668
0.7310010896259578,0.7216278555898279,0.7247246436238429,0.7175104805779571,0.7572930418973625,0.7852715961875986,0.7864873754006669,0.8068972835196795,0.7622774624875239,0.7596040620846192,0.7636843820445796,0.8124177179649015,0.7363611427329986,0.7385596117436107,0.7385596117436107,0.7353754580622698,0.8003377829096816,0.7843561566138814,0.7884063637590413,0.8083419606141384,0.8003377829096816,0.8001647565248093,0.8015430057496215,0.8069396837914145
0.8471052774087386,0.8520755960314443,0.8520755960314443,0.847260750651666,0.8711288142101201,0.9040714602124242,0.9068269839731452,0.9137863614754836,0.8659181496261299,0.900346635037903,0.9078715005563731,0.9137863614754836,0.8291525086155735,0.8367608698248525,0.8367608698248525,0.8291354453672104,0.9025924069484389,0.9278141588892024,0.9297321735847297,0.9146460682950024,0.9025924069484389,0.9144399316172136,0.9117954287352688,0.9051110575974641
0.8101006295560105,0.8224033573886481,0.8224033573886481,0.8303138495153125,0.8330712242016948,0.872531640585146,0.874563503637983,0.8798453609373287,0.8307940396823527,0.8544121525749355,0.8576850305320769,0.8777848943359663,0.8087149984189221,0.7964967799244947,0.7964967799244947,0.8077695043783886,0.8036751585075397,0.8890444219704222,0.8849470100397324,0.8972837246832661,0.8036751585075397,0.8377483178211536,0.8348665843903196,0.8350891697174281
0.7721422185223856,0.7929939752588273,0.7929939752588273,0.7921061403433656,0.7977541878545553,0.8483289984455369,0.8462507674483579,0.8533481389957704,0.7847906754620255,0.8337699902634825,0.8332088075412039,0.8580860972130904,0.7889011178336834,0.7896588949526827,0.7896588949526827,0.7854301289185546,0.8679324789502041,0.8537420384866312,0.8551968056628207,0.8534321449284812,0.8679324789502041,0.847388452203537,0.847388452203537,0.8486190846642996
0.824023344663657,0.8184816150842873,0.8184816150842873,0.8325665297584421,0.8211802713919856,0.8492628630399528,0.8508336538075575,0.8650644689100933,0.8428717096368754,0.8700255821523109,0.8719237337784953,0.8622229363873631,0.8003173741104742,0.8092683379961532,0.8092683379961532,0.8171359433065422,0.8243258732107972,0.8646594863526469,0.8671937901827671,0.855078457336687,0.8243258732107972,0.8461988803053213,0.8461988803053213,0.8498129759715765
0.7277708039060098,0.7541520377057913,0.7535695048360573,0.7565481134922365,0.7644983547410735,0.7831397568985066,0.7830465215535917,0.7946391008058248,0.7500920489530494,0.7767420902815496,0.7785830512534981,0.7989526937220308,0.7377602508887344,0.738449665627085,0.738449665627085,0.7451224736436797,0.793511514442473,0.7871540744529235,0.7897184464759348,0.7962272914380112,0.793511514442473,0.805589353429375,0.8027496643988121,0.7990991042023637
0.7786773446227364,0.7765789471430744,0.7745145723655473,0.7675180618168217,0.8195085379359057,0.8525985419164224,0.8516019485125272,0.8748119532893387,0.8225137787461422,0.8253795086752208,0.8315780112145842,0.8739359439040018,0.7344483912664599,0.7637939964329226,0.7637939964329226,0.7492761766180996,0.8536963366136607,0.860980255438257,0.8586103444282529,0.8663750802402261,0.8536963366136607,0.8683479043278323,0.8671362239910628,0.8698557680671523
0.8734707261080815,0.9009853070819611,0.9009853070819611,0.899423567802183,0.8791447162627125,0.8996626864767462,0.9100268783133142,0.9089534244619373,0.8848933330485247,0.9159088211250973,0.9136122647719851,0.9117962122834686,0.8477766212286448,0.8564433390670778,0.8564433390670778,0.8588849307839077,0.9044424033359716,0.9080019130187772,0.911172269109241,0.9077466222511856,0.9044424033359716,0.9012993031017849,0.9012993031017849,0.9019064111201851
0.870755404163916,0.8812331916819627,0.8812331916819627,0.8797571364994596,0.8833344832741113,0.9056311542169689,0.9056311542169689,0.9275460470229282,0.88076112839194,0.9032491608611612,0.906314508980941,0.9284954491318681,0.844441056815531,0.8522467811941496,0.8522467811941496,0.8610519483005601,0.9096531814754379,0.9157145965096202,0.9187660817379869,0.9339235417296987,0.9096531814754379,0.9121557444722822,0.9121557444722822,0.9239568972762359
0.7319401655118518,0.7404487807270247,0.7404487807270247,0.7422611104899139,0.7543578640112307,0.7652743540030371,0.7650745700712793,0.7531009064359194,0.7276850422134398,0.7483322907326703,0.7497517205126759,0.7597411831626848,0.7501497150169296,0.743207971774711,0.743207971774711,0.7385345265172747,0.7200351834322918,0.7581882771745352,0.7538902325089769,0.7568125878931266,0.7200351834322918,0.7432218205095129,0.7460696018956352,0.7448299059907952
0.7316021006123301,0.7301469377053982,0.7324983266788672,0.7274959534072887,0.7593974933679319,0.7756751704539315,0.7823675663259883,0.822763661853892,0.7321425675624502,0.7592662392664675,0.7565073207940317,0.8168645100834643,0.7203683413360833,0.7141720129431388,0.7141720129431388,0.7210608604667315,0.8052037046720512,0.7946768649988731,0.8050277836250701,0.8231870079089726,0.8052037046720512,0.8104407452245295,0.812612866692866,0.8331664094666289
0.8808624975129888,0.8806270648613839,0.8806270648613839,0.8917502979948511,0.8810400748479787,0.8930351277566865,0.8964265347665414,0.8957104813191564,0.9003703670926404,0.9121116138763197,0.9121116138763197,0.8987433117024658,0.7907394434391044,0.8275581711301041,0.8275581711301041,0.8358011769661318,0.8697078100179132,0.8861587776111055,0.8889157499112251,0.8984627494562505,0.8697078100179132,0.9020176159739889,0.9020176159739889,0.9062056214305207
0.8455835140536634,0.8404197200014849,0.8404197200014849,0.8350690347660531,0.8623501290772632,0.885317972476098,0.8872669317007469,0.8775758118136832,0.849664336579272,0.8595635068083781,0.8583247342727227,0.8755343476430266,0.80764422807116,0.8346529557967444,0.8346529557967444,0.8376847168367156,0.8591185125214976,0.8856313240294544,0.8894828342636829,0.8794738565094535,0.8591185125214976,0.869962900835869,0.8685894061818905,0.8821945023967706
0.7798708613626808,0.803907126836281,0.803907126836281,0.8068008745523375,0.8191269567811309,0.8580777080755033,0.8580777080755033,0.876487760195412,0.7980595311601596,0.8527447834651006,0.8553329966958577,0.887584293342998,0.7681083234921882,0.7693227518852274,0.7693227518852274,0.7579396640966544,0.8611446856178568,0.8806090117717698,0.8807701140007573,0.8880148646998036,0.8611446856178568,0.8714512091106401,0.8714512091106401,0.8591303112049552
0.7970242982518461,0.8030084455555319,0.8030084455555319,0.8085927271121556,0.8228689758183163,0.8699867962495654,0.8734212332720617,0.8703848216256718,0.8150827703316261,0.8582125420190597,0.8582125420190597,0.8625632236284053,0.7593831519907634,0.7747666071391617,0.7747666071391617,0.7907508770446764,0.8560993454756968,0.8716938960140493,0.8685244239339286,0.8695198502176585,0.8560993454756968,0.8695697131635369,0.8667830467015016,0.8780385627848499
