subject,channel,alpha,f1,drop_pp
156,0,1.0,0.6722396417819361,0.0
156,0,0.75,0.6883839264487495,-1.614428466681339
156,0,0.5,0.6913517968086743,-1.9112155026738242
156,0,0.25,0.692569758677139,-2.033011689520292
156,0,0.0,0.6717228484234607,0.05167933584753204
156,1,1.0,0.6722396417819361,0.0
156,1,0.75,0.6767105772268585,-0.4470935444922386
156,1,0.5,0.6750440559625417,-0.2804414180605619
156,1,0.25,0.6598750545142027,1.2364587267733373
156,1,0.0,0.6193127301000564,5.292691168187968
156,2,1.0,0.6722396417819361,0.0
156,2,0.75,0.6804817489882373,-0.8242107206301252
156,2,0.5,0.6877694758287677,-1.5529834046831614
156,2,0.25,0.6754930675668205,-0.32534257848844117
156,2,0.0,0.6438271967693215,2.841244501261453
156,3,1.0,0.6722396417819361,0.0
156,3,0.75,0.6749378207260248,-0.2698178944088747
156,3,0.5,0.67049505041759,0.17445913643460154
156,3,0.25,0.6670466589331911,0.519298284874492
156,3,0.0,0.655292598451781,1.6947043330155065
156,4,1.0,0.6722396417819361,0.0
156,4,0.75,0.677834588780215,-0.5594946998278894
156,4,0.5,0.675383655831651,-0.31440140497149827
156,4,0.25,0.6764394133088638,-0.41997715269277425
156,4,0.0,0.6544879056486865,1.775173613324954
156,5,1.0,0.6722396417819361,0.0
156,5,0.75,0.6733109629885269,-0.1071321206590814
156,5,0.5,0.6630087408790334,0.9230900902902683
156,5,0.25,0.6326221431495074,3.9617498632428694
156,5,0.0,0.5059521003234295,16.628754145850657
156,6,1.0,0.6722396417819361,0.0
156,6,0.75,0.6692381044576304,0.30015373243056365
156,6,0.5,0.670358028246782,0.18816135351540364
156,6,0.25,0.6691092074203631,0.3130434361573009
156,6,0.0,0.6647424865318088,0.7497155250127285
185,0,1.0,0.6994017599296607,0.0
185,0,0.75,0.7147504388496234,-1.5348678919962722
185,0,0.5,0.7180649234273447,-1.8663163497684043
185,0,0.25,0.6911888160933526,0.8212943836308106
185,0,0.0,0.6436686355900356,5.573312433962507
185,1,1.0,0.6994017599296607,0.0
185,1,0.75,0.7023165031790561,-0.2914743249395446
185,1,0.5,0.6943425701921011,0.5059189737559588
185,1,0.25,0.6707078384262443,2.869392150341643
185,1,0.0,0.6122899445832233,8.711181534643742
185,2,1.0,0.6994017599296607,0.0
185,2,0.75,0.7020647781302872,-0.26630182006265324
185,2,0.5,0.6861760444794959,1.322571545016482
185,2,0.25,0.6454298854148132,5.397187451484752
185,2,0.0,0.579359595079516,12.004216485014474
185,3,1.0,0.6994017599296607,0.0
185,3,0.75,0.6965522562142447,0.2849503715416035
185,3,0.5,0.691330211246876,0.8071548682784702
185,3,0.25,0.6845668838276819,1.4834876101978756
185,3,0.0,0.6685464534196188,3.085530651004187
185,4,1.0,0.6994017599296607,0.0
185,4,0.75,0.7009770042813818,-0.15752443517210724
185,4,0.5,0.7013030371979068,-0.1901277268246071
185,4,0.25,0.6930404500176698,0.6361309911990909
185,4,0.0,0.6614952380988599,3.790652183080079
185,5,1.0,0.6994017599296607,0.0
185,5,0.75,0.7175939129734624,-1.8192153043801729
185,5,0.5,0.7180350461841561,-1.8633286254495451
185,5,0.25,0.6983238300260335,0.10779299036272061
185,5,0.0,0.5705086906773369,12.889306925232379
185,6,1.0,0.6994017599296607,0.0
185,6,0.75,0.6983861746420637,0.10155852875970428
185,6,0.5,0.6945610283465677,0.484073158309295
185,6,0.25,0.6898585281260878,0.954323180357286
185,6,0.0,0.6889320911182959,1.0469668811364796
186,0,1.0,0.7708605867788546,0.0
186,0,0.75,0.770461535286775,0.03990514920796384
186,0,0.5,0.7623602473335185,0.8500339445336125
186,0,0.25,0.7206727197464133,5.0187867032441265
186,0,0.0,0.6782743429860583,9.258624379279635
186,1,1.0,0.7708605867788546,0.0
186,1,0.75,0.7715602800152931,-0.06996932364384811
186,1,0.5,0.7685533034746257,0.23072833042289131
186,1,0.25,0.7416185578006664,2.9242028978188173
186,1,0.0,0.6350650394122859,13.579554736656874
186,2,1.0,0.7708605867788546,0.0
186,2,0.75,0.7753511585762992,-0.4490571797444609
186,2,0.5,0.7739729370169364,-0.31123502380817625
186,2,0.25,0.7649417090579644,0.591887772089017
186,2,0.0,0.732574334719237,3.8286252059617554
186,3,1.0,0.7708605867788546,0.0
186,3,0.75,0.7704061309515917,0.04544558272628896
186,3,0.5,0.7673941019016761,0.34664848771784884
186,3,0.25,0.7656218757502103,0.5238711028644261
186,3,0.0,0.7461645882882824,2.4695998490572246
186,4,1.0,0.7708605867788546,0.0
186,4,0.75,0.764069577320775,0.6791009458079644
186,4,0.5,0.7512632246250098,1.9597362153844777
186,4,0.25,0.7197382644919345,5.112232228692015
186,4,0.0,0.6889908734912609,8.186971328759373
186,5,1.0,0.7708605867788546,0.0
186,5,0.75,0.7746986582692268,-0.3838071490372186
186,5,0.5,0.7673969817739948,0.346360500485976
186,5,0.25,0.7321517178806667,3.870886889818792
186,5,0.0,0.6278722849579575,14.298830182089706
186,6,1.0,0.7708605867788546,0.0
186,6,0.75,0.7732349817868829,-0.23743950080282739
186,6,0.5,0.7726125249962627,-0.17519382174080445
186,6,0.25,0.771755584737502,-0.08949979586474477
186,6,0.0,0.7627814960262038,0.8079090752650786
188,0,1.0,0.5933542433868205,0.0
188,0,0.75,0.5853852223891852,0.7969020997635301
188,0,0.5,0.5686095001304576,2.474474325636289
188,0,0.25,0.5494773783108539,4.3876865075966665
188,0,0.0,0.5279655035968409,6.538873978997961
188,1,1.0,0.5933542433868205,0.0
188,1,0.75,0.5955721708615385,-0.221792747471794
188,1,0.5,0.5895518435745868,0.38023998122337366
188,1,0.25,0.5772359567414255,1.6118286645395052
188,1,0.0,0.5425111009866816,5.084314240013887
188,2,1.0,0.5933542433868205,0.0
188,2,0.75,0.5823755758290741,1.0978667557746458
188,2,0.5,0.5689349943549123,2.4419249031908175
188,2,0.25,0.5529369574105678,4.041728597625271
188,2,0.0,0.5118406436915662,8.15135996952543
188,3,1.0,0.5933542433868205,0.0
188,3,0.75,0.5858564798635899,0.7497763523230616
188,3,0.5,0.5779234653298473,1.5430778056973238
188,3,0.25,0.5669759912423779,2.637825214444267
188,3,0.0,0.5515298504378057,4.182439294901485
188,4,1.0,0.5933542433868205,0.0
188,4,0.75,0.5897375728351335,0.3616670551687018
188,4,0.5,0.5841616864879948,0.9192556898825699
188,4,0.25,0.5721242568949548,2.1229986491865693
188,4,0.0,0.5578563871323762,3.549785625444435
188,5,1.0,0.5933542433868205,0.0
188,5,0.75,0.5915095908633357,0.18446525234848687
188,5,0.5,0.5859565412003562,0.7397702186464294
188,5,0.25,0.5776645775543233,1.5689665832497202
188,5,0.0,0.48630869817120503,10.70455452156155
188,6,1.0,0.5933542433868205,0.0
188,6,0.75,0.5988029535021209,-0.5448710115300348
188,6,0.5,0.6010948125493993,-0.7740569162578814
188,6,0.25,0.6023883345518657,-0.9034091165045166
188,6,0.0,0.5992796679377235,-0.5925424550902947
189,0,1.0,0.6862507533334148,0.0
189,0,0.75,0.6869226829120848,-0.06719295786700163
189,0,0.5,0.6845671063533875,0.16836469800273202
189,0,0.25,0.6783098054978005,0.7940947835614276
189,0,0.0,0.6378422767182608,4.840847661515402
189,1,1.0,0.6862507533334148,0.0
189,1,0.75,0.6947719896908926,-0.8521236357477813
189,1,0.5,0.701498163625222,-1.5247410291807206
189,1,0.25,0.6984932086436891,-1.2242455310274347
189,1,0.0,0.6413062929246633,4.494446040875144
189,2,1.0,0.6862507533334148,0.0
189,2,0.75,0.708220530851696,-2.196977751828122
189,2,0.5,0.7193437163522305,-3.30929630188157
189,2,0.25,0.7220595907971643,-3.580883746374952
189,2,0.0,0.6559053582799415,3.0345395053473334
189,3,1.0,0.6862507533334148,0.0
189,3,0.75,0.6877053404158834,-0.14545870824685947
189,3,0.5,0.6808591655963168,0.5391587737098025
189,3,0.25,0.6715284508766723,1.4722302456742442
189,3,0.0,0.6577007320144743,2.8550021318940466
189,4,1.0,0.6862507533334148,0.0
189,4,0.75,0.6825388454996971,0.3711907833717665
189,4,0.5,0.6786659883521431,0.7584764981271697
189,4,0.25,0.659734870085394,2.651588324802079
189,4,0.0,0.6339838113555487,5.226694197786608
189,5,1.0,0.6862507533334148,0.0
189,5,0.75,0.6910818030001664,-0.483104966675163
189,5,0.5,0.6788359563568582,0.7414796976556559
189,5,0.25,0.6434834137019466,4.2767339631468175
189,5,0.0,0.49823903917453893,18.801171415887584
189,6,1.0,0.6862507533334148,0.0
189,6,0.75,0.6926288368995309,-0.6378083566116133
189,6,0.5,0.6994254801352363,-1.3174726801821524
189,6,0.25,0.7069450128198624,-2.0694259486447653
189,6,0.0,0.7126104181294514,-2.6359664796036575
190,0,1.0,0.702212508907528,0.0
190,0,0.75,0.7093525842643632,-0.7140075356835252
190,0,0.5,0.7042558828291063,-0.20433739215783842
190,0,0.25,0.6801577522254111,2.205475668211687
190,0,0.0,0.608931981752843,9.328052715468493
190,1,1.0,0.702212508907528,0.0
190,1,0.75,0.6989158618524302,0.3296647055097801
190,1,0.5,0.6910755716896522,1.1136937217875786
190,1,0.25,0.6563742293076648,4.583827959986319
190,1,0.0,0.5853940272247846,11.681848168274334
190,2,1.0,0.702212508907528,0.0
190,2,0.75,0.6878478731086368,1.4364635798891134
190,2,0.5,0.6600663984793167,4.214611042821126
190,2,0.25,0.6300796484213563,7.213286048617162
190,2,0.0,0.5675667519588495,13.464575694867841
190,3,1.0,0.702212508907528,0.0
190,3,0.75,0.7010147883640236,0.11977205435043103
190,3,0.5,0.6933853425926783,0.8827166314849699
190,3,0.25,0.6866697472319627,1.554276167556523
190,3,0.0,0.6718626851649169,3.034982374261108
190,4,1.0,0.702212508907528,0.0
190,4,0.75,0.6977012432360028,0.45112656715251553
190,4,0.5,0.6908583685255977,1.1354140381930278
190,4,0.25,0.6834102942107456,1.8802214696782338
190,4,0.0,0.6394642788738413,6.2748230033686685
190,5,1.0,0.702212508907528,0.0
190,5,0.75,0.7109071507944936,-0.869464188696567
190,5,0.5,0.7065262989826141,-0.43137900750861435
190,5,0.25,0.6789802407792654,2.323226812826251
190,5,0.0,0.6243235855557325,7.7888923351795425
190,6,1.0,0.702212508907528,0.0
190,6,0.75,0.699788276861581,0.24242320459469946
190,6,0.5,0.6882476158446016,1.3964893062926365
190,6,0.25,0.6760491590876563,2.6163349819871673
190,6,0.0,0.659793333774411,4.2419175133117
191,0,1.0,0.6357788638358586,0.0
191,0,0.75,0.6205451381334709,1.523372570238768
191,0,0.5,0.6111320269745988,2.464683686125979
191,0,0.25,0.5760454938995855,5.97333699362731
191,0,0.0,0.5294778638201403,10.63010000157183
191,1,1.0,0.6357788638358586,0.0
191,1,0.75,0.6293537986918378,0.6425065144020747
191,1,0.5,0.6215242978796198,1.4254565956238752
191,1,0.25,0.5848462164602757,5.09326473755829
191,1,0.0,0.5326607571997828,10.311810663607579
191,2,1.0,0.6357788638358586,0.0
191,2,0.75,0.6381442066161193,-0.2365342780260682
191,2,0.5,0.6381845272868818,-0.2405663451023221
191,2,0.25,0.6421260822785568,-0.6347218442698255
191,2,0.0,0.6011448404168868,3.4634023418971815
191,3,1.0,0.6357788638358586,0.0
191,3,0.75,0.6477385450621675,-1.1959681226308971
191,3,0.5,0.6619804958638056,-2.620163202794701
191,3,0.25,0.6662508971688451,-3.0472033332986537
191,3,0.0,0.6750584029116655,-3.9279539075806946
191,4,1.0,0.6357788638358586,0.0
191,4,0.75,0.6179795575456946,1.7799306290164019
191,4,0.5,0.6025275828732878,3.3251280962570795
191,4,0.25,0.5834722491646132,5.230661467124542
191,4,0.0,0.5678404650855818,6.793839875027674
191,5,1.0,0.6357788638358586,0.0
191,5,0.75,0.6468094042545508,-1.1030540418692225
191,5,0.5,0.6553328122470093,-1.9553948411150768
191,5,0.25,0.6287585093082425,0.7020354527616068
191,5,0.0,0.5353131436765933,10.046572015926525
191,6,1.0,0.6357788638358586,0.0
191,6,0.75,0.6444896164784886,-0.8710752642629993
191,6,0.5,0.6394965092761034,-0.37176454402447767
191,6,0.25,0.6405168977843542,-0.473803394849559
191,6,0.0,0.6336266918903344,0.2152171945524195
192,0,1.0,0.4534356843662717,0.0
192,0,0.75,0.4614910642745954,-0.8055379908323723
192,0,0.5,0.4608563595695877,-0.7420675203316018
192,0,0.25,0.4367469433925336,1.668874097373807
192,0,0.0,0.4256809039793541,2.775478038691759
192,1,1.0,0.4534356843662717,0.0
192,1,0.75,0.4519586379444622,0.1477046421809458
192,1,0.5,0.43105490180876094,2.2380782557510748
192,1,0.25,0.40582205032295854,4.761363404331314
192,1,0.0,0.3893237319829814,6.411195238329026
192,2,1.0,0.4534356843662717,0.0
192,2,0.75,0.44050925093619187,1.292643343007982
192,2,0.5,0.4104556717589545,4.298001260731721
192,2,0.25,0.38402295169207434,6.941273267419734
192,2,0.0,0.3656914552158497,8.774422915042196
192,3,1.0,0.4534356843662717,0.0
192,3,0.75,0.45574953823657494,-0.23138538703032507
192,3,0.5,0.45746399503190827,-0.4028310665636581
192,3,0.25,0.4564059241098508,-0.29702397435791283
192,3,0.0,0.4582877201975558,-0.48520358312841294
192,4,1.0,0.4534356843662717,0.0
192,4,0.75,0.45289562208331813,0.05400622829535573
192,4,0.5,0.4545669892909529,-0.11313049246812201
192,4,0.25,0.4536742002507139,-0.023851588444223637
192,4,0.0,0.43195901999366704,2.147666437260465
192,5,1.0,0.4534356843662717,0.0
192,5,0.75,0.4541549720322847,-0.07192876660130354
192,5,0.5,0.4462959360724301,0.7139748293841564
192,5,0.25,0.43390706935560996,1.952861501066172
192,5,0.0,0.42862976425612187,2.4805920110149815
192,6,1.0,0.4534356843662717,0.0
192,6,0.75,0.45572221269010577,-0.22865283238340806
192,6,0.5,0.45665105550212526,-0.3215371135853573
192,6,0.25,0.4587252154500646,-0.5289531083792931
192,6,0.0,0.4578257518556943,-0.4390067489422611
193,0,1.0,0.6061926644671438,0.0
193,0,0.75,0.5938703856237677,1.232227884337611
193,0,0.5,0.5832952533877785,2.289741107936527
193,0,0.25,0.5578649658004784,4.832769866666542
193,0,0.0,0.49543470795831435,11.075795650882947
193,1,1.0,0.6061926644671438,0.0
193,1,0.75,0.6006762519998297,0.5516412467314158
193,1,0.5,0.5889862275430182,1.72064369241256
193,1,0.25,0.558278689712258,4.791397475488579
193,1,0.0,0.5168436502600791,8.934901420706476
193,2,1.0,0.6061926644671438,0.0
193,2,0.75,0.6045358773811194,0.16567870860244582
193,2,0.5,0.5870994313418374,1.909323312530642
193,2,0.25,0.5548855856586228,5.130707880852103
193,2,0.0,0.514716172685737,9.147649178140682
193,3,1.0,0.6061926644671438,0.0
193,3,0.75,0.6088834385035754,-0.2690774036431587
193,3,0.5,0.6057875916771207,0.04050727900231088
193,3,0.25,0.596269851076696,0.9922813390447871
193,3,0.0,0.5907858395119074,1.5406824955236376
193,4,1.0,0.6061926644671438,0.0
193,4,0.75,0.6220553467758243,-1.5862682308680487
193,4,0.5,0.6281402684356197,-2.1947603968475837
193,4,0.25,0.6385300982988167,-3.233743383167287
193,4,0.0,0.5954109326210877,1.078173184605613
193,5,1.0,0.6061926644671438,0.0
193,5,0.75,0.5978160760074676,0.837658845967626
193,5,0.5,0.5907147643128965,1.5477900154247326
193,5,0.25,0.5522236392790427,5.396902518810109
193,5,0.0,0.49484456199403143,11.134810247311238
193,6,1.0,0.6061926644671438,0.0
193,6,0.75,0.604145580113733,0.2047084353410833
193,6,0.5,0.6003954384714278,0.5797225995715971
193,6,0.25,0.5975055816365117,0.8687082830632131
193,6,0.0,0.5872125931317741,1.898007133536972
194,0,1.0,0.7470020612482797,0.0
194,0,0.75,0.7458428563951589,0.1159204853120821
194,0,0.5,0.7419931703075475,0.5008890940732202
194,0,0.25,0.7282034643296571,1.8798596918622623
194,0,0.0,0.6852635116066208,6.173854964165892
194,1,1.0,0.7470020612482797,0.0
194,1,0.75,0.7521390392495204,-0.5136978001240688
194,1,0.5,0.7507772902541325,-0.37752290058528093
194,1,0.25,0.74645345501192,0.05486062363597721
194,1,0.0,0.6919849271341096,5.5017134114170085
194,2,1.0,0.7470020612482797,0.0
194,2,0.75,0.7525730286551552,-0.557096740687546
194,2,0.5,0.7594610391376941,-1.2458977889414413
194,2,0.25,0.7515215194262765,-0.45194581779968157
194,2,0.0,0.6928011934850151,5.42008677632646
194,3,1.0,0.7470020612482797,0.0
194,3,0.75,0.7472568979916456,-0.02548367433659049
194,3,0.5,0.7436754311980448,0.33266300502349244
194,3,0.25,0.737311031356636,0.9691029891643721
194,3,0.0,0.7365299086632596,1.04721525850201
194,4,1.0,0.7470020612482797,0.0
194,4,0.75,0.7479770141836812,-0.09749529354015074
194,4,0.5,0.747719737901371,-0.07176766530913037
194,4,0.25,0.7397236354835006,0.7278425764779106
194,4,0.0,0.6974102088449159,4.959185240336383
194,5,1.0,0.7470020612482797,0.0
194,5,0.75,0.7476796966212251,-0.06776353729454065
194,5,0.5,0.7366437855629512,1.0358275685328544
194,5,0.25,0.7004408784552794,4.656118279300037
194,5,0.0,0.601732052762084,14.527000848619576
194,6,1.0,0.7470020612482797,0.0
194,6,0.75,0.7516883044568412,-0.468624320856148
194,6,0.5,0.7578193369165808,-1.081727566830104
194,6,0.25,0.7589077952681573,-1.19057340198776
194,6,0.0,0.762719391139803,-1.5717329891523302
