subject,block,block_width,feature_channel,gate_mean,gate_sd
156,0,32,0,0.5165479183197021,0.04002797231078148
156,0,32,1,0.4515538811683655,0.05043810233473778
156,0,32,2,0.599789559841156,0.057883121073246
156,0,32,3,0.3806755244731903,0.05411732196807861
156,0,32,4,0.4423368275165558,0.045745208859443665
156,0,32,5,0.42010200023651123,0.05855927988886833
156,0,32,6,0.513901948928833,0.02054494433104992
156,0,32,7,0.5523709654808044,0.026339655742049217
156,0,32,8,0.46437281370162964,0.056749120354652405
156,0,32,9,0.5544131398200989,0.07628117501735687
156,0,32,10,0.5615558624267578,0.06280414015054703
156,0,32,11,0.5648359656333923,0.044965680688619614
156,0,32,12,0.5096632838249207,0.045451570302248
156,0,32,13,0.49644312262535095,0.06721924990415573
156,0,32,14,0.4560023844242096,0.09391371160745621
156,0,32,15,0.5640479326248169,0.07433024048805237
156,0,32,16,0.4559227228164673,0.03601302206516266
156,0,32,17,0.5289255976676941,0.04083145037293434
156,0,32,18,0.5108466744422913,0.05217726156115532
156,0,32,19,0.44376012682914734,0.04110719636082649
156,0,32,20,0.3170897662639618,0.06035605072975159
156,0,32,21,0.42451032996177673,0.030264584347605705
156,0,32,22,0.35073429346084595,0.03302283585071564
156,0,32,23,0.4510846436023712,0.03401409089565277
156,0,32,24,0.5769757628440857,0.04644180089235306
156,0,32,25,0.5213667154312134,0.04735610634088516
156,0,32,26,0.5534347891807556,0.08440985530614853
156,0,32,27,0.5997743606567383,0.056940335780382156
156,0,32,28,0.6225789189338684,0.06903474032878876
156,0,32,29,0.6126490235328674,0.07080329954624176
156,0,32,30,0.5453348755836487,0.042105939239263535
156,0,32,31,0.47123733162879944,0.046520594507455826
156,1,32,0,0.5574925541877747,0.08449558168649673
156,1,32,1,0.4337783455848694,0.05356864258646965
156,1,32,2,0.551706075668335,0.024971242994070053
156,1,32,3,0.5346830487251282,0.10631890594959259
156,1,32,4,0.531440794467926,0.07895879447460175
156,1,32,5,0.5603637099266052,0.101132333278656
156,1,32,6,0.6157688498497009,0.07839476317167282
156,1,32,7,0.49268507957458496,0.06321205198764801
156,1,32,8,0.5704512596130371,0.07222380489110947
156,1,32,9,0.6044543981552124,0.03419889882206917
156,1,32,10,0.4247884154319763,0.08502092957496643
156,1,32,11,0.4702788293361664,0.09558100253343582
156,1,32,12,0.66340571641922,0.06441954523324966
156,1,32,13,0.45099037885665894,0.0558178685605526
156,1,32,14,0.5335000157356262,0.0825023353099823
156,1,32,15,0.5658652782440186,0.07131762057542801
156,1,32,16,0.3768587112426758,0.05622110515832901
156,1,32,17,0.5890088081359863,0.09806752949953079
156,1,32,18,0.5764236450195312,0.03771950677037239
156,1,32,19,0.5095021724700928,0.07529854774475098
156,1,32,20,0.48416537046432495,0.09941026568412781
156,1,32,21,0.49685609340667725,0.13192503154277802
156,1,32,22,0.43539759516716003,0.04671355336904526
156,1,32,23,0.5729978084564209,0.10815353691577911
156,1,32,24,0.43146318197250366,0.10144838690757751
156,1,32,25,0.5282354354858398,0.07716073840856552
156,1,32,26,0.3482851982116699,0.05622140318155289
156,1,32,27,0.30052611231803894,0.09133171290159225
156,1,32,28,0.47505640983581543,0.09788434207439423
156,1,32,29,0.4642130136489868,0.11347278207540512
156,1,32,30,0.4103330969810486,0.12218928337097168
156,1,32,31,0.5423482060432434,0.08973149210214615
156,2,64,0,0.47021010518074036,0.19017159938812256
156,2,64,1,0.5006536245346069,0.055811814963817596
156,2,64,2,0.5091338157653809,0.10753077268600464
156,2,64,3,0.5983453989028931,0.10650654137134552
156,2,64,4,0.45283618569374084,0.16147787868976593
156,2,64,5,0.49435901641845703,0.07172757387161255
156,2,64,6,0.4077606499195099,0.15630555152893066
156,2,64,7,0.6784564256668091,0.07799700647592545
156,2,64,8,0.37087830901145935,0.10797938704490662
156,2,64,9,0.43199729919433594,0.12771357595920563
156,2,64,10,0.5182288289070129,0.15223920345306396
156,2,64,11,0.5504908561706543,0.18558035790920258
156,2,64,12,0.4650033712387085,0.17785748839378357
156,2,64,13,0.5073176622390747,0.22743530571460724
156,2,64,14,0.7285090088844299,0.143051415681839
156,2,64,15,0.3308957517147064,0.12929008901119232
156,2,64,16,0.3910352289676666,0.16012363135814667
156,2,64,17,0.515885055065155,0.11256159842014313
156,2,64,18,0.5585251450538635,0.1320101022720337
156,2,64,19,0.34253227710723877,0.12138188630342484
156,2,64,20,0.5723498463630676,0.18564651906490326
156,2,64,21,0.4602152705192566,0.19289669394493103
156,2,64,22,0.5657386183738708,0.13674527406692505
156,2,64,23,0.2814599573612213,0.12820512056350708
156,2,64,24,0.42341741919517517,0.12537658214569092
156,2,64,25,0.5175442695617676,0.1282513439655304
156,2,64,26,0.5715365409851074,0.0983641967177391
156,2,64,27,0.6962785124778748,0.15231458842754364
156,2,64,28,0.6156737804412842,0.16727158427238464
156,2,64,29,0.5514134764671326,0.15562793612480164
156,2,64,30,0.6790777444839478,0.12320576608181
156,2,64,31,0.5575428009033203,0.19738180935382843
156,2,64,32,0.5429776310920715,0.06047811731696129
156,2,64,33,0.6361748576164246,0.14925290644168854
156,2,64,34,0.4500824511051178,0.108754962682724
156,2,64,35,0.5324534177780151,0.14887435734272003
156,2,64,36,0.5773622989654541,0.15803614258766174
156,2,64,37,0.5932052135467529,0.09638361632823944
156,2,64,38,0.4772430956363678,0.12841644883155823
156,2,64,39,0.6252343058586121,0.13501550257205963
156,2,64,40,0.5751017928123474,0.1573084592819214
156,2,64,41,0.4409406781196594,0.18547333776950836
156,2,64,42,0.4177815616130829,0.10254205763339996
156,2,64,43,0.590794026851654,0.15984463691711426
156,2,64,44,0.5721465945243835,0.17325086891651154
156,2,64,45,0.4536418318748474,0.0872887670993805
156,2,64,46,0.4766571819782257,0.06662016361951828
156,2,64,47,0.48310768604278564,0.16514158248901367
156,2,64,48,0.4216485619544983,0.12213415652513504
156,2,64,49,0.47906842827796936,0.11948824673891068
156,2,64,50,0.5388516187667847,0.15742860734462738
156,2,64,51,0.43642669916152954,0.16564923524856567
156,2,64,52,0.4427020251750946,0.19823431968688965
156,2,64,53,0.5109991431236267,0.19237804412841797
156,2,64,54,0.5238346457481384,0.14759604632854462
156,2,64,55,0.38402989506721497,0.18081516027450562
156,2,64,56,0.4859217405319214,0.10713177919387817
156,2,64,57,0.49628573656082153,0.16468685865402222
156,2,64,58,0.5189794301986694,0.11704441905021667
156,2,64,59,0.5827834606170654,0.08281771838665009
156,2,64,60,0.5200924277305603,0.16808763146400452
156,2,64,61,0.5025424957275391,0.13566042482852936
156,2,64,62,0.5566756725311279,0.17257657647132874
156,2,64,63,0.5212792158126831,0.1015700027346611
156,3,64,0,0.44510704278945923,0.11329326033592224
156,3,64,1,0.6200512051582336,0.10551401227712631
156,3,64,2,0.3701302409172058,0.09830337762832642
156,3,64,3,0.4909433126449585,0.11046511679887772
156,3,64,4,0.5329826474189758,0.05666254088282585
156,3,64,5,0.4558854103088379,0.06769927591085434
156,3,64,6,0.401668906211853,0.12490583956241608
156,3,64,7,0.4967135787010193,0.0933489203453064
156,3,64,8,0.5425506234169006,0.10893312841653824
156,3,64,9,0.47640711069107056,0.09036894142627716
156,3,64,10,0.4535483419895172,0.12071546912193298
156,3,64,11,0.5087863206863403,0.09034111350774765
156,3,64,12,0.5158812999725342,0.18306463956832886
156,3,64,13,0.4460766017436981,0.06889724731445312
156,3,64,14,0.412811279296875,0.13395443558692932
156,3,64,15,0.5025225877761841,0.15106512606143951
156,3,64,16,0.3828434646129608,0.0832146480679512
156,3,64,17,0.5433908700942993,0.05912145599722862
156,3,64,18,0.5689079761505127,0.05215240269899368
156,3,64,19,0.4395003020763397,0.12106642872095108
156,3,64,20,0.39451903104782104,0.13072098791599274
156,3,64,21,0.4999369978904724,0.0843357965350151
156,3,64,22,0.5591406226158142,0.0889483243227005
156,3,64,23,0.5139296650886536,0.10921982675790787
156,3,64,24,0.4708469808101654,0.09462745487689972
156,3,64,25,0.44950178265571594,0.20160479843616486
156,3,64,26,0.3900902569293976,0.11254195868968964
156,3,64,27,0.49922770261764526,0.059462711215019226
156,3,64,28,0.5579742193222046,0.1627778261899948
156,3,64,29,0.4126681089401245,0.05708584189414978
156,3,64,30,0.43119174242019653,0.083944171667099
156,3,64,31,0.526757538318634,0.12776704132556915
156,3,64,32,0.4911286234855652,0.10061933845281601
156,3,64,33,0.5185721516609192,0.09372449666261673
156,3,64,34,0.5854852795600891,0.10749903321266174
156,3,64,35,0.40805909037590027,0.1261722892522812
156,3,64,36,0.48072829842567444,0.0788264274597168
156,3,64,37,0.36542707681655884,0.10561870783567429
156,3,64,38,0.4941222369670868,0.12400384247303009
156,3,64,39,0.5563758611679077,0.13047510385513306
156,3,64,40,0.42223411798477173,0.09628914296627045
156,3,64,41,0.5272119045257568,0.11938434094190598
156,3,64,42,0.5072930455207825,0.10058245062828064
156,3,64,43,0.4999924898147583,0.08671703934669495
156,3,64,44,0.4916955530643463,0.16859588027000427
156,3,64,45,0.4537127614021301,0.13983473181724548
156,3,64,46,0.38235536217689514,0.07280062884092331
156,3,64,47,0.580139696598053,0.1634790003299713
156,3,64,48,0.3486921787261963,0.11180498450994492
156,3,64,49,0.4244343638420105,0.10258637368679047
156,3,64,50,0.48469874262809753,0.09887959063053131
156,3,64,51,0.4715903103351593,0.07155529409646988
156,3,64,52,0.38888490200042725,0.1417848914861679
156,3,64,53,0.5129303932189941,0.24447959661483765
156,3,64,54,0.568030834197998,0.12188957631587982
156,3,64,55,0.5153257250785828,0.10634592920541763
156,3,64,56,0.31906065344810486,0.08206591755151749
156,3,64,57,0.49490979313850403,0.05324600636959076
156,3,64,58,0.545392632484436,0.13767074048519135
156,3,64,59,0.4986989498138428,0.18950186669826508
156,3,64,60,0.5325273275375366,0.11117292195558548
156,3,64,61,0.496574729681015,0.09959889203310013
156,3,64,62,0.623540997505188,0.10155133157968521
156,3,64,63,0.6540958881378174,0.13704121112823486
156,4,128,0,0.5814834237098694,0.34554919600486755
156,4,128,1,0.5678170919418335,0.07052577286958694
156,4,128,2,0.44009560346603394,0.30938732624053955
156,4,128,3,0.6181938052177429,0.318318635225296
156,4,128,4,0.627626359462738,0.18194544315338135
156,4,128,5,0.4199947416782379,0.18850989639759064
156,4,128,6,0.4608580470085144,0.23997028172016144
156,4,128,7,0.6124255061149597,0.2587577700614929
156,4,128,8,0.5758275389671326,0.12751130759716034
156,4,128,9,0.5954536199569702,0.17159801721572876
156,4,128,10,0.5013176202774048,0.3775273263454437
156,4,128,11,0.45341721177101135,0.16833801567554474
156,4,128,12,0.4843187928199768,0.3154614567756653
156,4,128,13,0.5606048703193665,0.30306413769721985
156,4,128,14,0.5043285489082336,0.18141524493694305
156,4,128,15,0.4763784408569336,0.2213910073041916
156,4,128,16,0.557835042476654,0.28445497155189514
156,4,128,17,0.7978429794311523,0.19124549627304077
156,4,128,18,0.5351206660270691,0.32546529173851013
156,4,128,19,0.6270597577095032,0.18407727777957916
156,4,128,20,0.5325069427490234,0.2587062120437622
156,4,128,21,0.3754024803638458,0.29691314697265625
156,4,128,22,0.5447002053260803,0.10691800713539124
156,4,128,23,0.4203057885169983,0.25753358006477356
156,4,128,24,0.4442916214466095,0.23714737594127655
156,4,128,25,0.42667683959007263,0.37310731410980225
156,4,128,26,0.6093016266822815,0.06988835334777832
156,4,128,27,0.6746571660041809,0.08327163010835648
156,4,128,28,0.6171591281890869,0.16558730602264404
156,4,128,29,0.5078045725822449,0.3693448603153229
156,4,128,30,0.49063241481781006,0.07287295162677765
156,4,128,31,0.47066056728363037,0.339315801858902
156,4,128,32,0.6301451921463013,0.12774714827537537
156,4,128,33,0.2177049219608307,0.1445716768503189
156,4,128,34,0.6625715494155884,0.25947868824005127
156,4,128,35,0.6836546063423157,0.20769883692264557
156,4,128,36,0.37791991233825684,0.29963529109954834
156,4,128,37,0.5693963766098022,0.2093929648399353
156,4,128,38,0.6347686052322388,0.05895498767495155
156,4,128,39,0.5381528735160828,0.2796442210674286
156,4,128,40,0.4899523854255676,0.22593778371810913
156,4,128,41,0.5562579035758972,0.2733174264431
156,4,128,42,0.5229396224021912,0.2433050572872162
156,4,128,43,0.5143422484397888,0.10976375639438629
156,4,128,44,0.6541745662689209,0.20906338095664978
156,4,128,45,0.6028216481208801,0.1313534379005432
156,4,128,46,0.6810709238052368,0.28913071751594543
156,4,128,47,0.761893093585968,0.13482628762722015
156,4,128,48,0.5804117321968079,0.1355559080839157
156,4,128,49,0.6759856939315796,0.16713201999664307
156,4,128,50,0.6277777552604675,0.16101090610027313
156,4,128,51,0.6286515593528748,0.30752164125442505
156,4,128,52,0.43708354234695435,0.3163940906524658
156,4,128,53,0.5226567983627319,0.3436143100261688
156,4,128,54,0.5525017380714417,0.25577887892723083
156,4,128,55,0.5686206817626953,0.20640555024147034
156,4,128,56,0.6535390615463257,0.2482629269361496
156,4,128,57,0.609142005443573,0.08892125636339188
156,4,128,58,0.5126757621765137,0.2940846383571625
156,4,128,59,0.6229086518287659,0.17513547837734222
156,4,128,60,0.29793697595596313,0.1833566427230835
156,4,128,61,0.4050585925579071,0.14799320697784424
156,4,128,62,0.6184050440788269,0.20687337219715118
156,4,128,63,0.4122891128063202,0.1916438341140747
156,4,128,64,0.5347647666931152,0.34893813729286194
156,4,128,65,0.5683332085609436,0.14191192388534546
156,4,128,66,0.4022563695907593,0.27773386240005493
156,4,128,67,0.546308159828186,0.34902235865592957
156,4,128,68,0.2329270988702774,0.1763795018196106
156,4,128,69,0.7164869904518127,0.24875687062740326
156,4,128,70,0.6047849655151367,0.3169941306114197
156,4,128,71,0.37313133478164673,0.3577749729156494
156,4,128,72,0.6320173740386963,0.16913644969463348
156,4,128,73,0.5467045307159424,0.31974107027053833
156,4,128,74,0.5553368330001831,0.0525345541536808
156,4,128,75,0.423744797706604,0.24627149105072021
156,4,128,76,0.4552484452724457,0.15682195127010345
156,4,128,77,0.4612143635749817,0.09002461284399033
156,4,128,78,0.7057473063468933,0.14649681746959686
156,4,128,79,0.7159643769264221,0.11000768840312958
156,4,128,80,0.5173260569572449,0.193967804312706
156,4,128,81,0.6439014077186584,0.30573540925979614
156,4,128,82,0.44052913784980774,0.11610422283411026
156,4,128,83,0.5212382078170776,0.22806422412395477
156,4,128,84,0.24749624729156494,0.13459642231464386
156,4,128,85,0.38127028942108154,0.1845306158065796
156,4,128,86,0.5514240264892578,0.2531263828277588
156,4,128,87,0.430219829082489,0.3047696053981781
156,4,128,88,0.4105263352394104,0.11139999330043793
156,4,128,89,0.5531702041625977,0.20891930162906647
156,4,128,90,0.5257192850112915,0.3370727598667145
156,4,128,91,0.47944939136505127,0.20521435141563416
156,4,128,92,0.5250105857849121,0.17152731120586395
156,4,128,93,0.5530223846435547,0.1550596058368683
156,4,128,94,0.4609014689922333,0.15890394151210785
156,4,128,95,0.6574810147285461,0.21811816096305847
156,4,128,96,0.5531970858573914,0.28000426292419434
156,4,128,97,0.4992494583129883,0.13818977773189545
156,4,128,98,0.4769755005836487,0.15807469189167023
156,4,128,99,0.6431947946548462,0.27351927757263184
156,4,128,100,0.5027607679367065,0.3509337306022644
156,4,128,101,0.40610945224761963,0.1435306817293167
156,4,128,102,0.5455063581466675,0.22660838067531586
156,4,128,103,0.6132539510726929,0.13847386837005615
156,4,128,104,0.5324938893318176,0.2800690531730652
156,4,128,105,0.609431266784668,0.19599489867687225
156,4,128,106,0.5904577970504761,0.18813109397888184
156,4,128,107,0.59186851978302,0.3035293519496918
156,4,128,108,0.565912127494812,0.11333980411291122
156,4,128,109,0.3891417682170868,0.20393764972686768
156,4,128,110,0.6489585638046265,0.2391146868467331
156,4,128,111,0.6395683884620667,0.2334245890378952
156,4,128,112,0.5788359642028809,0.33170270919799805
156,4,128,113,0.40000706911087036,0.15763115882873535
156,4,128,114,0.785156786441803,0.11494922637939453
156,4,128,115,0.32301265001296997,0.26534897089004517
156,4,128,116,0.6205276846885681,0.2799456715583801
156,4,128,117,0.7767241597175598,0.11702906340360641
156,4,128,118,0.610991358757019,0.31682080030441284
156,4,128,119,0.5911999344825745,0.2973751723766327
156,4,128,120,0.6861832737922668,0.19927997887134552
156,4,128,121,0.4387381374835968,0.2896776795387268
156,4,128,122,0.5065349340438843,0.34792402386665344
156,4,128,123,0.4915357232093811,0.1220356673002243
156,4,128,124,0.5533714294433594,0.18688353896141052
156,4,128,125,0.5482620000839233,0.34502139687538147
156,4,128,126,0.522599995136261,0.25072112679481506
156,4,128,127,0.6243355870246887,0.25887441635131836
156,5,128,0,0.7798237800598145,0.2065620720386505
156,5,128,1,0.481216162443161,0.20801424980163574
156,5,128,2,0.7536472082138062,0.18607550859451294
156,5,128,3,0.6358005404472351,0.2817099392414093
156,5,128,4,0.7187682390213013,0.15159441530704498
156,5,128,5,0.6501603722572327,0.12054979056119919
156,5,128,6,0.6798033714294434,0.12902523577213287
156,5,128,7,0.47184181213378906,0.26760751008987427
156,5,128,8,0.3631756901741028,0.0715336948633194
156,5,128,9,0.6526778340339661,0.09184803068637848
156,5,128,10,0.8033596873283386,0.0926206037402153
156,5,128,11,0.7490289807319641,0.12941832840442657
156,5,128,12,0.4672017991542816,0.09590306133031845
156,5,128,13,0.6735004186630249,0.22620071470737457
156,5,128,14,0.4340464174747467,0.06896427273750305
156,5,128,15,0.3528037965297699,0.2117733508348465
156,5,128,16,0.745076060295105,0.17918895184993744
156,5,128,17,0.676862895488739,0.263482004404068
156,5,128,18,0.7272172570228577,0.14124874770641327
156,5,128,19,0.6737031936645508,0.17142756283283234
156,5,128,20,0.7689431309700012,0.1397179216146469
156,5,128,21,0.6724628806114197,0.07134023308753967
156,5,128,22,0.5594426393508911,0.11912687122821808
156,5,128,23,0.43832534551620483,0.1791195124387741
156,5,128,24,0.6642546653747559,0.11508989334106445
156,5,128,25,0.49389883875846863,0.21762269735336304
156,5,128,26,0.6284790635108948,0.21305647492408752
156,5,128,27,0.2966030240058899,0.13766901195049286
156,5,128,28,0.7520296573638916,0.09813087433576584
156,5,128,29,0.48238179087638855,0.1649736762046814
156,5,128,30,0.5484718680381775,0.09639943391084671
156,5,128,31,0.6538300514221191,0.13816949725151062
156,5,128,32,0.7804725170135498,0.1799609661102295
156,5,128,33,0.3857736587524414,0.2527094781398773
156,5,128,34,0.4978628158569336,0.19949012994766235
156,5,128,35,0.44694700837135315,0.20489557087421417
156,5,128,36,0.45383673906326294,0.09423499554395676
156,5,128,37,0.43969011306762695,0.3124764859676361
156,5,128,38,0.703537106513977,0.08487767726182938
156,5,128,39,0.7405063509941101,0.11559847742319107
156,5,128,40,0.5193890333175659,0.11539048701524734
156,5,128,41,0.5201642513275146,0.21282656490802765
156,5,128,42,0.42300868034362793,0.11574193835258484
156,5,128,43,0.330659955739975,0.14855292439460754
156,5,128,44,0.3068729043006897,0.15639862418174744
156,5,128,45,0.6661719083786011,0.1870473027229309
156,5,128,46,0.7045331001281738,0.25159379839897156
156,5,128,47,0.34022557735443115,0.1577628254890442
156,5,128,48,0.6878874897956848,0.17297054827213287
156,5,128,49,0.6019703149795532,0.11375546455383301
156,5,128,50,0.7325242757797241,0.14892104268074036
156,5,128,51,0.6904075741767883,0.1952797919511795
156,5,128,52,0.30923283100128174,0.21579915285110474
156,5,128,53,0.7957093119621277,0.12919794023036957
156,5,128,54,0.7054461240768433,0.12988606095314026
156,5,128,55,0.7012418508529663,0.14274993538856506
156,5,128,56,0.6350307464599609,0.11093384027481079
156,5,128,57,0.37548837065696716,0.16676194965839386
156,5,128,58,0.43972048163414,0.2623864412307739
156,5,128,59,0.6457601189613342,0.13508716225624084
156,5,128,60,0.634747326374054,0.2117086797952652
156,5,128,61,0.46764349937438965,0.14779837429523468
156,5,128,62,0.4957682192325592,0.2535232901573181
156,5,128,63,0.711974024772644,0.21289315819740295
156,5,128,64,0.6635258793830872,0.1207396388053894
156,5,128,65,0.7392046451568604,0.21910396218299866
156,5,128,66,0.39270058274269104,0.185160294175148
156,5,128,67,0.7232760787010193,0.16059331595897675
156,5,128,68,0.7089346051216125,0.17036999762058258
156,5,128,69,0.6707862019538879,0.2564932703971863
156,5,128,70,0.5248042941093445,0.1835877001285553
156,5,128,71,0.3997114598751068,0.23186548054218292
156,5,128,72,0.4243278503417969,0.21645934879779816
156,5,128,73,0.42716240882873535,0.2994985580444336
156,5,128,74,0.7131168246269226,0.11308872699737549
156,5,128,75,0.5847168564796448,0.23422804474830627
156,5,128,76,0.5588303804397583,0.14394760131835938
156,5,128,77,0.6279768943786621,0.11292491108179092
156,5,128,78,0.7226914763450623,0.20566049218177795
156,5,128,79,0.480520635843277,0.10738234966993332
156,5,128,80,0.627813458442688,0.258790522813797
156,5,128,81,0.7752736806869507,0.16788676381111145
156,5,128,82,0.7011387944221497,0.12573331594467163
156,5,128,83,0.6664361357688904,0.1802693009376526
156,5,128,84,0.7142710089683533,0.1340227723121643
156,5,128,85,0.6160052418708801,0.12700499594211578
156,5,128,86,0.3946569859981537,0.17922361195087433
156,5,128,87,0.6959080696105957,0.18054310977458954
156,5,128,88,0.5665686130523682,0.1285911649465561
156,5,128,89,0.5917508602142334,0.09664569050073624
156,5,128,90,0.29635903239250183,0.12947295606136322
156,5,128,91,0.4700256288051605,0.20792096853256226
156,5,128,92,0.3990538418292999,0.17922793328762054
156,5,128,93,0.5798451900482178,0.18394646048545837
156,5,128,94,0.508324921131134,0.11775662004947662
156,5,128,95,0.4726439416408539,0.259114533662796
156,5,128,96,0.734796941280365,0.1316327005624771
156,5,128,97,0.7104068994522095,0.15371322631835938
156,5,128,98,0.40383684635162354,0.14262449741363525
156,5,128,99,0.5618839263916016,0.14918529987335205
156,5,128,100,0.6155478954315186,0.17307551205158234
156,5,128,101,0.5151013731956482,0.14184370636940002
156,5,128,102,0.732817530632019,0.15707626938819885
156,5,128,103,0.7355608344078064,0.13792259991168976
156,5,128,104,0.5593550205230713,0.28138285875320435
156,5,128,105,0.3610834777355194,0.11957960575819016
156,5,128,106,0.6712962985038757,0.12600715458393097
156,5,128,107,0.7616987824440002,0.18279695510864258
156,5,128,108,0.6800122261047363,0.13039347529411316
156,5,128,109,0.4580996334552765,0.2225751131772995
156,5,128,110,0.6388880014419556,0.27043765783309937
156,5,128,111,0.6781837344169617,0.21532520651817322
156,5,128,112,0.713266909122467,0.16857394576072693
156,5,128,113,0.5235251188278198,0.07882571965456009
156,5,128,114,0.5804761648178101,0.14913558959960938
156,5,128,115,0.5560693144798279,0.12209469079971313
156,5,128,116,0.7498969435691833,0.1322007179260254
156,5,128,117,0.779213011264801,0.1314520537853241
156,5,128,118,0.5283205509185791,0.15343791246414185
156,5,128,119,0.6590684652328491,0.11223278194665909
156,5,128,120,0.7037396430969238,0.22036120295524597
156,5,128,121,0.7552093863487244,0.13539691269397736
156,5,128,122,0.5434660315513611,0.2161867320537567
156,5,128,123,0.719611644744873,0.13559696078300476
156,5,128,124,0.7010454535484314,0.18892952799797058
156,5,128,125,0.4321679472923279,0.2558416426181793
156,5,128,126,0.7695940136909485,0.147064670920372
156,5,128,127,0.6519653797149658,0.2881186306476593
185,0,32,0,0.4782446622848511,0.06939936429262161
185,0,32,1,0.44846755266189575,0.04730111360549927
185,0,32,2,0.40660274028778076,0.07148699462413788
185,0,32,3,0.4281311333179474,0.04290127381682396
185,0,32,4,0.5291008353233337,0.06735029071569443
185,0,32,5,0.4552273750305176,0.0797918438911438
185,0,32,6,0.44309958815574646,0.08013451844453812
185,0,32,7,0.5293952822685242,0.10115202516317368
185,0,32,8,0.4049430787563324,0.08973530679941177
185,0,32,9,0.4717637002468109,0.014508271589875221
185,0,32,10,0.36471062898635864,0.1045958548784256
185,0,32,11,0.5710743069648743,0.07425378262996674
185,0,32,12,0.5259833335876465,0.08799059689044952
185,0,32,13,0.4412634074687958,0.031825751066207886
185,0,32,14,0.38964834809303284,0.054593488574028015
185,0,32,15,0.39410680532455444,0.030899425968527794
185,0,32,16,0.5155588388442993,0.061718933284282684
185,0,32,17,0.5492744445800781,0.04277347773313522
185,0,32,18,0.5716516375541687,0.04647958278656006
185,0,32,19,0.5699213743209839,0.1263250857591629
185,0,32,20,0.5445253849029541,0.1298779845237732
185,0,32,21,0.5229861736297607,0.11562633514404297
185,0,32,22,0.5481446981430054,0.11030174791812897
185,0,32,23,0.5427936911582947,0.030234506353735924
185,0,32,24,0.5630866289138794,0.07059679925441742
185,0,32,25,0.46665915846824646,0.07622743397951126
185,0,32,26,0.45965176820755005,0.0912492647767067
185,0,32,27,0.46303391456604004,0.053661469370126724
185,0,32,28,0.509297788143158,0.03907399997115135
185,0,32,29,0.5392442345619202,0.04328533634543419
185,0,32,30,0.41900190711021423,0.09821706265211105
185,0,32,31,0.3929160535335541,0.09160760790109634
185,1,32,0,0.5166879892349243,0.15164636075496674
185,1,32,1,0.5340617299079895,0.06494028866291046
185,1,32,2,0.5041922330856323,0.11368600279092789
185,1,32,3,0.3766162395477295,0.08051899075508118
185,1,32,4,0.5440222024917603,0.04630634933710098
185,1,32,5,0.4988468289375305,0.04584474489092827
185,1,32,6,0.4366854429244995,0.1468861997127533
185,1,32,7,0.5507258772850037,0.1378854513168335
185,1,32,8,0.56251460313797,0.0416976697742939
185,1,32,9,0.32781603932380676,0.05149679258465767
185,1,32,10,0.4629879891872406,0.10290519148111343
185,1,32,11,0.4268064498901367,0.08870703727006912
185,1,32,12,0.4735304117202759,0.03033987432718277
185,1,32,13,0.3862312436103821,0.044718604534864426
185,1,32,14,0.3530645966529846,0.08459258079528809
185,1,32,15,0.4277232885360718,0.10693307220935822
185,1,32,16,0.38704463839530945,0.08207384496927261
185,1,32,17,0.49790284037590027,0.07161752879619598
185,1,32,18,0.48357197642326355,0.10409260541200638
185,1,32,19,0.5092007517814636,0.19681525230407715
185,1,32,20,0.48647961020469666,0.11005567014217377
185,1,32,21,0.6402502059936523,0.09458485245704651
185,1,32,22,0.5832213759422302,0.10479685664176941
185,1,32,23,0.526524007320404,0.08887086808681488
185,1,32,24,0.3397793173789978,0.10180111974477768
185,1,32,25,0.5235174894332886,0.0827341079711914
185,1,32,26,0.4415111243724823,0.03690076246857643
185,1,32,27,0.5063448548316956,0.08958004415035248
185,1,32,28,0.6334226727485657,0.05374733358621597
185,1,32,29,0.6411709785461426,0.048747576773166656
185,1,32,30,0.5312286615371704,0.06662263721227646
185,1,32,31,0.6126453876495361,0.04206312075257301
185,2,64,0,0.45055830478668213,0.22479836642742157
185,2,64,1,0.6052377820014954,0.17373594641685486
185,2,64,2,0.38025015592575073,0.12690281867980957
185,2,64,3,0.6001560688018799,0.15333735942840576
185,2,64,4,0.4085668623447418,0.08736786991357803
185,2,64,5,0.4955734312534332,0.1598004847764969
185,2,64,6,0.439065545797348,0.09220332652330399
185,2,64,7,0.48425546288490295,0.19931553304195404
185,2,64,8,0.6204465627670288,0.20227575302124023
185,2,64,9,0.5471246242523193,0.10429516434669495
185,2,64,10,0.37188294529914856,0.11578687280416489
185,2,64,11,0.3349800705909729,0.07644899189472198
185,2,64,12,0.4820404648780823,0.12854386866092682
185,2,64,13,0.54728764295578,0.09163151681423187
185,2,64,14,0.6757631301879883,0.07331989705562592
185,2,64,15,0.545139491558075,0.09028851985931396
185,2,64,16,0.546672523021698,0.14550358057022095
185,2,64,17,0.5236701965332031,0.13342858850955963
185,2,64,18,0.44733870029449463,0.19806529581546783
185,2,64,19,0.7195305824279785,0.14455440640449524
185,2,64,20,0.5878689289093018,0.11988668888807297
185,2,64,21,0.44922828674316406,0.13476629555225372
185,2,64,22,0.5482438802719116,0.11648862063884735
185,2,64,23,0.552160382270813,0.14064739644527435
185,2,64,24,0.5143410563468933,0.1568046361207962
185,2,64,25,0.6371847987174988,0.16466191411018372
185,2,64,26,0.5113202333450317,0.165571928024292
185,2,64,27,0.6511145234107971,0.09832647442817688
185,2,64,28,0.39771366119384766,0.12721966207027435
185,2,64,29,0.5525279641151428,0.06530053913593292
185,2,64,30,0.6283488869667053,0.20249463617801666
185,2,64,31,0.5550058484077454,0.18193350732326508
185,2,64,32,0.5129360556602478,0.09554225206375122
185,2,64,33,0.5763110518455505,0.14423930644989014
185,2,64,34,0.6283804178237915,0.07356001436710358
185,2,64,35,0.47794875502586365,0.09230569750070572
185,2,64,36,0.5665420889854431,0.1092766523361206
185,2,64,37,0.4697882831096649,0.08705490082502365
185,2,64,38,0.27955362200737,0.1272633820772171
185,2,64,39,0.39067330956459045,0.05317241698503494
185,2,64,40,0.582952082157135,0.15857671201229095
185,2,64,41,0.6083077788352966,0.2013014256954193
185,2,64,42,0.6046985983848572,0.23526862263679504
185,2,64,43,0.6082949042320251,0.1808273047208786
185,2,64,44,0.6498185992240906,0.12057643383741379
185,2,64,45,0.5103856921195984,0.15884384512901306
185,2,64,46,0.5286533832550049,0.1151006892323494
185,2,64,47,0.5048782825469971,0.2113066166639328
185,2,64,48,0.527948260307312,0.11960142105817795
185,2,64,49,0.4219912588596344,0.15076932311058044
185,2,64,50,0.40727052092552185,0.15079307556152344
185,2,64,51,0.4426478147506714,0.09806593507528305
185,2,64,52,0.5131317973136902,0.12410114705562592
185,2,64,53,0.5818937420845032,0.09844773262739182
185,2,64,54,0.6221035122871399,0.11996494978666306
185,2,64,55,0.6988007426261902,0.07134668529033661
185,2,64,56,0.31542569398880005,0.10808351635932922
185,2,64,57,0.3727043867111206,0.1316787451505661
185,2,64,58,0.6053206324577332,0.06146281957626343
185,2,64,59,0.5590251088142395,0.19443848729133606
185,2,64,60,0.446904718875885,0.2000351846218109
185,2,64,61,0.5010799765586853,0.21447117626667023
185,2,64,62,0.5198779106140137,0.08565949648618698
185,2,64,63,0.4170539081096649,0.1870177835226059
185,3,64,0,0.47853854298591614,0.0709853321313858
185,3,64,1,0.4647183418273926,0.12479308992624283
185,3,64,2,0.6616770625114441,0.14185106754302979
185,3,64,3,0.653624951839447,0.09603720903396606
185,3,64,4,0.5713526606559753,0.0741705372929573
185,3,64,5,0.32635989785194397,0.17401345074176788
185,3,64,6,0.45502734184265137,0.12111543118953705
185,3,64,7,0.6395569443702698,0.05320669338107109
185,3,64,8,0.63554447889328,0.1872846931219101
185,3,64,9,0.5957962274551392,0.1279325932264328
185,3,64,10,0.4703316390514374,0.14860393106937408
185,3,64,11,0.5456091165542603,0.11760719120502472
185,3,64,12,0.4504159986972809,0.08268557488918304
185,3,64,13,0.5361706614494324,0.1399008333683014
185,3,64,14,0.6187211871147156,0.1724288910627365
185,3,64,15,0.43132707476615906,0.13392876088619232
185,3,64,16,0.5098320841789246,0.1053047925233841
185,3,64,17,0.2966656982898712,0.18527443706989288
185,3,64,18,0.39800265431404114,0.10740777105093002
185,3,64,19,0.44306084513664246,0.16716128587722778
185,3,64,20,0.32620084285736084,0.13440753519535065
185,3,64,21,0.3391447961330414,0.16169707477092743
185,3,64,22,0.6199743747711182,0.1322874128818512
185,3,64,23,0.43306317925453186,0.09639285504817963
185,3,64,24,0.5378175377845764,0.08428291231393814
185,3,64,25,0.547597348690033,0.13812221586704254
185,3,64,26,0.6505534648895264,0.15047916769981384
185,3,64,27,0.42222341895103455,0.1758544147014618
185,3,64,28,0.5581920146942139,0.27551305294036865
185,3,64,29,0.4075779914855957,0.06996480375528336
185,3,64,30,0.5153863430023193,0.0879707783460617
185,3,64,31,0.3730334937572479,0.10264778137207031
185,3,64,32,0.5607420802116394,0.1876145750284195
185,3,64,33,0.409993439912796,0.14718972146511078
185,3,64,34,0.6309087872505188,0.13525773584842682
185,3,64,35,0.4882994294166565,0.11660276353359222
185,3,64,36,0.4262154698371887,0.1938326358795166
185,3,64,37,0.41272321343421936,0.10267876833677292
185,3,64,38,0.3935234546661377,0.26910725235939026
185,3,64,39,0.5047581791877747,0.14954280853271484
185,3,64,40,0.45576614141464233,0.06698542088270187
185,3,64,41,0.5284795761108398,0.10612618178129196
185,3,64,42,0.5763589143753052,0.06648144125938416
185,3,64,43,0.6620745658874512,0.18239082396030426
185,3,64,44,0.6151588559150696,0.09769489616155624
185,3,64,45,0.7299445271492004,0.10098674893379211
185,3,64,46,0.5532093644142151,0.07796844094991684
185,3,64,47,0.3091987073421478,0.08058153092861176
185,3,64,48,0.5428140759468079,0.09032882004976273
185,3,64,49,0.46657341718673706,0.11707101762294769
185,3,64,50,0.48761630058288574,0.13130678236484528
185,3,64,51,0.5031431913375854,0.08627565205097198
185,3,64,52,0.6140415072441101,0.12999935448169708
185,3,64,53,0.5487409234046936,0.24892598390579224
185,3,64,54,0.38017576932907104,0.12397955358028412
185,3,64,55,0.5555042028427124,0.06630304455757141
185,3,64,56,0.49870795011520386,0.16559486091136932
185,3,64,57,0.437791645526886,0.099627785384655
185,3,64,58,0.5866496562957764,0.09690892696380615
185,3,64,59,0.6324065923690796,0.0684008002281189
185,3,64,60,0.6141274571418762,0.21571123600006104
185,3,64,61,0.3579191565513611,0.19063930213451385
185,3,64,62,0.43233469128608704,0.07421387732028961
185,3,64,63,0.5971676111221313,0.09997894614934921
185,4,128,0,0.44120702147483826,0.11465533077716827
185,4,128,1,0.5560593605041504,0.14864054322242737
185,4,128,2,0.5292108654975891,0.14464524388313293
185,4,128,3,0.6364136934280396,0.21255290508270264
185,4,128,4,0.4469919800758362,0.1946844905614853
185,4,128,5,0.4977255165576935,0.15822957456111908
185,4,128,6,0.5774860382080078,0.2931228578090668
185,4,128,7,0.7020150423049927,0.16992148756980896
185,4,128,8,0.3630271852016449,0.21634411811828613
185,4,128,9,0.6369380950927734,0.13132329285144806
185,4,128,10,0.5732817053794861,0.2283923327922821
185,4,128,11,0.5986050367355347,0.14650170505046844
185,4,128,12,0.47174596786499023,0.2387404441833496
185,4,128,13,0.6555567383766174,0.20307765901088715
185,4,128,14,0.589949905872345,0.2920895516872406
185,4,128,15,0.6078965663909912,0.13743585348129272
185,4,128,16,0.4159557819366455,0.224796324968338
185,4,128,17,0.6369118690490723,0.14208266139030457
185,4,128,18,0.647614061832428,0.09644732624292374
185,4,128,19,0.4818514585494995,0.07896895706653595
185,4,128,20,0.5822020173072815,0.23693254590034485
185,4,128,21,0.5092270374298096,0.09211228042840958
185,4,128,22,0.5886349678039551,0.13797853887081146
185,4,128,23,0.5932595133781433,0.11089343577623367
185,4,128,24,0.38746732473373413,0.12649905681610107
185,4,128,25,0.5116804838180542,0.18136611580848694
185,4,128,26,0.6025867462158203,0.18091228604316711
185,4,128,27,0.6046305894851685,0.2383815497159958
185,4,128,28,0.5787531137466431,0.2105036973953247
185,4,128,29,0.6945509314537048,0.12846897542476654
185,4,128,30,0.41768670082092285,0.21398025751113892
185,4,128,31,0.6096407771110535,0.16856324672698975
185,4,128,32,0.4939076006412506,0.2820884585380554
185,4,128,33,0.6435498595237732,0.20377400517463684
185,4,128,34,0.41924986243247986,0.2619042694568634
185,4,128,35,0.6105220317840576,0.17707881331443787
185,4,128,36,0.718038022518158,0.18651318550109863
185,4,128,37,0.4627041220664978,0.23238900303840637
185,4,128,38,0.6538612842559814,0.11570185422897339
185,4,128,39,0.4250043034553528,0.13097220659255981
185,4,128,40,0.5595125555992126,0.17230884730815887
185,4,128,41,0.5944563746452332,0.12553992867469788
185,4,128,42,0.5653802156448364,0.08344223350286484
185,4,128,43,0.5560092926025391,0.2348421961069107
185,4,128,44,0.5946381688117981,0.09368446469306946
185,4,128,45,0.7952224016189575,0.11000450700521469
185,4,128,46,0.5894874334335327,0.12589161098003387
185,4,128,47,0.547117292881012,0.18554767966270447
185,4,128,48,0.4679161310195923,0.10347660630941391
185,4,128,49,0.635758638381958,0.173455610871315
185,4,128,50,0.5031620860099792,0.23713549971580505
185,4,128,51,0.2695174515247345,0.11622316390275955
185,4,128,52,0.4428810179233551,0.1678612381219864
185,4,128,53,0.5990189909934998,0.23227044939994812
185,4,128,54,0.41539156436920166,0.1718829721212387
185,4,128,55,0.6379525661468506,0.18366439640522003
185,4,128,56,0.4994487762451172,0.15875233709812164
185,4,128,57,0.4664459228515625,0.1510898917913437
185,4,128,58,0.5448997020721436,0.16375015676021576
185,4,128,59,0.5439050197601318,0.2644972801208496
185,4,128,60,0.6346476078033447,0.1694612205028534
185,4,128,61,0.3927186131477356,0.1969238668680191
185,4,128,62,0.5062587857246399,0.1069396436214447
185,4,128,63,0.7954085469245911,0.12154483050107956
185,4,128,64,0.4690793454647064,0.1649276167154312
185,4,128,65,0.5328018665313721,0.12151728570461273
185,4,128,66,0.3449181318283081,0.12493088841438293
185,4,128,67,0.5344415307044983,0.30988913774490356
185,4,128,68,0.7073231935501099,0.10423462837934494
185,4,128,69,0.5716965794563293,0.2592802345752716
185,4,128,70,0.6140863299369812,0.14388534426689148
185,4,128,71,0.38447633385658264,0.2023538053035736
185,4,128,72,0.6978653073310852,0.1013566181063652
185,4,128,73,0.5181989669799805,0.19481106102466583
185,4,128,74,0.6053757667541504,0.12081107497215271
185,4,128,75,0.6060412526130676,0.21485045552253723
185,4,128,76,0.5934519171714783,0.17928507924079895
185,4,128,77,0.5023489594459534,0.1449766755104065
185,4,128,78,0.6594641208648682,0.16426865756511688
185,4,128,79,0.5942463874816895,0.12564130127429962
185,4,128,80,0.4380130171775818,0.1395106464624405
185,4,128,81,0.5571686029434204,0.1340734213590622
185,4,128,82,0.7119273543357849,0.12782037258148193
185,4,128,83,0.525913655757904,0.2089615762233734
185,4,128,84,0.3727705776691437,0.06130132079124451
185,4,128,85,0.7178535461425781,0.12001178413629532
185,4,128,86,0.6082846522331238,0.2672842741012573
185,4,128,87,0.6844785213470459,0.131059929728508
185,4,128,88,0.49651777744293213,0.1868438422679901
185,4,128,89,0.6382402181625366,0.18805062770843506
185,4,128,90,0.5941280126571655,0.22524090111255646
185,4,128,91,0.44503602385520935,0.25072789192199707
185,4,128,92,0.5284674167633057,0.21299558877944946
185,4,128,93,0.5863303542137146,0.1368112415075302
185,4,128,94,0.48478248715400696,0.21315744519233704
185,4,128,95,0.7036722898483276,0.11799132823944092
185,4,128,96,0.5447474122047424,0.20726996660232544
185,4,128,97,0.5239149332046509,0.07548202574253082
185,4,128,98,0.5319970846176147,0.27756011486053467
185,4,128,99,0.5351307392120361,0.27868181467056274
185,4,128,100,0.6060532927513123,0.11090528219938278
185,4,128,101,0.4436050057411194,0.10101253539323807
185,4,128,102,0.6275316476821899,0.15668420493602753
185,4,128,103,0.6013091206550598,0.14564763009548187
185,4,128,104,0.5780181288719177,0.2221110314130783
185,4,128,105,0.43751057982444763,0.22359588742256165
185,4,128,106,0.5999890565872192,0.13042211532592773
185,4,128,107,0.5259974598884583,0.16109751164913177
185,4,128,108,0.5985633730888367,0.09675963968038559
185,4,128,109,0.6163906455039978,0.27967569231987
185,4,128,110,0.5357640385627747,0.19062775373458862
185,4,128,111,0.524334192276001,0.19073635339736938
185,4,128,112,0.480207622051239,0.25270918011665344
185,4,128,113,0.8203126192092896,0.10964509099721909
185,4,128,114,0.43175971508026123,0.16448327898979187
185,4,128,115,0.5956099033355713,0.24331898987293243
185,4,128,116,0.4724666178226471,0.28582051396369934
185,4,128,117,0.6243824362754822,0.2135542631149292
185,4,128,118,0.6577337980270386,0.18940190970897675
185,4,128,119,0.5228843092918396,0.22694605588912964
185,4,128,120,0.593346893787384,0.17283305525779724
185,4,128,121,0.3269857168197632,0.17450302839279175
185,4,128,122,0.44126689434051514,0.23945096135139465
185,4,128,123,0.6090434789657593,0.15972107648849487
185,4,128,124,0.5590137839317322,0.10600068420171738
185,4,128,125,0.5785283446311951,0.21556444466114044
185,4,128,126,0.5535069108009338,0.1518338918685913
185,4,128,127,0.4406978189945221,0.11011061817407608
185,5,128,0,0.6099020838737488,0.2078455686569214
185,5,128,1,0.5343713164329529,0.21499048173427582
185,5,128,2,0.6811105012893677,0.163246288895607
185,5,128,3,0.741108238697052,0.15557819604873657
185,5,128,4,0.6182296276092529,0.10746484994888306
185,5,128,5,0.5728281140327454,0.0684414654970169
185,5,128,6,0.534602165222168,0.06602171063423157
185,5,128,7,0.7447671890258789,0.12464990466833115
185,5,128,8,0.5761179327964783,0.15348905324935913
185,5,128,9,0.6757208108901978,0.16537801921367645
185,5,128,10,0.5555495023727417,0.23229853808879852
185,5,128,11,0.6282217502593994,0.12005744874477386
185,5,128,12,0.5134292840957642,0.13702064752578735
185,5,128,13,0.6764652729034424,0.18910345435142517
185,5,128,14,0.5999457240104675,0.19646583497524261
185,5,128,15,0.6773727536201477,0.12944792211055756
185,5,128,16,0.47478851675987244,0.27616646885871887
185,5,128,17,0.4909035861492157,0.2771114408969879
185,5,128,18,0.5691638588905334,0.27333128452301025
185,5,128,19,0.4069281220436096,0.1466870754957199
185,5,128,20,0.6588409543037415,0.10734628140926361
185,5,128,21,0.5771782994270325,0.15147441625595093
185,5,128,22,0.5971076488494873,0.08042030036449432
185,5,128,23,0.6379267573356628,0.2189933806657791
185,5,128,24,0.7487471103668213,0.13272041082382202
185,5,128,25,0.5878434181213379,0.13721640408039093
185,5,128,26,0.6486936211585999,0.15048925578594208
185,5,128,27,0.673794150352478,0.16860346496105194
185,5,128,28,0.7025871276855469,0.14529581367969513
185,5,128,29,0.6100645661354065,0.13585978746414185
185,5,128,30,0.36006519198417664,0.1680125743150711
185,5,128,31,0.7267225384712219,0.14181043207645416
185,5,128,32,0.5267854928970337,0.11426540464162827
185,5,128,33,0.6663340926170349,0.1687912493944168
185,5,128,34,0.4417409598827362,0.12164729833602905
185,5,128,35,0.49023357033729553,0.24928899109363556
185,5,128,36,0.6770192384719849,0.20092371106147766
185,5,128,37,0.6235884428024292,0.15828271210193634
185,5,128,38,0.6705790758132935,0.17197664082050323
185,5,128,39,0.7077082395553589,0.15686798095703125
185,5,128,40,0.7030168175697327,0.1112746149301529
185,5,128,41,0.5967369079589844,0.2401898354291916
185,5,128,42,0.585818350315094,0.09614276140928268
185,5,128,43,0.6648339033126831,0.2184942066669464
185,5,128,44,0.5400248765945435,0.11204075813293457
185,5,128,45,0.6026197075843811,0.21297726035118103
185,5,128,46,0.6199594140052795,0.2021031677722931
185,5,128,47,0.6177826523780823,0.09347444772720337
185,5,128,48,0.5980873703956604,0.11193373799324036
185,5,128,49,0.7415602803230286,0.13764125108718872
185,5,128,50,0.7475383281707764,0.1259554624557495
185,5,128,51,0.5292066335678101,0.1302805095911026
185,5,128,52,0.3748210072517395,0.1162761002779007
185,5,128,53,0.5853062868118286,0.21888336539268494
185,5,128,54,0.7348785400390625,0.11594465374946594
185,5,128,55,0.548689603805542,0.17480304837226868
185,5,128,56,0.5961112976074219,0.15657779574394226
185,5,128,57,0.6462936401367188,0.113510861992836
185,5,128,58,0.5556910634040833,0.10632146149873734
185,5,128,59,0.7593207359313965,0.1491435468196869
185,5,128,60,0.4287821352481842,0.15504279732704163
185,5,128,61,0.6247910857200623,0.17359164357185364
185,5,128,62,0.41377872228622437,0.12162633240222931
185,5,128,63,0.557615339756012,0.229836106300354
185,5,128,64,0.46562445163726807,0.06530368328094482
185,5,128,65,0.5323693752288818,0.05738598480820656
185,5,128,66,0.4221577048301697,0.10084597021341324
185,5,128,67,0.5765151381492615,0.29435133934020996
185,5,128,68,0.7039994597434998,0.10881834477186203
185,5,128,69,0.38631588220596313,0.10656654089689255
185,5,128,70,0.5668190121650696,0.10640116035938263
185,5,128,71,0.6060907244682312,0.20196020603179932
185,5,128,72,0.6595104932785034,0.1883910894393921
185,5,128,73,0.6644602417945862,0.09988544136285782
185,5,128,74,0.5825453996658325,0.03975573182106018
185,5,128,75,0.6972113251686096,0.1284717470407486
185,5,128,76,0.5592679381370544,0.18392625451087952
185,5,128,77,0.4797656834125519,0.13759371638298035
185,5,128,78,0.7300511002540588,0.0948246419429779
185,5,128,79,0.6409425139427185,0.20691902935504913
185,5,128,80,0.5017646551132202,0.12174779921770096
185,5,128,81,0.5123128890991211,0.17628921568393707
185,5,128,82,0.6095170974731445,0.09622091799974442
185,5,128,83,0.7020289301872253,0.1143152192234993
185,5,128,84,0.6411879658699036,0.20869231224060059
185,5,128,85,0.6477258205413818,0.16703972220420837
185,5,128,86,0.6842869520187378,0.2095751166343689
185,5,128,87,0.6488375663757324,0.21790103614330292
185,5,128,88,0.6257964372634888,0.06799320131540298
185,5,128,89,0.37507185339927673,0.08319345116615295
185,5,128,90,0.5726210474967957,0.06421518325805664
185,5,128,91,0.7358080744743347,0.13913816213607788
185,5,128,92,0.5025111436843872,0.11736418306827545
185,5,128,93,0.48947060108184814,0.04969750717282295
185,5,128,94,0.4577638804912567,0.1356506049633026
185,5,128,95,0.7152162194252014,0.08165127784013748
185,5,128,96,0.5538567304611206,0.21164046227931976
185,5,128,97,0.5807148218154907,0.19309650361537933
185,5,128,98,0.520198404788971,0.2712562084197998
185,5,128,99,0.7581290006637573,0.155633807182312
185,5,128,100,0.7011067867279053,0.11760299652814865
185,5,128,101,0.7375949621200562,0.11778881400823593
185,5,128,102,0.6520309448242188,0.16315318644046783
185,5,128,103,0.6138194799423218,0.17543622851371765
185,5,128,104,0.7669548392295837,0.14256049692630768
185,5,128,105,0.42914292216300964,0.11164689809083939
185,5,128,106,0.6562670469284058,0.11709672212600708
185,5,128,107,0.6237239241600037,0.19743070006370544
185,5,128,108,0.4256831407546997,0.05524718761444092
185,5,128,109,0.39173734188079834,0.21914920210838318
185,5,128,110,0.5628617405891418,0.2263312041759491
185,5,128,111,0.5801730751991272,0.2023998498916626
185,5,128,112,0.7262547016143799,0.16369682550430298
185,5,128,113,0.6304342150688171,0.19336268305778503
185,5,128,114,0.5807188749313354,0.17244607210159302
185,5,128,115,0.5457848310470581,0.14709089696407318
185,5,128,116,0.5924456715583801,0.23718464374542236
185,5,128,117,0.6481063365936279,0.11907707899808884
185,5,128,118,0.700375497341156,0.18296115100383759
185,5,128,119,0.611270010471344,0.14722147583961487
185,5,128,120,0.6623133420944214,0.1129113957285881
185,5,128,121,0.6321194171905518,0.13432271778583527
185,5,128,122,0.6680000424385071,0.1008034199476242
185,5,128,123,0.46765315532684326,0.0801885649561882
185,5,128,124,0.48755067586898804,0.0736464336514473
185,5,128,125,0.5764866471290588,0.25884613394737244
185,5,128,126,0.5097389817237854,0.20511920750141144
185,5,128,127,0.6282068490982056,0.15152136981487274
186,0,32,0,0.5324655771255493,0.1405830979347229
186,0,32,1,0.3982774019241333,0.06986064463853836
186,0,32,2,0.41406896710395813,0.0611414760351181
186,0,32,3,0.4063749313354492,0.024218527600169182
186,0,32,4,0.495245099067688,0.045729294419288635
186,0,32,5,0.4825877845287323,0.1253252476453781
186,0,32,6,0.4261634349822998,0.05800950899720192
186,0,32,7,0.5690448880195618,0.024962633848190308
186,0,32,8,0.4023630619049072,0.1028510183095932
186,0,32,9,0.49097195267677307,0.02763795293867588
186,0,32,10,0.3653991222381592,0.08234859257936478
186,0,32,11,0.6370036005973816,0.03735499829053879
186,0,32,12,0.5701910257339478,0.15433116257190704
186,0,32,13,0.419998437166214,0.06546472758054733
186,0,32,14,0.43039247393608093,0.02601008675992489
186,0,32,15,0.3700488805770874,0.04226898401975632
186,0,32,16,0.5184504985809326,0.043283089995384216
186,0,32,17,0.516080915927887,0.07156138867139816
186,0,32,18,0.5479372143745422,0.029436860233545303
186,0,32,19,0.5573669075965881,0.10701493918895721
186,0,32,20,0.5535288453102112,0.11079680919647217
186,0,32,21,0.5678651332855225,0.05684993416070938
186,0,32,22,0.5734829306602478,0.13310617208480835
186,0,32,23,0.5350432991981506,0.05021020025014877
186,0,32,24,0.5395708680152893,0.052392229437828064
186,0,32,25,0.4697016775608063,0.09036348760128021
186,0,32,26,0.451918363571167,0.05412709340453148
186,0,32,27,0.44425883889198303,0.05070415139198303
186,0,32,28,0.5664140582084656,0.03906117007136345
186,0,32,29,0.5415838956832886,0.03725389018654823
186,0,32,30,0.3799585998058319,0.11069685220718384
186,0,32,31,0.40522611141204834,0.08682471513748169
186,1,32,0,0.5366451144218445,0.10144059360027313
186,1,32,1,0.5015420913696289,0.10716075450181961
186,1,32,2,0.5313904881477356,0.09491125494241714
186,1,32,3,0.4224451184272766,0.04712751507759094
186,1,32,4,0.5254303812980652,0.04764502868056297
186,1,32,5,0.5092248916625977,0.08265555649995804
186,1,32,6,0.3921677768230438,0.14684151113033295
186,1,32,7,0.5482342839241028,0.08263623714447021
186,1,32,8,0.5543648600578308,0.039762042462825775
186,1,32,9,0.3583139181137085,0.0751570537686348
186,1,32,10,0.45229434967041016,0.10134853422641754
186,1,32,11,0.3794786334037781,0.0869545117020607
186,1,32,12,0.46494513750076294,0.05180690437555313
186,1,32,13,0.3975822329521179,0.03862519562244415
186,1,32,14,0.3282445967197418,0.06739652156829834
186,1,32,15,0.4353964328765869,0.09000083804130554
186,1,32,16,0.44312912225723267,0.0995372012257576
186,1,32,17,0.5063065886497498,0.10630712658166885
186,1,32,18,0.4853583872318268,0.10091240704059601
186,1,32,19,0.5601543188095093,0.1861983686685562
186,1,32,20,0.5221258997917175,0.13245044648647308
186,1,32,21,0.6500097513198853,0.0872788056731224
186,1,32,22,0.5747174620628357,0.13428182899951935
186,1,32,23,0.5641850233078003,0.08933423459529877
186,1,32,24,0.34486153721809387,0.07578955590724945
186,1,32,25,0.5484414100646973,0.07495591044425964
186,1,32,26,0.43137094378471375,0.0501149483025074
186,1,32,27,0.4782939851284027,0.08739618957042694
186,1,32,28,0.6362547874450684,0.05274832248687744
186,1,32,29,0.6102287173271179,0.02567519061267376
186,1,32,30,0.52173912525177,0.08125213533639908
186,1,32,31,0.5957326292991638,0.02148604765534401
186,2,64,0,0.450025737285614,0.06765186041593552
186,2,64,1,0.5734763145446777,0.09802873432636261
186,2,64,2,0.38341930508613586,0.11854186654090881
186,2,64,3,0.5723674893379211,0.12081623822450638
186,2,64,4,0.46624284982681274,0.1264180839061737
186,2,64,5,0.5545934438705444,0.133008673787117
186,2,64,6,0.4711247384548187,0.19334545731544495
186,2,64,7,0.44817593693733215,0.12751305103302002
186,2,64,8,0.506010890007019,0.17780570685863495
186,2,64,9,0.4246824383735657,0.1257762908935547
186,2,64,10,0.3521689176559448,0.15824559330940247
186,2,64,11,0.4803502559661865,0.15963929891586304
186,2,64,12,0.523017406463623,0.1926269829273224
186,2,64,13,0.6642151474952698,0.11067801713943481
186,2,64,14,0.6782251596450806,0.13609951734542847
186,2,64,15,0.4422462284564972,0.24807381629943848
186,2,64,16,0.584640383720398,0.19468557834625244
186,2,64,17,0.3128092885017395,0.12044543772935867
186,2,64,18,0.5615531802177429,0.18435485661029816
186,2,64,19,0.7502926588058472,0.1212756410241127
186,2,64,20,0.3932008147239685,0.13434553146362305
186,2,64,21,0.36229848861694336,0.1385529637336731
186,2,64,22,0.438109815120697,0.20158834755420685
186,2,64,23,0.4600539207458496,0.11815723031759262
186,2,64,24,0.48199430108070374,0.10226062685251236
186,2,64,25,0.674611508846283,0.12363557517528534
186,2,64,26,0.33543872833251953,0.13022108376026154
186,2,64,27,0.37491005659103394,0.17063434422016144
186,2,64,28,0.43488964438438416,0.10601146519184113
186,2,64,29,0.5834461450576782,0.15151554346084595
186,2,64,30,0.6598778963088989,0.16306670010089874
186,2,64,31,0.652201771736145,0.23676230013370514
186,2,64,32,0.5228538513183594,0.1769702136516571
186,2,64,33,0.4002319574356079,0.20749925076961517
186,2,64,34,0.6614494919776917,0.1465904265642166
186,2,64,35,0.6177376508712769,0.27667564153671265
186,2,64,36,0.454167902469635,0.25588107109069824
186,2,64,37,0.49318626523017883,0.16270524263381958
186,2,64,38,0.47956690192222595,0.25270918011665344
186,2,64,39,0.5589062571525574,0.17796488106250763
186,2,64,40,0.5965986847877502,0.09024418890476227
186,2,64,41,0.7281994223594666,0.11415263265371323
186,2,64,42,0.6168025135993958,0.1970740407705307
186,2,64,43,0.663714587688446,0.2032541185617447
186,2,64,44,0.6904677748680115,0.16455447673797607
186,2,64,45,0.5792258381843567,0.27063363790512085
186,2,64,46,0.6081088185310364,0.08638271689414978
186,2,64,47,0.4513722062110901,0.14563864469528198
186,2,64,48,0.43280667066574097,0.23697403073310852
186,2,64,49,0.4533199369907379,0.17088960111141205
186,2,64,50,0.3837966322898865,0.10086575895547867
186,2,64,51,0.4322829842567444,0.1827506124973297
186,2,64,52,0.527258574962616,0.1540525257587433
186,2,64,53,0.5951927900314331,0.14265131950378418
186,2,64,54,0.6789159178733826,0.10404786467552185
186,2,64,55,0.6948877573013306,0.08436833322048187
186,2,64,56,0.21687085926532745,0.15267987549304962
186,2,64,57,0.3342876434326172,0.11937123537063599
186,2,64,58,0.46507254242897034,0.09832143038511276
186,2,64,59,0.6512814164161682,0.2694641947746277
186,2,64,60,0.39659079909324646,0.10599002242088318
186,2,64,61,0.4638478755950928,0.20984867215156555
186,2,64,62,0.4306715726852417,0.09842456877231598
186,2,64,63,0.2950546145439148,0.16665707528591156
186,3,64,0,0.4140728712081909,0.08520252257585526
186,3,64,1,0.5136499404907227,0.15736724436283112
186,3,64,2,0.6721949577331543,0.21561066806316376
186,3,64,3,0.6634701490402222,0.1817699372768402
186,3,64,4,0.5826240181922913,0.16569694876670837
186,3,64,5,0.36719825863838196,0.20378617942333221
186,3,64,6,0.5162686705589294,0.12728002667427063
186,3,64,7,0.6623402833938599,0.1598997265100479
186,3,64,8,0.6233159303665161,0.15842939913272858
186,3,64,9,0.49777981638908386,0.18844600021839142
186,3,64,10,0.4583272337913513,0.2577667236328125
186,3,64,11,0.5160220861434937,0.10284407436847687
186,3,64,12,0.602756679058075,0.1308978945016861
186,3,64,13,0.5525137782096863,0.1675175428390503
186,3,64,14,0.5886151790618896,0.12770992517471313
186,3,64,15,0.4887487590312958,0.2528459429740906
186,3,64,16,0.5702164173126221,0.09971179813146591
186,3,64,17,0.3070294260978699,0.1997702419757843
186,3,64,18,0.4697098433971405,0.11221231520175934
186,3,64,19,0.4646402895450592,0.24939581751823425
186,3,64,20,0.35215529799461365,0.12017691135406494
186,3,64,21,0.3512223958969116,0.132874995470047
186,3,64,22,0.5155647993087769,0.16258178651332855
186,3,64,23,0.43487271666526794,0.20676195621490479
186,3,64,24,0.46431732177734375,0.16642506420612335
186,3,64,25,0.49730050563812256,0.19482001662254333
186,3,64,26,0.6357701420783997,0.20417150855064392
186,3,64,27,0.47391411662101746,0.23547782003879547
186,3,64,28,0.4827328324317932,0.19573217630386353
186,3,64,29,0.49408844113349915,0.13978883624076843
186,3,64,30,0.5885570645332336,0.1546298712491989
186,3,64,31,0.3515525162220001,0.22810791432857513
186,3,64,32,0.4648536443710327,0.14993895590305328
186,3,64,33,0.491933673620224,0.1594417542219162
186,3,64,34,0.6345832943916321,0.1730501502752304
186,3,64,35,0.45046505331993103,0.25416579842567444
186,3,64,36,0.4010760188102722,0.14714092016220093
186,3,64,37,0.41367313265800476,0.1241217851638794
186,3,64,38,0.48856431245803833,0.13655000925064087
186,3,64,39,0.6157891154289246,0.1579119861125946
186,3,64,40,0.4425092935562134,0.10055472701787949
186,3,64,41,0.4321955740451813,0.19806130230426788
186,3,64,42,0.6382924914360046,0.17149515450000763
186,3,64,43,0.6020156145095825,0.09326928108930588
186,3,64,44,0.6554718613624573,0.1412176787853241
186,3,64,45,0.7290526628494263,0.12788566946983337
186,3,64,46,0.526465654373169,0.12501759827136993
186,3,64,47,0.3638570010662079,0.19222958385944366
186,3,64,48,0.4078088700771332,0.16634857654571533
186,3,64,49,0.49626240134239197,0.2027217447757721
186,3,64,50,0.49430832266807556,0.16408546268939972
186,3,64,51,0.5302762389183044,0.29694321751594543
186,3,64,52,0.6111223697662354,0.24179214239120483
186,3,64,53,0.4764986038208008,0.16655965149402618
186,3,64,54,0.3653485178947449,0.1342887282371521
186,3,64,55,0.5566994547843933,0.21534410119056702
186,3,64,56,0.46458005905151367,0.20887833833694458
186,3,64,57,0.4636925160884857,0.10560540109872818
186,3,64,58,0.5736218690872192,0.1955358237028122
186,3,64,59,0.5539975762367249,0.06667643040418625
186,3,64,60,0.5960602164268494,0.1555018126964569
186,3,64,61,0.3904736042022705,0.1717049479484558
186,3,64,62,0.42575398087501526,0.16235637664794922
186,3,64,63,0.5029981732368469,0.10915660858154297
186,4,128,0,0.46318987011909485,0.13606038689613342
186,4,128,1,0.456382155418396,0.2631016969680786
186,4,128,2,0.47578150033950806,0.0723116397857666
186,4,128,3,0.6123766303062439,0.1390317678451538
186,4,128,4,0.4183815121650696,0.13820983469486237
186,4,128,5,0.5407582521438599,0.3148266077041626
186,4,128,6,0.5170601606369019,0.3062922954559326
186,4,128,7,0.6072445511817932,0.2761367857456207
186,4,128,8,0.3698902428150177,0.22136829793453217
186,4,128,9,0.6185505390167236,0.18932126462459564
186,4,128,10,0.4400956928730011,0.24604743719100952
186,4,128,11,0.6874108910560608,0.09864580631256104
186,4,128,12,0.5075857639312744,0.20729058980941772
186,4,128,13,0.5767149925231934,0.24021369218826294
186,4,128,14,0.625650942325592,0.12340357899665833
186,4,128,15,0.5532053112983704,0.2270796149969101
186,4,128,16,0.45005112886428833,0.2053171992301941
186,4,128,17,0.5382230281829834,0.19140172004699707
186,4,128,18,0.5237142443656921,0.2528007924556732
186,4,128,19,0.6261408925056458,0.22957657277584076
186,4,128,20,0.44140273332595825,0.22896741330623627
186,4,128,21,0.36535608768463135,0.18045492470264435
186,4,128,22,0.5511898398399353,0.12788668274879456
186,4,128,23,0.5876485109329224,0.16520167887210846
186,4,128,24,0.4219934940338135,0.09182039648294449
186,4,128,25,0.4049566388130188,0.1424335539340973
186,4,128,26,0.5182013511657715,0.21219095587730408
186,4,128,27,0.6346946954727173,0.25439417362213135
186,4,128,28,0.5986549854278564,0.1589471697807312
186,4,128,29,0.7785278558731079,0.09699045121669769
186,4,128,30,0.47634342312812805,0.3016246259212494
186,4,128,31,0.5320535898208618,0.16513437032699585
186,4,128,32,0.4745762348175049,0.25475794076919556
186,4,128,33,0.5740721225738525,0.23130472004413605
186,4,128,34,0.49795594811439514,0.20378805696964264
186,4,128,35,0.5097953081130981,0.16502052545547485
186,4,128,36,0.5891807079315186,0.2828635275363922
186,4,128,37,0.46187105774879456,0.20956185460090637
186,4,128,38,0.5126113891601562,0.12298731505870819
186,4,128,39,0.6177027225494385,0.25426608324050903
186,4,128,40,0.5179803967475891,0.27901872992515564
186,4,128,41,0.536791205406189,0.13773459196090698
186,4,128,42,0.4850913882255554,0.21348902583122253
186,4,128,43,0.5558480620384216,0.1715933084487915
186,4,128,44,0.6319683790206909,0.1397479772567749
186,4,128,45,0.68875652551651,0.20586133003234863
186,4,128,46,0.5156319737434387,0.08941882103681564
186,4,128,47,0.46214741468429565,0.2792113423347473
186,4,128,48,0.542140543460846,0.1397375911474228
186,4,128,49,0.5769223570823669,0.1503477692604065
186,4,128,50,0.5912144184112549,0.17029207944869995
186,4,128,51,0.27453893423080444,0.10085301101207733
186,4,128,52,0.46679770946502686,0.22839497029781342
186,4,128,53,0.6300308108329773,0.2660979926586151
186,4,128,54,0.3283707797527313,0.18829914927482605
186,4,128,55,0.48060664534568787,0.071565642952919
186,4,128,56,0.5057750940322876,0.07529885321855545
186,4,128,57,0.5080318450927734,0.17402221262454987
186,4,128,58,0.5379148721694946,0.21549737453460693
186,4,128,59,0.5645283460617065,0.21482670307159424
186,4,128,60,0.6191807389259338,0.17012575268745422
186,4,128,61,0.4486999213695526,0.22388993203639984
186,4,128,62,0.6342296600341797,0.18676164746284485
186,4,128,63,0.8028472661972046,0.09816016256809235
186,4,128,64,0.4846199154853821,0.22520001232624054
186,4,128,65,0.5297371745109558,0.2600122392177582
186,4,128,66,0.36583301424980164,0.1573750376701355
186,4,128,67,0.5998696684837341,0.2854442298412323
186,4,128,68,0.6949685215950012,0.1855892688035965
186,4,128,69,0.5353040099143982,0.17612376809120178
186,4,128,70,0.5113958716392517,0.07254354655742645
186,4,128,71,0.4021779000759125,0.22618307173252106
186,4,128,72,0.599430501461029,0.1409885734319687
186,4,128,73,0.516518235206604,0.14560578763484955
186,4,128,74,0.5996372103691101,0.10190875083208084
186,4,128,75,0.5028743743896484,0.08729280531406403
186,4,128,76,0.42655235528945923,0.19590085744857788
186,4,128,77,0.4396478533744812,0.13411381840705872
186,4,128,78,0.5377803444862366,0.2617066204547882
186,4,128,79,0.5801120400428772,0.2731246054172516
186,4,128,80,0.3834593892097473,0.17519205808639526
186,4,128,81,0.47742632031440735,0.2074490338563919
186,4,128,82,0.6267479062080383,0.16630752384662628
186,4,128,83,0.4555692970752716,0.10382800549268723
186,4,128,84,0.572070837020874,0.27320730686187744
186,4,128,85,0.48209673166275024,0.1643446981906891
186,4,128,86,0.6185215711593628,0.27711305022239685
186,4,128,87,0.6137509942054749,0.2127659171819687
186,4,128,88,0.6189777255058289,0.13801231980323792
186,4,128,89,0.4928274154663086,0.14836210012435913
186,4,128,90,0.5227619409561157,0.22305189073085785
186,4,128,91,0.42008838057518005,0.24404281377792358
186,4,128,92,0.6220248341560364,0.2684078812599182
186,4,128,93,0.50125652551651,0.19681081175804138
186,4,128,94,0.5027951598167419,0.23244556784629822
186,4,128,95,0.6387510895729065,0.1540338695049286
186,4,128,96,0.6052588820457458,0.19276173412799835
186,4,128,97,0.5566644072532654,0.2003210484981537
186,4,128,98,0.45754483342170715,0.27877846360206604
186,4,128,99,0.610521674156189,0.2654602527618408
186,4,128,100,0.47643429040908813,0.12624771893024445
186,4,128,101,0.49363046884536743,0.2724425196647644
186,4,128,102,0.6411933898925781,0.1496720016002655
186,4,128,103,0.5357046127319336,0.16595689952373505
186,4,128,104,0.433962881565094,0.22381626069545746
186,4,128,105,0.3934943377971649,0.2497243583202362
186,4,128,106,0.5578956604003906,0.09515056014060974
186,4,128,107,0.5631474256515503,0.17546619474887848
186,4,128,108,0.730086624622345,0.1136229932308197
186,4,128,109,0.49114346504211426,0.20505735278129578
186,4,128,110,0.4798203706741333,0.2052871435880661
186,4,128,111,0.5230657458305359,0.08196260035037994
186,4,128,112,0.4771384000778198,0.29861027002334595
186,4,128,113,0.750924289226532,0.10702430456876755
186,4,128,114,0.4477899670600891,0.1497453898191452
186,4,128,115,0.5071609020233154,0.14062146842479706
186,4,128,116,0.49194616079330444,0.17769038677215576
186,4,128,117,0.6544679999351501,0.2205161303281784
186,4,128,118,0.6667157411575317,0.2220892459154129
186,4,128,119,0.46687209606170654,0.21575456857681274
186,4,128,120,0.5420299172401428,0.23807446658611298
186,4,128,121,0.4122777283191681,0.1757245808839798
186,4,128,122,0.475308358669281,0.12124122679233551
186,4,128,123,0.575238823890686,0.20602773129940033
186,4,128,124,0.46576988697052,0.14453695714473724
186,4,128,125,0.5749744176864624,0.2332843393087387
186,4,128,126,0.42985984683036804,0.2429753690958023
186,4,128,127,0.42159605026245117,0.15197347104549408
186,5,128,0,0.5005038976669312,0.25677645206451416
186,5,128,1,0.4973667860031128,0.14347274601459503
186,5,128,2,0.5264415740966797,0.12005020678043365
186,5,128,3,0.798803985118866,0.13080474734306335
186,5,128,4,0.44938522577285767,0.1431911289691925
186,5,128,5,0.5528039336204529,0.2017311155796051
186,5,128,6,0.5958825349807739,0.23188495635986328
186,5,128,7,0.7639438509941101,0.1494019478559494
186,5,128,8,0.44469156861305237,0.1942325085401535
186,5,128,9,0.7701504230499268,0.15610486268997192
186,5,128,10,0.6439329385757446,0.163580983877182
186,5,128,11,0.8149194717407227,0.1178978756070137
186,5,128,12,0.8008671402931213,0.17929430305957794
186,5,128,13,0.8124574422836304,0.17178887128829956
186,5,128,14,0.7983645796775818,0.1098250076174736
186,5,128,15,0.683556854724884,0.13078415393829346
186,5,128,16,0.56258225440979,0.18516936898231506
186,5,128,17,0.41609933972358704,0.23748165369033813
186,5,128,18,0.8228552341461182,0.12642064690589905
186,5,128,19,0.4091048538684845,0.21780644357204437
186,5,128,20,0.8274074196815491,0.11848428100347519
186,5,128,21,0.6330486536026001,0.17119590938091278
186,5,128,22,0.7720014452934265,0.20787043869495392
186,5,128,23,0.7110382914543152,0.2481883466243744
186,5,128,24,0.8593113422393799,0.0900583416223526
186,5,128,25,0.527970552444458,0.21591816842556
186,5,128,26,0.6617644429206848,0.17338883876800537
186,5,128,27,0.7362031936645508,0.1658090353012085
186,5,128,28,0.8403031229972839,0.17664390802383423
186,5,128,29,0.8405580520629883,0.11758679151535034
186,5,128,30,0.2834746837615967,0.22731097042560577
186,5,128,31,0.741672158241272,0.24265535175800323
186,5,128,32,0.5554435849189758,0.14706484973430634
186,5,128,33,0.49545910954475403,0.19781242311000824
186,5,128,34,0.3877999484539032,0.08973430097103119
186,5,128,35,0.39185595512390137,0.1923513561487198
186,5,128,36,0.7752108573913574,0.28209325671195984
186,5,128,37,0.7885791659355164,0.09016895294189453
186,5,128,38,0.6811742186546326,0.15702371299266815
186,5,128,39,0.6981539726257324,0.15621371567249298
186,5,128,40,0.773228645324707,0.13353274762630463
186,5,128,41,0.842302680015564,0.16499076783657074
186,5,128,42,0.3831486403942108,0.25958627462387085
186,5,128,43,0.8198601007461548,0.15084733068943024
186,5,128,44,0.5994971990585327,0.2100382298231125
186,5,128,45,0.7749987244606018,0.10122762620449066
186,5,128,46,0.6549260020256042,0.24716822803020477
186,5,128,47,0.5917073488235474,0.16971701383590698
186,5,128,48,0.4087391793727875,0.11394114047288895
186,5,128,49,0.8109270930290222,0.16995522379875183
186,5,128,50,0.7083306908607483,0.2161024510860443
186,5,128,51,0.5524701476097107,0.21743948757648468
186,5,128,52,0.32989269495010376,0.24561363458633423
186,5,128,53,0.72580486536026,0.28880569338798523
186,5,128,54,0.6478550434112549,0.16086441278457642
186,5,128,55,0.6570133566856384,0.20528973639011383
186,5,128,56,0.43806180357933044,0.23299293220043182
186,5,128,57,0.3507854640483856,0.26909908652305603
186,5,128,58,0.6334232687950134,0.24302005767822266
186,5,128,59,0.73772132396698,0.16001716256141663
186,5,128,60,0.3926759660243988,0.16516999900341034
186,5,128,61,0.7286648154258728,0.10091692954301834
186,5,128,62,0.6655123829841614,0.15850794315338135
186,5,128,63,0.7662455439567566,0.15705226361751556
186,5,128,64,0.3898003101348877,0.10899100452661514
186,5,128,65,0.5169973373413086,0.13057152926921844
186,5,128,66,0.5269713997840881,0.24862779676914215
186,5,128,67,0.7921404242515564,0.16495101153850555
186,5,128,68,0.8047130107879639,0.2054423838853836
186,5,128,69,0.649206817150116,0.25145405530929565
186,5,128,70,0.5171404480934143,0.11909196525812149
186,5,128,71,0.624261200428009,0.18462887406349182
186,5,128,72,0.7557658553123474,0.14169837534427643
186,5,128,73,0.7749917507171631,0.13289012014865875
186,5,128,74,0.59752357006073,0.19001561403274536
186,5,128,75,0.7789344787597656,0.1449909210205078
186,5,128,76,0.7844494581222534,0.11087943613529205
186,5,128,77,0.25043579936027527,0.0986393615603447
186,5,128,78,0.8066443800926208,0.19448810815811157
186,5,128,79,0.7156276702880859,0.15926916897296906
186,5,128,80,0.37026986479759216,0.13117270171642303
186,5,128,81,0.43011385202407837,0.17268219590187073
186,5,128,82,0.4237635135650635,0.16893789172172546
186,5,128,83,0.3579948842525482,0.27593618631362915
186,5,128,84,0.7519617676734924,0.1884603202342987
186,5,128,85,0.8264485001564026,0.08623124659061432
186,5,128,86,0.7648917436599731,0.16717563569545746
186,5,128,87,0.7692375183105469,0.1715892106294632
186,5,128,88,0.7012888789176941,0.14975005388259888
186,5,128,89,0.36033517122268677,0.20576535165309906
186,5,128,90,0.7483412623405457,0.23385083675384521
186,5,128,91,0.858052134513855,0.11366648226976395
186,5,128,92,0.39647260308265686,0.16151754558086395
186,5,128,93,0.697055995464325,0.2350226789712906
186,5,128,94,0.5358479619026184,0.1342887431383133
186,5,128,95,0.841096043586731,0.1102270632982254
186,5,128,96,0.7684786319732666,0.07547411322593689
186,5,128,97,0.6496329307556152,0.16129907965660095
186,5,128,98,0.5720128417015076,0.15938618779182434
186,5,128,99,0.7982673048973083,0.148226797580719
186,5,128,100,0.7199454307556152,0.1353004425764084
186,5,128,101,0.8556901812553406,0.10626515001058578
186,5,128,102,0.8062390089035034,0.10483556985855103
186,5,128,103,0.6831825375556946,0.22136250138282776
186,5,128,104,0.8139360547065735,0.12370514124631882
186,5,128,105,0.6197013258934021,0.19484370946884155
186,5,128,106,0.37657681107521057,0.25843286514282227
186,5,128,107,0.7933925986289978,0.15783259272575378
186,5,128,108,0.4026600122451782,0.1000383272767067
186,5,128,109,0.40788066387176514,0.18990571796894073
186,5,128,110,0.3323260545730591,0.06463144719600677
186,5,128,111,0.6573148369789124,0.2550332546234131
186,5,128,112,0.8326424360275269,0.10371851176023483
186,5,128,113,0.7363505363464355,0.1676962673664093
186,5,128,114,0.5771356225013733,0.1801186203956604
186,5,128,115,0.6383774876594543,0.12958280742168427
186,5,128,116,0.7386655807495117,0.09249069541692734
186,5,128,117,0.7632738351821899,0.12216851860284805
186,5,128,118,0.7340196371078491,0.20170709490776062
186,5,128,119,0.4455273747444153,0.1858869343996048
186,5,128,120,0.8325104117393494,0.09946440905332565
186,5,128,121,0.7408458590507507,0.1667620986700058
186,5,128,122,0.7056092023849487,0.18065904080867767
186,5,128,123,0.2870147228240967,0.11581510305404663
186,5,128,124,0.40904325246810913,0.1220606341958046
186,5,128,125,0.8876964449882507,0.0981287732720375
186,5,128,126,0.42436444759368896,0.2458895444869995
186,5,128,127,0.5731987953186035,0.22066324949264526
188,0,32,0,0.5881575345993042,0.03922148421406746
188,0,32,1,0.4863663613796234,0.04478031024336815
188,0,32,2,0.5690257549285889,0.03770571947097778
188,0,32,3,0.5452227592468262,0.029761938378214836
188,0,32,4,0.39356932044029236,0.040739208459854126
188,0,32,5,0.4467880129814148,0.04133696109056473
188,0,32,6,0.49000856280326843,0.0751638114452362
188,0,32,7,0.5232022404670715,0.07767001539468765
188,0,32,8,0.5758301019668579,0.07846774160861969
188,0,32,9,0.457916796207428,0.04324403032660484
188,0,32,10,0.5413045287132263,0.04801779240369797
188,0,32,11,0.46712973713874817,0.07156124711036682
188,0,32,12,0.5752872228622437,0.061271391808986664
188,0,32,13,0.5641288757324219,0.0852724015712738
188,0,32,14,0.5950962901115417,0.04479153826832771
188,0,32,15,0.6052563190460205,0.06253787130117416
188,0,32,16,0.513575553894043,0.053778477013111115
188,0,32,17,0.47890400886535645,0.06973505020141602
188,0,32,18,0.43864020705223083,0.04244128242135048
188,0,32,19,0.5502687096595764,0.08297117054462433
188,0,32,20,0.4059280455112457,0.05186082422733307
188,0,32,21,0.4505513906478882,0.06778408586978912
188,0,32,22,0.505322277545929,0.08449666947126389
188,0,32,23,0.5652972459793091,0.0667913481593132
188,0,32,24,0.4955267310142517,0.06305929273366928
188,0,32,25,0.41838356852531433,0.036670200526714325
188,0,32,26,0.38566622138023376,0.05653282254934311
188,0,32,27,0.4381747543811798,0.04431368410587311
188,0,32,28,0.5698713660240173,0.05262581259012222
188,0,32,29,0.5473625659942627,0.06817040592432022
188,0,32,30,0.46157899498939514,0.023009350523352623
188,0,32,31,0.42887651920318604,0.07287303358316422
188,1,32,0,0.5029689073562622,0.08405134826898575
188,1,32,1,0.5262890458106995,0.12660035490989685
188,1,32,2,0.39562416076660156,0.07343783229589462
188,1,32,3,0.569728672504425,0.13455526530742645
188,1,32,4,0.5325589179992676,0.11371572315692902
188,1,32,5,0.34300824999809265,0.06281856447458267
188,1,32,6,0.3759792745113373,0.07051388174295425
188,1,32,7,0.6033530831336975,0.152449831366539
188,1,32,8,0.6431275606155396,0.045391764491796494
188,1,32,9,0.6212438941001892,0.05833734944462776
188,1,32,10,0.5201314687728882,0.06781601160764694
188,1,32,11,0.37132853269577026,0.058239128440618515
188,1,32,12,0.47854727506637573,0.10698622465133667
188,1,32,13,0.4737663269042969,0.058149490505456924
188,1,32,14,0.41536906361579895,0.11438553780317307
188,1,32,15,0.42354172468185425,0.06657471507787704
188,1,32,16,0.6409750580787659,0.031184634193778038
188,1,32,17,0.3919126093387604,0.0518999807536602
188,1,32,18,0.4276229441165924,0.047057971358299255
188,1,32,19,0.4258233606815338,0.06023737043142319
188,1,32,20,0.546897292137146,0.1288791298866272
188,1,32,21,0.5334010124206543,0.06427206844091415
188,1,32,22,0.4639853537082672,0.13363966345787048
188,1,32,23,0.5399066805839539,0.07989506423473358
188,1,32,24,0.38822034001350403,0.08546570688486099
188,1,32,25,0.48448488116264343,0.07511917501688004
188,1,32,26,0.6462636590003967,0.13237224519252777
188,1,32,27,0.4803822934627533,0.09251847863197327
188,1,32,28,0.4575669467449188,0.07707197964191437
188,1,32,29,0.498518705368042,0.04747648537158966
188,1,32,30,0.504638135433197,0.10991546511650085
188,1,32,31,0.3375629782676697,0.07993666082620621
188,2,64,0,0.4893961250782013,0.11123409122228622
188,2,64,1,0.5803662538528442,0.09320516139268875
188,2,64,2,0.5610436797142029,0.11606626212596893
188,2,64,3,0.33327311277389526,0.17518840730190277
188,2,64,4,0.43547841906547546,0.10879633575677872
188,2,64,5,0.41477447748184204,0.024916930124163628
188,2,64,6,0.5658384561538696,0.07396423816680908
188,2,64,7,0.5311429500579834,0.07840217649936676
188,2,64,8,0.4337485134601593,0.12962932884693146
188,2,64,9,0.6938333511352539,0.12237390875816345
188,2,64,10,0.41012412309646606,0.10177695751190186
188,2,64,11,0.37805625796318054,0.07053135335445404
188,2,64,12,0.6785017251968384,0.13525842130184174
188,2,64,13,0.5828821659088135,0.07598317414522171
188,2,64,14,0.4302063286304474,0.11686676740646362
188,2,64,15,0.4317910373210907,0.07682826370000839
188,2,64,16,0.5631540417671204,0.04617232829332352
188,2,64,17,0.5655754208564758,0.06628232449293137
188,2,64,18,0.5902705192565918,0.19045314192771912
188,2,64,19,0.4385901689529419,0.05516602471470833
188,2,64,20,0.6356726288795471,0.11217782646417618
188,2,64,21,0.47352334856987,0.07839385420084
188,2,64,22,0.5628053545951843,0.16465823352336884
188,2,64,23,0.6493739485740662,0.10712426155805588
188,2,64,24,0.6000491380691528,0.13915112614631653
188,2,64,25,0.5046144127845764,0.09691641479730606
188,2,64,26,0.5979562401771545,0.06548501551151276
188,2,64,27,0.6335797905921936,0.11085504293441772
188,2,64,28,0.6145578026771545,0.13237729668617249
188,2,64,29,0.47900354862213135,0.09479661285877228
188,2,64,30,0.49547216296195984,0.09629770368337631
188,2,64,31,0.3379981815814972,0.1037963405251503
188,2,64,32,0.48680543899536133,0.047516271471977234
188,2,64,33,0.412676066160202,0.09950096905231476
188,2,64,34,0.5575406551361084,0.09155797213315964
188,2,64,35,0.4861305058002472,0.08302628248929977
188,2,64,36,0.5302972197532654,0.0647675171494484
188,2,64,37,0.57484370470047,0.09577290713787079
188,2,64,38,0.5020943880081177,0.09552718698978424
188,2,64,39,0.6184934377670288,0.11208849400281906
188,2,64,40,0.5797559022903442,0.10418131202459335
188,2,64,41,0.4883599281311035,0.0863882526755333
188,2,64,42,0.5792372822761536,0.059947602450847626
188,2,64,43,0.5153000950813293,0.06378274410963058
188,2,64,44,0.5669612288475037,0.13976618647575378
188,2,64,45,0.5699107050895691,0.08340980112552643
188,2,64,46,0.6183165907859802,0.09205298870801926
188,2,64,47,0.5772734880447388,0.15781860053539276
188,2,64,48,0.6075454950332642,0.1384129524230957
188,2,64,49,0.4004538059234619,0.16719932854175568
188,2,64,50,0.38325148820877075,0.1370142698287964
188,2,64,51,0.56662917137146,0.09242455661296844
188,2,64,52,0.6095524430274963,0.21062950789928436
188,2,64,53,0.4191136062145233,0.0944984182715416
188,2,64,54,0.35161811113357544,0.12149208039045334
188,2,64,55,0.5860110521316528,0.1290035992860794
188,2,64,56,0.43408894538879395,0.11596307903528214
188,2,64,57,0.4495429992675781,0.08262819796800613
188,2,64,58,0.42460495233535767,0.10328381508588791
188,2,64,59,0.5608522295951843,0.07993525266647339
188,2,64,60,0.5121421813964844,0.08970968425273895
188,2,64,61,0.6634354591369629,0.12665203213691711
188,2,64,62,0.4325665533542633,0.10237958282232285
188,2,64,63,0.5504979491233826,0.08594432473182678
188,3,64,0,0.5016213655471802,0.07627056539058685
188,3,64,1,0.7095322012901306,0.10929646342992783
188,3,64,2,0.632516622543335,0.04698941111564636
188,3,64,3,0.5098333954811096,0.11897307634353638
188,3,64,4,0.46509045362472534,0.13106390833854675
188,3,64,5,0.5781946778297424,0.11535206437110901
188,3,64,6,0.5955834984779358,0.11341072618961334
188,3,64,7,0.542119562625885,0.04962032660841942
188,3,64,8,0.551338791847229,0.14430110156536102
188,3,64,9,0.5620654821395874,0.13300566375255585
188,3,64,10,0.4519698917865753,0.11267523467540741
188,3,64,11,0.4604611098766327,0.08938674628734589
188,3,64,12,0.3568781018257141,0.11239949613809586
188,3,64,13,0.45290982723236084,0.13139155507087708
188,3,64,14,0.3704955279827118,0.1521531492471695
188,3,64,15,0.4237459599971771,0.05355352908372879
188,3,64,16,0.5069583654403687,0.08498632162809372
188,3,64,17,0.4583199918270111,0.12101399153470993
188,3,64,18,0.43717604875564575,0.19591422379016876
188,3,64,19,0.6913033127784729,0.16227400302886963
188,3,64,20,0.5458640456199646,0.1783238649368286
188,3,64,21,0.5114918351173401,0.10963810980319977
188,3,64,22,0.453723281621933,0.11000379174947739
188,3,64,23,0.4766230881214142,0.07423999160528183
188,3,64,24,0.5353818535804749,0.11586084216833115
188,3,64,25,0.411295622587204,0.1065383106470108
188,3,64,26,0.4845854341983795,0.14695897698402405
188,3,64,27,0.5623829364776611,0.08514808118343353
188,3,64,28,0.3805007338523865,0.20590120553970337
188,3,64,29,0.4279721677303314,0.1079079881310463
188,3,64,30,0.3932046890258789,0.19430604577064514
188,3,64,31,0.49521660804748535,0.13745169341564178
188,3,64,32,0.5542470216751099,0.1343098133802414
188,3,64,33,0.4584708511829376,0.15393568575382233
188,3,64,34,0.5302298069000244,0.0677729994058609
188,3,64,35,0.4107778072357178,0.18013329803943634
188,3,64,36,0.5368854999542236,0.08431223779916763
188,3,64,37,0.5877382755279541,0.07775149494409561
188,3,64,38,0.6767392754554749,0.1224547028541565
188,3,64,39,0.40883582830429077,0.11324424296617508
188,3,64,40,0.3697628676891327,0.1249811127781868
188,3,64,41,0.3500348925590515,0.09417420625686646
188,3,64,42,0.4040721654891968,0.08116187900304794
188,3,64,43,0.5731795430183411,0.10112986713647842
188,3,64,44,0.5502945780754089,0.1341293752193451
188,3,64,45,0.5685970783233643,0.07028128951787949
188,3,64,46,0.5864210724830627,0.09469156712293625
188,3,64,47,0.33717164397239685,0.16593268513679504
188,3,64,48,0.37184423208236694,0.0839463323354721
188,3,64,49,0.666675865650177,0.0811934843659401
188,3,64,50,0.41112831234931946,0.08293303847312927
188,3,64,51,0.4373162090778351,0.13416989147663116
188,3,64,52,0.6284411549568176,0.18034571409225464
188,3,64,53,0.5646049380302429,0.0828186497092247
188,3,64,54,0.3898771107196808,0.08481018245220184
188,3,64,55,0.47855526208877563,0.0975392758846283
188,3,64,56,0.5229013562202454,0.08510400354862213
188,3,64,57,0.5029749870300293,0.09812828153371811
188,3,64,58,0.5035548210144043,0.08159970492124557
188,3,64,59,0.34297603368759155,0.1409754902124405
188,3,64,60,0.4431006610393524,0.07470746338367462
188,3,64,61,0.5175685286521912,0.06936927884817123
188,3,64,62,0.41845569014549255,0.08067171275615692
188,3,64,63,0.6460785269737244,0.18741963803768158
188,4,128,0,0.4880724251270294,0.2687276601791382
188,4,128,1,0.32835206389427185,0.1488777995109558
188,4,128,2,0.4715990126132965,0.16940350830554962
188,4,128,3,0.5056763291358948,0.12193796038627625
188,4,128,4,0.691395103931427,0.08354612439870834
188,4,128,5,0.5818900465965271,0.22779519855976105
188,4,128,6,0.5763835310935974,0.13402560353279114
188,4,128,7,0.49151718616485596,0.2218201905488968
188,4,128,8,0.5524702072143555,0.12286241352558136
188,4,128,9,0.5779125094413757,0.1643960326910019
188,4,128,10,0.6807607412338257,0.10844990611076355
188,4,128,11,0.4363105595111847,0.1497463434934616
188,4,128,12,0.505739152431488,0.12094738334417343
188,4,128,13,0.5803022384643555,0.21827897429466248
188,4,128,14,0.548945963382721,0.22624902427196503
188,4,128,15,0.6907402873039246,0.21623919904232025
188,4,128,16,0.5363748669624329,0.21672755479812622
188,4,128,17,0.4257277250289917,0.17996881902217865
188,4,128,18,0.6390174031257629,0.07419391721487045
188,4,128,19,0.688014566898346,0.10192349553108215
188,4,128,20,0.4116678237915039,0.1208702027797699
188,4,128,21,0.6041656732559204,0.1822105050086975
188,4,128,22,0.4104873239994049,0.2540232241153717
188,4,128,23,0.556411862373352,0.22927287220954895
188,4,128,24,0.6214079260826111,0.22360460460186005
188,4,128,25,0.704589307308197,0.24434848129749298
188,4,128,26,0.5332560539245605,0.17719557881355286
188,4,128,27,0.44291216135025024,0.22461792826652527
188,4,128,28,0.6914710402488708,0.1579965502023697
188,4,128,29,0.6204158067703247,0.1465068757534027
188,4,128,30,0.543931782245636,0.06805083900690079
188,4,128,31,0.46982625126838684,0.0890151783823967
188,4,128,32,0.6900213956832886,0.1869305521249771
188,4,128,33,0.6762191653251648,0.21579918265342712
188,4,128,34,0.36812880635261536,0.19964919984340668
188,4,128,35,0.6071960926055908,0.17122286558151245
188,4,128,36,0.41067469120025635,0.20129179954528809
188,4,128,37,0.3515806794166565,0.21070700883865356
188,4,128,38,0.5891875624656677,0.0964231789112091
188,4,128,39,0.381283700466156,0.13136380910873413
188,4,128,40,0.355752170085907,0.11902512609958649
188,4,128,41,0.7133196592330933,0.13332822918891907
188,4,128,42,0.6414080858230591,0.0690598115324974
188,4,128,43,0.5665698647499084,0.07116773724555969
188,4,128,44,0.4658741056919098,0.165495827794075
188,4,128,45,0.5549152493476868,0.16838127374649048
188,4,128,46,0.5485478043556213,0.07852888852357864
188,4,128,47,0.34902697801589966,0.116672083735466
188,4,128,48,0.44407111406326294,0.08043237030506134
188,4,128,49,0.3564037084579468,0.13079458475112915
188,4,128,50,0.3803156018257141,0.16690020263195038
188,4,128,51,0.4139707684516907,0.12586374580860138
188,4,128,52,0.5120674967765808,0.11411988735198975
188,4,128,53,0.6838828325271606,0.11095622181892395
188,4,128,54,0.4001986086368561,0.11452817171812057
188,4,128,55,0.5675091743469238,0.09405120462179184
188,4,128,56,0.6106852889060974,0.10701219737529755
188,4,128,57,0.6252847909927368,0.10648548603057861
188,4,128,58,0.5560736060142517,0.22161146998405457
188,4,128,59,0.6358157992362976,0.22870469093322754
188,4,128,60,0.7152228355407715,0.07932194322347641
188,4,128,61,0.6427614092826843,0.22853296995162964
188,4,128,62,0.4015607535839081,0.19546428322792053
188,4,128,63,0.48605096340179443,0.24470362067222595
188,4,128,64,0.6773278713226318,0.07625292241573334
188,4,128,65,0.578711986541748,0.08841756731271744
188,4,128,66,0.575253963470459,0.19257189333438873
188,4,128,67,0.613166868686676,0.11758049577474594
188,4,128,68,0.5642449855804443,0.18170449137687683
188,4,128,69,0.3923977315425873,0.24741420149803162
188,4,128,70,0.6608572006225586,0.13825339078903198
188,4,128,71,0.5344923138618469,0.1762220710515976
188,4,128,72,0.6403477787971497,0.30116698145866394
188,4,128,73,0.5648047924041748,0.17660777270793915
188,4,128,74,0.43165087699890137,0.22874855995178223
188,4,128,75,0.7117322087287903,0.10336575657129288
188,4,128,76,0.34292280673980713,0.11259707808494568
188,4,128,77,0.7001523971557617,0.24161499738693237
188,4,128,78,0.615505576133728,0.11860767006874084
188,4,128,79,0.48499616980552673,0.12459006160497665
188,4,128,80,0.419710248708725,0.16772682964801788
188,4,128,81,0.6611038446426392,0.10432513803243637
188,4,128,82,0.372952401638031,0.16392536461353302
188,4,128,83,0.7662469148635864,0.09670164436101913
188,4,128,84,0.6518910527229309,0.26514992117881775
188,4,128,85,0.6311642527580261,0.14139220118522644
188,4,128,86,0.4320671260356903,0.13298258185386658
188,4,128,87,0.5612562894821167,0.11139184981584549
188,4,128,88,0.3677992522716522,0.1487564742565155
188,4,128,89,0.6907604932785034,0.21881569921970367
188,4,128,90,0.37024372816085815,0.16106432676315308
188,4,128,91,0.6140164136886597,0.18674659729003906
188,4,128,92,0.6254537105560303,0.2589573264122009
188,4,128,93,0.6411453485488892,0.0904877632856369
188,4,128,94,0.3861786127090454,0.17530225217342377
188,4,128,95,0.7414231896400452,0.18961475789546967
188,4,128,96,0.5173059105873108,0.2561323344707489
188,4,128,97,0.3749459385871887,0.1966056376695633
188,4,128,98,0.43206873536109924,0.1677946299314499
188,4,128,99,0.677391767501831,0.0812632292509079
188,4,128,100,0.5176358819007874,0.12315458804368973
188,4,128,101,0.4787004292011261,0.1675703227519989
188,4,128,102,0.4979117512702942,0.157760351896286
188,4,128,103,0.5823228359222412,0.15348094701766968
188,4,128,104,0.5113374590873718,0.1528843194246292
188,4,128,105,0.5494067072868347,0.17160257697105408
188,4,128,106,0.5302777290344238,0.10590814799070358
188,4,128,107,0.442804753780365,0.28801265358924866
188,4,128,108,0.5432196855545044,0.09045115113258362
188,4,128,109,0.6636655330657959,0.12216257303953171
188,4,128,110,0.45641088485717773,0.11106652766466141
188,4,128,111,0.5253352522850037,0.15493643283843994
188,4,128,112,0.5908238291740417,0.29263925552368164
188,4,128,113,0.3176165819168091,0.16844482719898224
188,4,128,114,0.6029062867164612,0.19619528949260712
188,4,128,115,0.5548850297927856,0.12940341234207153
188,4,128,116,0.5340410470962524,0.10479334741830826
188,4,128,117,0.5984163880348206,0.13560892641544342
188,4,128,118,0.5383227467536926,0.17758560180664062
188,4,128,119,0.42744702100753784,0.2503957748413086
188,4,128,120,0.2936463952064514,0.1076759472489357
188,4,128,121,0.45278823375701904,0.07673019170761108
188,4,128,122,0.5525482296943665,0.17766636610031128
188,4,128,123,0.47349831461906433,0.09297268837690353
188,4,128,124,0.38853907585144043,0.254844069480896
188,4,128,125,0.511384904384613,0.14119760692119598
188,4,128,126,0.6798905730247498,0.10251675546169281
188,4,128,127,0.581848680973053,0.21779465675354004
188,5,128,0,0.7275916934013367,0.0896839126944542
188,5,128,1,0.43669214844703674,0.10835094749927521
188,5,128,2,0.7080647945404053,0.12520678341388702
188,5,128,3,0.572972297668457,0.07166726142168045
188,5,128,4,0.7201291918754578,0.1554490029811859
188,5,128,5,0.6724103689193726,0.17818745970726013
188,5,128,6,0.70002281665802,0.09394344687461853
188,5,128,7,0.39799579977989197,0.2019040584564209
188,5,128,8,0.672773540019989,0.0932207927107811
188,5,128,9,0.6893688440322876,0.12824760377407074
188,5,128,10,0.44868242740631104,0.19982267916202545
188,5,128,11,0.64193195104599,0.1526636779308319
188,5,128,12,0.5718761682510376,0.1946393996477127
188,5,128,13,0.7094267010688782,0.2021896243095398
188,5,128,14,0.3331468105316162,0.13526907563209534
188,5,128,15,0.751181423664093,0.17666222155094147
188,5,128,16,0.5572411417961121,0.12964098155498505
188,5,128,17,0.5861051678657532,0.1560768187046051
188,5,128,18,0.6421517133712769,0.10389840602874756
188,5,128,19,0.4076155722141266,0.23127134144306183
188,5,128,20,0.6138498783111572,0.17074710130691528
188,5,128,21,0.7709140777587891,0.11610640585422516
188,5,128,22,0.4160510301589966,0.0852157399058342
188,5,128,23,0.716145932674408,0.20876215398311615
188,5,128,24,0.7337491512298584,0.09154421836137772
188,5,128,25,0.39885687828063965,0.20185811817646027
188,5,128,26,0.5728737115859985,0.09330279380083084
188,5,128,27,0.513541042804718,0.12959109246730804
188,5,128,28,0.5911892652511597,0.1205136775970459
188,5,128,29,0.5848113298416138,0.15079504251480103
188,5,128,30,0.753506064414978,0.18343660235404968
188,5,128,31,0.7649624347686768,0.11973343789577484
188,5,128,32,0.6952184438705444,0.12188416719436646
188,5,128,33,0.7539809346199036,0.19658228754997253
188,5,128,34,0.3492695391178131,0.14648085832595825
188,5,128,35,0.6091793775558472,0.11627786606550217
188,5,128,36,0.7903223633766174,0.13590915501117706
188,5,128,37,0.7033607959747314,0.235652357339859
188,5,128,38,0.6297692656517029,0.1166427955031395
188,5,128,39,0.45208850502967834,0.19065198302268982
188,5,128,40,0.7493318915367126,0.1844150274991989
188,5,128,41,0.7272704243659973,0.14313603937625885
188,5,128,42,0.727886974811554,0.12156897783279419
188,5,128,43,0.6394460797309875,0.11022738367319107
188,5,128,44,0.5175383687019348,0.08254459500312805
188,5,128,45,0.8238800168037415,0.13373297452926636
188,5,128,46,0.6881760954856873,0.13975314795970917
188,5,128,47,0.7318618297576904,0.11418187618255615
188,5,128,48,0.6193903088569641,0.12434229999780655
188,5,128,49,0.36581143736839294,0.15957067906856537
188,5,128,50,0.7044792771339417,0.12607108056545258
188,5,128,51,0.5860657095909119,0.0850135087966919
188,5,128,52,0.7464064359664917,0.19983865320682526
188,5,128,53,0.7337585687637329,0.14496740698814392
188,5,128,54,0.5609769225120544,0.1321725696325302
188,5,128,55,0.4876978397369385,0.1487916260957718
188,5,128,56,0.71547532081604,0.14614039659500122
188,5,128,57,0.6761289238929749,0.14650779962539673
188,5,128,58,0.49774858355522156,0.17294758558273315
188,5,128,59,0.6878896355628967,0.22659069299697876
188,5,128,60,0.622715175151825,0.18269667029380798
188,5,128,61,0.7557345628738403,0.14964742958545685
188,5,128,62,0.6332193613052368,0.1744433045387268
188,5,128,63,0.6821835041046143,0.1495494693517685
188,5,128,64,0.7302427887916565,0.1902986764907837
188,5,128,65,0.6140062212944031,0.12583045661449432
188,5,128,66,0.6300879716873169,0.10752230882644653
188,5,128,67,0.664228081703186,0.15587665140628815
188,5,128,68,0.39312371611595154,0.172782763838768
188,5,128,69,0.46237725019454956,0.11842112243175507
188,5,128,70,0.7064432501792908,0.20672792196273804
188,5,128,71,0.7872387766838074,0.13954351842403412
188,5,128,72,0.646401584148407,0.1367904245853424
188,5,128,73,0.6296287775039673,0.14574621617794037
188,5,128,74,0.4275292158126831,0.11658961325883865
188,5,128,75,0.5514974594116211,0.125637024641037
188,5,128,76,0.6331654191017151,0.1245187520980835
188,5,128,77,0.46588951349258423,0.1725091189146042
188,5,128,78,0.6544860005378723,0.20550240576267242
188,5,128,79,0.6548181176185608,0.19000865519046783
188,5,128,80,0.46171993017196655,0.11392532289028168
188,5,128,81,0.6690121293067932,0.11819180101156235
188,5,128,82,0.5870757699012756,0.11722353100776672
188,5,128,83,0.5959993600845337,0.1169598326086998
188,5,128,84,0.7850760221481323,0.164670929312706
188,5,128,85,0.6286174058914185,0.23590220510959625
188,5,128,86,0.3742743134498596,0.11941803246736526
188,5,128,87,0.3720616102218628,0.2154875248670578
188,5,128,88,0.6613684296607971,0.15289534628391266
188,5,128,89,0.7939417958259583,0.13518373668193817
188,5,128,90,0.4937559962272644,0.175922229886055
188,5,128,91,0.6469554305076599,0.11122355610132217
188,5,128,92,0.7174692153930664,0.15356624126434326
188,5,128,93,0.5184988975524902,0.12093237787485123
188,5,128,94,0.4793483316898346,0.15220306813716888
188,5,128,95,0.7505468726158142,0.16358360648155212
188,5,128,96,0.7537317872047424,0.1414138823747635
188,5,128,97,0.757601261138916,0.1460462212562561
188,5,128,98,0.6891141533851624,0.1595831662416458
188,5,128,99,0.7722908854484558,0.1620505303144455
188,5,128,100,0.47519537806510925,0.12501205503940582
188,5,128,101,0.7330731153488159,0.17925462126731873
188,5,128,102,0.7011929750442505,0.194314643740654
188,5,128,103,0.5904445052146912,0.11314833164215088
188,5,128,104,0.6384385228157043,0.12076811492443085
188,5,128,105,0.5513905882835388,0.07801679521799088
188,5,128,106,0.7339169979095459,0.17180466651916504
188,5,128,107,0.588582456111908,0.0485624223947525
188,5,128,108,0.5555918216705322,0.18360048532485962
188,5,128,109,0.6685828566551208,0.11167540401220322
188,5,128,110,0.5334818363189697,0.1584581881761551
188,5,128,111,0.7271695137023926,0.19529427587985992
188,5,128,112,0.7140655517578125,0.1830957531929016
188,5,128,113,0.7150267958641052,0.14158977568149567
188,5,128,114,0.7693924307823181,0.15109626948833466
188,5,128,115,0.7474222779273987,0.20077918469905853
188,5,128,116,0.6977435350418091,0.10461276769638062
188,5,128,117,0.3919253647327423,0.16859488189220428
188,5,128,118,0.6172894835472107,0.13643856346607208
188,5,128,119,0.571347713470459,0.08954978734254837
188,5,128,120,0.5413651466369629,0.09874492883682251
188,5,128,121,0.6059955358505249,0.21310213208198547
188,5,128,122,0.7869754433631897,0.1342381238937378
188,5,128,123,0.4189690351486206,0.09950695931911469
188,5,128,124,0.6507217288017273,0.19684746861457825
188,5,128,125,0.5868048071861267,0.19258812069892883
188,5,128,126,0.701395571231842,0.136063814163208
188,5,128,127,0.5214577913284302,0.10795619338750839
189,0,32,0,0.3724992275238037,0.06874150782823563
189,0,32,1,0.3518364131450653,0.08649631589651108
189,0,32,2,0.4226022958755493,0.024685094133019447
189,0,32,3,0.41984885931015015,0.05588645488023758
189,0,32,4,0.3978775143623352,0.06010131910443306
189,0,32,5,0.540390133857727,0.04191196709871292
189,0,32,6,0.438087522983551,0.0683610737323761
189,0,32,7,0.5205578804016113,0.057437341660261154
189,0,32,8,0.603895902633667,0.09988519549369812
189,0,32,9,0.374893456697464,0.08809717744588852
189,0,32,10,0.54786616563797,0.026120534166693687
189,0,32,11,0.3731537163257599,0.01849931851029396
189,0,32,12,0.348015159368515,0.08350079506635666
189,0,32,13,0.4872135818004608,0.06909147650003433
189,0,32,14,0.5660038590431213,0.07915648072957993
189,0,32,15,0.42379823327064514,0.04172167927026749
189,0,32,16,0.3737354576587677,0.07618903368711472
189,0,32,17,0.5956147313117981,0.014005378820002079
189,0,32,18,0.4661169648170471,0.04445064812898636
189,0,32,19,0.40849846601486206,0.05583234876394272
189,0,32,20,0.4679608941078186,0.04675137624144554
189,0,32,21,0.5391086935997009,0.1062224879860878
189,0,32,22,0.7009850144386292,0.1055166944861412
189,0,32,23,0.49468231201171875,0.10223114490509033
189,0,32,24,0.5564049482345581,0.032284896820783615
189,0,32,25,0.5558741092681885,0.0734909251332283
189,0,32,26,0.38091370463371277,0.05849594250321388
189,0,32,27,0.5511735081672668,0.026110973209142685
189,0,32,28,0.5966724157333374,0.1365450918674469
189,0,32,29,0.5434430241584778,0.06988663226366043
189,0,32,30,0.5442177653312683,0.05984826013445854
189,0,32,31,0.4139760136604309,0.048233743757009506
189,1,32,0,0.5798020362854004,0.17903722822666168
189,1,32,1,0.4264465570449829,0.12791094183921814
189,1,32,2,0.519052267074585,0.12396171689033508
189,1,32,3,0.40488654375076294,0.1403491199016571
189,1,32,4,0.5140214562416077,0.0913313552737236
189,1,32,5,0.5210160613059998,0.09670314192771912
189,1,32,6,0.3893915116786957,0.06688832491636276
189,1,32,7,0.5254659652709961,0.12134286761283875
189,1,32,8,0.5030285716056824,0.08567904680967331
189,1,32,9,0.5008957386016846,0.10289078205823898
189,1,32,10,0.42781490087509155,0.07392671704292297
189,1,32,11,0.44322827458381653,0.10854265838861465
189,1,32,12,0.358132541179657,0.09413604438304901
189,1,32,13,0.6281484365463257,0.04458022490143776
189,1,32,14,0.6050944328308105,0.04138927161693573
189,1,32,15,0.3581639528274536,0.08828245103359222
189,1,32,16,0.4462479054927826,0.10708320885896683
189,1,32,17,0.3693558871746063,0.047171954065561295
189,1,32,18,0.45992544293403625,0.17053860425949097
189,1,32,19,0.4201100766658783,0.11700177192687988
189,1,32,20,0.3465765416622162,0.11700580269098282
189,1,32,21,0.45211875438690186,0.11221577227115631
189,1,32,22,0.46998897194862366,0.23166035115718842
189,1,32,23,0.49478980898857117,0.10269933938980103
189,1,32,24,0.6591440439224243,0.044471144676208496
189,1,32,25,0.5108796954154968,0.0685027539730072
189,1,32,26,0.3822363018989563,0.07646496593952179
189,1,32,27,0.49763795733451843,0.06450284272432327
189,1,32,28,0.5065283179283142,0.1032516285777092
189,1,32,29,0.4944295287132263,0.16427375376224518
189,1,32,30,0.3847196698188782,0.11697325855493546
189,1,32,31,0.558796763420105,0.12097351253032684
189,2,64,0,0.43780627846717834,0.12250127643346786
189,2,64,1,0.45322751998901367,0.25266483426094055
189,2,64,2,0.46803876757621765,0.12586179375648499
189,2,64,3,0.3900057077407837,0.19187641143798828
189,2,64,4,0.5263829827308655,0.12284083664417267
189,2,64,5,0.4346199929714203,0.10557698458433151
189,2,64,6,0.5482200980186462,0.1618216186761856
189,2,64,7,0.3995048701763153,0.0856909304857254
189,2,64,8,0.6574729084968567,0.102469801902771
189,2,64,9,0.46793264150619507,0.2534674108028412
189,2,64,10,0.43348225951194763,0.1841784566640854
189,2,64,11,0.5609735250473022,0.18073907494544983
189,2,64,12,0.44120123982429504,0.14549235999584198
189,2,64,13,0.6037582755088806,0.18215927481651306
189,2,64,14,0.6133938431739807,0.08126413822174072
189,2,64,15,0.6133063435554504,0.10326582938432693
189,2,64,16,0.6031535267829895,0.12326366454362869
189,2,64,17,0.49763956665992737,0.11441189795732498
189,2,64,18,0.2834741771221161,0.13962556421756744
189,2,64,19,0.45117828249931335,0.11897825449705124
189,2,64,20,0.6196058392524719,0.101161427795887
189,2,64,21,0.6075308918952942,0.10150031745433807
189,2,64,22,0.47194334864616394,0.15586616098880768
189,2,64,23,0.5287472605705261,0.13709820806980133
189,2,64,24,0.43047034740448,0.12218233942985535
189,2,64,25,0.3849530816078186,0.1152707040309906
189,2,64,26,0.6995539665222168,0.10998284071683884
189,2,64,27,0.40408802032470703,0.10701284557580948
189,2,64,28,0.6474473476409912,0.23129019141197205
189,2,64,29,0.461293488740921,0.12258367240428925
189,2,64,30,0.5920796394348145,0.1073969155550003
189,2,64,31,0.6949948072433472,0.08239763975143433
189,2,64,32,0.5247899293899536,0.1866735816001892
189,2,64,33,0.40352314710617065,0.09355399757623672
189,2,64,34,0.592444896697998,0.09517629444599152
189,2,64,35,0.5849650502204895,0.14497745037078857
189,2,64,36,0.39848822355270386,0.2073768675327301
189,2,64,37,0.5828573107719421,0.17774467170238495
189,2,64,38,0.27061450481414795,0.11444923281669617
189,2,64,39,0.5035699009895325,0.15171656012535095
189,2,64,40,0.5415041446685791,0.11539245396852493
189,2,64,41,0.5601189732551575,0.1582031100988388
189,2,64,42,0.5289386510848999,0.09625393897294998
189,2,64,43,0.5612558126449585,0.18067413568496704
189,2,64,44,0.37329724431037903,0.2108115404844284
189,2,64,45,0.5701488852500916,0.16146701574325562
189,2,64,46,0.6459016799926758,0.20684728026390076
189,2,64,47,0.491843581199646,0.1901008039712906
189,2,64,48,0.4784042239189148,0.1893307864665985
189,2,64,49,0.5671209096908569,0.13612039387226105
189,2,64,50,0.6055805683135986,0.15491583943367004
189,2,64,51,0.3758131265640259,0.10445133596658707
189,2,64,52,0.6260451674461365,0.1309903860092163
189,2,64,53,0.48655086755752563,0.18850281834602356
189,2,64,54,0.5710839629173279,0.07576989382505417
189,2,64,55,0.4313485324382782,0.15846729278564453
189,2,64,56,0.6217750906944275,0.19154171645641327
189,2,64,57,0.33926504850387573,0.11180757731199265
189,2,64,58,0.28216782212257385,0.11310440301895142
189,2,64,59,0.5250260233879089,0.18078310787677765
189,2,64,60,0.696156919002533,0.13279974460601807
189,2,64,61,0.42278632521629333,0.19718484580516815
189,2,64,62,0.3855103850364685,0.0665288046002388
189,2,64,63,0.42951807379722595,0.0970863625407219
189,3,64,0,0.337929904460907,0.08700482547283173
189,3,64,1,0.6158627867698669,0.09207381308078766
189,3,64,2,0.4539532959461212,0.23547430336475372
189,3,64,3,0.7091463804244995,0.13421383500099182
189,3,64,4,0.48544424772262573,0.15528957545757294
189,3,64,5,0.5741167664527893,0.23126879334449768
189,3,64,6,0.4682897627353668,0.2165326178073883
189,3,64,7,0.4320102632045746,0.2251361757516861
189,3,64,8,0.6321619749069214,0.21562163531780243
189,3,64,9,0.6632984280586243,0.18577273190021515
189,3,64,10,0.457526832818985,0.23010091483592987
189,3,64,11,0.4210434854030609,0.1949252188205719
189,3,64,12,0.49957868456840515,0.2146245688199997
189,3,64,13,0.5875309705734253,0.28021296858787537
189,3,64,14,0.5666775703430176,0.19668619334697723
189,3,64,15,0.6126688122749329,0.08430126309394836
189,3,64,16,0.5023123621940613,0.18118983507156372
189,3,64,17,0.5405289530754089,0.1144057959318161
189,3,64,18,0.3859651982784271,0.2051493525505066
189,3,64,19,0.3791959285736084,0.13514214754104614
189,3,64,20,0.4526672065258026,0.23914706707000732
189,3,64,21,0.3864646255970001,0.07548052817583084
189,3,64,22,0.49525612592697144,0.2524432837963104
189,3,64,23,0.4908493459224701,0.21934109926223755
189,3,64,24,0.3531806766986847,0.16099466383457184
189,3,64,25,0.5422091484069824,0.25057417154312134
189,3,64,26,0.6197918057441711,0.17273405194282532
189,3,64,27,0.5063895583152771,0.07653115689754486
189,3,64,28,0.5253674983978271,0.2461986094713211
189,3,64,29,0.5183103680610657,0.2439115047454834
189,3,64,30,0.5592431426048279,0.1851375848054886
189,3,64,31,0.6173781156539917,0.2348388433456421
189,3,64,32,0.4257699251174927,0.22281429171562195
189,3,64,33,0.56767737865448,0.2078351080417633
189,3,64,34,0.4537659287452698,0.21861259639263153
189,3,64,35,0.43433600664138794,0.1636931598186493
189,3,64,36,0.5105533599853516,0.19099624454975128
189,3,64,37,0.391071617603302,0.18527698516845703
189,3,64,38,0.5640845894813538,0.18415024876594543
189,3,64,39,0.33613020181655884,0.10986325144767761
189,3,64,40,0.6505356431007385,0.22232912480831146
189,3,64,41,0.4472821056842804,0.10276319086551666
189,3,64,42,0.5038983821868896,0.12556427717208862
189,3,64,43,0.5602051615715027,0.16207954287528992
189,3,64,44,0.6204888820648193,0.13632985949516296
189,3,64,45,0.5830343961715698,0.12763643264770508
189,3,64,46,0.3583110570907593,0.06809025257825851
189,3,64,47,0.4385105073451996,0.19674310088157654
189,3,64,48,0.4183533191680908,0.1828540861606598
189,3,64,49,0.5437973737716675,0.13870243728160858
189,3,64,50,0.6469079256057739,0.12843027710914612
189,3,64,51,0.6566546559333801,0.11436545103788376
189,3,64,52,0.5135143399238586,0.2518358528614044
189,3,64,53,0.4061780273914337,0.21984580159187317
189,3,64,54,0.4792114496231079,0.217935249209404
189,3,64,55,0.40782439708709717,0.1451706737279892
189,3,64,56,0.5871536135673523,0.11216899007558823
189,3,64,57,0.48905834555625916,0.21204939484596252
189,3,64,58,0.46390843391418457,0.21724063158035278
189,3,64,59,0.500185489654541,0.1666390299797058
189,3,64,60,0.46921306848526,0.25447750091552734
189,3,64,61,0.5745701789855957,0.12192696332931519
189,3,64,62,0.4946938753128052,0.11188123375177383
189,3,64,63,0.5944221615791321,0.11273899674415588
189,4,128,0,0.44238317012786865,0.13900713622570038
189,4,128,1,0.6758015751838684,0.21173915266990662
189,4,128,2,0.49808555841445923,0.2970111668109894
189,4,128,3,0.5730801820755005,0.23838694393634796
189,4,128,4,0.5742500424385071,0.22122925519943237
189,4,128,5,0.3759932816028595,0.13073986768722534
189,4,128,6,0.40204769372940063,0.13115276396274567
189,4,128,7,0.7127962112426758,0.16675864160060883
189,4,128,8,0.40584704279899597,0.13726383447647095
189,4,128,9,0.5726830959320068,0.2662035822868347
189,4,128,10,0.5846942067146301,0.21856026351451874
189,4,128,11,0.3800184726715088,0.20559324324131012
189,4,128,12,0.7215227484703064,0.20766492187976837
189,4,128,13,0.37456607818603516,0.16370724141597748
189,4,128,14,0.5562915205955505,0.16495031118392944
189,4,128,15,0.6057234406471252,0.2602040469646454
189,4,128,16,0.5299392342567444,0.255380243062973
189,4,128,17,0.5270195603370667,0.15970063209533691
189,4,128,18,0.4563649892807007,0.10487961024045944
189,4,128,19,0.6956190466880798,0.22128736972808838
189,4,128,20,0.5159275531768799,0.1936855912208557
189,4,128,21,0.40868815779685974,0.17854392528533936
189,4,128,22,0.5824139714241028,0.12363260239362717
189,4,128,23,0.6156120300292969,0.1589730829000473
189,4,128,24,0.5031744837760925,0.2005653828382492
189,4,128,25,0.5309333205223083,0.2258702963590622
189,4,128,26,0.5271823406219482,0.24509550631046295
189,4,128,27,0.45617133378982544,0.2467879056930542
189,4,128,28,0.686303436756134,0.1836109757423401
189,4,128,29,0.7388008832931519,0.20500728487968445
189,4,128,30,0.628379762172699,0.116728276014328
189,4,128,31,0.478341281414032,0.22555944323539734
189,4,128,32,0.6816416382789612,0.09941107034683228
189,4,128,33,0.7548108100891113,0.15594539046287537
189,4,128,34,0.6277046203613281,0.302820086479187
189,4,128,35,0.4035860300064087,0.2924256920814514
189,4,128,36,0.5081787109375,0.2722693979740143
189,4,128,37,0.5892062187194824,0.2511509358882904
189,4,128,38,0.31794580817222595,0.14167962968349457
189,4,128,39,0.589044451713562,0.2005298137664795
189,4,128,40,0.3066658675670624,0.24048489332199097
189,4,128,41,0.3798883557319641,0.24897092580795288
189,4,128,42,0.6880537271499634,0.15741153061389923
189,4,128,43,0.4159550666809082,0.2720257639884949
189,4,128,44,0.47332385182380676,0.2116081863641739
189,4,128,45,0.6590666174888611,0.19092176854610443
189,4,128,46,0.6540751457214355,0.14524482190608978
189,4,128,47,0.586554229259491,0.24100361764431
189,4,128,48,0.4559358060359955,0.28944191336631775
189,4,128,49,0.40250077843666077,0.20779167115688324
189,4,128,50,0.5539186000823975,0.16128167510032654
189,4,128,51,0.36958104372024536,0.18999145925045013
189,4,128,52,0.5064250826835632,0.12456747889518738
189,4,128,53,0.40236979722976685,0.20854969322681427
189,4,128,54,0.3864594101905823,0.1829957664012909
189,4,128,55,0.7335793972015381,0.18919295072555542
189,4,128,56,0.5375827550888062,0.0943395122885704
189,4,128,57,0.5119779706001282,0.21782919764518738
189,4,128,58,0.4467374384403229,0.22392001748085022
189,4,128,59,0.765255331993103,0.1498470902442932
189,4,128,60,0.6229153871536255,0.18579843640327454
189,4,128,61,0.4626949429512024,0.17409193515777588
189,4,128,62,0.5672019720077515,0.26123741269111633
189,4,128,63,0.534882128238678,0.22745300829410553
189,4,128,64,0.8408756852149963,0.10290579497814178
189,4,128,65,0.6496928930282593,0.13809260725975037
189,4,128,66,0.3350129723548889,0.25782546401023865
189,4,128,67,0.2725808322429657,0.10642008483409882
189,4,128,68,0.6381844282150269,0.249174103140831
189,4,128,69,0.7292230129241943,0.12796148657798767
189,4,128,70,0.38444241881370544,0.11452184617519379
189,4,128,71,0.6600010395050049,0.2524818480014801
189,4,128,72,0.6164881587028503,0.2262975573539734
189,4,128,73,0.6701504588127136,0.23775127530097961
189,4,128,74,0.6708861589431763,0.14914153516292572
189,4,128,75,0.6607705354690552,0.2562139630317688
189,4,128,76,0.4514339864253998,0.2247122973203659
189,4,128,77,0.5810834765434265,0.1524224430322647
189,4,128,78,0.5229945778846741,0.23420393466949463
189,4,128,79,0.5782424807548523,0.2746492624282837
189,4,128,80,0.4117470383644104,0.10330835729837418
189,4,128,81,0.7279343008995056,0.23568062484264374
189,4,128,82,0.6603116393089294,0.1448991894721985
189,4,128,83,0.3527418375015259,0.22912725806236267
189,4,128,84,0.4492710828781128,0.2139405906200409
189,4,128,85,0.6419509649276733,0.13257211446762085
189,4,128,86,0.48787394165992737,0.23209604620933533
189,4,128,87,0.6097742915153503,0.14807964861392975
189,4,128,88,0.5968388319015503,0.1878286898136139
189,4,128,89,0.6211503148078918,0.22993986308574677
189,4,128,90,0.5596671104431152,0.22943277657032013
189,4,128,91,0.5316696166992188,0.23760868608951569
189,4,128,92,0.6839405298233032,0.2443755865097046
189,4,128,93,0.5997008681297302,0.22428931295871735
189,4,128,94,0.43777021765708923,0.2895221710205078
189,4,128,95,0.428021103143692,0.2573336064815521
189,4,128,96,0.5097461342811584,0.26358363032341003
189,4,128,97,0.6065850853919983,0.2565370202064514
189,4,128,98,0.2935340404510498,0.14976175129413605
189,4,128,99,0.6944345235824585,0.15586596727371216
189,4,128,100,0.7150130867958069,0.1929110586643219
189,4,128,101,0.4671437740325928,0.25851741433143616
189,4,128,102,0.5752444863319397,0.2632022202014923
189,4,128,103,0.5445386171340942,0.2061414122581482
189,4,128,104,0.5987164974212646,0.22386111319065094
189,4,128,105,0.6355275511741638,0.22087977826595306
189,4,128,106,0.5445837378501892,0.16604867577552795
189,4,128,107,0.5510172843933105,0.2994362711906433
189,4,128,108,0.5942884683609009,0.10881120711565018
189,4,128,109,0.6061238050460815,0.19244088232517242
189,4,128,110,0.5657117366790771,0.23483434319496155
189,4,128,111,0.44928431510925293,0.1690758764743805
189,4,128,112,0.4955176115036011,0.1903601884841919
189,4,128,113,0.5810049176216125,0.18784809112548828
189,4,128,114,0.5183296799659729,0.22961720824241638
189,4,128,115,0.4198433458805084,0.21578450500965118
189,4,128,116,0.6459401845932007,0.1991043984889984
189,4,128,117,0.38461050391197205,0.21733136475086212
189,4,128,118,0.6085739135742188,0.2297716736793518
189,4,128,119,0.6640041470527649,0.2302701622247696
189,4,128,120,0.41661718487739563,0.30937325954437256
189,4,128,121,0.5758395791053772,0.0860852524638176
189,4,128,122,0.5987229347229004,0.2763645350933075
189,4,128,123,0.43603068590164185,0.17243632674217224
189,4,128,124,0.665002167224884,0.18741579353809357
189,4,128,125,0.40510293841362,0.12365219742059708
189,4,128,126,0.6203395128250122,0.2050488293170929
189,4,128,127,0.5151025652885437,0.1540597826242447
189,5,128,0,0.677728533744812,0.2103709578514099
189,5,128,1,0.7231510877609253,0.19058758020401
189,5,128,2,0.5829969644546509,0.2690785825252533
189,5,128,3,0.5141588449478149,0.1555887758731842
189,5,128,4,0.7428428530693054,0.1557370126247406
189,5,128,5,0.7030678987503052,0.13003990054130554
189,5,128,6,0.7121362686157227,0.10839691758155823
189,5,128,7,0.7084856629371643,0.16685369610786438
189,5,128,8,0.5130836367607117,0.1866142898797989
189,5,128,9,0.7248493432998657,0.13213172554969788
189,5,128,10,0.5370198488235474,0.22069351375102997
189,5,128,11,0.5407735109329224,0.15748023986816406
189,5,128,12,0.6871859431266785,0.1542363315820694
189,5,128,13,0.6350846886634827,0.2161032259464264
189,5,128,14,0.6583551168441772,0.16683468222618103
189,5,128,15,0.7464208006858826,0.1442098766565323
189,5,128,16,0.6118419766426086,0.2243090271949768
189,5,128,17,0.5889896154403687,0.13615289330482483
189,5,128,18,0.5794107913970947,0.17368412017822266
189,5,128,19,0.7272454500198364,0.16775892674922943
189,5,128,20,0.5752097368240356,0.22941283881664276
189,5,128,21,0.8061762452125549,0.125100240111351
189,5,128,22,0.6085432171821594,0.09257479012012482
189,5,128,23,0.6367668509483337,0.19364534318447113
189,5,128,24,0.6118839979171753,0.26755115389823914
189,5,128,25,0.7383286952972412,0.14242634177207947
189,5,128,26,0.5978129506111145,0.18458405137062073
189,5,128,27,0.7756385207176208,0.1350921094417572
189,5,128,28,0.6842365860939026,0.17570623755455017
189,5,128,29,0.7182273864746094,0.12310904264450073
189,5,128,30,0.7071015238761902,0.10069653391838074
189,5,128,31,0.6445615291595459,0.07802572846412659
189,5,128,32,0.7331956624984741,0.11418954282999039
189,5,128,33,0.7371892333030701,0.13225144147872925
189,5,128,34,0.743989109992981,0.16308148205280304
189,5,128,35,0.8539484143257141,0.10172545909881592
189,5,128,36,0.5112588405609131,0.26140809059143066
189,5,128,37,0.7662245035171509,0.15611258149147034
189,5,128,38,0.6616227030754089,0.1676226109266281
189,5,128,39,0.6360875368118286,0.1897832602262497
189,5,128,40,0.4898214042186737,0.13912886381149292
189,5,128,41,0.6907975673675537,0.17428608238697052
189,5,128,42,0.7967212796211243,0.12376850843429565
189,5,128,43,0.8065758943557739,0.08658195286989212
189,5,128,44,0.6487240195274353,0.17751502990722656
189,5,128,45,0.5538251399993896,0.21149978041648865
189,5,128,46,0.8094156980514526,0.11217484623193741
189,5,128,47,0.6810568571090698,0.27540507912635803
189,5,128,48,0.6638267040252686,0.18519434332847595
189,5,128,49,0.7030304670333862,0.20520977675914764
189,5,128,50,0.696601390838623,0.17490416765213013
189,5,128,51,0.7306711077690125,0.2191433608531952
189,5,128,52,0.7391559481620789,0.1372685730457306
189,5,128,53,0.602397084236145,0.25300031900405884
189,5,128,54,0.3522961735725403,0.11826029419898987
189,5,128,55,0.7442657947540283,0.1598365306854248
189,5,128,56,0.7655760645866394,0.13225631415843964
189,5,128,57,0.5391652584075928,0.17240026593208313
189,5,128,58,0.6069474220275879,0.258392333984375
189,5,128,59,0.6836839914321899,0.1494828164577484
189,5,128,60,0.7865352034568787,0.13268037140369415
189,5,128,61,0.427166223526001,0.0930011123418808
189,5,128,62,0.5093523859977722,0.2922458350658417
189,5,128,63,0.5024427175521851,0.19015447795391083
189,5,128,64,0.6761194467544556,0.16024824976921082
189,5,128,65,0.7468641400337219,0.13027119636535645
189,5,128,66,0.7322818040847778,0.10634905844926834
189,5,128,67,0.5648664236068726,0.235174298286438
189,5,128,68,0.6179239153862,0.11773477494716644
189,5,128,69,0.6992900371551514,0.12225239723920822
189,5,128,70,0.6387646794319153,0.21224360167980194
189,5,128,71,0.6306477189064026,0.2824013829231262
189,5,128,72,0.6029152274131775,0.2012721449136734
189,5,128,73,0.7470192909240723,0.12910796701908112
189,5,128,74,0.8430970907211304,0.09982985258102417
189,5,128,75,0.5231693387031555,0.3157336413860321
189,5,128,76,0.4987798035144806,0.11943819373846054
189,5,128,77,0.5554803609848022,0.14128872752189636
189,5,128,78,0.6540846228599548,0.14357714354991913
189,5,128,79,0.7159540057182312,0.14692729711532593
189,5,128,80,0.5929954648017883,0.14951841533184052
189,5,128,81,0.8094140887260437,0.1017165258526802
189,5,128,82,0.7285723686218262,0.1567772775888443
189,5,128,83,0.4246117174625397,0.09498254209756851
189,5,128,84,0.8202185034751892,0.0955440029501915
189,5,128,85,0.6861968040466309,0.15258365869522095
189,5,128,86,0.7887060642242432,0.10859755426645279
189,5,128,87,0.49911797046661377,0.17314516007900238
189,5,128,88,0.5951014757156372,0.20131716132164001
189,5,128,89,0.5362179279327393,0.22733697295188904
189,5,128,90,0.7486637830734253,0.1453132927417755
189,5,128,91,0.8096241354942322,0.11138594895601273
189,5,128,92,0.7318428158760071,0.15227633714675903
189,5,128,93,0.6195762157440186,0.20732344686985016
189,5,128,94,0.6968413591384888,0.18672171235084534
189,5,128,95,0.5387939810752869,0.176263689994812
189,5,128,96,0.7359175086021423,0.13350340723991394
189,5,128,97,0.5928146243095398,0.16974474489688873
189,5,128,98,0.7168653607368469,0.16654711961746216
189,5,128,99,0.6582067012786865,0.25676101446151733
189,5,128,100,0.7505503296852112,0.11734873801469803
189,5,128,101,0.8116735816001892,0.12411322444677353
189,5,128,102,0.8495753407478333,0.09725296497344971
189,5,128,103,0.5667750239372253,0.16344262659549713
189,5,128,104,0.6505481004714966,0.21371668577194214
189,5,128,105,0.7399401664733887,0.14235736429691315
189,5,128,106,0.6412421464920044,0.195853129029274
189,5,128,107,0.7308063507080078,0.1617005467414856
189,5,128,108,0.6033033132553101,0.1214277595281601
189,5,128,109,0.560406506061554,0.23069338500499725
189,5,128,110,0.6717649698257446,0.20367977023124695
189,5,128,111,0.6278325319290161,0.17628398537635803
189,5,128,112,0.7214546799659729,0.11882461607456207
189,5,128,113,0.6961494088172913,0.23278369009494781
189,5,128,114,0.5365211963653564,0.25938791036605835
189,5,128,115,0.3636060655117035,0.11494411528110504
189,5,128,116,0.687352180480957,0.14643287658691406
189,5,128,117,0.5754476189613342,0.11807270348072052
189,5,128,118,0.7138872742652893,0.13597555458545685
189,5,128,119,0.754291296005249,0.1425478607416153
189,5,128,120,0.7145386338233948,0.14160951972007751
189,5,128,121,0.7003458142280579,0.16453492641448975
189,5,128,122,0.4757637083530426,0.18507081270217896
189,5,128,123,0.7017390727996826,0.11531476676464081
189,5,128,124,0.6601046323776245,0.2004220336675644
189,5,128,125,0.5012151598930359,0.2682048976421356
189,5,128,126,0.6798945069313049,0.25487926602363586
189,5,128,127,0.6604873538017273,0.16659186780452728
190,0,32,0,0.5488955974578857,0.059361111372709274
190,0,32,1,0.4356125295162201,0.08314459025859833
190,0,32,2,0.5283415913581848,0.04095781594514847
190,0,32,3,0.5956205129623413,0.04062451422214508
190,0,32,4,0.3895100951194763,0.03576860949397087
190,0,32,5,0.4293900430202484,0.01526863593608141
190,0,32,6,0.5557251572608948,0.10395196825265884
190,0,32,7,0.5100616812705994,0.06752237677574158
190,0,32,8,0.5312263369560242,0.09034184366464615
190,0,32,9,0.42235231399536133,0.06338197737932205
190,0,32,10,0.48355573415756226,0.04289770871400833
190,0,32,11,0.47612708806991577,0.04874008148908615
190,0,32,12,0.613150954246521,0.04892329126596451
190,0,32,13,0.5768845677375793,0.054190702736377716
190,0,32,14,0.6082091927528381,0.048606887459754944
190,0,32,15,0.5477346777915955,0.04520135372877121
190,0,32,16,0.5403110384941101,0.04066259786486626
190,0,32,17,0.48158740997314453,0.04197703301906586
190,0,32,18,0.40868836641311646,0.040064845234155655
190,0,32,19,0.49333205819129944,0.10360810905694962
190,0,32,20,0.371998131275177,0.05545501410961151
190,0,32,21,0.3941049873828888,0.06414742022752762
190,0,32,22,0.48955297470092773,0.06275684386491776
190,0,32,23,0.6251668334007263,0.08004635572433472
190,0,32,24,0.4437796473503113,0.07186524569988251
190,0,32,25,0.3821500837802887,0.03770836070179939
190,0,32,26,0.355607807636261,0.06430532038211823
190,0,32,27,0.47191742062568665,0.027326274663209915
190,0,32,28,0.591791033744812,0.02363228239119053
190,0,32,29,0.6010568141937256,0.0554543137550354
190,0,32,30,0.4288446307182312,0.03756731376051903
190,0,32,31,0.44573017954826355,0.047797512263059616
190,1,32,0,0.4471990168094635,0.0755857452750206
190,1,32,1,0.460429847240448,0.084218330681324
190,1,32,2,0.40108251571655273,0.050682857632637024
190,1,32,3,0.5879291296005249,0.1611594259738922
190,1,32,4,0.47592398524284363,0.048604920506477356
190,1,32,5,0.47635701298713684,0.13761518895626068
190,1,32,6,0.4083477556705475,0.09397977590560913
190,1,32,7,0.6036538481712341,0.163908913731575
190,1,32,8,0.6632198691368103,0.06639890372753143
190,1,32,9,0.5433474779129028,0.041976600885391235
190,1,32,10,0.5004186630249023,0.06575636565685272
190,1,32,11,0.4211866855621338,0.08108420670032501
190,1,32,12,0.47797372937202454,0.08222665637731552
190,1,32,13,0.4926151931285858,0.05124686285853386
190,1,32,14,0.4280656576156616,0.08000149577856064
190,1,32,15,0.5086566209793091,0.0644969716668129
190,1,32,16,0.609826385974884,0.07306115329265594
190,1,32,17,0.42083218693733215,0.0681445449590683
190,1,32,18,0.4272191524505615,0.021768923848867416
190,1,32,19,0.5053030252456665,0.05561577156186104
190,1,32,20,0.5819117426872253,0.09146763384342194
190,1,32,21,0.5660650730133057,0.06762395799160004
190,1,32,22,0.4336783289909363,0.09851858764886856
190,1,32,23,0.5344911217689514,0.09666529297828674
190,1,32,24,0.37980207800865173,0.0974435806274414
190,1,32,25,0.5251799821853638,0.09231960773468018
190,1,32,26,0.6067652106285095,0.05607278272509575
190,1,32,27,0.41541028022766113,0.13898387551307678
190,1,32,28,0.3924732506275177,0.12500254809856415
190,1,32,29,0.43883252143859863,0.10671154409646988
190,1,32,30,0.5155627727508545,0.07998700439929962
190,1,32,31,0.3694985806941986,0.06977519392967224
190,2,64,0,0.5650753378868103,0.15005065500736237
190,2,64,1,0.6061968207359314,0.10552094876766205
190,2,64,2,0.4407922029495239,0.05632781609892845
190,2,64,3,0.3329157829284668,0.1562136709690094
190,2,64,4,0.4429871141910553,0.07212374359369278
190,2,64,5,0.4863967299461365,0.11530623584985733
190,2,64,6,0.544310986995697,0.12117837369441986
190,2,64,7,0.5044600367546082,0.06852132081985474
190,2,64,8,0.4685923159122467,0.18003341555595398
190,2,64,9,0.7479998469352722,0.12014022469520569
190,2,64,10,0.3594381511211395,0.10919871181249619
190,2,64,11,0.3801809549331665,0.11698894202709198
190,2,64,12,0.6752495169639587,0.15441909432411194
190,2,64,13,0.5759756565093994,0.12114986777305603
190,2,64,14,0.4686526358127594,0.13198158144950867
190,2,64,15,0.44041380286216736,0.1478700339794159
190,2,64,16,0.5235307216644287,0.08459410816431046
190,2,64,17,0.5534457564353943,0.16176778078079224
190,2,64,18,0.5750935077667236,0.1368759721517563
190,2,64,19,0.439691960811615,0.15372541546821594
190,2,64,20,0.6621460914611816,0.13167177140712738
190,2,64,21,0.4506428837776184,0.11223969608545303
190,2,64,22,0.5711170434951782,0.12018081545829773
190,2,64,23,0.5934314727783203,0.1035781279206276
190,2,64,24,0.5457128882408142,0.12102186679840088
190,2,64,25,0.5126770734786987,0.14617697894573212
190,2,64,26,0.5899771451950073,0.05668723210692406
190,2,64,27,0.598832368850708,0.1428293138742447
190,2,64,28,0.567404568195343,0.13483719527721405
190,2,64,29,0.5216227769851685,0.11324448138475418
190,2,64,30,0.564939022064209,0.11083512008190155
190,2,64,31,0.3546941578388214,0.11347290128469467
