subject,channel,alpha,f1,drop_pp
1,0,1.0,0.6668962758581545,0.0
1,0,0.75,0.6786076488324472,-1.17113729742927
1,0,0.5,0.67908120668682,-1.2184930828665563
1,0,0.25,0.6653415817295885,0.15546941285660143
1,0,0.0,0.6403252643722119,2.657101148594254
1,1,1.0,0.6668962758581545,0.0
1,1,0.75,0.6752368356091811,-0.8340559751026655
1,1,0.5,0.6910997979600241,-2.42035221018696
1,1,0.25,0.6899237795454295,-2.302750368727502
1,1,0.0,0.693317996356264,-2.6421720498109535
1,2,1.0,0.6668962758581545,0.0
1,2,0.75,0.6745100593078703,-0.7613783449715861
1,2,0.5,0.6853861656082372,-1.84898897500827
1,2,0.25,0.6914040681947733,-2.4507792336618817
1,2,0.0,0.687324316421835,-2.0428040563680527
1,3,1.0,0.6668962758581545,0.0
1,3,0.75,0.6661135523219123,0.07827235362422025
1,3,0.5,0.6588911716509118,0.8005104207242653
1,3,0.25,0.6401841096756351,2.671216618251937
1,3,0.0,0.6314158154405516,3.548046041760289
1,4,1.0,0.6668962758581545,0.0
1,4,0.75,0.6982249831514538,-3.1328707293299285
1,4,0.5,0.716846946658798,-4.995067080064352
1,4,0.25,0.7062398056691155,-3.934352981096101
1,4,0.0,0.6824181466474788,-1.5521870789324321
1,5,1.0,0.6668962758581545,0.0
1,5,0.75,0.6208318676563283,4.606440820182622
1,5,0.5,0.5857673004151478,8.112897544300669
1,5,0.25,0.5532790158182425,11.361726003991201
1,5,0.0,0.5358524272182312,13.104384863992324
1,6,1.0,0.6668962758581545,0.0
1,6,0.75,0.6875008197389643,-2.060454388080979
1,6,0.5,0.706017766556791,-3.9121490698636574
1,6,0.25,0.7119385831825987,-4.504230732444425
1,6,0.0,0.7237837357768696,-5.688745991871514
1,7,1.0,0.6668962758581545,0.0
1,7,0.75,0.6751942625226675,-0.829798666451298
1,7,0.5,0.6521732297433382,1.472304611481623
1,7,0.25,0.6570480208856995,0.9848254972455006
1,7,0.0,0.6307084851459235,3.6187790712230994
1,8,1.0,0.6668962758581545,0.0
1,8,0.75,0.6777327334265656,-1.0836457568411118
1,8,0.5,0.6858331902115802,-1.8936914353425705
1,8,0.25,0.6721182778068828,-0.522200194872835
1,8,0.0,0.6473266990780255,1.9569576780128939
2,0,1.0,0.8744108618640549,0.0
2,0,0.75,0.8750293976818042,-0.061853581774928834
2,0,0.5,0.8726185731367079,0.17922887273470467
2,0,0.25,0.873723641260367,0.06872206036879769
2,0,0.0,0.8668283858636292,0.758247600042572
2,1,1.0,0.8744108618640549,0.0
2,1,0.75,0.8719291114981838,0.24817503658711715
2,1,0.5,0.8551056660246839,1.930519583937107
2,1,0.25,0.8497719752332321,2.463888663082281
2,1,0.0,0.8444877079492571,2.992315391479783
2,2,1.0,0.8744108618640549,0.0
2,2,0.75,0.8630834595574767,1.132740230657825
2,2,0.5,0.8455541037847571,2.8856758079297773
2,2,0.25,0.8272312082376393,4.7179653626415625
2,2,0.0,0.816004601561173,5.840626030288187
2,3,1.0,0.8744108618640549,0.0
2,3,0.75,0.8751088534752249,-0.06979916111700124
2,3,0.5,0.8719262478750479,0.24846139890070118
2,3,0.25,0.887192502883124,-1.278164101906909
2,3,0.0,0.8960079795244474,-2.1597117660392517
2,4,1.0,0.8744108618640549,0.0
2,4,0.75,0.8685617039964866,0.5849157867568344
2,4,0.5,0.8643823947397583,1.0028467124296614
2,4,0.25,0.8648961428163296,0.9514719047725273
2,4,0.0,0.8689092631974132,0.5501598666641683
2,5,1.0,0.8744108618640549,0.0
2,5,0.75,0.869648529200939,0.4762332663115876
2,5,0.5,0.8575123541059999,1.6898507758055015
2,5,0.25,0.8559995224400504,1.8411339424004525
2,5,0.0,0.8309478754030097,4.346298646104518
2,6,1.0,0.8744108618640549,0.0
2,6,0.75,0.8681694305989874,0.6241431265067487
2,6,0.5,0.8728564023619086,0.1554459502146277
2,6,0.25,0.8635464102243154,1.086445163973948
2,6,0.0,0.87260226435988,0.1808597504174947
2,7,1.0,0.8744108618640549,0.0
2,7,0.75,0.8739635537542081,0.044730810984683345
2,7,0.5,0.8596174720351524,1.4793389828902548
2,7,0.25,0.8383939255155618,3.6016936348493123
2,7,0.0,0.8200376027285627,5.437325913549218
2,8,1.0,0.8744108618640549,0.0
2,8,0.75,0.873149046621277,0.12618152427779084
2,8,0.5,0.8608240087478841,1.3586853116170805
2,8,0.25,0.8688002270570733,0.5610634806981651
2,8,0.0,0.876147672368951,-0.1736810504896047
3,0,1.0,0.8617385834777139,0.0
3,0,0.75,0.8781684940941504,-1.6429910616436505
3,0,0.5,0.8962218215281161,-3.448323805040221
3,0,0.25,0.891073653314188,-2.933506983647405
3,0,0.0,0.8747978714318032,-1.3059287954089283
3,1,1.0,0.8617385834777139,0.0
3,1,0.75,0.8723646379473865,-1.0626054469672574
3,1,0.5,0.8744123140387291,-1.2673730561015173
3,1,0.25,0.8727188293999958,-1.0980245922281862
3,1,0.0,0.8545533090777366,0.7185274399977293
3,2,1.0,0.8617385834777139,0.0
3,2,0.75,0.85919407060872,0.2544512868993931
3,2,0.5,0.850334270417421,1.140431306029288
3,2,0.25,0.8468630954664095,1.487548801130445
3,2,0.0,0.8472251112052435,1.4513472272470462
3,3,1.0,0.8617385834777139,0.0
3,3,0.75,0.8378639514819191,2.387463199579487
3,3,0.5,0.8259878644607606,3.575071901695337
3,3,0.25,0.7976137379862986,6.412484549141528
3,3,0.0,0.7620522375423467,9.968634593536718
3,4,1.0,0.8617385834777139,0.0
3,4,0.75,0.8695706011720231,-0.783201769430919
3,4,0.5,0.8739062357605187,-1.2167652282804808
3,4,0.25,0.8789955257474199,-1.7256942269705977
3,4,0.0,0.876208301232179,-1.446971775446504
3,5,1.0,0.8617385834777139,0.0
3,5,0.75,0.8368933957249175,2.4845187752796427
3,5,0.5,0.8420619633565065,1.967662012120741
3,5,0.25,0.8585181447187213,0.3220438758992583
3,5,0.0,0.868803640502807,-0.706505702509308
3,6,1.0,0.8617385834777139,0.0
3,6,0.75,0.8633539613305847,-0.1615377852870803
3,6,0.5,0.859801811347451,0.1936772130262887
3,6,0.25,0.8488262839926362,1.2912299485077772
3,6,0.0,0.8515710227756379,1.0167560702076028
3,7,1.0,0.8617385834777139,0.0
3,7,0.75,0.8568957508731968,0.4842832604517122
3,7,0.5,0.8322988027905045,2.9439780687209427
3,7,0.25,0.8212784847099386,4.046009876777534
3,7,0.0,0.8132153327097025,4.852325076801145
3,8,1.0,0.8617385834777139,0.0
3,8,0.75,0.8710557234052732,-0.9317139927559226
3,8,0.5,0.8821826505592258,-2.044406708151192
3,8,0.25,0.8887299933352565,-2.699140985754256
3,8,0.0,0.8862076631047615,-2.4469079627047585
4,0,1.0,0.8691446747574094,0.0
4,0,0.75,0.8459901508977777,2.315452385963168
4,0,0.5,0.8478642660604346,2.1280408696974784
4,0,0.25,0.8346915068653991,3.445316789201036
4,0,0.0,0.8422457973322047,2.6898877425204692
4,1,1.0,0.8691446747574094,0.0
4,1,0.75,0.8395537829988658,2.959089175854357
4,1,0.5,0.8140939563798937,5.505071837751574
4,1,0.25,0.8080205181292138,6.11241566281956
4,1,0.0,0.7779938086695146,9.115086608789479
4,2,1.0,0.8691446747574094,0.0
4,2,0.75,0.8700829708000807,-0.09382960426712605
4,2,0.5,0.8658012267332882,0.33434480241212317
4,2,0.25,0.8491449598244063,1.999971493300312
4,2,0.0,0.8242902551925215,4.485441956488789
4,3,1.0,0.8691446747574094,0.0
4,3,0.75,0.8667146671635163,0.24300075938931132
4,3,0.5,0.8620190144014401,0.7125660355969288
4,3,0.25,0.8670584971207069,0.2086177636702491
4,3,0.0,0.8686184298575691,0.05262448998403224
4,4,1.0,0.8691446747574094,0.0
4,4,0.75,0.8667571722522434,0.23875025051660614
4,4,0.5,0.86979760895075,-0.06529341933405597
4,4,0.25,0.8755903657316196,-0.6445690974210216
4,4,0.0,0.8662819272901447,0.286274746726467
4,5,1.0,0.8691446747574094,0.0
4,5,0.75,0.8622265242861195,0.6918150471289963
4,5,0.5,0.8782845968950717,-0.9139922137662237
4,5,0.25,0.8683043967526727,0.08402780047367386
4,5,0.0,0.8699267943629978,-0.07821196055883828
4,6,1.0,0.8691446747574094,0.0
4,6,0.75,0.8776324449222199,-0.8487770164810504
4,6,0.5,0.8792616172640842,-1.011694250667483
4,6,0.25,0.8770053904322989,-0.786071567488944
4,6,0.0,0.8723029857297004,-0.3158310972291023
4,7,1.0,0.8691446747574094,0.0
4,7,0.75,0.86918485471992,-0.00401799625106003
4,7,0.5,0.8680304078564058,0.111426690100358
4,7,0.25,0.8826860553119465,-1.354138055453713
4,7,0.0,0.8893691506104732,-2.022447585306375
4,8,1.0,0.8691446747574094,0.0
4,8,0.75,0.8689460721301977,0.019860262721171917
4,8,0.5,0.8736679165880514,-0.4523241830642011
4,8,0.25,0.8558965758711261,1.324809888628331
4,8,0.0,0.8272983497903292,4.184632496708018
5,0,1.0,0.6393477616485077,0.0
5,0,0.75,0.6555670092536832,-1.6219247605175457
5,0,0.5,0.6548372786845362,-1.5489517036028522
5,0,0.25,0.651649138300672,-1.2301376652164242
5,0,0.0,0.6458067131456149,-0.6458951497107179
5,1,1.0,0.6393477616485077,0.0
5,1,0.75,0.6526433493290483,-1.3295587680540621
5,1,0.5,0.656352842553967,-1.7005080905459269
5,1,0.25,0.658863149053545,-1.9515387405037332
5,1,0.0,0.6697869543727709,-3.043919272426321
5,2,1.0,0.6393477616485077,0.0
5,2,0.75,0.6482689370548748,-0.8921175406367055
5,2,0.5,0.6414154201438094,-0.20676584953016608
5,2,0.25,0.6393272559778653,0.002050567064237896
5,2,0.0,0.631860123657572,0.7487637990935658
5,3,1.0,0.6393477616485077,0.0
5,3,0.75,0.6493735023196376,-1.0025740671129935
5,3,0.5,0.6515381389523774,-1.2190377303869737
5,3,0.25,0.6576270280897916,-1.827926644128386
5,3,0.0,0.6433194850739297,-0.3971723425421958
5,4,1.0,0.6393477616485077,0.0
5,4,0.75,0.6315251131497903,0.7822648498717388
5,4,0.5,0.615261804315943,2.408595733256469
5,4,0.25,0.61692702138962,2.242074025888774
5,4,0.0,0.6444669207662616,-0.5119159117753846
5,5,1.0,0.6393477616485077,0.0
5,5,0.75,0.6134473763820147,2.5900385266492965
5,5,0.5,0.6293753679620273,0.9972393686480396
5,5,0.25,0.6163142119094946,2.303354973901306
5,5,0.0,0.6169782880349891,2.23694736135186
5,6,1.0,0.6393477616485077,0.0
5,6,0.75,0.6450014935909147,-0.5653731942407036
5,6,0.5,0.6383792033792033,0.09685582693044203
5,6,0.25,0.6444532122400974,-0.5105450591589733
5,6,0.0,0.6386534089337632,0.0694352714744495
5,7,1.0,0.6393477616485077,0.0
5,7,0.75,0.6634278277776036,-2.4080066129095856
5,7,0.5,0.6587768987619211,-1.942913711341343
5,7,0.25,0.654171461570461,-1.4823699921953315
5,7,0.0,0.6427565108618352,-0.34087492133274555
5,8,1.0,0.6393477616485077,0.0
5,8,0.75,0.6458075201246587,-0.645975847615099
5,8,0.5,0.6534086122321416,-1.4060850583633933
5,8,0.25,0.6381302920015846,0.12174696469231527
5,8,0.0,0.6120779914529915,2.726977019551624
6,0,1.0,0.7402748583508513,0.0
6,0,0.75,0.7489131913095817,-0.8638332958730399
6,0,0.5,0.7517884629391022,-1.1513604588250903
6,0,0.25,0.7646848990244683,-2.4410040673617073
6,0,0.0,0.7366787347019905,0.35961236488607495
6,1,1.0,0.7402748583508513,0.0
6,1,0.75,0.7300536158971255,1.0221242453725798
6,1,0.5,0.7202310377462761,2.0043820604575213
6,1,0.25,0.7155269703760333,2.4747887974817973
6,1,0.0,0.7003599097036668,3.991494864718448
6,2,1.0,0.7402748583508513,0.0
6,2,0.75,0.7366864499578898,0.3588408392961484
6,2,0.5,0.7279077747980236,1.2367083552827673
6,2,0.25,0.7339115235857474,0.6363334765103867
6,2,0.0,0.7400862993127233,0.01885590381279778
6,3,1.0,0.7402748583508513,0.0
6,3,0.75,0.7461573975542554,-0.5882539203404091
6,3,0.5,0.751198963171251,-1.0924104820399738
6,3,0.25,0.7718085316623058,-3.1533673311454513
6,3,0.0,0.7764106048012036,-3.6135746450352335
6,4,1.0,0.7402748583508513,0.0
6,4,0.75,0.7195049221160261,2.076993623482515
6,4,0.5,0.7036018144982829,3.667304385256842
6,4,0.25,0.6967029252704032,4.357193308044804
6,4,0.0,0.6952591429830359,4.501571536781535
6,5,1.0,0.7402748583508513,0.0
6,5,0.75,0.7314527958515148,0.882206249933648
6,5,0.5,0.7130702232746734,2.7204635076177874
6,5,0.25,0.7152930374497114,2.4981820901139873
6,5,0.0,0.7127668934815931,2.7507964869258217
6,6,1.0,0.7402748583508513,0.0
6,6,0.75,0.7362663312054725,0.4008527145378804
6,6,0.5,0.7293395656210455,1.0935292729805757
6,6,0.25,0.720654562659462,1.9620295691389233
6,6,0.0,0.7225292698084234,1.7745588542427915
6,7,1.0,0.7402748583508513,0.0
6,7,0.75,0.7496313735435851,-0.9356515192733839
6,7,0.5,0.7396549965078795,0.06198618429718028
6,7,0.25,0.720280298986316,1.9994559364535314
6,7,0.0,0.7009111075833844,3.93637507674669
6,8,1.0,0.7402748583508513,0.0
6,8,0.75,0.7330393087947834,0.7235549556067866
6,8,0.5,0.7398013499658237,0.047350838502757675
6,8,0.25,0.7329112855392609,0.7363572811590391
6,8,0.0,0.6959342412547537,4.43406170960976
7,0,1.0,0.7355727523464279,0.0
7,0,0.75,0.7525251285194087,-1.6952376172980732
7,0,0.5,0.7524732008743956,-1.6900448527967682
7,0,0.25,0.7522562976906074,-1.6683545344179485
7,0,0.0,0.7342969932943975,0.12757590520304785
7,1,1.0,0.7355727523464279,0.0
7,1,0.75,0.7441950250029283,-0.8622272656500396
7,1,0.5,0.7372703757102795,-0.1697623363851597
7,1,0.25,0.7347644507968476,0.0808301549580337
7,1,0.0,0.7216195650899018,1.3953187256526167
7,2,1.0,0.7355727523464279,0.0
7,2,0.75,0.7337224217069178,0.18503306395101227
7,2,0.5,0.7314060288087412,0.41667235376867673
7,2,0.25,0.7157328349100941,1.9839917436333843
7,2,0.0,0.6881194478972356,4.745330444919238
7,3,1.0,0.7355727523464279,0.0
7,3,0.75,0.7455385904373032,-0.9965838090875256
7,3,0.5,0.7470794681299222,-1.150671578349427
7,3,0.25,0.7662084362665759,-3.0635683920147927
7,3,0.0,0.76468444576111,-2.9111693414682116
7,4,1.0,0.7355727523464279,0.0
7,4,0.75,0.7324007482645327,0.3172004081895219
7,4,0.5,0.7209978561907215,1.4574896155706396
7,4,0.25,0.7268049778644472,0.8767774481980739
7,4,0.0,0.7336547341195641,0.19180182268638823
7,5,1.0,0.7355727523464279,0.0
7,5,0.75,0.7566186958184207,-2.1045943471992734
7,5,0.5,0.7505371600172501,-1.4964407670822188
7,5,0.25,0.7688259089563928,-3.3253156609964862
7,5,0.0,0.784983485760243,-4.941073341381507
7,6,1.0,0.7355727523464279,0.0
7,6,0.75,0.7398753583207639,-0.430260597433596
7,6,0.5,0.738568159861634,-0.29954075152061055
7,6,0.25,0.7342870972093282,0.12856551370997726
7,6,0.0,0.7231176539986172,1.2455098347810778
7,7,1.0,0.7355727523464279,0.0
7,7,0.75,0.7263178967555429,0.9254855590885014
7,7,0.5,0.7208300690429298,1.474268330349815
7,7,0.25,0.7088733344526718,2.6699417893756183
7,7,0.0,0.6963986362793986,3.9174116067029363
7,8,1.0,0.7355727523464279,0.0
7,8,0.75,0.7230241875812394,1.2548564765188508
7,8,0.5,0.7274932875871671,0.8079464759260802
7,8,0.25,0.7083985400099534,2.7174212336474546
7,8,0.0,0.6759078285758621,5.966492377056587
8,0,1.0,0.8504124518352648,0.0
8,0,0.75,0.8541765193729909,-0.3764067537726068
8,0,0.5,0.8526830241824263,-0.2270572347161437
8,0,0.25,0.8487818091308744,0.16306427043903948
8,0,0.0,0.8191137167430271,3.1298735092237684
8,1,1.0,0.8504124518352648,0.0
8,1,0.75,0.8465083461925956,0.39041056426691867
8,1,0.5,0.8511168298375519,-0.07043780022870649
8,1,0.25,0.848210691612475,0.22017602227898392
8,1,0.0,0.839240295083365,1.1172156751899864
8,2,1.0,0.8504124518352648,0.0
8,2,0.75,0.8512089210088489,-0.07964691735841134
8,2,0.5,0.8524816321509436,-0.20691803156788202
8,2,0.25,0.8493042409175391,0.11082109177257271
8,2,0.0,0.840681554525048,0.9730897310216813
8,3,1.0,0.8504124518352648,0.0
8,3,0.75,0.8449199291041377,0.5492522731127103
8,3,0.5,0.831672941880566,1.8739509954698863
8,3,0.25,0.8299481807945784,2.0464271040686377
8,3,0.0,0.8270041578308764,2.3408294004388375
8,4,1.0,0.8504124518352648,0.0
8,4,0.75,0.8397220675135257,1.0690384321739077
8,4,0.5,0.8223764458948135,2.8036005940451303
8,4,0.25,0.8141717697045441,3.6240682130720736
8,4,0.0,0.8172994444375653,3.311300739769951
8,5,1.0,0.8504124518352648,0.0
8,5,0.75,0.8261898724058163,2.42225794294485
8,5,0.5,0.8011036306930923,4.930882114217249
8,5,0.25,0.8114613171207149,3.8951134714549918
8,5,0.0,0.8120558925644179,3.8356559270846913
8,6,1.0,0.8504124518352648,0.0
8,6,0.75,0.8488890998328722,0.15233520023926195
8,6,0.5,0.8430926325837664,0.7319819251498383
8,6,0.25,0.8447233945419718,0.5689057293293054
8,6,0.0,0.8420680388590279,0.8344412976236892
8,7,1.0,0.8504124518352648,0.0
8,7,0.75,0.8579829992402513,-0.7570547404986527
8,7,0.5,0.8414958800879475,0.8916571747317303
8,7,0.25,0.8186377677256789,3.177468410958595
8,7,0.0,0.778381377027298,7.203107480796678
8,8,1.0,0.8504124518352648,0.0
8,8,0.75,0.8619354254336105,-1.1522973598345643
8,8,0.5,0.8546658711472375,-0.42534193119726504
8,8,0.25,0.8488999576362488,0.15124941990160012
8,8,0.0,0.84932120785772,0.10912439775447869
9,0,1.0,0.8400727947596495,0.0
9,0,0.75,0.8242009711308595,1.5871823628789916
9,0,0.5,0.8279972447761661,1.207554998348337
9,0,0.25,0.812749598129429,2.7323196630220425
9,0,0.0,0.8067860673755977,3.3286727384051806
9,1,1.0,0.8400727947596495,0.0
9,1,0.75,0.8332623562104373,0.681043854921215
9,1,0.5,0.8251164881158111,1.4956306643838402
9,1,0.25,0.8033186984033963,3.675409635625315
9,1,0.0,0.8127778442820531,2.7294950477596336
9,2,1.0,0.8400727947596495,0.0
9,2,0.75,0.8416416163703686,-0.156882161071914
9,2,0.5,0.8354559259013673,0.4616868858282164
9,2,0.25,0.8176428478838111,2.2429946875838325
9,2,0.0,0.8034023338931581,3.6670460866491394
9,3,1.0,0.8400727947596495,0.0
9,3,0.75,0.845259225993171,-0.5186431233521582
9,3,0.5,0.8425901613413478,-0.25173665816983215
9,3,0.25,0.8391494864537892,0.09233083058602931
9,3,0.0,0.8382509904476181,0.18218043120313832
9,4,1.0,0.8400727947596495,0.0
9,4,0.75,0.8198584686876466,2.021432607200291
9,4,0.5,0.8128429553623816,2.7229839397267863
9,4,0.25,0.7949405052943652,4.513228946528425
9,4,0.0,0.8180579917805063,2.2014802979143155
9,5,1.0,0.8400727947596495,0.0
9,5,0.75,0.8285974941204947,1.1475300639154806
9,5,0.5,0.8072967348276446,3.277605993200483
9,5,0.25,0.8042327456651616,3.5840049094487902
9,5,0.0,0.809538112258888,3.053468250076141
9,6,1.0,0.8400727947596495,0.0
9,6,0.75,0.8299442591956169,1.0128535564032592
9,6,0.5,0.8182059870986479,2.1866807661001575
9,6,0.25,0.8211995803307063,1.8873214428943186
9,6,0.0,0.8179669066296147,2.210588813003478
9,7,1.0,0.8400727947596495,0.0
9,7,0.75,0.829655614031256,1.0417180728393483
9,7,0.5,0.823305003182291,1.6767791577358415
9,7,0.25,0.8096812909312909,3.0391503828358535
9,7,0.0,0.7876111555162464,5.246163924340308
9,8,1.0,0.8400727947596495,0.0
9,8,0.75,0.8370456085958918,0.30271861637576336
9,8,0.5,0.830704188429576,0.9368606330073415
9,8,0.25,0.8276574623042015,1.2415332455448014
9,8,0.0,0.8237577358975525,1.6315058862096943
10,0,1.0,0.7274363224213154,0.0
10,0,0.75,0.7248351574505167,0.2601164970798653
10,0,0.5,0.7311713820511803,-0.37350596298648675
10,0,0.25,0.7404601389391313,-1.3023816517815923
10,0,0.0,0.748262824966729,-2.0826502545413628
10,1,1.0,0.7274363224213154,0.0
10,1,0.75,0.7275872776699088,-0.015095524859343179
10,1,0.5,0.7323166875175569,-0.4880365096241457
10,1,0.25,0.746206649009241,-1.8770326587925656
10,1,0.0,0.744652466546675,-1.7216144125359656
10,2,1.0,0.7274363224213154,0.0
10,2,0.75,0.7171740104055909,1.0262312015724473
10,2,0.5,0.7187747842933909,0.8661538127924473
10,2,0.25,0.7229669171781054,0.4469405243210045
10,2,0.0,0.716939252733288,1.0497069688027438
10,3,1.0,0.7274363224213154,0.0
10,3,0.75,0.7239760493119646,0.346027310935082
10,3,0.5,0.7314473368986083,-0.4011014477292907
10,3,0.25,0.7268872905999589,0.054903182135646045
10,3,0.0,0.674235734086138,5.320058833517738
10,4,1.0,0.7274363224213154,0.0
10,4,0.75,0.723239913257377,0.4196409163938375
10,4,0.5,0.7154248406480285,1.2011481773286925
10,4,0.25,0.7122107048854137,1.522561753590168
10,4,0.0,0.7110297946470279,1.6406527774287527
10,5,1.0,0.7274363224213154,0.0
10,5,0.75,0.717208045328359,1.0228277092956373
10,5,0.5,0.7355684929001884,-0.8132170478873046
10,5,0.25,0.7252307572349397,0.2205565186375713
10,5,0.0,0.7295769889892567,-0.21406665679413184
10,6,1.0,0.7274363224213154,0.0
10,6,0.75,0.74238525881171,-1.494893639039463
10,6,0.5,0.7563029672460971,-2.886664482478174
10,6,0.25,0.748397684338929,-2.0961361917613552
10,6,0.0,0.7499527068652184,-2.2516384443903026
10,7,1.0,0.7274363224213154,0.0
10,7,0.75,0.7358601393272237,-0.8423816905908321
10,7,0.5,0.7310464527580576,-0.3610130336742179
10,7,0.25,0.7201813822015712,0.7254940219744155
10,7,0.0,0.703294372610277,2.4141949811038343
10,8,1.0,0.7274363224213154,0.0
10,8,0.75,0.7218757918333476,0.5560530587967794
10,8,0.5,0.7216041120745378,0.5832210346777611
10,8,0.25,0.7235952548199266,0.38410676013888034
10,8,0.0,0.7244563832525556,0.29799391687598265
11,0,1.0,0.8907527949396882,0.0
11,0,0.75,0.9026313778543509,-1.1878582914662705
11,0,0.5,0.8928004437255369,-0.20476487858487324
11,0,0.25,0.8841009484046749,0.6651846535013273
11,0,0.0,0.8785975524368898,1.2155242502798425
11,1,1.0,0.8907527949396882,0.0
11,1,0.75,0.8923631172645675,-0.1610322324879343
11,1,0.5,0.8950266261477974,-0.4273831208109202
11,1,0.25,0.8846928350900733,0.6059959849614827
11,1,0.0,0.8401569941690735,5.059580077061465
11,2,1.0,0.8907527949396882,0.0
11,2,0.75,0.8907527949396882,0.0
11,2,0.5,0.8890682672285483,0.1684527711139916
11,2,0.25,0.8811067585639283,0.9646036375759892
11,2,0.0,0.867930911954161,2.282188298552712
11,3,1.0,0.8907527949396882,0.0
11,3,0.75,0.8926382994071662,-0.18855044674780386
11,3,0.5,0.8887401920615282,0.20126028781599636
11,3,0.25,0.8901960031953078,0.05567917443803916
11,3,0.0,0.8758383859640309,1.4914408975657323
11,4,1.0,0.8907527949396882,0.0
11,4,0.75,0.8961822111672575,-0.5429416227569317
11,4,0.5,0.8993799044810555,-0.8627109541367362
11,4,0.25,0.9006583215977756,-0.9905526658087416
11,4,0.0,0.8709582279205307,1.9794567019157494
11,5,1.0,0.8907527949396882,0.0
11,5,0.75,0.8863173978170411,0.4435397122647067
11,5,0.5,0.883681732195985,0.7071062743703171
11,5,0.25,0.8843123292030539,0.644046573663426
11,5,0.0,0.8867613053767543,0.39914895629338254
11,6,1.0,0.8907527949396882,0.0
11,6,0.75,0.8906622984196336,0.009049652005455044
11,6,0.5,0.8863618099872973,0.4390984952390875
11,6,0.25,0.883072368622632,0.7680426317056122
11,6,0.0,0.9022350710383713,-1.148227609868313
11,7,1.0,0.8907527949396882,0.0
11,7,0.75,0.8892706885901119,0.148210634957624
11,7,0.5,0.8800284007577486,1.07243941819396
11,7,0.25,0.8657643470731899,2.498844786649823
11,7,0.0,0.8542535935108938,3.649920142879437
11,8,1.0,0.8907527949396882,0.0
11,8,0.75,0.8836144982554945,0.7138296684193635
11,8,0.5,0.8830498024862187,0.7702992453469504
11,8,0.25,0.8580913873475401,3.2661407592148084
11,8,0.0,0.8360977456148228,5.465504932486542
12,0,1.0,0.8729826609141135,0.0
12,0,0.75,0.8856908544775077,-1.2708193563394254
12,0,0.5,0.8767678161984805,-0.378515528436707
12,0,0.25,0.8668433018339063,0.613935908020713
12,0,0.0,0.8631499935115767,0.9832667402536743
12,1,1.0,0.8729826609141135,0.0
12,1,0.75,0.8669652009087452,0.6017460005368291
12,1,0.5,0.8593366785558496,1.3645982358263864
12,1,0.25,0.8544195042819935,1.8563156632119937
12,1,0.0,0.851581832720196,2.140082819391742
12,2,1.0,0.8729826609141135,0.0
12,2,0.75,0.8611588266209939,1.1823834293119617
12,2,0.5,0.8570314047590182,1.5951256155095295
12,2,0.25,0.8655668465208811,0.7415814393232356
12,2,0.0,0.8521775013421976,2.0805159571915866
12,3,1.0,0.8729826609141135,0.0
12,3,0.75,0.8686758817448459,0.4306779169267583
12,3,0.5,0.8587361889082112,1.4246472005902233
12,3,0.25,0.8402453780316376,3.2737282882475904
12,3,0.0,0.8249080904079078,4.807457050620567
12,4,1.0,0.8729826609141135,0.0
12,4,0.75,0.8723925650361686,0.059009587794489615
12,4,0.5,0.8752619830388164,-0.22793221247029427
12,4,0.25,0.8778182555472683,-0.48355946331548605
12,4,0.0,0.8630045372344686,0.9978123679644901
12,5,1.0,0.8729826609141135,0.0
12,5,0.75,0.8728571428571429,0.012551805697058604
12,5,0.5,0.8682878112655475,0.4694849648565924
12,5,0.25,0.8576542833779295,1.532837753618399
12,5,0.0,0.8599162841808984,1.306637673321509
12,6,1.0,0.8729826609141135,0.0
12,6,0.75,0.8878274928758292,-1.484483196171571
12,6,0.5,0.8824425272755357,-0.9459866361422264
12,6,0.25,0.8837191931072244,-1.0736532193110881
12,6,0.0,0.871131759463702,0.18509014504114463
12,7,1.0,0.8729826609141135,0.0
12,7,0.75,0.8567299276232823,1.6252733290831212
12,7,0.5,0.865555980906552,0.7426680007561526
12,7,0.25,0.8679894284113477,0.4993232502765732
12,7,0.0,0.8766186194757624,-0.3635958561648889
12,8,1.0,0.8729826609141135,0.0
12,8,0.75,0.8661613689953771,0.6821291918736372
12,8,0.5,0.8788468596312538,-0.5864198717140279
12,8,0.25,0.8728019825213479,0.01806783927655875
12,8,0.0,0.8740729062996667,-0.10902453855532457
13,0,1.0,0.9083440596763507,0.0
13,0,0.75,0.9170102614324854,-0.866620175613475
13,0,0.5,0.9202867637672465,-1.1942704090895817
13,0,0.25,0.9109371072460999,-0.2593047569749207
13,0,0.0,0.9179255209085024,-0.9581461232151756
13,1,1.0,0.9083440596763507,0.0
13,1,0.75,0.9158121182467234,-0.7468058570372693
13,1,0.5,0.925416680679558,-1.7072621003207278
13,1,0.25,0.925343581755265,-1.6999522078914309
13,1,0.0,0.9264939696089535,-1.8149909932602792
13,2,1.0,0.9083440596763507,0.0
13,2,0.75,0.9122958117871569,-0.3951752110806228
13,2,0.5,0.9183714189807428,-1.0027359304392136
13,2,0.25,0.9098700694266548,-0.1526009750304147
13,2,0.0,0.9095677391862224,-0.1223679509871678
13,3,1.0,0.9083440596763507,0.0
13,3,0.75,0.9049434365910868,0.34006230852638986
13,3,0.5,0.905168289687717,0.317576998863367
13,3,0.25,0.907165167569871,0.11788921064797009
13,3,0.0,0.8905977891732383,1.7746270503112394
13,4,1.0,0.9083440596763507,0.0
13,4,0.75,0.9058416382790687,0.2502421397281962
13,4,0.5,0.8975142833905083,1.0829776285842363
13,4,0.25,0.8873479438257899,2.0996115850560826
13,4,0.0,0.9057270801115958,0.2616979564754929
13,5,1.0,0.9083440596763507,0.0
13,5,0.75,0.8965748935764424,1.1769166099908301
13,5,0.5,0.8911400694415013,1.720399023484942
13,5,0.25,0.8902030274048623,1.8141032271488333
13,5,0.0,0.8912779605742259,1.7066099102124754
13,6,1.0,0.9083440596763507,0.0
13,6,0.75,0.9097880243238903,-0.14439646475395973
13,6,0.5,0.9075157075280926,0.08283521482580491
13,6,0.25,0.9013987436448287,0.6945316031521931
13,6,0.0,0.9060076110782199,0.2336448598130758
13,7,1.0,0.9083440596763507,0.0
13,7,0.75,0.9130323357071666,-0.46882760308158966
13,7,0.5,0.8978626740182907,1.0481385658060005
13,7,0.25,0.8897535637448332,1.8590495931517514
13,7,0.0,0.9118377944889078,-0.3493734812557103
13,8,1.0,0.9083440596763507,0.0
13,8,0.75,0.9110595940491725,-0.2715534372821793
13,8,0.5,0.9070392054080292,0.1304854268321498
13,8,0.25,0.8947162458707169,1.3627813805633826
13,8,0.0,0.8979981927783934,1.0345866897957245
14,0,1.0,0.8310333591757397,0.0
14,0,0.75,0.8360883260603069,-0.5054966884567191
14,0,0.5,0.8290751666120398,0.19581925636998898
14,0,0.25,0.8191301012566167,1.1903257919123056
14,0,0.0,0.801129177807323,2.990418136841677
14,1,1.0,0.8310333591757397,0.0
14,1,0.75,0.833678409577884,-0.26450504021442445
14,1,0.5,0.8297734153532894,0.12599438224503157
14,1,0.25,0.8149615018819677,1.607185729377203
14,1,0.0,0.8083353569114116,2.2698002264328165
14,2,1.0,0.8310333591757397,0.0
14,2,0.75,0.8283250624496059,0.27082967261338187
14,2,0.5,0.817303331727998,1.3730027447741766
14,2,0.25,0.8172436599024152,1.3789699273324518
14,2,0.0,0.821090013464553,0.9943345711186713
14,3,1.0,0.8310333591757397,0.0
14,3,0.75,0.8179921893153781,1.3041169860361634
14,3,0.5,0.8060943008271912,2.493905834854848
14,3,0.25,0.791733219248148,3.9300139927591737
14,3,0.0,0.7683291506494758,6.2704208526263905
14,4,1.0,0.8310333591757397,0.0
14,4,0.75,0.8362020961638165,-0.5168736988076739
14,4,0.5,0.8366666666666667,-0.5633307490926942
14,4,0.25,0.8388169816318164,-0.7783622456076666
14,4,0.0,0.8362153035906412,-0.5181944414901496
14,5,1.0,0.8310333591757397,0.0
14,5,0.75,0.8252495269503783,0.5783832225361385
14,5,0.5,0.8307754813697033,0.025787780603647725
14,5,0.25,0.8449713016642151,-1.3937942488475352
14,5,0.0,0.8418313056994764,-1.0797946523736668
14,6,1.0,0.8310333591757397,0.0
14,6,0.75,0.8294262553733671,0.16071038023726114
14,6,0.5,0.8310360443208831,-0.0002685145143344059
14,6,0.25,0.8353889332094573,-0.43555740337175575
14,6,0.0,0.8353889332094573,-0.43555740337175575
14,7,1.0,0.8310333591757397,0.0
14,7,0.75,0.8419403102275245,-1.0906951051784741
14,7,0.5,0.8430207747526632,-1.198741557692351
14,7,0.25,0.8137395296551361,1.7293829520603654
14,7,0.0,0.791025316760516,4.000804241522371
14,8,1.0,0.8310333591757397,0.0
14,8,0.75,0.8355597562476761,-0.4526397071936361
14,8,0.5,0.8356377730910836,-0.460441391534383
14,8,0.25,0.8348177054672723,-0.378434629153257
14,8,0.0,0.8133229566947158,1.7710402481023957
15,0,1.0,0.8690343989344675,0.0
15,0,0.75,0.8669305400279106,0.21038589065569546
15,0,0.5,0.8602185619022469,0.8815837032220664
15,0,0.25,0.8469524140546005,2.208198487986701
15,0,0.0,0.8357236382025176,3.331076073194994
15,1,1.0,0.8690343989344675,0.0
15,1,0.75,0.8608999618300135,0.8134437104454051
15,1,0.5,0.8623850495038067,0.6649349430660867
15,1,0.25,0.8709357363071503,-0.1901337372682721
15,1,0.0,0.8468867191597527,2.214767977471488
15,2,1.0,0.8690343989344675,0.0
15,2,0.75,0.8741657559198542,-0.5131356985386692
15,2,0.5,0.8544656381467112,1.4568760787756374
15,2,0.25,0.851838523155379,1.7195875779088543
15,2,0.0,0.8508206526640739,1.8213746270393627
15,3,1.0,0.8690343989344675,0.0
15,3,0.75,0.8742928667088746,-0.5258467774407083
15,3,0.5,0.8683988497686748,0.06355491657927814
15,3,0.25,0.8527363110618924,1.629808787257514
15,3,0.0,0.8519814373952541,1.705296153921343
15,4,1.0,0.8690343989344675,0.0
15,4,0.75,0.868441715584494,0.05926833499735329
15,4,0.5,0.8623665756297441,0.6667823304723486
15,4,0.25,0.868233673900133,0.08007250343345929
15,4,0.0,0.8725026598029689,-0.34682608685013827
15,5,1.0,0.8690343989344675,0.0
15,5,0.75,0.8655430907105229,0.34913082239446114
15,5,0.5,0.8622076033886852,0.682679554578236
15,5,0.25,0.8494890919235663,1.9545307010901292
15,5,0.0,0.8535488819833156,1.5485516951151967
15,6,1.0,0.8690343989344675,0.0
15,6,0.75,0.8564927417776559,1.2541657156811659
15,6,0.5,0.8504373715041665,1.8597027430301005
15,6,0.25,0.850874652966116,1.815974596835157
15,6,0.0,0.8430890905957762,2.5945308338691353
15,7,1.0,0.8690343989344675,0.0
15,7,0.75,0.8658831987908218,0.31512001436457826
15,7,0.5,0.8643405828108539,0.46938161236136366
15,7,0.25,0.8533406810487691,1.56937178856984
15,7,0.0,0.844505845819107,2.4528553115360507
15,8,1.0,0.8690343989344675,0.0
15,8,0.75,0.8711352568727774,-0.21008579383098303
15,8,0.5,0.8678384910341161,0.11959079003514006
15,8,0.25,0.8581801339628031,1.0854264971664418
15,8,0.0,0.8493076256683761,1.9726773266091402
16,0,1.0,0.8433024130445758,0.0
16,0,0.75,0.8512295964511822,-0.7927183406606475
16,0,0.5,0.8543531693794967,-1.105075633492092
16,0,0.25,0.8558852869283489,-1.2582873883773105
16,0,0.0,0.8550905025992532,-1.1788089554677472
16,1,1.0,0.8433024130445758,0.0
16,1,0.75,0.854810530040795,-1.150811699621923
16,1,0.5,0.8664080258009468,-2.310561275637102
16,1,0.25,0.8685446493957133,-2.5242236351137537
16,1,0.0,0.8755819642506499,-3.2279551206074175
16,2,1.0,0.8433024130445758,0.0
16,2,0.75,0.8419059614845101,0.13964515600656258
16,2,0.5,0.8447041708510328,-0.14017578064570158
16,2,0.25,0.8390544603029753,0.42479527416005025
16,2,0.0,0.8193444748773946,2.395793816718117
16,3,1.0,0.8433024130445758,0.0
16,3,0.75,0.8514022741963918,-0.8099861151816046
16,3,0.5,0.8694112001852289,-2.6108787140653122
16,3,0.25,0.8767676370954001,-3.3465224050824305
16,3,0.0,0.8680518221843078,-2.4749409139732004
16,4,1.0,0.8433024130445758,0.0
16,4,0.75,0.8342320856731595,0.907032737141622
16,4,0.5,0.8363148099032528,0.6987603141322962
16,4,0.25,0.8348892268354002,0.8413186209175527
16,4,0.0,0.841405228851268,0.1897184193307755
16,5,1.0,0.8433024130445758,0.0
16,5,0.75,0.7932592133456738,5.004319969890192
16,5,0.5,0.7846974808776949,5.86049321668809
16,5,0.25,0.7842556997619949,5.9046713282580825
16,5,0.0,0.781340671378214,6.196174166636181
16,6,1.0,0.8433024130445758,0.0
16,6,0.75,0.8423699205278152,0.09324925167605302
16,6,0.5,0.8375447798738275,0.5757633170748289
16,6,0.25,0.8434659738446636,-0.016356080008783636
16,6,0.0,0.8436420468819449,-0.033963383736912434
16,7,1.0,0.8433024130445758,0.0
16,7,0.75,0.8542721646169923,-1.096975157241653
16,7,0.5,0.8392350652704438,0.40673477741319797
16,7,0.25,0.820730910379181,2.257150266539476
16,7,0.0,0.8015184508877441,4.178396215683167
16,8,1.0,0.8433024130445758,0.0
16,8,0.75,0.8474026672315795,-0.4100254187003771
16,8,0.5,0.8440653468323018,-0.07629337877260722
16,8,0.25,0.8479904358384109,-0.4688022793835178
16,8,0.0,0.8407585859244042,0.2543827120171538
17,0,1.0,0.8347660640089053,0.0
17,0,0.75,0.8281986531986532,0.6567410810252139
17,0,0.5,0.8080520599574372,2.6714004051468065
17,0,0.25,0.7891673040678695,4.55987599410358
17,0,0.0,0.7995700663495853,3.519599765932002
17,1,1.0,0.8347660640089053,0.0
17,1,0.75,0.8316860465116279,0.30800174972773764
17,1,0.5,0.8180682602941489,1.6697803714756376
17,1,0.25,0.827640275717224,0.7125788291681312
17,1,0.0,0.827471655453935,0.7294408554970322
17,2,1.0,0.8347660640089053,0.0
17,2,0.75,0.8418234036911565,-0.7057339682251196
17,2,0.5,0.8370698641239638,-0.23038001150584853
17,2,0.25,0.8287223309640713,0.6043733044833965
17,2,0.0,0.8247584202549,1.0007643754005313
17,3,1.0,0.8347660640089053,0.0
17,3,0.75,0.8402088329280795,-0.5442768919174168
17,3,0.5,0.8278421375113443,0.6923926497561017
17,3,0.25,0.8241133848549281,1.0652679153977163
17,3,0.0,0.8194113692858624,1.535469472304285
17,4,1.0,0.8347660640089053,0.0
17,4,0.75,0.8190094458499136,1.5756618158991653
17,4,0.5,0.8110425897761881,2.3723474232717146
17,4,0.25,0.8031464216083036,3.1619642400601666
17,4,0.0,0.8166681963375166,1.8097867671388657
17,5,1.0,0.8347660640089053,0.0
17,5,0.75,0.8258318690154327,0.8934194993472588
17,5,0.5,0.8138649151662933,2.090114884261196
17,5,0.25,0.8020882123839486,3.2677851624956733
17,5,0.0,0.816782642024967,1.798342198393832
17,6,1.0,0.8347660640089053,0.0
17,6,0.75,0.8482793258487077,-1.3513261839802393
17,6,0.5,0.8481884486306354,-1.3422384621730066
17,6,0.25,0.8376652316776282,-0.28991676687228907
17,6,0.0,0.8295914256341863,0.5174638374718987
17,7,1.0,0.8347660640089053,0.0
17,7,0.75,0.8488036250234068,-1.4037561014501487
17,7,0.5,0.8421784905138298,-0.7412426504924463
17,7,0.25,0.8506506679579466,-1.5884603949041343
17,7,0.0,0.8369901205655695,-0.22240565566642445
17,8,1.0,0.8347660640089053,0.0
17,8,0.75,0.8341560557007969,0.06100083081084229
17,8,0.5,0.8121051293755119,2.266093463339336
17,8,0.25,0.8097620681183276,2.500399589057767
17,8,0.0,0.7858975043380808,4.8868559670824485
18,0,1.0,0.8830878728541824,0.0
18,0,0.75,0.8724544872144075,1.0633385639774895
18,0,0.5,0.8676131867646166,1.5474686089565814
18,0,0.25,0.8752412699896341,0.7846602864548302
18,0,0.0,0.8769778791708616,0.610999368332088
18,1,1.0,0.8830878728541824,0.0
18,1,0.75,0.8822864651569209,0.0801407697261558
18,1,0.5,0.8818330436112986,0.12548292428838925
18,1,0.25,0.8826643114384914,0.04235614156909984
18,1,0.0,0.8792122123643018,0.3875660489880639
18,2,1.0,0.8830878728541824,0.0
18,2,0.75,0.8883257170209662,-0.5237844166783745
18,2,0.5,0.887548514238268,-0.44606413840855286
18,2,0.25,0.8902895303412299,-0.7201657487047486
18,2,0.0,0.8888887547733345,-0.5800881919152068
18,3,1.0,0.8830878728541824,0.0
18,3,0.75,0.8566617355826448,2.642613727153764
18,3,0.5,0.8449990747752234,3.808879807895904
18,3,0.25,0.8178070656182207,6.528080723596174
18,3,0.0,0.7699287323667711,11.315914048741138
18,4,1.0,0.8830878728541824,0.0
18,4,0.75,0.8823317446813436,0.07561281728388769
18,4,0.5,0.878539443090371,0.45484297638114235
18,4,0.25,0.8784212380339045,0.46666348202779595
18,4,0.0,0.8710075039566872,1.2080368897495197
18,5,1.0,0.8830878728541824,0.0
18,5,0.75,0.8837997337821462,-0.07118609279637145
18,5,0.5,0.8883369534749752,-0.5249080620792768
18,5,0.25,0.8879333151589268,-0.4845442304744374
18,5,0.0,0.8842181943646932,-0.11303215105107345
18,6,1.0,0.8830878728541824,0.0
18,6,0.75,0.8831359360039297,-0.004806314974725723
18,6,0.5,0.8950868172781953,-1.1998944424012836
18,6,0.25,0.885754509349522,-0.26666364953396027
18,6,0.0,0.8808098863371198,0.227798651706268
18,7,1.0,0.8830878728541824,0.0
18,7,0.75,0.8767036782236314,0.6384194630551066
18,7,0.5,0.8619529338938758,2.1134938960306604
18,7,0.25,0.8683699176225856,1.4717955231596802
18,7,0.0,0.8674223479237055,1.5665524930476904
18,8,1.0,0.8830878728541824,0.0
18,8,0.75,0.8781409867118795,0.49468861423029864
18,8,0.5,0.8765549440321405,0.6532928822041928
18,8,0.25,0.8882737842013859,-0.5185911347203476
18,8,0.0,0.9002040011687383,-1.711612831455589
19,0,1.0,0.8072774701345905,0.0
19,0,0.75,0.8120811071448014,-0.4803637010210915
19,0,0.5,0.8155580558881617,-0.8280585753571157
19,0,0.25,0.8223126972076521,-1.5035227073061597
19,0,0.0,0.8102623499522262,-0.2984879817635733
19,1,1.0,0.8072774701345905,0.0
19,1,0.75,0.8046951407194367,0.25823294151537945
19,1,0.5,0.8094201046057129,-0.21426344711223955
19,1,0.25,0.8112168292308519,-0.3939359096261419
19,1,0.0,0.8006086238455136,0.6668846289076935
19,2,1.0,0.8072774701345905,0.0
19,2,0.75,0.8013108360152232,0.5966634119367265
19,2,0.5,0.80542233073422,0.18551394003705202
19,2,0.25,0.814925804725771,-0.7648334591180528
19,2,0.0,0.8152916297901589,-0.8014159655568398
19,3,1.0,0.8072774701345905,0.0
19,3,0.75,0.8165060169225247,-0.9228546787934166
19,3,0.5,0.8015570646752801,0.5720405459310407
19,3,0.25,0.7835768970217789,2.3700573112811596
19,3,0.0,0.7715862098258632,3.569126030872727
19,4,1.0,0.8072774701345905,0.0
19,4,0.75,0.8150496627975862,-0.777219266299567
19,4,0.5,0.8106052926007914,-0.33278224662008915
19,4,0.25,0.7990136755792758,0.8263794555314674
19,4,0.0,0.8062893004026821,0.0988169731908406
19,5,1.0,0.8072774701345905,0.0
19,5,0.75,0.8077384822141405,-0.04610120795499606
19,5,0.5,0.8073384583979257,-0.006098826333522656
19,5,0.25,0.807722283223685,-0.04448130890944979
19,5,0.0,0.8071904842502156,0.008698588437494603
19,6,1.0,0.8072774701345905,0.0
19,6,0.75,0.8138862828108472,-0.6608812676256681
19,6,0.5,0.8195707325977106,-1.2293262463120125
19,6,0.25,0.8307284480694292,-2.3450977934838746
19,6,0.0,0.8440834374443508,-3.680596730976027
19,7,1.0,0.8072774701345905,0.0
19,7,0.75,0.7964975270837997,1.0779943050790775
19,7,0.5,0.8191210556338111,-1.18435854992206
19,7,0.25,0.827249950839182,-1.9972480704591455
19,7,0.0,0.8051963897905331,0.20810803440574066
19,8,1.0,0.8072774701345905,0.0
19,8,0.75,0.8054324033408675,0.18450667937229825
19,8,0.5,0.8074471869594801,-0.0169716824889643
19,8,0.25,0.7948030809438714,1.2474389190719082
19,8,0.0,0.7959187475139589,1.1358722620631645
20,0,1.0,0.819915679015886,0.0
20,0,0.75,0.8165330609180876,0.33826180977983844
20,0,0.5,0.8092812060489458,1.06344729669402
20,0,0.25,0.8063236619985028,1.3592017017383218
20,0,0.0,0.7978392033044914,2.2076475711394594
20,1,1.0,0.819915679015886,0.0
20,1,0.75,0.8096760977854474,1.0239581230438666
20,1,0.5,0.8121870329075604,0.7728646108325576
20,1,0.25,0.7923455751761884,2.75701038396976
20,1,0.0,0.786404761253677,3.3510917762209047
20,2,1.0,0.819915679015886,0.0
20,2,0.75,0.826425926506377,-0.6510247490491006
20,2,0.5,0.8118336854337944,0.8081993582091607
20,2,0.25,0.8078384858084923,1.2077193207393755
20,2,0.0,0.7857283631645967,3.4187315851289313
20,3,1.0,0.819915679015886,0.0
20,3,0.75,0.8170325883678426,0.2883090648043374
20,3,0.5,0.8100068494233954,0.990882959249062
20,3,0.25,0.81151713769094,0.8398541324945996
20,3,0.0,0.8184717864847106,0.14438925311753836
20,4,1.0,0.819915679015886,0.0
20,4,0.75,0.8298669063518347,-0.9951227335948665
20,4,0.5,0.8133206727953446,0.6595006220541433
20,4,0.25,0.8134538346971377,0.64618443187483
20,4,0.0,0.8111914253685074,0.872425364737861
20,5,1.0,0.819915679015886,0.0
20,5,0.75,0.8207277984181001,-0.08121194022140399
20,5,0.5,0.81283759891876,0.7078080097126072
20,5,0.25,0.8105357636684554,0.9379915347430656
20,5,0.0,0.8198619552765501,0.005372373933587582
20,6,1.0,0.819915679015886,0.0
20,6,0.75,0.8066381032148309,1.3277575801055153
20,6,0.5,0.8012366912206295,1.8678987795256563
20,6,0.25,0.7930970607481445,2.6818618267741567
20,6,0.0,0.7867897149254603,3.3125964090425675
20,7,1.0,0.819915679015886,0.0
20,7,0.75,0.7993663244025754,2.0549354613310644
20,7,0.5,0.7799480229076385,3.9967656108247485
20,7,0.25,0.7573644416090384,6.255123740684764
20,7,0.0,0.7839807467778006,3.5934932238085415
20,8,1.0,0.819915679015886,0.0
20,8,0.75,0.8158671176824897,0.4048561333396372
20,8,0.5,0.8152139612581415,0.4701717757744528
20,8,0.25,0.7985692153243547,2.134646369153137
20,8,0.0,0.7602568817166584,5.965879729922763
21,0,1.0,0.8539795079733864,0.0
21,0,0.75,0.8391863990534681,1.4793108919918252
21,0,0.5,0.8285609694426281,2.541853853075826
21,0,0.25,0.8185324594235832,3.5447048549803184
21,0,0.0,0.7936813208657347,6.029818710765166
21,1,1.0,0.8539795079733864,0.0
21,1,0.75,0.8516636507823367,0.23158571910496528
21,1,0.5,0.8497435457674954,0.4235962205890953
21,1,0.25,0.8647349459678386,-1.0755437994452222
21,1,0.0,0.8585043842482373,-0.45248762748508753
21,2,1.0,0.8539795079733864,0.0
21,2,0.75,0.8430850266708126,1.0894481302573755
21,2,0.5,0.8368440372178951,1.7135470755491267
21,2,0.25,0.8305254146297818,2.34540933436046
21,2,0.0,0.8319799937409252,2.199951423246116
21,3,1.0,0.8539795079733864,0.0
21,3,0.75,0.8525694488119985,0.1410059161387922
21,3,0.5,0.8506435460722536,0.33359619011328334
21,3,0.25,0.8345038214916057,1.9475686481780663
21,3,0.0,0.8093532489620027,4.462625901138373
21,4,1.0,0.8539795079733864,0.0
21,4,0.75,0.8548007392611243,-0.08212312877379224
21,4,0.5,0.8457953913397261,0.8184116633660254
21,4,0.25,0.8427571412045091,1.1222366768877334
21,4,0.0,0.8328044220932325,2.117508588015393
21,5,1.0,0.8539795079733864,0.0
21,5,0.75,0.8577186719282635,-0.3739163954877056
21,5,0.5,0.8651757229201994,-1.1196214946813
21,5,0.25,0.8754945040220004,-2.1514996048613955
21,5,0.0,0.8632504425127704,-0.927093453938399
21,6,1.0,0.8539795079733864,0.0
21,6,0.75,0.8440973978175461,0.9882110155840285
21,6,0.5,0.8507342311408501,0.32452768325362813
21,6,0.25,0.8544152046783626,-0.04356967049762295
21,6,0.0,0.8569449156649399,-0.2965407691553512
21,7,1.0,0.8539795079733864,0.0
21,7,0.75,0.8470654779508536,0.6914030022532769
21,7,0.5,0.8470331555598052,0.6946352413581214
21,7,0.25,0.8493074385931528,0.4672069380233568
21,7,0.0,0.8425521256380408,1.142738233534557
21,8,1.0,0.8539795079733864,0.0
21,8,0.75,0.8626072151065678,-0.8627707133181395
21,8,0.5,0.8515024630203405,0.24770449530459038
21,8,0.25,0.8455963109461866,0.8383197027199807
21,8,0.0,0.8389618764729202,1.50176315004662
22,0,1.0,0.83977425816671,0.0
22,0,0.75,0.8380015315027606,0.17727266639494532
22,0,0.5,0.8420275511474078,-0.2253292980697763
22,0,0.25,0.8300661810062466,0.9708077160463402
22,0,0.0,0.8309948288745392,0.8779429292170793
22,1,1.0,0.83977425816671,0.0
22,1,0.75,0.857910925970681,-1.813666780397094
22,1,0.5,0.8627603962085889,-2.298613804187888
22,1,0.25,0.8598701319381735,-2.009587377146349
22,1,0.0,0.8571715622467401,-1.739730408003004
22,2,1.0,0.83977425816671,0.0
22,2,0.75,0.8490887871449659,-0.9314528978255909
22,2,0.5,0.8564284595487598,-1.665420138204976
22,2,0.25,0.8600531296589473,-2.0278871492237283
22,2,0.0,0.858141888022098,-1.836762985538798
22,3,1.0,0.83977425816671,0.0
22,3,0.75,0.8408253682480267,-0.10511100813166419
22,3,0.5,0.8297335139766114,1.0040744190098594
22,3,0.25,0.8239703739679456,1.580388419876444
22,3,0.0,0.8129744677000537,2.679979046665637
22,4,1.0,0.83977425816671,0.0
22,4,0.75,0.833011101277062,0.6763156889648014
22,4,0.5,0.8203360210644439,1.943823710226611
22,4,0.25,0.8025586764750432,3.7215581691666832
22,4,0.0,0.8197934644830516,1.998079368365846
22,5,1.0,0.83977425816671,0.0
22,5,0.75,0.8309096559631676,0.886460220354246
22,5,0.5,0.8296187345659745,1.0155523600735572
22,5,0.25,0.8228236384957321,1.6950619670977884
22,5,0.0,0.8296802687829619,1.009398938374817
22,6,1.0,0.83977425816671,0.0
22,6,0.75,0.8454530768909868,-0.567881872427678
22,6,0.5,0.8351553805866193,0.4618877580090719
22,6,0.25,0.8318891538231161,0.7885104343593907
22,6,0.0,0.831012558412679,0.8761699754031071
22,7,1.0,0.83977425816671,0.0
22,7,0.75,0.828995750122463,1.077850804424707
22,7,0.5,0.8091845033720377,3.0589754794672297
22,7,0.25,0.7936587861888941,4.611547197781595
22,7,0.0,0.7720335010404541,6.774075712625594
22,8,1.0,0.83977425816671,0.0
22,8,0.75,0.8375372073390965,0.2237050827613496
22,8,0.5,0.8305492311483598,0.9225027018350263
22,8,0.25,0.8234308110059372,1.634344716077285
22,8,0.0,0.8080891122167788,3.1685145949931215
23,0,1.0,0.7738885325595711,0.0
23,0,0.75,0.7764789690489512,-0.2590436489380066
23,0,0.5,0.7712565325195498,0.26320000400212873
23,0,0.25,0.7599834455082335,1.390508705133764
23,0,0.0,0.7273999661401974,4.648856641937371
23,1,1.0,0.7738885325595711,0.0
23,1,0.75,0.7857078750456074,-1.1819342486036222
23,1,0.5,0.7822711272165874,-0.8382594657016296
23,1,0.25,0.7830594547290778,-0.9170922169506657
23,1,0.0,0.7777093869426979,-0.3820854383126737
23,2,1.0,0.7738885325595711,0.0
23,2,0.75,0.7918092207725982,-1.7920688213027058
23,2,0.5,0.8061248530141163,-3.2236320454545164
23,2,0.25,0.8156317351894686,-4.174320262989751
23,2,0.0,0.814706317686368,-4.081778512679691
23,3,1.0,0.7738885325595711,0.0
23,3,0.75,0.7768980022363129,-0.30094696767417606
23,3,0.5,0.7986784030414125,-2.4789870481841336
23,3,0.25,0.7918543798855757,-1.7965847326004591
23,3,0.0,0.7704788741751194,0.34096583844517303
23,4,1.0,0.7738885325595711,0.0
23,4,0.75,0.7717823241573241,0.21062084022470673
23,4,0.5,0.7646803042252789,0.9208228334292246
23,4,0.25,0.7521060303998889,2.178250215968225
23,4,0.0,0.7486509076995598,2.5237624860011354
23,5,1.0,0.7738885325595711,0.0
23,5,0.75,0.7774682377462914,-0.3579705186720239
23,5,0.5,0.775488077874063,-0.15995453144919125
23,5,0.25,0.7813214166383854,-0.7432884078814261
23,5,0.0,0.7794651351215273,-0.5576602561956134
23,6,1.0,0.7738885325595711,0.0
23,6,0.75,0.789652091082796,-1.5763558523224863
23,6,0.5,0.7886289658152495,-1.474043325567842
23,6,0.25,0.77844072166838,-0.4552189108808835
23,6,0.0,0.7596595731492068,1.4228959410364284
23,7,1.0,0.7738885325595711,0.0
23,7,0.75,0.7967044629313085,-2.2815930371737347
23,7,0.5,0.7895019792688986,-1.5613446709327516
23,7,0.25,0.7837078296390493,-0.9819297079478151
23,7,0.0,0.7732824663636773,0.06060661958938729
23,8,1.0,0.7738885325595711,0.0
23,8,0.75,0.7797896844392296,-0.5901151879658451
23,8,0.5,0.758546704274278,1.534182828529318
23,8,0.25,0.7622021906462848,1.1686341913286324
23,8,0.0,0.7546635132637707,1.922501929580045
24,0,1.0,0.7744001788027073,0.0
24,0,0.75,0.7713313320109436,0.30688467917636686
24,0,0.5,0.7674571254233316,0.694305337937573
24,0,0.25,0.7542343720487179,2.016580675398938
24,0,0.0,0.745958082712552,2.8442096090155244
24,1,1.0,0.7744001788027073,0.0
24,1,0.75,0.7754758532731836,-0.10756744704762955
24,1,0.5,0.7823644545644548,-0.7964275761747519
24,1,0.25,0.7829936552473007,-0.8593476444593406
24,1,0.0,0.7746884866734212,-0.028830787071387753
24,2,1.0,0.7744001788027073,0.0
24,2,0.75,0.7703764487224052,0.40237300803021014
24,2,0.5,0.7717279411764706,0.26722376262366954
24,2,0.25,0.769410984229637,0.49891945730702325
24,2,0.0,0.7531226001465969,2.127757865611035
24,3,1.0,0.7744001788027073,0.0
24,3,0.75,0.7771324093597636,-0.2732230557056292
24,3,0.5,0.7939851886082688,-1.9585009805561548
24,3,0.25,0.7984283532088403,-2.402817440613303
24,3,0.0,0.7897315597618916,-1.5331380959184293
24,4,1.0,0.7744001788027073,0.0
24,4,0.75,0.7759003556194074,-0.15001768167001162
24,4,0.5,0.7470389986582046,2.736118014450273
24,4,0.25,0.7224782225508434,5.192195625186391
24,4,0.0,0.7181472681293366,5.625291067337068
24,5,1.0,0.7744001788027073,0.0
24,5,0.75,0.7434515902299824,3.0948588572724867
24,5,0.5,0.7304043176241614,4.399586117854593
24,5,0.25,0.7329137000828972,4.148647871981003
24,5,0.0,0.7396422785397629,3.475790026294434
24,6,1.0,0.7744001788027073,0.0
24,6,0.75,0.7814491548201368,-0.7048976017429487
24,6,0.5,0.781858540183681,-0.7458361380973666
24,6,0.25,0.7725280437668461,0.18721350358611444
24,6,0.0,0.7440819644289909,3.03182143737164
24,7,1.0,0.7744001788027073,0.0
24,7,0.75,0.7668800689413096,0.7520109861397728
24,7,0.5,0.7706928809405479,0.37072978621593977
24,7,0.25,0.7608866161947416,1.3513562607965657
24,7,0.0,0.7313136167425185,4.308656206018879
24,8,1.0,0.7744001788027073,0.0
24,8,0.75,0.7653021225703459,0.9098056232361373
24,8,0.5,0.7536300795528322,2.077009924987505
24,8,0.25,0.7309394536940303,4.346072510867693
24,8,0.0,0.7240026786079419,5.039750019476541
25,0,1.0,0.8701760548283873,0.0
25,0,0.75,0.8831477736931083,-1.2971718864720927
25,0,0.5,0.8868900005546247,-1.6713945726237411
25,0,0.25,0.8882715112780271,-1.8095456449639724
25,0,0.0,0.8863582219023253,-1.6182167073937936
25,1,1.0,0.8701760548283873,0.0
25,1,0.75,0.8720784087011411,-0.1902353872753726
25,1,0.5,0.8723648842835238,-0.21888294551364318
25,1,0.25,0.8680698258782789,0.21062289501084797
25,1,0.0,0.866051725623022,0.4124329205365318
25,2,1.0,0.8701760548283873,0.0
25,2,0.75,0.8670872558022271,0.3088799026160216
25,2,0.5,0.8632149796742942,0.6961075154093166
25,2,0.25,0.8576537720490445,1.2522282779342864
25,2,0.0,0.8534846499066683,1.6691404921719055
25,3,1.0,0.8701760548283873,0.0
25,3,0.75,0.8783885120021584,-0.8212457173771059
25,3,0.5,0.8913911889258322,-2.121513409744491
25,3,0.25,0.8833247553481046,-1.3148700519717282
25,3,0.0,0.8680833716157393,0.20926832126479944
25,4,1.0,0.8701760548283873,0.0
25,4,0.75,0.8567092729244432,1.3466781903944125
25,4,0.5,0.8570652173913044,1.3110837437082967
25,4,0.25,0.8345785356308031,3.559751919758425
25,4,0.0,0.8162873817086115,5.388867311977585
25,5,1.0,0.8701760548283873,0.0
25,5,0.75,0.8676392875871054,0.2536767241281934
25,5,0.5,0.8668695479826167,0.3306506845770607
25,5,0.25,0.8677291001621731,0.24469546662142516
25,5,0.0,0.8705702788432408,-0.03942240148534504
25,6,1.0,0.8701760548283873,0.0
25,6,0.75,0.873547180902947,-0.3371126074559694
25,6,0.5,0.8819348179784063,-1.1758763150019003
25,6,0.25,0.8845051975099979,-1.4329142681610563
25,6,0.0,0.8707521204368518,-0.057606560846446
25,7,1.0,0.8701760548283873,0.0
25,7,0.75,0.8734296000744188,-0.32535452460314973
25,7,0.5,0.8513979981069257,1.87780567214616
25,7,0.25,0.8403530356424095,2.982301918597785
25,7,0.0,0.8019798733564876,6.819618147189976
25,8,1.0,0.8701760548283873,0.0
25,8,0.75,0.8820687730544705,-1.1892718226083177
25,8,0.5,0.8769189197502887,-0.6742864921901348
25,8,0.25,0.8756664625433761,-0.5490407714988765
25,8,0.0,0.8622221963644514,0.7953858463935926
26,0,1.0,0.7839234217780016,0.0
26,0,0.75,0.7794756960938038,0.4447725684197712
26,0,0.5,0.7883173974215407,-0.4393975643539161
26,0,0.25,0.7961386577004151,-1.221523592241358
26,0,0.0,0.8069762998986472,-2.3052878120645603
26,1,1.0,0.7839234217780016,0.0
26,1,0.75,0.7986537878367528,-1.473036605875122
26,1,0.5,0.8031807118649978,-1.9257290086996282
26,1,0.25,0.8068806243983914,-2.2957202620389805
26,1,0.0,0.8101846333828139,-2.626121160481232
26,2,1.0,0.7839234217780016,0.0
26,2,0.75,0.7795623467632027,0.43610750147988764
26,2,0.5,0.7691789836501977,1.4744438127803905
26,2,0.25,0.7483040376642918,3.5619384113709796
26,2,0.0,0.7345982031190466,4.932521865895501
26,3,1.0,0.7839234217780016,0.0
26,3,0.75,0.7763494664153122,0.7573955362689344
26,3,0.5,0.7938774303438992,-0.9954008565897676
26,3,0.25,0.7944057406004799,-1.0482318822478298
26,3,0.0,0.7763676273527532,0.7555794425248341
26,4,1.0,0.7839234217780016,0.0
26,4,0.75,0.7737144946068695,1.0208927171132087
26,4,0.5,0.775448301607057,0.8475120170944539
26,4,0.25,0.7735761671793071,1.0347254598694455
26,4,0.0,0.779921762973828,0.400165880417358
26,5,1.0,0.7839234217780016,0.0
26,5,0.75,0.7599160217902194,2.400739998778212
26,5,0.5,0.7519326450245502,3.199077675345141
26,5,0.25,0.7483286366002935,3.559478517770809
26,5,0.0,0.7489568355082883,3.4966586269713273
26,6,1.0,0.7839234217780016,0.0
26,6,0.75,0.7810083027959165,0.2915118982085074
26,6,0.5,0.7832975919526821,0.06258298253194461
26,6,0.25,0.7671318408169315,1.679158096107003
26,6,0.0,0.7660969945043188,1.7826427273682777
26,7,1.0,0.7839234217780016,0.0
26,7,0.75,0.778591122441674,0.5332299336327506
26,7,0.5,0.78025223552953,0.3671186248471514
26,7,0.25,0.7715260340089771,1.2397387769024437
26,7,0.0,0.7400222666120977,4.390115516590387
26,8,1.0,0.7839234217780016,0.0
26,8,0.75,0.7829073200655181,0.10161017124834526
26,8,0.5,0.7830723377124461,0.08510840655554519
26,8,0.25,0.7705601155140758,1.336330626392579
26,8,0.0,0.7478396751528424,3.608374662515912
27,0,1.0,0.8669190926390264,0.0
27,0,0.75,0.8848244506165842,-1.7905357977557768
27,0,0.5,0.8834498221452469,-1.6530729506220476
27,0,0.25,0.8875237909232602,-2.0604698284233725
27,0,0.0,0.8792401831663679,-1.2321090527341427
27,1,1.0,0.8669190926390264,0.0
27,1,0.75,0.8653905403148889,0.1528552324137511
27,1,0.5,0.8571069376819436,0.9812154957082875
27,1,0.25,0.8541727187633501,1.2746373875676342
27,1,0.0,0.8633397544080036,0.3579338231022855
27,2,1.0,0.8669190926390264,0.0
27,2,0.75,0.8645655407232311,0.23535519157953377
27,2,0.5,0.861860100223423,0.505899241560348
27,2,0.25,0.8518032704683844,1.5115822170642002
27,2,0.0,0.8325169139803286,3.440217865869788
27,3,1.0,0.8669190926390264,0.0
27,3,0.75,0.8701016944048776,-0.31826017658511674
27,3,0.5,0.8726780524759072,-0.5758959836880795
27,3,0.25,0.8620939578251995,0.4825134813826959
27,3,0.0,0.8586476232379817,0.8271469401044729
27,4,1.0,0.8669190926390264,0.0
27,4,0.75,0.8705259696592673,-0.3606877020240873
27,4,0.5,0.8699768907422533,-0.30577981032268164
27,4,0.25,0.8555248498383117,1.1394242800714771
27,4,0.0,0.8482955796048774,1.8623513034148997
27,5,1.0,0.8669190926390264,0.0
27,5,0.75,0.8599668500909347,0.6952242548091792
27,5,0.5,0.8583788171288171,0.8540275510209305
27,5,0.25,0.8576473572729457,0.9271735366080724
27,5,0.0,0.8547374491040329,1.2181643534993514
27,6,1.0,0.8669190926390264,0.0
27,6,0.75,0.871014066389789,-0.40949737507625095
27,6,0.5,0.8794171856415358,-1.249809300250937
27,6,0.25,0.8786267744494621,-1.1707681810435688
27,6,0.0,0.8848228143101576,-1.790372167113119
27,7,1.0,0.8669190926390264,0.0
27,7,0.75,0.8690023732890875,-0.20832806500610257
27,7,0.5,0.869525332319297,-0.2606239680270517
27,7,0.25,0.8690162618434162,-0.20971692043897372
27,7,0.0,0.8537004978795519,1.3218594759474511
27,8,1.0,0.8669190926390264,0.0
27,8,0.75,0.8819301948490568,-1.5011102210030325
27,8,0.5,0.8794186308531085,-1.2499538214082007
27,8,0.25,0.8812025279076614,-1.4283435268634959
27,8,0.0,0.871362709665462,-0.4443617026435587
28,0,1.0,0.7462098835489206,0.0
28,0,0.75,0.7814460010329279,-3.5236117484007345
28,0,0.5,0.8031013066221593,-5.689142307323869
28,0,0.25,0.8103765845101563,-6.416670096123567
28,0,0.0,0.8162055819898348,-6.9995698440914245
28,1,1.0,0.7462098835489206,0.0
28,1,0.75,0.7651821780623409,-1.8972294513420307
28,1,0.5,0.7792717623209489,-3.3061878772028264
28,1,0.25,0.794254920681551,-4.804503713263042
28,1,0.0,0.8075141315896881,-6.130424804076751
28,2,1.0,0.7462098835489206,0.0
28,2,0.75,0.752594172920381,-0.6384289371460405
28,2,0.5,0.7521105354167195,-0.5900651867798867
28,2,0.25,0.7567804491405667,-1.0570565591646153
28,2,0.0,0.7516061515549912,-0.5396268006070626
28,3,1.0,0.7462098835489206,0.0
28,3,0.75,0.7515215242151961,-0.5311640666275541
28,3,0.5,0.7620713847160798,-1.586150116715923
28,3,0.25,0.7744061566515841,-2.8196273102663483
28,3,0.0,0.7800658076772878,-3.3855924128367243
28,4,1.0,0.7462098835489206,0.0
28,4,0.75,0.7737074174770274,-2.749753392810683
28,4,0.5,0.7649598442035258,-1.8749960654605213
28,4,0.25,0.7528599154439302,-0.6650031895009567
28,4,0.0,0.7436873495335299,0.25225340153907094
28,5,1.0,0.7462098835489206,0.0
28,5,0.75,0.7106508697182272,3.5559013830693376
28,5,0.5,0.6654342108177979,8.077567273112274
28,5,0.25,0.6690496442988176,7.716023925010296
28,5,0.0,0.6684879670455143,7.772191650340632
28,6,1.0,0.7462098835489206,0.0
28,6,0.75,0.7428689631881121,0.33409203608084637
28,6,0.5,0.7394164391274837,0.6793444421436923
28,6,0.25,0.7397679518106598,0.6441931738260798
28,6,0.0,0.7356864527526528,1.052343079626783
28,7,1.0,0.7462098835489206,0.0
28,7,0.75,0.7535587615171655,-0.7348877968244905
28,7,0.5,0.7430119084477261,0.3197975101194461
28,7,0.25,0.7429053389695459,0.33045445793746797
28,7,0.0,0.7324457511309327,1.3764132417987907
28,8,1.0,0.7462098835489206,0.0
28,8,0.75,0.7641849903387234,-1.7975106789802853
28,8,0.5,0.7761329315520809,-2.9923048003160257
28,8,0.25,0.7742934588347432,-2.8083575285822615
28,8,0.0,0.7680875061278465,-2.1877622578925893
29,0,1.0,0.826958921362646,0.0
29,0,0.75,0.8269054817570871,0.00534396055589248
29,0,0.5,0.8224698962652655,0.44890250973805834
29,0,0.25,0.8127592129809426,1.419970838170348
29,0,0.0,0.793891510212042,3.3067411150604076
29,1,1.0,0.826958921362646,0.0
29,1,0.75,0.8234424645637015,0.3516456798944523
29,1,0.5,0.8278907568227647,-0.09318354601186574
29,1,0.25,0.8267886919931909,0.017022936945509937
29,1,0.0,0.8231568978907475,0.3802023471898508
29,2,1.0,0.826958921362646,0.0
29,2,0.75,0.8214444785752516,0.5514442787394436
29,2,0.5,0.8235579417724426,0.3400979590203468
29,2,0.25,0.8183336931075662,0.8625228255079831
29,2,0.0,0.8154242717037078,1.1534649658938245
29,3,1.0,0.826958921362646,0.0
29,3,0.75,0.8274001003708167,-0.04411790081706446
29,3,0.5,0.8285814357352543,-0.1622514372608297
29,3,0.25,0.8279526281381288,-0.09937067754827167
29,3,0.0,0.8116855693158762,1.5273352046769828
29,4,1.0,0.826958921362646,0.0
29,4,0.75,0.811410619350126,1.5548302012519999
29,4,0.5,0.7882140637065775,3.87448576560685
29,4,0.25,0.782138886482428,4.482003488021801
29,4,0.0,0.7832796456218752,4.367927574077079
29,5,1.0,0.826958921362646,0.0
29,5,0.75,0.8151191880799278,1.1839733282718257
29,5,0.5,0.8075978351207003,1.9361086241945769
29,5,0.25,0.808924160485287,1.8034760877359002
29,5,0.0,0.8032599415895636,2.369897977308244
29,6,1.0,0.826958921362646,0.0
29,6,0.75,0.832009452892297,-0.5050531529650959
29,6,0.5,0.8317087917480103,-0.474987038536423
29,6,0.25,0.8283407732738138,-0.13818519111677974
29,6,0.0,0.8316012069112897,-0.46422855486436543
29,7,1.0,0.826958921362646,0.0
29,7,0.75,0.8359732545784955,-0.9014333215849435
29,7,0.5,0.8391528545867822,-1.21939332241362
29,7,0.25,0.8403113595969831,-1.3352438234337072
29,7,0.0,0.835066824735333,-0.8107903372686964
29,8,1.0,0.826958921362646,0.0
29,8,0.75,0.8211211788765655,0.5837742486080488
29,8,0.5,0.816988433363251,0.9970487999395039
29,8,0.25,0.8044482547888949,2.2510666573751115
29,8,0.0,0.7784927640669148,4.846615729573123
30,0,1.0,0.785980875913375,0.0
30,0,0.75,0.7997974963770014,-1.3816620463626417
30,0,0.5,0.8065945658888158,-2.0613689975440885
30,0,0.25,0.7954059679717829,-0.9425092058407913
30,0,0.0,0.8046905191768601,-1.870964326348512
30,1,1.0,0.785980875913375,0.0
30,1,0.75,0.7747718770324609,1.120899888091409
30,1,0.5,0.761758506540707,2.4222369372667973
30,1,0.25,0.7523821117490761,3.3598764164298855
30,1,0.0,0.7442585677505724,4.172230816280253
30,2,1.0,0.785980875913375,0.0
30,2,0.75,0.799490094704642,-1.3509218791267097
30,2,0.5,0.8128161297570884,-2.6835253843713436
30,2,0.25,0.8085204095692489,-2.253953365587391
30,2,0.0,0.809555310474112,-2.3574434560737045
30,3,1.0,0.785980875913375,0.0
30,3,0.75,0.7927335352899207,-0.6752659376545789
30,3,0.5,0.7976777211120225,-1.1696845198647554
30,3,0.25,0.7939537903572363,-0.797291444386139
30,3,0.0,0.7916878028173087,-0.5706926903933707
30,4,1.0,0.785980875913375,0.0
30,4,0.75,0.7827825333635567,0.31983425498182116
30,4,0.5,0.7655848507254305,2.0396025187944478
30,4,0.25,0.7604297799435213,2.555109596985361
30,4,0.0,0.758645125559331,2.733575035404401
30,5,1.0,0.785980875913375,0.0
30,5,0.75,0.7867294124686542,-0.07485365552792889
30,5,0.5,0.7790228001564907,0.695807575688423
30,5,0.25,0.7554447661298841,3.053610978349086
30,5,0.0,0.7397066802528629,4.627419566051206
30,6,1.0,0.785980875913375,0.0
30,6,0.75,0.7872528355026067,-0.12719595892317637
30,6,0.5,0.7933711181020051,-0.7390242188630158
30,6,0.25,0.7975699561058416,-1.1589080192466628
30,6,0.0,0.8141185312424417,-2.8137655329066757
30,7,1.0,0.785980875913375,0.0
30,7,0.75,0.789576137663572,-0.35952617501970874
30,7,0.5,0.8108160455095977,-2.4835169596222784
30,7,0.25,0.7977491440773683,-1.1768268163993345
30,7,0.0,0.7810118733007716,0.4969002612603357
30,8,1.0,0.785980875913375,0.0
30,8,0.75,0.7969160695811364,-1.0935193667761411
30,8,0.5,0.7990881387574453,-1.3107262844070378
30,8,0.25,0.8065314708662504,-2.055059495287548
30,8,0.0,0.8155872444202263,-2.960636850685139
31,0,1.0,0.6689642712986683,0.0
31,0,0.75,0.6623920894396241,0.6572181859044179
31,0,0.5,0.6620743651182609,0.6889906180407412
31,0,0.25,0.6627929183098091,0.617135298885918
31,0,0.0,0.6550391856293076,1.3925085669360682
31,1,1.0,0.6689642712986683,0.0
31,1,0.75,0.6660603223642011,0.29039489344672154
31,1,0.5,0.6729641769163384,-0.3999905617670052
31,1,0.25,0.6662239849773879,0.27402863212804274
31,1,0.0,0.6604686967453935,0.8495574553274765
31,2,1.0,0.6689642712986683,0.0
31,2,0.75,0.6648281777458906,0.41360935527776643
31,2,0.5,0.6707012030921952,-0.17369317935268525
31,2,0.25,0.6634808207847077,0.5483450513960597
31,2,0.0,0.6550901739674234,1.3874097331244895
31,3,1.0,0.6689642712986683,0.0
31,3,0.75,0.6757555250505154,-0.6791253751847082
31,3,0.5,0.666030971153088,0.2933300145580353
31,3,0.25,0.6575997463140221,1.136452498464624
31,3,0.0,0.6592884526397119,0.9675818658956392
31,4,1.0,0.6689642712986683,0.0
31,4,0.75,0.667362777834549,0.1601493464119308
31,4,0.5,0.6642286515769669,0.4735619721701445
31,4,0.25,0.6340422484034806,3.4922022895187754
31,4,0.0,0.6343351553808155,3.462911591785278
31,5,1.0,0.6689642712986683,0.0
31,5,0.75,0.6773400515255901,-0.8375780226921758
31,5,0.5,0.6686579170780895,0.030635422057878614
31,5,0.25,0.6634230936403827,0.5541177658285656
31,5,0.0,0.6647021654960387,0.42621058026296454
31,6,1.0,0.6689642712986683,0.0
31,6,0.75,0.6817244322222749,-1.2760160923606545
31,6,0.5,0.6856744275288755,-1.6710156230207218
31,6,0.25,0.689306834701829,-2.034256340316065
31,6,0.0,0.6932576051378074,-2.429333383913912
31,7,1.0,0.6689642712986683,0.0
31,7,0.75,0.6655061647067348,0.3458106591933463
31,7,0.5,0.6592077886410059,0.975648265766238
31,7,0.25,0.6544914783146005,1.4472792984067784
31,7,0.0,0.6463131798770966,2.2651091421571734
31,8,1.0,0.6689642712986683,0.0
31,8,0.75,0.6574749214037809,1.1489349894887368
31,8,0.5,0.6414476287397383,2.751664255893005
31,8,0.25,0.6359898864472322,3.297438485143611
31,8,0.0,0.6261560838858429,4.280818741282544
32,0,1.0,0.8115134357433709,0.0
32,0,0.75,0.8164622490680937,-0.4948813324722856
32,0,0.5,0.8123559441420463,-0.084250839867539
32,0,0.25,0.80112252209219,1.0390913651180833
32,0,0.0,0.801390532736597,1.0122903006773876
32,1,1.0,0.8115134357433709,0.0
32,1,0.75,0.8098650527072372,0.16483830361336826
32,1,0.5,0.8140257735826595,-0.2512337839288614
32,1,0.25,0.8131283441284145,-0.1614908385043634
32,1,0.0,0.7986085127719538,1.2904922971417099
32,2,1.0,0.8115134357433709,0.0
32,2,0.75,0.8063409833630422,0.5172452380328707
32,2,0.5,0.8002121310250705,1.1301304718300376
32,2,0.25,0.8075541602603944,0.39592754829764765
32,2,0.0,0.8120175588343221,-0.05041230909512695
32,3,1.0,0.8115134357433709,0.0
32,3,0.75,0.7917829447939424,1.973049094942847
32,3,0.5,0.7935430416174034,1.797039412596746
32,3,0.25,0.788631509157907,2.288192658546384
32,3,0.0,0.7949240014886211,1.658943425474979
32,4,1.0,0.8115134357433709,0.0
32,4,0.75,0.8114127006058691,0.010073513750175067
32,4,0.5,0.8043039561182908,0.7209479625080117
32,4,0.25,0.801721537223029,0.9791898520341902
32,4,0.0,0.823116303034771,-1.1602867291400143
32,5,1.0,0.8115134357433709,0.0
32,5,0.75,0.8119387641853508,-0.04253284419799552
32,5,0.5,0.8099916685695291,0.15217671738417815
32,5,0.25,0.8093650807216627,0.21483550217081815
32,5,0.0,0.8189904021960627,-0.7476966452691802
32,6,1.0,0.8115134357433709,0.0
32,6,0.75,0.8125384572345495,-0.10250214911786681
32,6,0.5,0.8102641055768107,0.12493301665601475
32,6,0.25,0.8057908873737782,0.5722548369592628
32,6,0.0,0.7998807878634503,1.1632647879920577
32,7,1.0,0.8115134357433709,0.0
32,7,0.75,0.8071887770734547,0.43246586699161593
32,7,0.5,0.8089194197021927,0.2594016041178149
32,7,0.25,0.7975722401483822,1.3941195594988631
32,7,0.0,0.7802898814206186,3.1223554322752256
32,8,1.0,0.8115134357433709,0.0
32,8,0.75,0.8161292313635722,-0.4615795620201313
32,8,0.5,0.833348755722181,-2.1835319978810164
32,8,0.25,0.8434412453921356,-3.192780964876474
32,8,0.0,0.8374327603154381,-2.591932457206725
33,0,1.0,0.7655407513105696,0.0
33,0,0.75,0.7671827796816734,-0.1642028371103721
33,0,0.5,0.7640865128476324,0.14542384629372407
33,0,0.25,0.7613070151062533,0.42337362043163296
33,0,0.0,0.7570918740413384,0.844887726923127
33,1,1.0,0.7655407513105696,0.0
33,1,0.75,0.7735746296436652,-0.8033878333095545
33,1,0.5,0.7722360676973331,-0.6695316386763461
33,1,0.25,0.7572558114123273,0.8284939898242305
33,1,0.0,0.7414401273043283,2.4100624006241356
33,2,1.0,0.7655407513105696,0.0
33,2,0.75,0.7676453269240293,-0.21045756134596694
33,2,0.5,0.7645047092470756,0.10360420634940581
33,2,0.25,0.7610255589376469,0.45151923729227494
33,2,0.0,0.7485919032674555,1.694884804311414
33,3,1.0,0.7655407513105696,0.0
33,3,0.75,0.7459880188593996,1.9552732451170063
33,3,0.5,0.7365744199036314,2.8966331406938273
33,3,0.25,0.717997252861154,4.754349844941563
33,3,0.0,0.7039186012831986,6.162215002737104
33,4,1.0,0.7655407513105696,0.0
33,4,0.75,0.7688900222257853,-0.3349270915215641
33,4,0.5,0.7701282785379614,-0.4587527227391752
33,4,0.25,0.784951079171487,-1.9410327860917342
33,4,0.0,0.780530545481112,-1.4989794170542359
33,5,1.0,0.7655407513105696,0.0
33,5,0.75,0.7685458011845946,-0.30050498740249454
33,5,0.5,0.7738795382273386,-0.8338786916768925
33,5,0.25,0.7780581363682035,-1.251738505763389
33,5,0.0,0.78899406733957,-2.345331602900036
33,6,1.0,0.7655407513105696,0.0
33,6,0.75,0.7520606803327392,1.3480070977830438
33,6,0.5,0.7530205700913062,1.252018121926346
33,6,0.25,0.7581186849086097,0.742206640195997
33,6,0.0,0.7604711255199775,0.5069625790592114
33,7,1.0,0.7655407513105696,0.0
33,7,0.75,0.7533617229616234,1.2179028348946241
33,7,0.5,0.7458437898023748,1.9696961508194888
33,7,0.25,0.7412448556657316,2.429589564483803
33,7,0.0,0.7400046286486825,2.5536122661887095
33,8,1.0,0.7655407513105696,0.0
33,8,0.75,0.7592952024632683,0.624554884730133
33,8,0.5,0.7621700234963206,0.3370727814249075
33,8,0.25,0.7619802620130758,0.3560489297493863
33,8,0.0,0.7557944923524254,0.9746258958144294
34,0,1.0,0.8776678898194707,0.0
34,0,0.75,0.885030850284778,-0.7362960465307267
34,0,0.5,0.8793885677656179,-0.17206779461471644
34,0,0.25,0.8581766460918295,1.9491243727641216
34,0,0.0,0.8541184010502518,2.354948876921892
34,1,1.0,0.8776678898194707,0.0
34,1,0.75,0.8887138552942956,-1.1045965474824837
34,1,0.5,0.8832566795690471,-0.5588789749576328
34,1,0.25,0.8926921939401179,-1.5024304120647147
34,1,0.0,0.8946069253427454,-1.6939035523274693
34,2,1.0,0.8776678898194707,0.0
34,2,0.75,0.8793657630545804,-0.16978732351096149
34,2,0.5,0.8839396319018598,-0.6271742082389009
34,2,0.25,0.8846280437720903,-0.6960153952619508
34,2,0.0,0.8912078700713808,-1.3539980251910055
34,3,1.0,0.8776678898194707,0.0
34,3,0.75,0.8759019559725324,0.176593384693835
34,3,0.5,0.86578236831317,1.1885521506300734
34,3,0.25,0.857017867788898,2.0650022030572757
34,3,0.0,0.8623516022741383,1.531628754533243
34,4,1.0,0.8776678898194707,0.0
34,4,0.75,0.8707859790598226,0.6881910759648169
34,4,0.5,0.8645042125700408,1.3163677249429906
34,4,0.25,0.8525148328781883,2.515305694128245
34,4,0.0,0.8637235849277733,1.39443048916974
34,5,1.0,0.8776678898194707,0.0
34,5,0.75,0.8692619118865275,0.8405977932943287
34,5,0.5,0.8690619967793881,0.8605893040082635
34,5,0.25,0.8719600617267453,0.5707828092725409
34,5,0.0,0.8717710729506588,0.5896816868811938
34,6,1.0,0.8776678898194707,0.0
34,6,0.75,0.8749570423130547,0.27108475064160364
34,6,0.5,0.8722001997157739,0.5467690103696854
34,6,0.25,0.8853953809956461,-0.7727491176175327
34,6,0.0,0.8937468033778168,-1.6078913558346009
34,7,1.0,0.8776678898194707,0.0
34,7,0.75,0.8728292336313269,0.48386561881438306
34,7,0.5,0.8646983461986253,1.2969543620845458
34,7,0.25,0.8505656950496308,2.7102194769839993
34,7,0.0,0.8504795562950201,2.7188333524450603
34,8,1.0,0.8776678898194707,0.0
34,8,0.75,0.8712927353058486,0.6375154513622139
34,8,0.5,0.8677653143143543,0.9902575505116418
34,8,0.25,0.8639560217697851,1.3711868049685605
34,8,0.0,0.8482805628162291,2.938732700324165
35,0,1.0,0.6676005439151194,0.0
35,0,0.75,0.6624442527783999,0.5156291136719449
35,0,0.5,0.6541782785571821,1.3422265357937224
35,0,0.25,0.6503829424887622,1.7217601426357199
35,0,0.0,0.646824242529666,2.077630138545339
35,1,1.0,0.6676005439151194,0.0
35,1,0.75,0.6717617601986511,-0.4161216283531721
35,1,0.5,0.6618764246806302,0.5724119234489122
35,1,0.25,0.6662522578166543,0.13482860984650458
35,1,0.0,0.6704218498225252,-0.28213059074058133
35,2,1.0,0.6676005439151194,0.0
35,2,0.75,0.6636355121858329,0.3965031729286417
35,2,0.5,0.6633367294814139,0.4263814433705493
35,2,0.25,0.6685860550355013,-0.09855111203819211
35,2,0.0,0.6759242631190587,-0.8323719203939373
35,3,1.0,0.6676005439151194,0.0
35,3,0.75,0.6757484221540149,-0.8147878238895512
35,3,0.5,0.6783852020793096,-1.0784658164190275
35,3,0.25,0.688482290355306,-2.088174644018659
35,3,0.0,0.6792671451881954,-1.166660127307606
35,4,1.0,0.6676005439151194,0.0
35,4,0.75,0.6630261660978384,0.45743778172809835
35,4,0.5,0.6698683836105199,-0.22678396954005642
35,4,0.25,0.6801986834155049,-1.2598139500385575
35,4,0.0,0.6815376793831964,-1.3937135468077066
35,5,1.0,0.6676005439151194,0.0
35,5,0.75,0.6635754215002991,0.4025122414820226
35,5,0.5,0.6624673937794696,0.5133150135649744
35,5,0.25,0.6588349438509358,0.8765600064183587
35,5,0.0,0.658659549210888,0.8940994704231375
35,6,1.0,0.6676005439151194,0.0
35,6,0.75,0.6671846969031775,0.04158470119418611
35,6,0.5,0.6615734115061055,0.6027132409013869
35,6,0.25,0.6559341478562494,1.1666396058869988
35,6,0.0,0.6634571969085151,0.41433470066042366
35,7,1.0,0.6676005439151194,0.0
35,7,0.75,0.6711471354846121,-0.3546591569492774
35,7,0.5,0.67533006908494,-0.7729525169820617
35,7,0.25,0.6757314947114559,-0.8130950796336522
35,7,0.0,0.6633504911442482,0.42500527708712044
35,8,1.0,0.6676005439151194,0.0
35,8,0.75,0.6720834098775492,-0.44828659624298606
35,8,0.5,0.6802017241726589,-1.2601180257539535
35,8,0.25,0.6854600303631915,-1.7859486448072115
35,8,0.0,0.6839214743568002,-1.6320930441680814
36,0,1.0,0.7030392770647644,0.0
36,0,0.75,0.6901856932983239,1.2853583766440524
36,0,0.5,0.6892377849837485,1.3801492081015887
36,0,0.25,0.6781689516867699,2.4870325377994495
36,0,0.0,0.6760212514881148,2.7018025576649674
36,1,1.0,0.7030392770647644,0.0
36,1,0.75,0.6912792351146287,1.1760041950135691
36,1,0.5,0.6697951609197434,3.3244116145020985
36,1,0.25,0.6559434472314366,4.709582983332783
36,1,0.0,0.6423767531036773,6.066252396108718
36,2,1.0,0.7030392770647644,0.0
36,2,0.75,0.6979515558756276,0.5087721189136807
36,2,0.5,0.6907720662679803,1.2267210796784167
36,2,0.25,0.6944298798202719,0.86093972444925
36,2,0.0,0.6707592654270769,3.2280011637687567
36,3,1.0,0.7030392770647644,0.0
36,3,0.75,0.7106183111008277,-0.7579034036063304
36,3,0.5,0.695493055427973,0.7546221636791417
36,3,0.25,0.696037988331125,0.7001288733639477
36,3,0.0,0.6861158901257038,1.6923386939060592
36,4,1.0,0.7030392770647644,0.0
36,4,0.75,0.7138471278351515,-1.080785077038704
36,4,0.5,0.7165088496606429,-1.3469572595878443
36,4,0.25,0.7069534068231189,-0.3914129758354479
36,4,0.0,0.7178481979763903,-1.480892091162589
36,5,1.0,0.7030392770647644,0.0
36,5,0.75,0.7262296481413728,-2.3190371076608374
36,5,0.5,0.7494569534263649,-4.6417676361600435
36,5,0.25,0.7539756307302912,-5.0936353665526735
36,5,0.0,0.7625014685584299,-5.9462191493665495
36,6,1.0,0.7030392770647644,0.0
36,6,0.75,0.7091318093590983,-0.6092532294333819
36,6,0.5,0.7007487146768907,0.2290562387873729
36,6,0.25,0.6897464813596568,1.3292795705107663
36,6,0.0,0.6927859406413435,1.0253336423420967
36,7,1.0,0.7030392770647644,0.0
36,7,0.75,0.6933343144157047,0.9704962649059734
36,7,0.5,0.6925636252557263,1.047565180903809
36,7,0.25,0.6668379770496475,3.62013000151169
36,7,0.0,0.6611297139605119,4.190956310425253
36,8,1.0,0.7030392770647644,0.0
36,8,0.75,0.6903293721410217,1.2709904923742688
36,8,0.5,0.6834213847221376,1.9617892342626786
36,8,0.25,0.6917834593490514,1.1255817715713046
36,8,0.0,0.6844155976836896,1.8623679381074787
37,0,1.0,0.8484850374239248,0.0
37,0,0.75,0.8456656263197173,0.281941110420747
37,0,0.5,0.8491683939460197,-0.06833565220949467
37,0,0.25,0.8427550322703369,0.5730005153587903
37,0,0.0,0.8377895497457448,1.069548767817996
37,1,1.0,0.8484850374239248,0.0
37,1,0.75,0.8404815202826457,0.8003517141279115
37,1,0.5,0.8397408075997337,0.8744229824191097
37,1,0.25,0.8433254840700215,0.5159553353903279
37,1,0.0,0.8426399720654902,0.5845065358434542
37,2,1.0,0.8484850374239248,0.0
37,2,0.75,0.8461243258413874,0.2360711582537367
37,2,0.5,0.8246669285417922,2.381810888213254
37,2,0.25,0.825522460590487,2.296257683343783
37,2,0.0,0.81192843120848,3.6556606215444765
37,3,1.0,0.8484850374239248,0.0
37,3,0.75,0.8514881681229751,-0.3003130699050338
37,3,0.5,0.8403360905523805,0.8148946871544327
37,3,0.25,0.8388901889869871,0.9594848436937697
37,3,0.0,0.8525186828431184,-0.4033645419193599
37,4,1.0,0.8484850374239248,0.0
37,4,0.75,0.856087206800361,-0.7602169376436207
37,4,0.5,0.8584957637567177,-1.0010726332792874
37,4,0.25,0.8507146186461947,-0.22295812222699052
37,4,0.0,0.8582446486531445,-0.9759611229219756
37,5,1.0,0.8484850374239248,0.0
37,5,0.75,0.8484850374239248,0.0
37,5,0.5,0.8501424434896321,-0.1657406065707301
37,5,0.25,0.8545210978771449,-0.6036060453220138
37,5,0.0,0.8574482549185652,-0.8963217494640463
37,6,1.0,0.8484850374239248,0.0
37,6,0.75,0.8456656263197173,0.281941110420747
37,6,0.5,0.8448193428848175,0.3665694539107256
37,6,0.25,0.8445848741358262,0.39001632880986126
37,6,0.0,0.8386661622019178,0.9818875222006973
37,7,1.0,0.8484850374239248,0.0
37,7,0.75,0.8244185580102427,2.406647941368212
37,7,0.5,0.8175823723937563,3.0902665030168475
37,7,0.25,0.8064225885986982,4.206244882522658
37,7,0.0,0.8004591554490135,4.802588197491131
37,8,1.0,0.8484850374239248,0.0
37,8,0.75,0.8516532613997688,-0.3168223975844042
37,8,0.5,0.8382199729206752,1.02650645032496
37,8,0.25,0.8311375383260788,1.7347499097845942
37,8,0.0,0.8226122439449433,2.5872793478981526
38,0,1.0,0.8229588647808936,0.0
38,0,0.75,0.8371392762432817,-1.418041146238802
38,0,0.5,0.8178893806336035,0.5069484147290138
38,0,0.25,0.8207320006021914,0.22268641787022148
38,0,0.0,0.8027093372563556,2.0249527524538014
38,1,1.0,0.8229588647808936,0.0
38,1,0.75,0.8104436125056047,1.2515252275288935
38,1,0.5,0.8087539455990003,1.4204919181893372
38,1,0.25,0.8048955326933579,1.8063332087535744
38,1,0.0,0.7960071659169153,2.69516988639783
38,2,1.0,0.8229588647808936,0.0
38,2,0.75,0.8195438789984505,0.34149857824431473
38,2,0.5,0.8412109185326135,-1.8252053751719899
38,2,0.25,0.8373856560849909,-1.4426791304097297
38,2,0.0,0.8359504222418339,-1.2991557460940273
38,3,1.0,0.8229588647808936,0.0
38,3,0.75,0.8285311444831283,-0.5572279702234617
38,3,0.5,0.8366215279531003,-1.3662663172206657
38,3,0.25,0.8389327632095641,-1.5973898428670474
38,3,0.0,0.8299908235423588,-0.7031958761465118
38,4,1.0,0.8229588647808936,0.0
38,4,0.75,0.8155084897829674,0.7450374997926223
38,4,0.5,0.8049733079185395,1.7985556862354146
38,4,0.25,0.805468120467365,1.7490744313528594
38,4,0.0,0.7960519696204724,2.690689516042122
38,5,1.0,0.8229588647808936,0.0
38,5,0.75,0.8088555194805194,1.410334530037427
38,5,0.5,0.809364864429184,1.3594000351709656
38,5,0.25,0.8082951011359372,1.4663763644956473
38,5,0.0,0.8235743046126913,-0.06154398317976817
38,6,1.0,0.8229588647808936,0.0
38,6,0.75,0.8224177699911223,0.054109478977137915
38,6,0.5,0.8015782716904638,2.1380593090429834
38,6,0.25,0.8111459225850491,1.18129421958445
38,6,0.0,0.8006732860821384,2.228557869875525
38,7,1.0,0.8229588647808936,0.0
38,7,0.75,0.8195245760438288,0.3434288737064861
38,7,0.5,0.8050393268157315,1.7919537965162102
38,7,0.25,0.7892439256705683,3.3714939110325304
38,7,0.0,0.7726435135253051,5.03153512555885
38,8,1.0,0.8229588647808936,0.0
38,8,0.75,0.8196681666186048,0.32906981622888853
38,8,0.5,0.8189187361454812,0.40401286354124766
38,8,0.25,0.8148660224282236,0.8092842352670049
38,8,0.0,0.8112174411220261,1.1741423658867545
39,0,1.0,0.8554130625166156,0.0
39,0,0.75,0.8498307549122959,0.558230760431977
39,0,0.5,0.8527068947919008,0.2706167724714881
39,0,0.25,0.831276497907155,2.4136564609460676
39,0,0.0,0.8160600054158426,3.935305710077308
39,1,1.0,0.8554130625166156,0.0
39,1,0.75,0.8594385898395536,-0.40255273229379274
39,1,0.5,0.8727884750309043,-1.7375412514288646
39,1,0.25,0.86763048746369,-1.221742494707434
39,1,0.0,0.8749816491514876,-1.9568586634871932
39,2,1.0,0.8554130625166156,0.0
39,2,0.75,0.8578284761636584,-0.24154136470427856
39,2,0.5,0.8596632452097481,-0.4250182693132487
39,2,0.25,0.8627937840720904,-0.7380721555474756
39,2,0.0,0.8590457696745802,-0.36327071579645986
39,3,1.0,0.8554130625166156,0.0
39,3,0.75,0.8447686120883966,1.0644450428219043
39,3,0.5,0.8462193851011584,0.9193677415457291
39,3,0.25,0.829655551726992,2.5757510789623628
39,3,0.0,0.7926870543533306,6.2726008163285
39,4,1.0,0.8554130625166156,0.0
39,4,0.75,0.8476265602361968,0.7786502280418883
39,4,0.5,0.8302924259909787,2.5120636525636897
39,4,0.25,0.8155892789277646,3.982378358885108
39,4,0.0,0.7936860535994349,6.172700891718074
39,5,1.0,0.8554130625166156,0.0
39,5,0.75,0.8591899812316668,-0.37769187150511474
39,5,0.5,0.8573532777437018,-0.1940215227086206
39,5,0.25,0.8523399675499137,0.3073094966701939
39,5,0.0,0.8439044383742227,1.1508624142392954
39,6,1.0,0.8554130625166156,0.0
39,6,0.75,0.8534929224009353,0.19201401156803133
39,6,0.5,0.8603079709377333,-0.48949084211176164
39,6,0.25,0.8537493695840572,0.16636929325584138
39,6,0.0,0.8513874002431161,0.4025662273499542
39,7,1.0,0.8554130625166156,0.0
39,7,0.75,0.8542327961345709,0.11802663820447146
39,7,0.5,0.8447271557271557,1.068590678945991
39,7,0.25,0.837801117243236,1.7611945273379614
39,7,0.0,0.8361122789441617,1.9300783572453906
39,8,1.0,0.8554130625166156,0.0
39,8,0.75,0.8493375488470832,0.6075513669532406
39,8,0.5,0.8570784044340755,-0.16653419174598172
39,8,0.25,0.8599265526558932,-0.45134901392775983
39,8,0.0,0.8387618123844097,1.665125013220592
40,0,1.0,0.7990677904363628,0.0
40,0,0.75,0.7977951705273283,0.12726199090344892
40,0,0.5,0.794227495289934,0.4840295146428808
40,0,0.25,0.7521364384393303,4.693135199703247
40,0,0.0,0.7312477935825159,6.781999685384688
40,1,1.0,0.7990677904363628,0.0
40,1,0.75,0.7771755352123447,2.1892255224018053
40,1,0.5,0.7731166244411065,2.5951165995256265
40,1,0.25,0.7579818540738198,4.108593636254298
40,1,0.0,0.7462118948615828,5.285589557477999
40,2,1.0,0.7990677904363628,0.0
40,2,0.75,0.8146052142941543,-1.5537423857791555
40,2,0.5,0.8148447461523265,-1.5776955715963714
40,2,0.25,0.8078819004318223,-0.8814109995459507
40,2,0.0,0.7870727758716404,1.1995014564722406
40,3,1.0,0.7990677904363628,0.0
40,3,0.75,0.7895496362839906,0.9518154152372227
40,3,0.5,0.7839920994818591,1.5075690954503673
40,3,0.25,0.7720917024975744,2.6976087938788362
40,3,0.0,0.7564895515698211,4.257823886654166
40,4,1.0,0.7990677904363628,0.0
40,4,0.75,0.7936272904333213,0.5440500003041526
40,4,0.5,0.7933047864118914,0.5763004024471385
40,4,0.25,0.7814265390432438,1.7641251393119006
40,4,0.0,0.785939747693873,1.3128042742489798
40,5,1.0,0.7990677904363628,0.0
40,5,0.75,0.8043556082204233,-0.5287817784060511
40,5,0.5,0.7986540869439811,0.04137034923816785
40,5,0.25,0.8030189877406076,-0.3951197304244869
40,5,0.0,0.8059293802330577,-0.6861589796694934
40,6,1.0,0.7990677904363628,0.0
40,6,0.75,0.8089002075990923,-0.9832417162729534
40,6,0.5,0.8039151181389512,-0.4847327702588444
40,6,0.25,0.8037615033319752,-0.46937128956123786
40,6,0.0,0.7947819001741423,0.4285890262220482
40,7,1.0,0.7990677904363628,0.0
40,7,0.75,0.7919172200476581,0.7150570388704702
40,7,0.5,0.7922454002094994,0.6822390226863373
40,7,0.25,0.7826023332911514,1.6465457145211415
40,7,0.0,0.7594846476871997,3.958314274916308
40,8,1.0,0.7990677904363628,0.0
40,8,0.75,0.8011011780593711,-0.20333876230083092
40,8,0.5,0.7939566813824239,0.5111109053938856
40,8,0.25,0.7913159077794969,0.7751882656865883
40,8,0.0,0.7759898103999432,2.3077980036419588
