epoch,train_ce,train_coral,val_loss,best,subject,coral_lambda
1,0.9168186026460984,0.00046690085848026416,0.5679839866730888,1,1,30.0
2,0.8176655488855699,0.00020265642550143907,0.5678181899740383,1,1,30.0
3,0.78317410104415,0.00016739836753592552,0.5543533530328981,1,1,30.0
4,0.7498791820862714,0.00016375055437332347,0.5730458841945171,0,1,30.0
5,0.7340273036676295,0.00014952527323176207,0.5123186881934229,1,1,30.0
6,0.7132602130665499,0.00014849847340134574,0.4894854542881158,1,1,30.0
7,0.6921246928327224,0.0001403865501154488,0.594680936901128,0,1,30.0
8,0.6696435563704547,0.00014543803776819806,0.44287045517283363,1,1,30.0
9,0.6607837137053995,0.0001253451999218669,0.46931609311049577,0,1,30.0
10,0.6352952620562385,0.00011400334388942129,0.47224064308460395,0,1,30.0
11,0.6247352565036101,0.00012101848157780136,0.46856931915204303,0,1,30.0
12,0.616519692364861,0.00011933153591063969,0.4396949498581911,1,1,30.0
13,0.6089587341336643,0.00011367617031175862,0.49298595432904785,0,1,30.0
14,0.5838590250295751,0.00011176775194197783,0.42486467301044245,1,1,30.0
15,0.5690505802631378,0.00010579703923533944,0.41868629586240497,1,1,30.0
16,0.5597000563845915,9.1126420738874e-05,0.46132085784391386,0,1,30.0
17,0.554232540551354,9.543823655215366e-05,0.3850894914294719,1,1,30.0
18,0.5367684374837315,8.74701543687158e-05,0.3842592599350023,1,1,30.0
19,0.5253794428180246,9.375495899482356e-05,0.419668975389238,0,1,30.0
20,0.5196383111617144,8.762068083502955e-05,0.40640501762743203,0,1,30.0
21,0.5071210910292233,9.00436587364632e-05,0.4027624139494832,0,1,30.0
22,0.4833289774025188,8.581202286329833e-05,0.37425438139776407,1,1,30.0
23,0.5013020690749673,8.370542166042416e-05,0.3358465851647654,1,1,30.0
24,0.48961296432158524,8.257507981718792e-05,0.3778851633851013,0,1,30.0
25,0.4835428297519684,7.448170076446224e-05,0.3213013510422968,1,1,30.0
26,0.47080569372457615,7.224071865921895e-05,0.34922211918490625,0,1,30.0
27,0.4560991469551535,8.763734363396104e-05,0.33097678644827255,0,1,30.0
28,0.4445494543103611,7.121506175334456e-05,0.35481534773462686,0,1,30.0
29,0.4324446415199953,7.764663947883117e-05,0.32910375196906627,0,1,30.0
30,0.4377459031694076,7.199786285876626e-05,0.3498035216282171,0,1,30.0
31,0.4226962043958552,7.08098008437767e-05,0.34321998982789476,0,1,30.0
32,0.42815826289794023,6.99747032366063e-05,0.34725402004346484,0,1,30.0
1,0.9147698170998517,0.00046192211362615447,0.6436879051809696,1,2,30.0
2,0.8212163672727697,0.00019688772701877442,0.5151159572011219,1,2,30.0
3,0.7876505388933069,0.00017068097607561333,0.5581613501705883,0,2,30.0
4,0.7540604822775897,0.00015728669771787656,0.5618444305989223,0,2,30.0
5,0.7275097089655259,0.00015316966463989744,0.4984499555501404,1,2,30.0
6,0.6970653568997103,0.00013292673590031509,0.536134649038574,0,2,30.0
7,0.6904481803669649,0.00012162475951995207,0.4898611987531414,1,2,30.0
8,0.6580479713047251,0.00011433986946940422,0.5343493757491665,0,2,30.0
9,0.6504578337949865,0.0001067625973305172,0.5253700383787083,0,2,30.0
10,0.6282009780406952,0.00011152256201432251,0.4728796326784747,1,2,30.0
11,0.6132337422931895,9.695847911643796e-05,0.4746815656462146,0,2,30.0
12,0.6018496597514433,9.503980725318851e-05,0.4449903534448461,1,2,30.0
13,0.5814828252091128,9.392869383993777e-05,0.4800073374677464,0,2,30.0
14,0.557412140860277,9.956870507106514e-05,0.4767144372866385,0,2,30.0
15,0.5584235643639284,9.344302405438879e-05,0.4544221427845327,0,2,30.0
16,0.5384080539731418,7.830795674475239e-05,0.37708313553862083,1,2,30.0
17,0.5241770190351149,7.81891745111138e-05,0.4065192966136093,0,2,30.0
18,0.5185267967336318,8.027302302413292e-05,0.36851818773902173,1,2,30.0
19,0.503268353027456,7.946746101130403e-05,0.35655717019741723,1,2,30.0
20,0.4947722466552959,7.947081599815968e-05,0.44302877308226635,0,2,30.0
21,0.4853456802227918,7.193425185772973e-05,0.3599464729295824,0,2,30.0
22,0.48285986746058746,7.360031223095789e-05,0.3604759009005576,0,2,30.0
23,0.4661178792224211,7.41477168048732e-05,0.33334161262186357,1,2,30.0
24,0.4596075268352733,6.898106071543331e-05,0.33850377866410786,0,2,30.0
25,0.44066638105055866,6.594944977276848e-05,0.35135124104388626,0,2,30.0
26,0.43378854393959043,7.311471738777233e-05,0.36247576457913133,0,2,30.0
27,0.4373405372395235,6.860662106191739e-05,0.34499661160223655,0,2,30.0
28,0.42649193125612594,7.024254737189039e-05,0.33989256715612143,0,2,30.0
29,0.43006391139591443,6.277779924429898e-05,0.32098859653685,1,2,30.0
30,0.4158346649478464,6.444632757955011e-05,0.32010483876896134,1,2,30.0
31,0.4055839159909417,5.750274850630804e-05,0.3188281803279658,1,2,30.0
32,0.39751887812333947,5.926320527043358e-05,0.3119578705369153,1,2,30.0
33,0.3978789357578053,6.42414612657911e-05,0.3422416602450774,0,2,30.0
34,0.39518524723894455,5.983146299566964e-05,0.3183553983741143,0,2,30.0
35,0.3935814503361197,6.45897257473895e-05,0.3216428388344697,0,2,30.0
36,0.3900019091718337,6.444680667995913e-05,0.3207603340797425,0,2,30.0
37,0.3787885786855922,5.931412905577899e-05,0.3143118599948637,0,2,30.0
38,0.37921618047882527,6.0054072502466356e-05,0.31187169761586353,1,2,30.0
39,0.38754677456967973,5.8600133471533327e-05,0.31557396830203255,0,2,30.0
40,0.3812708416405846,5.9009321215425566e-05,0.3147311247008464,0,2,30.0
1,0.9149719526370367,0.0005173024695804564,0.5849448232157004,1,3,30.0
2,0.8114463764996755,0.00023891299670573236,0.5628490575865154,1,3,30.0
3,0.7644066846086865,0.00020200698097704888,0.5522949620581313,1,3,30.0
4,0.7423698604106903,0.0001758455470865426,0.5530719223324199,0,3,30.0
5,0.7195286651452383,0.00015242051865373339,0.5032308572262154,1,3,30.0
6,0.697993088336218,0.00015095750443703894,0.4938794924223069,1,3,30.0
7,0.6822251280148824,0.00013292733204988983,0.48080536418827474,1,3,30.0
8,0.6521564040865216,0.00012661548438093936,0.5090249419526651,0,3,30.0
9,0.6376277541830426,0.00012320694241636722,0.4702566719738086,1,3,30.0
10,0.6253244837834722,0.00011354885256358622,0.4556113938200051,1,3,30.0
11,0.5991914488729977,0.00011854703301477933,0.41143304938209363,1,3,30.0
12,0.5949081572748366,0.00010065100862751326,0.427798511697942,0,3,30.0
13,0.5789582292948451,9.493061697001048e-05,0.42936078286153817,0,3,30.0
14,0.558950482734612,9.765104624377619e-05,0.3851754461644594,1,3,30.0
15,0.5442495175770351,9.05729822902469e-05,0.37189768557994846,1,3,30.0
16,0.5448307004712877,8.972648200662141e-05,0.38258769856774794,0,3,30.0
17,0.5219768126096044,8.876090833793915e-05,0.3945815697498084,0,3,30.0
18,0.5000576501091322,8.112796630095025e-05,0.415224186501047,0,3,30.0
19,0.4891547376201266,8.139233371669737e-05,0.3944577664951236,0,3,30.0
20,0.4885010531260854,7.964419715530571e-05,0.3885686331297327,0,3,30.0
21,0.47824604667368387,8.791978745561902e-05,0.3778937441847811,0,3,30.0
22,0.46468805450768697,8.092602413290435e-05,0.3786734702245958,0,3,30.0
1,0.9235231266302221,0.0004671724470373353,0.5805673138718528,1,4,30.0
2,0.8183069832184735,0.00020534617840038504,0.5374535263317658,1,4,30.0
3,0.7828398480134852,0.0002036690542488085,0.5275420915122933,1,4,30.0
4,0.7563949556911693,0.0001825047510518583,0.5417793655055534,0,4,30.0
5,0.7305504090645734,0.0001464727081303649,0.5019831284061893,1,4,30.0
6,0.7025071403559516,0.00015704143152106553,0.46787686891998065,1,4,30.0
7,0.6935503314523136,0.00014098073212046397,0.4263031529715896,1,4,30.0
8,0.6771923016099369,0.00013410169066286042,0.41655801945428833,1,4,30.0
9,0.6454068990314707,0.00013093823448905503,0.4042044051658228,1,4,30.0
10,0.6270008339601405,0.00012912969742661946,0.4103549595304274,0,4,30.0
11,0.6212986052036286,0.00012369629659909098,0.3986133216860281,1,4,30.0
12,0.609223698868471,0.0001140805331113584,0.3943564670208173,1,4,30.0
13,0.5865476948373458,0.00010438253067310571,0.4140801248104082,0,4,30.0
14,0.5797931544920978,9.199491383590024e-05,0.37293893781313714,1,4,30.0
15,0.5634752452373505,8.990617712055717e-05,0.38535912206259026,0,4,30.0
16,0.5613540312823128,9.391181203468209e-05,0.3495723060222585,1,4,30.0
17,0.5342709204729865,8.892803470028893e-05,0.36816769758408013,0,4,30.0
18,0.5247590040459352,7.766580833156374e-05,0.39314074486041806,0,4,30.0
19,0.5245228497421041,8.134243664030424e-05,0.36456879625055005,0,4,30.0
20,0.5079137763556312,7.529077907640706e-05,0.37308663042473705,0,4,30.0
21,0.4947707102579229,7.700549497659428e-05,0.374565736110425,0,4,30.0
22,0.4815562525216271,7.372003901229404e-05,0.3264591967300056,1,4,30.0
23,0.47556795127251567,7.336812247077058e-05,0.3632231033882316,0,4,30.0
24,0.4615045740323908,7.639593574875857e-05,0.3444789583082757,0,4,30.0
25,0.45688739524168126,6.385344784254866e-05,0.35910652188778175,0,4,30.0
26,0.4325858564937816,6.987238957663066e-05,0.34158913222736614,0,4,30.0
27,0.4368341831599965,6.891244466875351e-05,0.33602866301364703,0,4,30.0
28,0.44785090719952303,6.393427217570956e-05,0.3354465477538945,0,4,30.0
29,0.4200677152942209,6.124240933465498e-05,0.34996420991656235,0,4,30.0
1,0.9193420354057761,0.00043556098860469375,0.5283594119959435,1,5,30.0
2,0.8115288552115946,0.0002575257050921209,0.47526036741091465,1,5,30.0
3,0.7790123616947847,0.00020369874289505842,0.4613474674973956,1,5,30.0
4,0.7523086646023919,0.0001856122218990041,0.4450046060167424,1,5,30.0
5,0.7287728498963749,0.00016267833519069587,0.4520014334384484,0,5,30.0
6,0.7157113320687238,0.00015476318487130545,0.5032724851357414,0,5,30.0
7,0.6834072519751156,0.00013870780077173978,0.4306208333914365,1,5,30.0
8,0.6626011329538682,0.00013504064734340372,0.47516470124054555,0,5,30.0
9,0.6544262794887319,0.00011941027349915684,0.40910566478407706,1,5,30.0
10,0.6314773370237912,0.00012154159339843318,0.4379472917641877,0,5,30.0
11,0.6191384574946235,0.00012071910271462163,0.39492664923249804,1,5,30.0
12,0.5988084901781643,0.00010571537765345591,0.39658537236409797,0,5,30.0
13,0.5822803620029898,0.00011313343780142638,0.4128552794705353,0,5,30.0
14,0.5702622785287745,0.00010465557630488868,0.37552003130036754,1,5,30.0
15,0.563783582869698,0.0001006474150070811,0.3720454212768093,1,5,30.0
16,0.5609920712078319,9.519895590047407e-05,0.35098858246101466,1,5,30.0
17,0.5431995658313526,8.806214498369681e-05,0.38903271041359433,0,5,30.0
18,0.5357243625556721,8.715038917109589e-05,0.3335249191286171,1,5,30.0
19,0.520802500668694,8.767013170975534e-05,0.3722968076925437,0,5,30.0
20,0.4967778935151942,8.426476852037012e-05,0.3718805647842073,0,5,30.0
21,0.4985881745815277,8.285196908057997e-05,0.34511702574618425,0,5,30.0
22,0.48956026259590596,8.878716484212098e-05,0.3783573386004673,0,5,30.0
23,0.47770561751197366,7.924713786718819e-05,0.3029020255069892,1,5,30.0
24,0.47263990009532253,7.822215655537816e-05,0.32295918960847536,0,5,30.0
25,0.4499809401876786,7.993342223926448e-05,0.32731348661888615,0,5,30.0
26,0.4412366148303537,7.953927064697971e-05,0.3457325323638438,0,5,30.0
27,0.44451730777235593,8.031768293756827e-05,0.3309295597740902,0,5,30.0
28,0.43293727355844835,7.20319192195722e-05,0.32174092509428,0,5,30.0
29,0.43759324936305777,7.432816295049099e-05,0.3423021308191136,0,5,30.0
30,0.4248440321754007,6.869844330461039e-05,0.3315051638507644,0,5,30.0
1,0.9152297462735858,0.00044614861794148704,0.661576619351343,1,6,30.0
2,0.8129877675147283,0.0002302990627261655,0.7005599664876934,0,6,30.0
3,0.7740659543446132,0.00020153592846500467,0.6245239163800446,1,6,30.0
4,0.7460372781469709,0.00019632555770277533,0.5813663089895303,1,6,30.0
5,0.7179792672395706,0.00015419356237717218,0.6038882794412946,0,6,30.0
6,0.7016722680557341,0.00016326755931437393,0.5894607301418291,0,6,30.0
7,0.6798325564180102,0.00013614215666685986,0.5419730791041699,1,6,30.0
8,0.6688926546346574,0.00012822626194974873,0.537029037882181,1,6,30.0
9,0.6400286441757566,0.00013497761617708464,0.5295308685144026,1,6,30.0
10,0.6271525671084722,0.00013692825623799027,0.5038209836212761,1,6,30.0
11,0.6127869923199926,0.00011277477209486755,0.4899015526718304,1,6,30.0
12,0.5958009901500884,0.00010547590249015706,0.5145109317799095,0,6,30.0
13,0.5948888982335726,0.00010658600365873316,0.49434132956680205,0,6,30.0
14,0.571732875137102,0.00010950026496305197,0.4701964213845826,1,6,30.0
15,0.5592880781207766,9.315513874580141e-05,0.501693316357396,0,6,30.0
16,0.551524550077461,8.4784062675594e-05,0.5141765047778366,0,6,30.0
17,0.5312040501407215,9.16452341005511e-05,0.48051600467664257,0,6,30.0
18,0.522314041852951,8.479430696405914e-05,0.4546537464628708,1,6,30.0
19,0.507188981842427,8.782923625750256e-05,0.4500634122854169,1,6,30.0
20,0.49978202723321463,8.829716240316408e-05,0.46625915036883814,0,6,30.0
21,0.48885441571474075,8.35491044286062e-05,0.43494721902695527,1,6,30.0
22,0.4751913490749541,8.524081000532966e-05,0.41383571957507903,1,6,30.0
23,0.4705564489676839,7.925080046247568e-05,0.4407693506215656,0,6,30.0
24,0.4567575224098705,7.866144395458312e-05,0.4056834608276472,1,6,30.0
25,0.44795619589941843,7.636586737394932e-05,0.42932149565563266,0,6,30.0
26,0.446216208594186,7.517433490041488e-05,0.3992662579676919,1,6,30.0
27,0.4391982037396658,7.303804245782972e-05,0.41385558904463016,0,6,30.0
28,0.43232848353329156,8.056149146709469e-05,0.4019221592566955,0,6,30.0
29,0.41126981874306995,6.806542482774516e-05,0.4053525071479462,0,6,30.0
30,0.41248621472290586,7.269965282743907e-05,0.40991019399583795,0,6,30.0
31,0.40292747141349883,7.398453345515355e-05,0.408051978716708,0,6,30.0
32,0.4000514791834922,7.254455197523515e-05,0.4112172451482229,0,6,30.0
33,0.40071970046985717,6.765781078380921e-05,0.3955970278762003,1,6,30.0
34,0.39184300353129703,7.004701408385743e-05,0.3894771090394298,1,6,30.0
35,0.384957276816879,6.898822877181894e-05,0.39952967235173414,0,6,30.0
36,0.3889417779587564,6.869746855608398e-05,0.3957241857910128,0,6,30.0
37,0.38329495170286726,6.627639721132472e-05,0.398027751130823,0,6,30.0
38,0.3762513129484086,6.628960584618784e-05,0.3919350385040321,0,6,30.0
39,0.3693000010791279,6.654045985972819e-05,0.3981173903062348,0,6,30.0
40,0.3799114376306534,7.071169009231242e-05,0.3917083994351743,0,6,30.0
1,0.923157329360644,0.00043703065256565986,0.5290240817971452,1,7,30.0
2,0.8153562446435293,0.00023292585822110552,0.5479625516065164,0,7,30.0
3,0.76842148460093,0.00020174713877384507,0.49373833265149164,1,7,30.0
4,0.7325892185881024,0.00018610118578570628,0.4800188699588855,1,7,30.0
5,0.7165609725884029,0.00016137524107762147,0.4795719651330543,1,7,30.0
6,0.6834643241905031,0.00016494522172988147,0.4835573729639747,0,7,30.0
7,0.6633778441519964,0.0001432307264968542,0.4533576130560291,1,7,30.0
8,0.6421930091012091,0.00013085440644187787,0.4193486018972168,1,7,30.0
9,0.6212400261844907,0.00012104696309376908,0.39095139052537226,1,7,30.0
10,0.60673826223328,0.0001196258164695575,0.40781753168652907,0,7,30.0
11,0.5777456710735956,0.00011962743770882731,0.4314162790870234,0,7,30.0
12,0.5696140974760056,0.00012029337016255817,0.3844941679066053,1,7,30.0
13,0.5515443072432563,0.00011005754623467856,0.34827816156641694,1,7,30.0
14,0.5393580382778531,0.00011118646857323169,0.36765422698870737,0,7,30.0
15,0.5322766981664158,0.00010625646653005831,0.356814317443563,0,7,30.0
16,0.5160332932358697,0.00010858330928645696,0.3555729050418379,0,7,30.0
17,0.5132396693030993,9.923750422742506e-05,0.33858487398870957,1,7,30.0
18,0.4981326059926124,9.65827578814545e-05,0.32690642868675046,1,7,30.0
19,0.4926985502243042,8.517115440467716e-05,0.35850767295782954,0,7,30.0
20,0.4848989099264145,8.760174044991367e-05,0.35408382925061843,0,7,30.0
21,0.4645204377316293,8.350379743032612e-05,0.31650801639409665,1,7,30.0
22,0.45872499155146734,8.46792007948915e-05,0.30036294004608094,1,7,30.0
23,0.44666840029614313,8.620094459253042e-05,0.31540059047976826,0,7,30.0
24,0.43165644258260727,8.697306380088863e-05,0.2960566963249198,1,7,30.0
25,0.43294871882313773,8.001922370091225e-05,0.2877404622823051,1,7,30.0
26,0.42267290218954995,8.160587423758226e-05,0.3041474062988671,0,7,30.0
27,0.41587677952789126,8.044077397547274e-05,0.3167548950280491,0,7,30.0
28,0.4081773176079705,7.521920815634076e-05,0.2898101960800641,0,7,30.0
29,0.3936007746628353,7.270515669959077e-05,0.29808108568469033,0,7,30.0
30,0.39403775086005527,7.026294302444771e-05,0.2957550164634356,0,7,30.0
31,0.3860968383295195,7.399906293617928e-05,0.2860213797799631,1,7,30.0
32,0.3866014391893432,7.500101110920132e-05,0.290640993734342,0,7,30.0
33,0.3705869959223838,6.962644359494637e-05,0.28196270678432456,1,7,30.0
34,0.3693979091587521,7.387288081060563e-05,0.30281965367001257,0,7,30.0
35,0.36817163246728124,6.543852348494554e-05,0.2890352724785023,0,7,30.0
36,0.36948718786949203,7.168981703996127e-05,0.2870325098228174,0,7,30.0
37,0.36304149457386564,6.859942156249114e-05,0.28533166503459323,0,7,30.0
38,0.36451249268083347,6.421967559401223e-05,0.28876749696874116,0,7,30.0
39,0.35294552856967565,6.524132866269654e-05,0.2901209414998447,0,7,30.0
40,0.3575967848300934,6.786817816429816e-05,0.29121438794146565,0,7,30.0
1,0.929323245372091,0.00046700056000623764,0.5314962488633616,1,8,30.0
2,0.807845706031436,0.00021186689030270957,0.5692273350635938,0,8,30.0
3,0.7713119259902409,0.00019046025131718211,0.4653692874077492,1,8,30.0
4,0.7409530501990091,0.0001620969913866637,0.47888102043501446,0,8,30.0
5,0.7137602390277953,0.0001490688566610472,0.4705620472728923,0,8,30.0
6,0.7054229548999241,0.0001419559010260162,0.44163706294435157,1,8,30.0
7,0.6844370436100733,0.00012093983535859956,0.46021397679280013,0,8,30.0
8,0.6476740908055079,0.00012087908977437543,0.42613291403620107,1,8,30.0
9,0.6389038740169435,0.00011607298438320868,0.4252869606102973,1,8,30.0
10,0.6240760368250665,0.00010654990936538005,0.4246385681097098,1,8,30.0
11,0.6080536409502938,0.00010297535993144958,0.43497272524965,0,8,30.0
12,0.58979591549862,9.907742493115144e-05,0.40832534534299475,1,8,30.0
13,0.578471591430051,9.596180821279718e-05,0.4091048364342674,0,8,30.0
14,0.5648608065786815,9.275277465175826e-05,0.3765920583169345,1,8,30.0
15,0.5523915620786803,9.554399024463713e-05,0.39082714110075123,0,8,30.0
16,0.5397272862139202,7.978596334266643e-05,0.43575810109674645,0,8,30.0
17,0.5309306933056741,8.775785521547299e-05,0.39648756766930604,0,8,30.0
18,0.5112444559733073,9.15347362544188e-05,0.354483536908939,1,8,30.0
19,0.5066651900609335,8.436369578356833e-05,0.35931663532146135,0,8,30.0
20,0.4913788689743905,8.073284369034117e-05,0.3674566953284675,0,8,30.0
21,0.4807394129179773,7.716623388530155e-05,0.3760549347398401,0,8,30.0
22,0.47126759659676326,7.792852847203557e-05,0.3242950456151482,1,8,30.0
23,0.4600348926725842,7.731272654339028e-05,0.331821122457046,0,8,30.0
24,0.4556535535625049,7.743658209489825e-05,0.33959172774329144,0,8,30.0
25,0.44679171591997147,7.474657511574194e-05,0.3594944103137154,0,8,30.0
26,0.4385955872989836,7.532694265440416e-05,0.35713515799326323,0,8,30.0
27,0.4280265456154233,7.180025394994854e-05,0.34088610273990194,0,8,30.0
28,0.4222744916166578,7.01834126933439e-05,0.3380038072085335,0,8,30.0
29,0.39974541607357206,6.278640592513729e-05,0.34309048222595473,0,8,30.0
1,0.92430551137243,0.0004603577059848855,0.5113659135029472,1,9,30.0
2,0.8148787333851769,0.00021478765232868247,0.5239981069907432,0,9,30.0
3,0.7766043281271344,0.0001954001136688194,0.5165243323856543,0,9,30.0
4,0.74461720316183,0.00016117167459534748,0.4753593151311378,1,9,30.0
5,0.7219413447947729,0.00015859411403306738,0.4808857235410162,0,9,30.0
6,0.6977521777153015,0.00014957922844803848,0.4985018410807852,0,9,30.0
7,0.6785242039532888,0.00014075346769546048,0.47421445226122777,1,9,30.0
8,0.6652505553904033,0.00013376783993278098,0.423733225796121,1,9,30.0
9,0.6418004419122424,0.00012768040704984394,0.4427733543084001,0,9,30.0
10,0.6332567894742602,0.00012807299208361655,0.4204448419918061,1,9,30.0
11,0.6154667429980778,0.00011276188403523217,0.43119768985488127,0,9,30.0
12,0.6031505270373254,0.0001077392233647905,0.4025471364817127,1,9,30.0
13,0.583106799849442,0.00010621528998031171,0.41763336996168876,0,9,30.0
14,0.5667726163353238,0.00010468779821946685,0.4003465393250994,1,9,30.0
15,0.5615510142275265,9.832928489707964e-05,0.3952885225786198,1,9,30.0
16,0.5432964236963362,8.964683907141166e-05,0.4016112050223827,0,9,30.0
17,0.5386900713755971,9.326533022214703e-05,0.3826644423617234,1,9,30.0
18,0.5282728388195946,9.194113183531001e-05,0.3997389920127489,0,9,30.0
19,0.507905612034457,8.241065907419571e-05,0.3678866419697854,1,9,30.0
20,0.49786892710697084,8.238098680955037e-05,0.3842568252881172,0,9,30.0
21,0.4838202517657053,7.821750841685571e-05,0.3655769733598675,1,9,30.0
22,0.47739852042425246,7.816977172513448e-05,0.38756950822903774,0,9,30.0
23,0.47732966606106075,7.781857883466208e-05,0.34186188014862806,1,9,30.0
24,0.45545200045619694,7.876195476932306e-05,0.36782435128878044,0,9,30.0
25,0.4581218482483001,7.454061505995924e-05,0.3573657751858367,0,9,30.0
26,0.44258275166863487,6.99840955002444e-05,0.3923567174884495,0,9,30.0
27,0.4395986089394206,6.565424800577429e-05,0.3398531221692598,1,9,30.0
28,0.4294941922028859,6.157206211182278e-05,0.3696494215751828,0,9,30.0
29,0.4184117622318722,6.925011300717458e-05,0.3617154800314488,0,9,30.0
30,0.4172862051498322,6.545752806968743e-05,0.37033822479097017,0,9,30.0
31,0.4186103872600056,6.349364243111008e-05,0.35649599041629076,0,9,30.0
32,0.38602106805358616,6.700939476494179e-05,0.3555814830546371,0,9,30.0
33,0.3936952909543401,6.1610836686062e-05,0.3383893999694632,1,9,30.0
34,0.3867710803945859,6.415855672717694e-05,0.35596355007277763,0,9,30.0
35,0.387202928463618,5.672326387000448e-05,0.35877063015367056,0,9,30.0
36,0.38321967387483236,5.897590294591195e-05,0.3482318245441948,0,9,30.0
37,0.3798583717573257,6.156105575341609e-05,0.35018236627712723,0,9,30.0
38,0.3866276240774563,6.127567333654345e-05,0.3490557202879713,0,9,30.0
39,0.3815361921276365,6.209689178961395e-05,0.3542669258014539,0,9,30.0
40,0.38303153749023167,5.802302582326645e-05,0.35121810071524767,0,9,30.0
1,0.9092179403585546,0.0004931255130727283,0.637709635362281,1,10,30.0
2,0.8010358445784624,0.00023788957760724074,0.8319071908205289,0,10,30.0
3,0.7571163598228904,0.0002069058400914347,0.5811699616496924,1,10,30.0
4,0.7406803320435916,0.0001870257073759978,0.6949256320298094,0,10,30.0
5,0.7032375370754915,0.00018386493671534803,0.709758872429951,0,10,30.0
6,0.6987322021933163,0.0001652053471736829,0.6767587998946327,0,10,30.0
7,0.6832296329386094,0.0001549408055485829,0.5582755483177434,1,10,30.0
8,0.6598331766970017,0.00014908944850664256,0.5482300597175095,1,10,30.0
9,0.6382171827204087,0.0001304161042379051,0.5277777840445627,1,10,30.0
10,0.6240360123269698,0.00012440759541384655,0.5244276405787065,1,10,30.0
11,0.6164252347805921,0.00014111957973321243,0.5449217517486342,0,10,30.0
12,0.6044248149675482,0.0001275678283384289,0.5704927426447268,0,10,30.0
13,0.590918047989116,0.00011825804249383509,0.44494039014286385,1,10,30.0
14,0.5762682157404283,0.00010688321421826806,0.4763192225368884,0,10,30.0
15,0.5723106664769789,0.00011141124996356666,0.554667900148859,0,10,30.0
16,0.5441201953326955,9.871824261020211e-05,0.4376988399669494,1,10,30.0
17,0.5368626952171326,9.339920866563369e-05,0.4703270631954882,0,10,30.0
18,0.525659060828826,0.00010439292048378026,0.4287009054351689,1,10,30.0
19,0.511182543109445,9.34031984583913e-05,0.41595959910427777,1,10,30.0
20,0.5160056861007914,9.36557938985061e-05,0.44425548266768905,0,10,30.0
21,0.485809192236732,8.189209325150039e-05,0.42628451668566414,0,10,30.0
22,0.48522380520315733,8.767137868049116e-05,0.4883574408629673,0,10,30.0
23,0.4725728806327371,7.671734484200202e-05,0.42091905501810495,0,10,30.0
24,0.46422277934410994,7.529960588298683e-05,0.4074936430847708,1,10,30.0
25,0.4504385152283837,6.724277952932479e-05,0.4374415581421271,0,10,30.0
26,0.4494666218757629,7.174654182402746e-05,0.4462393366783639,0,10,30.0
27,0.44347962912391214,7.619639064240105e-05,0.3785750453118089,1,10,30.0
28,0.42985420858158785,7.1048155266052e-05,0.4297909452108732,0,10,30.0
29,0.4297401761307436,6.689978382543332e-05,0.41375319936451155,0,10,30.0
30,0.41674099108752083,6.784144121304374e-05,0.4042886941760229,0,10,30.0
31,0.4151259285562179,6.231014567139723e-05,0.38197950479992104,0,10,30.0
32,0.4057838169967427,5.991250154158265e-05,0.3774171779094367,1,10,30.0
33,0.39619978666305544,6.371799741721e-05,0.3846234638162132,0,10,30.0
34,0.4002310212920694,5.973214981221484e-05,0.3989755130087881,0,10,30.0
35,0.40701276554780846,5.7570346753517e-05,0.38934053375343164,0,10,30.0
36,0.3933572341414059,5.793271843953441e-05,0.4035775201235821,0,10,30.0
37,0.3941930613097023,5.779075568973306e-05,0.4081111318823547,0,10,30.0
38,0.3846364526187672,6.0846283218672717e-05,0.40083685808716596,0,10,30.0
39,0.38306467988911796,5.749717482317732e-05,0.38384535079227383,0,10,30.0
1,0.9121653581240091,0.0004310773510951549,0.6445575295558545,1,11,30.0
2,0.8184520961290382,0.00020393312017009761,0.6090369825545796,1,11,30.0
3,0.7704851196472904,0.00018778667023969275,0.5481784156750137,1,11,30.0
4,0.7424961924552917,0.00016043917126939576,0.6077059696436643,0,11,30.0
5,0.7101560443280691,0.00014660656834385884,0.5179727667823165,1,11,30.0
6,0.6990728521921549,0.00012739080057692635,0.5631453812012323,0,11,30.0
7,0.6727096804653305,0.0001369744230865456,0.5363987274966484,0,11,30.0
8,0.6447686904884247,0.00010597058315901647,0.4949251857526466,1,11,30.0
9,0.6359312433794321,0.0001218589543468734,0.47375358257444433,1,11,30.0
10,0.6127532853419522,0.00010809349588676726,0.4704581223631103,1,11,30.0
11,0.5947703715548458,0.00011486827059409087,0.5389159431635481,0,11,30.0
12,0.5842699706554413,0.00010154370325638531,0.45800461636080025,1,11,30.0
13,0.5651857152760748,9.054820440220085e-05,0.524301412387699,0,11,30.0
14,0.5511910057211497,0.00010074699641708902,0.49362212519389614,0,11,30.0
15,0.5391856119575271,8.532014908269048e-05,0.5400089708341257,0,11,30.0
16,0.530222879834922,9.305748893214525e-05,0.4782891648262395,0,11,30.0
17,0.5109617649072624,8.268009271460069e-05,0.47593641697150196,0,11,30.0
18,0.5130858317197088,8.948073673857297e-05,0.4413799241092357,1,11,30.0
19,0.49813026728400267,8.310476673559386e-05,0.4767458599506021,0,11,30.0
20,0.4922845686774656,7.557509411252609e-05,0.46589386828646,0,11,30.0
21,0.48175346635910404,7.72240818621933e-05,0.4759925596594783,0,11,30.0
22,0.4639103330043425,7.541759706842881e-05,0.46130630152878477,0,11,30.0
23,0.45552339395844793,7.840516185072386e-05,0.5031035732826881,0,11,30.0
24,0.4515420988381627,7.59354905268817e-05,0.42654448345709245,1,11,30.0
25,0.436540172401681,6.827187501924976e-05,0.4299485850744001,0,11,30.0
26,0.4372572205870984,6.940021382641967e-05,0.39827925579155654,1,11,30.0
27,0.42287421190595054,6.710810295596483e-05,0.41646571017983985,0,11,30.0
28,0.42135323386594475,7.149106009403267e-05,0.40082149488149177,0,11,30.0
29,0.4112337120326169,7.098738118306263e-05,0.4537798326804608,0,11,30.0
30,0.4053675198411367,6.772324532980144e-05,0.4315144393986747,0,11,30.0
31,0.3994188420025699,6.628544913136389e-05,0.4516992048254253,0,11,30.0
32,0.3945155588977308,6.907144122222629e-05,0.4114283874758142,0,11,30.0
33,0.38648172710315293,6.256435688512108e-05,0.4131524436481823,0,11,30.0
1,0.9311705335628154,0.0004891631478405839,0.539878284786607,1,12,30.0
2,0.8123947104742361,0.00021787145940538192,0.5240540907953383,1,12,30.0
3,0.773117606029954,0.00018182648814535094,0.47348108587842,1,12,30.0
4,0.7568876604701198,0.00015216004705803773,0.508697493911578,0,12,30.0
5,0.7273736506007439,0.00016035029600674914,0.4842563386402753,0,12,30.0
6,0.7053101700405742,0.0001395628879795685,0.48134793251210695,0,12,30.0
7,0.6834466963313347,0.00011909857104995375,0.42350291843755045,1,12,30.0
8,0.662028685558674,0.0001242337410837726,0.46284010351451715,0,12,30.0
9,0.653157677761344,0.0001095555568564694,0.45066459861387886,0,12,30.0
10,0.6301623728386191,0.0001103567304854487,0.4343627808818875,0,12,30.0
11,0.6127507627703422,0.00011269372788414922,0.4540061757765308,0,12,30.0
12,0.6136205175588297,0.00010595828335194816,0.4016794779942737,1,12,30.0
13,0.5913331823986631,9.612446127332163e-05,0.461762867989111,0,12,30.0
14,0.5697940251854963,9.456273255636916e-05,0.3791098926409405,1,12,30.0
15,0.5552151213551677,9.315513146480784e-05,0.3928644676295406,0,12,30.0
16,0.5527157215184944,8.84828416950091e-05,0.3721072583191319,1,12,30.0
17,0.543511911187061,9.047767716130989e-05,0.3503605383258342,1,12,30.0
18,0.5235643535852432,8.41268347992513e-05,0.35651782978543767,0,12,30.0
19,0.5100890987141188,8.130293027470754e-05,0.34764828042526624,1,12,30.0
20,0.4913187785897144,8.20285685497152e-05,0.3547673599944422,0,12,30.0
21,0.490039172214131,8.54327982081084e-05,0.34392453376265386,1,12,30.0
22,0.4767698382222375,7.616580681547761e-05,0.4035892991108826,0,12,30.0
23,0.4725268500488858,7.45451947041993e-05,0.33256783848987787,1,12,30.0
24,0.45554337771826015,7.77448941906102e-05,0.34221814210139534,0,12,30.0
25,0.4549044977093852,7.53123079681076e-05,0.3182323170988076,1,12,30.0
26,0.44357848999112154,7.431989911839442e-05,0.34780980653181887,0,12,30.0
27,0.43277864504692165,7.03196469552241e-05,0.3278294763555535,0,12,30.0
28,0.4306322804024053,7.549329897893734e-05,0.28864493330195135,1,12,30.0
29,0.42248631286066635,7.302879668375596e-05,0.3255664943404241,0,12,30.0
30,0.40530156604079315,6.924413457116231e-05,0.31806445631066127,0,12,30.0
31,0.4068709889123606,7.465265751010901e-05,0.32371189700113046,0,12,30.0
32,0.40773818832497266,6.95849224897291e-05,0.30680026573179314,0,12,30.0
33,0.3893194101577581,7.33684277250621e-05,0.3085911051178189,0,12,30.0
34,0.39321057810339816,6.947227230675919e-05,0.3190425385853487,0,12,30.0
35,0.38824820206608884,6.891621109558443e-05,0.30755010217144807,0,12,30.0
1,0.9050993727786201,0.0004668693684271559,0.6466615316867829,1,13,30.0
2,0.8132361067192895,0.00022507508297816718,0.5636471089124679,1,13,30.0
3,0.781541802343868,0.00021383134983244374,0.6370126377344132,0,13,30.0
4,0.7420267852998915,0.00017243564676997872,0.5102083253860473,1,13,30.0
5,0.7252907220806394,0.00016236705189276974,0.48640032202005384,1,13,30.0
6,0.7068226493540264,0.00014484666315270478,0.4777046011686325,1,13,30.0
7,0.678227763800394,0.00013480932864781825,0.42691207975149154,1,13,30.0
8,0.6642660456044334,0.00011972690966407147,0.4656268936395645,0,13,30.0
9,0.6476920073231062,0.00011601279376398972,0.46943049466609954,0,13,30.0
10,0.6324983373993919,0.00010348335594504274,0.43075567919015884,0,13,30.0
11,0.6149533440669378,0.00010260017309822918,0.4506101666390896,0,13,30.0
12,0.5995618740007991,0.00011176588841841468,0.42261517268419263,1,13,30.0
13,0.5923669253076825,0.00010705598799090477,0.42583657658100127,0,13,30.0
14,0.5752981276739211,0.00010228765486750664,0.37509103935956956,1,13,30.0
15,0.5625932912031809,0.00010404424496560491,0.39647689789533613,0,13,30.0
16,0.5486049293762162,9.654628281298625e-05,0.41473104879260064,0,13,30.0
17,0.541479464442957,9.675635287532627e-05,0.3829586536884308,0,13,30.0
18,0.5299747454978171,9.60584024401864e-05,0.39317409017682076,0,13,30.0
19,0.5190216338350659,9.221814092424687e-05,0.40020516657829286,0,13,30.0
20,0.5032919719815254,9.026059156201969e-05,0.36826769745349885,1,13,30.0
21,0.4999449473051798,9.161100184601743e-05,0.3559993806257844,1,13,30.0
22,0.49044856358142125,8.333140924930506e-05,0.36965149569511413,0,13,30.0
23,0.48281782901003245,8.483138827571002e-05,0.3428043305277824,1,13,30.0
24,0.4699738525918552,8.711010039925375e-05,0.3349750928729773,1,13,30.0
25,0.4665448647879419,7.952185010903381e-05,0.34599454475939273,0,13,30.0
26,0.45555237361363005,7.778244430699574e-05,0.35388666231185195,0,13,30.0
27,0.45252851645151776,7.77687288237281e-05,0.3569987322986126,0,13,30.0
28,0.43008165735573994,8.21674209960509e-05,0.3557663149833679,0,13,30.0
29,0.42245655826159884,7.702462044974146e-05,0.34330565479397773,0,13,30.0
30,0.42225351503917147,7.516876528478904e-05,0.33790494917333125,0,13,30.0
31,0.4156533440663701,7.659513019981594e-05,0.332113628514111,1,13,30.0
32,0.40516158299786703,7.456283921263613e-05,0.3368055441081524,0,13,30.0
33,0.3925448130993616,7.445930025694127e-05,0.32674222891777754,1,13,30.0
34,0.3989792232002531,7.799032599515548e-05,0.3310246242135763,0,13,30.0
35,0.3998986693720023,7.509669809397088e-05,0.33723039013147355,0,13,30.0
36,0.38754413418826605,7.54800695133218e-05,0.321416896276176,1,13,30.0
37,0.3881783950186911,7.32140247886751e-05,0.32392513334006073,0,13,30.0
38,0.3891124359908558,7.221551160390456e-05,0.32234402079880237,0,13,30.0
39,0.38698636634009226,6.841180138075114e-05,0.3266362793520093,0,13,30.0
40,0.37392659201508477,7.193744018184676e-05,0.32462319123744965,0,13,30.0
1,0.9096620865615017,0.000472848347534779,0.5838356184371435,1,14,30.0
2,0.7994454000369612,0.00022946651716413628,0.5732769664643581,1,14,30.0
3,0.7657180902469589,0.00018613732355739362,0.482035360920533,1,14,30.0
4,0.7379801187170557,0.00015888661375838747,0.5211562829765868,0,14,30.0
5,0.7146267036357558,0.0001661475789550894,0.4688006052729355,1,14,30.0
6,0.6926416072500757,0.0001556836642817235,0.43418245862744304,1,14,30.0
7,0.6937591727957668,0.00013469434327499223,0.4168678737557142,1,14,30.0
8,0.6540617870997234,0.00013388905063038692,0.47033518967822163,0,14,30.0
9,0.6494585706526974,0.00013039694390335423,0.4270834504397914,0,14,30.0
10,0.6252730413373694,0.0001254681245257646,0.3967342148363821,1,14,30.0
11,0.6172130495668894,0.00012832560903653614,0.42972552816507836,0,14,30.0
12,0.6040829402136515,0.00010968875757093171,0.3791637300645187,1,14,30.0
13,0.5871257092579302,0.00010961665528551507,0.39428107071185137,0,14,30.0
14,0.5572259681052473,0.00010153826535469011,0.38956057274897854,0,14,30.0
15,0.5523997714002449,9.794899956596712e-05,0.3894880194959143,0,14,30.0
16,0.5500992026673742,0.000101653092545359,0.36646739093810177,1,14,30.0
17,0.5244896853544626,9.221287035027025e-05,0.3908355493004825,0,14,30.0
18,0.5310035997844604,9.487160603012273e-05,0.3677965008439334,0,14,30.0
19,0.5072799123913408,8.706167623076688e-05,0.38177571887766487,0,14,30.0
20,0.500243893947946,8.903910828991344e-05,0.34785161479205123,1,14,30.0
21,0.4838814839541194,8.498463898557743e-05,0.36057931787471287,0,14,30.0
22,0.4738612745899752,8.929882762941015e-05,0.36664817490339335,0,14,30.0
23,0.46391410030514363,9.033079686012198e-05,0.34520768426535237,1,14,30.0
24,0.4641356532832226,8.694318563927032e-05,0.3457294796603395,0,14,30.0
25,0.45544068174189833,8.645350049868372e-05,0.3510609159491077,0,14,30.0
26,0.4425979637237917,8.482848900175339e-05,0.32732116173037706,1,14,30.0
27,0.4295098609234913,8.086870147086433e-05,0.35044369463064856,0,14,30.0
28,0.42918383249317305,8.622343007282982e-05,0.34327954653834264,0,14,30.0
29,0.4149797925029893,8.233939087108136e-05,0.3526656397526482,0,14,30.0
30,0.413826917668423,7.702245929100304e-05,0.3343415202679224,0,14,30.0
31,0.3994820997657546,7.882396605865839e-05,0.33683289814023465,0,14,30.0
32,0.4034927914659661,7.69508337561344e-05,0.34052469138942326,0,14,30.0
33,0.3883155979305865,7.70146878231429e-05,0.342286036245352,0,14,30.0
1,0.9247879605917704,0.0003955700229285174,0.7249554212056744,1,15,30.0
2,0.8035634408394495,0.00022901022506024069,0.6445270235616277,1,15,30.0
3,0.7562736521164576,0.0001727323339028295,0.6248600098542197,1,15,30.0
4,0.7424527818248385,0.00018193786941299637,0.5962876855411823,1,15,30.0
5,0.7220554763362521,0.00013720381979337183,0.6130048309429593,0,15,30.0
6,0.6979054872478757,0.00014033494413264895,0.5483926967673018,1,15,30.0
7,0.677253069622176,0.00013145300917607355,0.5374099017333618,1,15,30.0
8,0.6551093672003064,0.00012191083771453815,0.5407737978017262,0,15,30.0
9,0.6543745533341453,0.00011787365734302771,0.5374905060469075,0,15,30.0
10,0.6328122175875164,0.00011600126007189309,0.5180952549266724,1,15,30.0
11,0.6035385060878027,0.00011005416620589261,0.48331086969650183,1,15,30.0
12,0.6043479488719077,9.820770377527446e-05,0.49826160007497855,0,15,30.0
13,0.5851707323676064,0.00010625464901316999,0.49035535478202946,0,15,30.0
14,0.5764904015121006,9.703803087696932e-05,0.4622980700001378,1,15,30.0
15,0.5570915142695109,0.00010295142281046581,0.44080597007800887,1,15,30.0
16,0.5564755006205468,9.677711832842934e-05,0.47024327776825586,0,15,30.0
17,0.5350363360983985,9.119807535690987e-05,0.476441923721967,0,15,30.0
18,0.5200888982840947,9.773316300457477e-05,0.4761533927022267,0,15,30.0
19,0.5140666954574131,8.666000684613773e-05,0.4650979968156101,0,15,30.0
20,0.5027557171526409,9.006035781480715e-05,0.4872850718373529,0,15,30.0
21,0.48924593521015985,8.583417088846632e-05,0.4803287787309306,0,15,30.0
22,0.5007576569914818,7.908676750611492e-05,0.4368733912706375,1,15,30.0
23,0.48028882451000665,7.375874442264571e-05,0.46848187923088186,0,15,30.0
24,0.46445613886628834,8.188382391727784e-05,0.42293797330412436,1,15,30.0
25,0.4548618420958519,8.000349936039475e-05,0.4296033466073922,0,15,30.0
26,0.44989038649059476,8.022051350140135e-05,0.43018921923728914,0,15,30.0
27,0.4311731117112296,7.615072363045155e-05,0.4341484096594827,0,15,30.0
28,0.4302761363131659,7.566176754196585e-05,0.4200133282312276,1,15,30.0
29,0.4205960493002619,7.652394729770354e-05,0.43543826941679625,0,15,30.0
30,0.4141424216684841,7.08290838138921e-05,0.43416645610973154,0,15,30.0
31,0.41203378211884273,7.081270953113701e-05,0.42037477667466694,0,15,30.0
32,0.4101294385535376,7.22762972925141e-05,0.4221119922433842,0,15,30.0
33,0.4009989021079881,6.57092281298468e-05,0.42065237791432986,0,15,30.0
34,0.3982085447226252,6.710046008742037e-05,0.4191125145972118,1,15,30.0
35,0.3989786771791322,6.919227499089348e-05,0.4092667679125425,1,15,30.0
36,0.39817347271101816,6.573048761181002e-05,0.4265727151378331,0,15,30.0
37,0.3974921078909011,6.838521970903024e-05,0.42233487643344386,0,15,30.0
38,0.3904347185577665,6.44853875027842e-05,0.4134397357845261,0,15,30.0
39,0.38835616409778595,6.626158756262157e-05,0.41678030964795093,0,15,30.0
40,0.3838979388986315,6.85162964752332e-05,0.4195405696724289,0,15,30.0
1,0.9121071864576901,0.00046543528408031254,0.7571181789072203,1,16,30.0
2,0.8044638914220473,0.0002159947035526035,0.714974766197731,1,16,30.0
3,0.7622358897153069,0.00018762871751438497,0.706972933372368,1,16,30.0
4,0.7363533139228821,0.00017162132751443148,0.6914185481719404,1,16,30.0
5,0.716430017527412,0.00015436607157907393,0.6602241305788611,1,16,30.0
6,0.7004769423428704,0.00014410318613312592,0.582270268358749,1,16,30.0
7,0.669054450007046,0.00013971823449109627,0.590317554249885,0,16,30.0
8,0.6445218640215257,0.0001247465014731621,0.6410270211802926,0,16,30.0
9,0.6343322490944582,0.0001257403688642251,0.5791377889629129,1,16,30.0
10,0.6183505412410287,0.00010946349703932783,0.5837979057918435,0,16,30.0
11,0.6152650138911079,0.00011186977965681923,0.6539425544931124,0,16,30.0
12,0.5883367825956906,9.980805655633209e-05,0.5325075181046869,1,16,30.0
13,0.5856333949986626,0.00010044364680652506,0.543605502813485,0,16,30.0
14,0.5542739664807039,9.375414781114909e-05,0.5138967332693168,1,16,30.0
15,0.5552966058254242,9.655702845467364e-05,0.5186927718468279,0,16,30.0
16,0.5335158029023339,8.718998369123952e-05,0.4911001855527266,1,16,30.0
17,0.5247146203237422,9.043840284849626e-05,0.521146361741797,0,16,30.0
18,0.5164459000615512,8.946204004186096e-05,0.5110408829529067,0,16,30.0
19,0.5109294793185066,8.392068352002431e-05,0.5433228405038263,0,16,30.0
20,0.4961393479038687,7.919532547341934e-05,0.48572471548037927,1,16,30.0
21,0.4905804546440349,9.024107755120734e-05,0.46881385650604396,1,16,30.0
22,0.4767843695247875,7.780813736163134e-05,0.513695322087869,0,16,30.0
23,0.46359142836402445,7.814645954674822e-05,0.469816378980179,0,16,30.0
24,0.45626766751794257,7.644224019981373e-05,0.4525776235287863,1,16,30.0
25,0.4511972255566541,7.732440469279775e-05,0.4635898236129947,0,16,30.0
26,0.4390626577770009,6.869995169622331e-05,0.459779321989183,0,16,30.0
27,0.4366771641899558,7.249203160480487e-05,0.45379873072518917,0,16,30.0
28,0.41812889540896697,6.469900656477822e-05,0.4610350936524681,0,16,30.0
29,0.4130841682938968,6.857527508092222e-05,0.48951810256690736,0,16,30.0
30,0.4141856842181262,6.434641712557469e-05,0.44909695366638736,1,16,30.0
31,0.407171048486934,6.216328847050831e-05,0.4621075500918042,0,16,30.0
32,0.3982249140739441,5.9141907096251514e-05,0.4701163195817081,0,16,30.0
33,0.3894759037915398,6.351398132049807e-05,0.4637068198111913,0,16,30.0
34,0.39276327035006353,6.0375885240158396e-05,0.4446440602468837,1,16,30.0
35,0.38495769115055306,6.112408959512215e-05,0.4627143207882114,0,16,30.0
36,0.3763167777482201,6.64371216450544e-05,0.4655798547713367,0,16,30.0
37,0.3862331530627082,6.427234796266181e-05,0.46074198787505966,0,16,30.0
38,0.37666293452767763,6.633108710315462e-05,0.4751230933863646,0,16,30.0
39,0.3768955507699181,6.601091980187716e-05,0.46019685992895926,0,16,30.0
40,0.38537572201560527,6.359445615089498e-05,0.4674534076338361,0,16,30.0
1,0.8996823882482138,0.0005067489547367455,0.7294231018914364,1,17,30.0
2,0.8025452738784882,0.00021960310901287966,0.7153907790519254,1,17,30.0
3,0.7564786816217813,0.0001988600271877395,0.7224749284662749,0,17,30.0
4,0.7359519859394396,0.00017212341183302812,0.678909459171106,1,17,30.0
5,0.7051847376019121,0.0001624471996945935,0.6306128132284174,1,17,30.0
6,0.6812226700495525,0.00014019400811984194,0.6760956095425084,0,17,30.0
7,0.6699794832482395,0.000134388123115059,0.6352582716234159,0,17,30.0
8,0.6526299406246967,0.00011883578598092545,0.6252491111020572,1,17,30.0
9,0.6323770873517875,0.0001142624929913387,0.6319420809741267,0,17,30.0
10,0.6187700887760484,0.00011439027853102524,0.553291082026626,1,17,30.0
11,0.6019096220114145,0.00010800055464510862,0.5453398893184117,1,17,30.0
12,0.5857161962124239,0.00010222702218585715,0.5453876455395962,0,17,30.0
13,0.5720119566084391,0.00010325659144633303,0.548348536313693,0,17,30.0
14,0.5640244236193508,9.902599553440148e-05,0.5232866245562096,1,17,30.0
15,0.550223475838282,9.005240579163768e-05,0.6000374010113114,0,17,30.0
16,0.5380502684288714,9.922228675722762e-05,0.47128037141946816,1,17,30.0
17,0.5292660723249596,8.571968804511903e-05,0.5220789063500203,0,17,30.0
18,0.5077912089336349,8.553351053486981e-05,0.5128057057077071,0,17,30.0
19,0.5068551984178015,8.692995268859934e-05,0.5130834459349982,0,17,30.0
20,0.4967557224164526,8.667996564370871e-05,0.5258425670735704,0,17,30.0
21,0.48287516509193973,8.248679120905686e-05,0.5588367333842166,0,17,30.0
22,0.4710617593253951,7.851042724964882e-05,0.5440533427506372,0,17,30.0
23,0.45727622257657796,8.085865543345944e-05,0.4781880917301447,0,17,30.0
1,0.9328939547372419,0.0004979636112186072,0.7074892400155963,1,18,30.0
2,0.8213676505310591,0.0002186664924645515,0.579191027447004,1,18,30.0
3,0.7678384170975796,0.0001870591082098504,0.6013080442310919,0,18,30.0
4,0.7530483222284983,0.00016846691031850938,0.5428446686763846,1,18,30.0
5,0.7253137716027194,0.00014481317398455103,0.506900749538345,1,18,30.0
6,0.6921498858651449,0.00012438196680768457,0.44621951322644476,1,18,30.0
7,0.6795713333196418,0.00012241734598213697,0.4107615779385163,1,18,30.0
8,0.6568001363166543,0.00012097149983462661,0.4699535193368044,0,18,30.0
9,0.6402737692345021,0.00012416819752319877,0.40554110654970493,1,18,30.0
10,0.6304367680189221,0.00010520007129153508,0.45662801215262117,0,18,30.0
11,0.6163625599339951,9.755425822351204e-05,0.36049054707139944,1,18,30.0
12,0.6040392185366431,0.00010127646110472703,0.3816213032350992,0,18,30.0
13,0.5946060668590457,9.682447878646578e-05,0.4143417045751979,0,18,30.0
14,0.5758568821258323,8.992510104922817e-05,0.3643437253864458,0,18,30.0
15,0.5702701959499094,8.961094753494552e-05,0.35592970596666484,1,18,30.0
16,0.554457406318465,8.038908302740649e-05,0.3564383122295013,0,18,30.0
17,0.5408659449150396,9.034006227942205e-05,0.33869484714319237,1,18,30.0
18,0.537256104655044,7.998662379598732e-05,0.3468147255084778,0,18,30.0
19,0.5276611849319103,7.823396967872869e-05,0.33473265918888356,1,18,30.0
20,0.5141523438830709,7.483240428988464e-05,0.36301589250735605,0,18,30.0
21,0.514690256742544,7.658957770746743e-05,0.34114278336850606,0,18,30.0
22,0.49972989427488906,7.216904093585854e-05,0.3033276677388201,1,18,30.0
23,0.4838055382634318,7.27965223970471e-05,0.28934181427938527,1,18,30.0
24,0.472706823501476,7.065168164296855e-05,0.2945912612946851,0,18,30.0
25,0.4614609933869783,6.915037417012743e-05,0.27778667400309137,1,18,30.0
26,0.4624968507262163,7.105480539774912e-05,0.2880289943608184,0,18,30.0
27,0.4550360177838525,7.155447861424723e-05,0.3168638288504424,0,18,30.0
28,0.4433704631966214,6.848224925200812e-05,0.2954157242131883,0,18,30.0
29,0.44232972728651626,6.551403947564405e-05,0.2800505969988735,0,18,30.0
30,0.42204618384671766,7.411499161186607e-05,0.2949159444062576,0,18,30.0
31,0.41754570603370667,6.96117818141681e-05,0.273359802408061,1,18,30.0
32,0.42512966172639716,6.877938747408713e-05,0.28898088170089886,0,18,30.0
33,0.4116629039825395,6.678101386188605e-05,0.2847044604495061,0,18,30.0
34,0.4070500228987184,6.791565330024961e-05,0.271375373005867,1,18,30.0
35,0.3946507781050926,6.691954602205823e-05,0.2634776806685983,1,18,30.0
36,0.39747723451880523,6.85823599142591e-05,0.26566763830663825,0,18,30.0
37,0.39167421189851537,6.351508175633403e-05,0.2701113425633487,0,18,30.0
38,0.390610734390658,6.45237950118107e-05,0.2661426272889976,0,18,30.0
39,0.3881927773702976,6.648700840488282e-05,0.266244043651407,0,18,30.0
40,0.38617088489754253,6.706590127493634e-05,0.26438308791330933,0,18,30.0
1,0.9197889332260404,0.0005176609989749046,0.5973409467142523,1,19,30.0
2,0.8088026202860332,0.0002626877225598686,0.5688964641941564,1,19,30.0
3,0.7756575055065609,0.00019134140746332595,0.5468932027782553,1,19,30.0
4,0.7506884237130483,0.00016886621605884838,0.49299400627278106,1,19,30.0
5,0.713535127895219,0.00014565604388259263,0.5006259347016799,0,19,30.0
6,0.6918955714929671,0.0001331497967060256,0.46053181049999026,1,19,30.0
7,0.6778843878280549,0.00013413753922144505,0.4628092987537565,0,19,30.0
8,0.6657889861436117,0.00011723849240210949,0.44620356661055965,1,19,30.0
9,0.6566868623097738,0.00011160337964524625,0.44572123650140055,1,19,30.0
10,0.6271803386154629,0.00010464820289122318,0.46218250178361936,0,19,30.0
11,0.6171555373640287,0.0001095394595939156,0.398302996187343,1,19,30.0
12,0.6008703031000637,0.0001057881996703578,0.41050095598836894,0,19,30.0
13,0.5855666874420076,9.54682295525258e-05,0.4158095046179652,0,19,30.0
14,0.5564653224178723,0.00010074388315150004,0.4315521483885561,0,19,30.0
15,0.5595171664442334,0.00010018986116241042,0.4056958394635464,0,19,30.0
16,0.5503245180561429,8.801508227493504e-05,0.4038080224939333,0,19,30.0
17,0.5361015640553974,8.38025334815029e-05,0.3928352805445217,1,19,30.0
18,0.52784359171277,8.865738471372641e-05,0.3796169783304449,1,19,30.0
19,0.5219649583810851,8.699113520075723e-05,0.38759460230284387,0,19,30.0
20,0.5050755604392007,8.523033674074603e-05,0.3620970565283089,1,19,30.0
21,0.49363010270254953,7.582047159563185e-05,0.3608469300806061,1,19,30.0
22,0.4731772847118832,7.70251105374579e-05,0.36047033355758046,1,19,30.0
23,0.4739542929899125,8.42662614429303e-05,0.393625423309245,0,19,30.0
24,0.4612855322304226,8.200456570540111e-05,0.3569246122701816,1,19,30.0
25,0.4537591795836176,8.160430834756145e-05,0.3799727390847313,0,19,30.0
26,0.44489301173459916,7.130463598600944e-05,0.34460999591418634,1,19,30.0
27,0.42659639070431393,7.27293386478864e-05,0.37350519852506797,0,19,30.0
28,0.4256432957592465,7.230135651341352e-05,0.3380874481766778,1,19,30.0
29,0.41484272267137257,7.158580592658836e-05,0.3503830974167926,0,19,30.0
30,0.4106715413786116,7.19583797382213e-05,0.329233263343808,1,19,30.0
31,0.4087301723304249,7.72118249057842e-05,0.33483085684774766,0,19,30.0
32,0.40164590023812796,7.024444736695538e-05,0.35255623757511034,0,19,30.0
33,0.3987733817526272,7.16158096370886e-05,0.33287922009420584,0,19,30.0
34,0.38931365878809066,7.063109244752143e-05,0.3284541440495083,1,19,30.0
35,0.38604329774777096,7.084501071187246e-05,0.326143441856686,1,19,30.0
36,0.3744920030945823,6.794184836118282e-05,0.3365814325987007,0,19,30.0
37,0.38227770619449164,6.53167039022914e-05,0.3258651688649689,1,19,30.0
38,0.3740808346441814,6.724493752179634e-05,0.32501142000064326,1,19,30.0
39,0.3776943383827096,6.737574273886691e-05,0.33158464230323165,0,19,30.0
40,0.3827073673407237,6.556222736738467e-05,0.32531323814900415,0,19,30.0
1,0.9262662295784269,0.00040853690370568074,0.6838740078254781,1,20,30.0
2,0.817859275710015,0.00023688896865115523,0.5822060193803169,1,20,30.0
3,0.7800843815008799,0.0002085322945883187,0.5336495774990068,1,20,30.0
4,0.749428452480407,0.00017782926512327756,0.5359528198256742,0,20,30.0
5,0.7292165202753884,0.00016756160229782662,0.498719125843402,1,20,30.0
6,0.6986613138800576,0.00014379167987499386,0.5356148667392732,0,20,30.0
7,0.6826518908852622,0.0001429572607559662,0.4948576346471431,1,20,30.0
8,0.6698515542915889,0.00014426892682552404,0.4814052867413509,1,20,30.0
9,0.6397519508997599,0.0001258426712281237,0.41165564410069183,1,20,30.0
10,0.6263079171379408,0.0001285529482889355,0.44237486575746865,0,20,30.0
11,0.615819999504657,0.00012632335459611133,0.4393420927788414,0,20,30.0
12,0.6044853343850091,0.00011229335671357279,0.4134033532866257,0,20,30.0
13,0.5810682975820133,0.00011483007351454857,0.44563844249184004,0,20,30.0
14,0.564777189777011,0.00011071403960592025,0.41828865391220776,0,20,30.0
15,0.5501879758778072,0.00010274615721885181,0.4080730291118683,1,20,30.0
16,0.5420882857981182,9.836285079516182e-05,0.3982154682317875,1,20,30.0
17,0.5323100994740214,9.176128159673507e-05,0.38223900255872667,1,20,30.0
18,0.5146979934402874,9.010700731388559e-05,0.4124503891512855,0,20,30.0
19,0.5066413347210202,9.315807307887423e-05,0.39060258673785375,0,20,30.0
20,0.4955033447061266,8.96926405316446e-05,0.3631738303570348,1,20,30.0
21,0.48212948867252897,8.238533579666789e-05,0.3574427507411058,1,20,30.0
22,0.46923188616832096,8.396369356064714e-05,0.3356569037702035,1,20,30.0
23,0.47281518507571446,8.284412489869975e-05,0.34582072317239937,0,20,30.0
24,0.449514355687868,7.756674962625507e-05,0.35312718672863824,0,20,30.0
25,0.4467622254576002,8.183487248710922e-05,0.36512064730455557,0,20,30.0
26,0.44331844009104227,8.135343830959063e-05,0.3398918641875178,0,20,30.0
27,0.42558455289829344,7.894846043026995e-05,0.3614209822923309,0,20,30.0
28,0.4185690748549643,7.646873971333705e-05,0.3641761601092069,0,20,30.0
29,0.42227390514952795,7.184083625318072e-05,0.34319352227253563,0,20,30.0
1,0.9152493384622392,0.00043743297438985404,0.6517465214057012,1,21,30.0
2,0.8066875210830143,0.00021613521017743985,0.5733892589858932,1,21,30.0
3,0.7599468429883321,0.00018496412121749017,0.5578339954506214,1,21,30.0
4,0.7370669983682179,0.00015368085821267284,0.5721512307027952,0,21,30.0
5,0.7188564595722017,0.00013951452586167891,0.48927487629826855,1,21,30.0
6,0.6770751980089006,0.00013186710670457354,0.5106998548400147,0,21,30.0
7,0.6704720386437008,0.00013959434762087075,0.47018644874807586,1,21,30.0
8,0.6571908905392602,0.00013228499985762894,0.5152921763537757,0,21,30.0
9,0.6236248335668019,0.00011066281365943031,0.4702384087702662,0,21,30.0
10,0.6077872848226911,0.00010990862037509768,0.4367213836805204,1,21,30.0
11,0.5916192829608917,0.00010102044455249728,0.48289299437292754,0,21,30.0
12,0.5730141326785088,0.0001144120416852058,0.4337928997917895,1,21,30.0
13,0.5624452907414663,0.00010701330488483931,0.4290872048076985,1,21,30.0
14,0.556138372137433,0.00010120551684979416,0.41680669724309505,1,21,30.0
15,0.5364171660372189,0.0001041996166306836,0.43441663528196856,0,21,30.0
16,0.5226583619202886,9.338829524841414e-05,0.45872165678844445,0,21,30.0
17,0.5154154318429175,9.864122135435796e-05,0.5070033897635441,0,21,30.0
18,0.4970016791706994,8.876289554055326e-05,0.43474667519514626,0,21,30.0
19,0.4880804242122741,9.375073178879185e-05,0.41905375437281656,0,21,30.0
20,0.4767102070507549,9.265160012243238e-05,0.4073224181035248,1,21,30.0
21,0.46391507521981284,8.971075277215623e-05,0.4022255520721301,1,21,30.0
22,0.4615237627710615,9.636168384271773e-05,0.41561698787959306,0,21,30.0
23,0.4592892091189112,8.868024893412699e-05,0.4218907859676837,0,21,30.0
24,0.44829322752498446,8.068327376046606e-05,0.37015783073486647,1,21,30.0
25,0.43433250664245515,8.660831082081477e-05,0.38627809976265,0,21,30.0
26,0.42417197142328533,8.696020510493933e-05,0.3779305606228335,0,21,30.0
27,0.42356597383817035,8.518525339154404e-05,0.3655049455945998,1,21,30.0
28,0.41202673635312487,8.114081135447902e-05,0.38241815667655454,0,21,30.0
29,0.4039028513999212,8.576042251834657e-05,0.3956189787877085,0,21,30.0
30,0.3948289329806964,7.641860940479784e-05,0.3616955261094423,1,21,30.0
31,0.39438376185439883,7.868735372626578e-05,0.36122639310133703,1,21,30.0
32,0.38740207858028863,8.412374557207971e-05,0.3483825853034314,1,21,30.0
33,0.38055419070380075,8.280465061986997e-05,0.3787910442634965,0,21,30.0
34,0.37328307224171503,8.239715424722471e-05,0.3749231032940858,0,21,30.0
35,0.3798746502115613,7.462638248918145e-05,0.3769143452293508,0,21,30.0
36,0.3694956370052837,7.30227751600545e-05,0.36286508109965054,0,21,30.0
37,0.3709467039221809,7.624046243325297e-05,0.3717324669163657,0,21,30.0
38,0.37486908868664787,7.830985907189425e-05,0.3774170501202176,0,21,30.0
39,0.36639290764218285,7.499120407114137e-05,0.3702832897080557,0,21,30.0
1,0.9137649387121201,0.00043053824525226707,0.6270007193549392,1,22,30.0
2,0.80067016964867,0.0002163206013175936,0.610655880519717,1,22,30.0
3,0.7616581867138544,0.0001889935986019693,0.5890622381889021,1,22,30.0
4,0.7325327112561181,0.00017340763770334888,0.5954093296695309,0,22,30.0
5,0.7037741392850876,0.00014850417842570183,0.5818303875701943,1,22,30.0
6,0.6854280942962283,0.00013636455107535723,0.6211854337762619,0,22,30.0
7,0.6698502784683591,0.00012981382488284172,0.5620964485633465,1,22,30.0
8,0.6546237298420498,0.00012055477799592717,0.5935789101977939,0,22,30.0
9,0.6248694232531956,0.00011318556486609548,0.5485850913622945,1,22,30.0
10,0.6143266438018709,0.00010479637499624264,0.5479489127529267,1,22,30.0
11,0.598922264008295,0.00010744957364208641,0.6169192513777423,0,22,30.0
12,0.5886182557968866,0.00010741967170837423,0.544846779552586,1,22,30.0
13,0.5687558015897161,9.975001354351185e-05,0.5589624870606918,0,22,30.0
14,0.5577459342422939,0.00010260205354348901,0.5200550747238407,1,22,30.0
15,0.5498384616914249,9.404438372127646e-05,0.49294150036750073,1,22,30.0
16,0.5512180842813992,8.502380617192968e-05,0.5314513369789827,0,22,30.0
17,0.5261208613713583,8.150333771828584e-05,0.4800125771864634,1,22,30.0
18,0.5106565292392459,8.878623633617757e-05,0.49926550797638053,0,22,30.0
19,0.4996266556637628,8.478394781940595e-05,0.49740539525069066,0,22,30.0
20,0.4986449849037897,7.906141841626127e-05,0.522955604667713,0,22,30.0
21,0.4835202850046612,7.99227274390952e-05,0.4736366834856339,1,22,30.0
22,0.4727191619929813,7.57615402367914e-05,0.4629067622854845,1,22,30.0
23,0.46217321249700727,7.2638227893982e-05,0.4678759176188062,0,22,30.0
24,0.44975002926020397,7.474964509345314e-05,0.46371149419009994,0,22,30.0
25,0.4439505359956196,6.940566423249297e-05,0.4250872278029157,1,22,30.0
26,0.4351621149551301,7.055670032838992e-05,0.44624499175793575,0,22,30.0
27,0.41885103782018024,6.992644886763411e-05,0.4216329831726004,1,22,30.0
28,0.41884299083834603,7.159822589961724e-05,0.4241015939906086,0,22,30.0
29,0.41395247514758793,6.703928348932615e-05,0.43824565239903546,0,22,30.0
30,0.3997721051176389,6.439348410259256e-05,0.43830857418247104,0,22,30.0
31,0.4047879459602492,7.190204451035243e-05,0.4217964010188337,0,22,30.0
32,0.3914353063418752,6.166695289894484e-05,0.4092996376825823,1,22,30.0
33,0.3896633681087267,6.607662644022465e-05,0.4278849835651591,0,22,30.0
34,0.3812629885616757,6.309437624925825e-05,0.41869719425677177,0,22,30.0
35,0.3856391395841326,6.070331277268928e-05,0.42795030037517245,0,22,30.0
36,0.3690889314526603,6.531976786001386e-05,0.43158170811870356,0,22,30.0
37,0.372828431250084,6.457108832234683e-05,0.4245552133586373,0,22,30.0
38,0.36166216397569295,6.242990110920454e-05,0.42674957823065907,0,22,30.0
39,0.37294767796993256,5.991041559484854e-05,0.42979054480368634,0,22,30.0
1,0.927092773276706,0.0004062384754814597,0.541475868307578,1,23,30.0
2,0.8211040815641714,0.00018460572450854925,0.5118606104180153,1,23,30.0
3,0.7946068180161853,0.0001633912055864172,0.48845159414123596,1,23,30.0
4,0.7527353188326192,0.00013721098671234103,0.5226080406018483,0,23,30.0
5,0.7354597664156626,0.00012171077283118244,0.4757139402925884,1,23,30.0
6,0.719250620797623,0.00011497443716338197,0.46777568988563045,1,23,30.0
7,0.7007654011249542,0.00010306141983926144,0.4585129404027595,1,23,30.0
8,0.6875128136124722,9.974476237995226e-05,0.4752780669946113,0,23,30.0
9,0.6611715264098589,0.00011197551057828309,0.44217411762608944,1,23,30.0
10,0.6476079135440117,0.00010109451275554399,0.4313824048607203,1,23,30.0
11,0.6403960204401682,9.767109889274484e-05,0.4581019143513184,0,23,30.0
12,0.6216644395229428,8.381787454201785e-05,0.505864079171606,0,23,30.0
13,0.605574275172034,8.400458386330324e-05,0.44901946543031274,0,23,30.0
14,0.5925588150357091,7.782201379974817e-05,0.4365317706198586,0,23,30.0
15,0.5939375394305517,7.612134111188297e-05,0.4327479623630538,0,23,30.0
16,0.5811695262443187,7.255894660226849e-05,0.413691673893876,1,23,30.0
17,0.5661615306554839,6.977147855058171e-05,0.3904812041058846,1,23,30.0
18,0.5488054610269014,7.0328218244804e-05,0.40777548862291374,0,23,30.0
19,0.5336776500524476,6.604809962926422e-05,0.38403205289506737,1,23,30.0
20,0.5282035844270573,6.704172817482558e-05,0.36728813633242763,1,23,30.0
21,0.5138035534426223,6.590011012016222e-05,0.37087079850639604,0,23,30.0
22,0.5117978661559349,6.925821617187466e-05,0.3856714946575267,0,23,30.0
23,0.4901749380799227,6.559256816703858e-05,0.39109833298245245,0,23,30.0
24,0.4907017946243286,6.363904385368589e-05,0.40476823760371733,0,23,30.0
25,0.4831335302009139,6.30175256531423e-05,0.3572218771187541,1,23,30.0
26,0.47433773722759515,6.30643476883009e-05,0.33578516299678796,1,23,30.0
27,0.46365087947180106,6.076635623304715e-05,0.3545489498524301,0,23,30.0
28,0.45061069345751475,6.34744601695782e-05,0.39363644516794605,0,23,30.0
29,0.448709292813789,6.347435052258905e-05,0.3483997597276272,0,23,30.0
30,0.43139644833498225,6.234443089640483e-05,0.3813023038736611,0,23,30.0
31,0.42910946905612946,5.717170165024622e-05,0.33869611754049794,0,23,30.0
32,0.42199887681839077,5.6551754950792095e-05,0.32670037632303633,1,23,30.0
33,0.42231655502042104,5.7227914556617266e-05,0.3523363710181991,0,23,30.0
34,0.4228034854628319,5.426776044979031e-05,0.3398295283166071,0,23,30.0
35,0.41675670375657636,5.4518115533472494e-05,0.33415245047416164,0,23,30.0
36,0.4061227388853251,5.5620358474444335e-05,0.3372196295955901,0,23,30.0
37,0.40818442646847214,5.4477185522257564e-05,0.339394783134583,0,23,30.0
38,0.40375358940556993,5.415564547272583e-05,0.3255771315264453,1,23,30.0
39,0.40195062929807707,5.345433032215264e-05,0.33792273777667764,0,23,30.0
40,0.40111853390239005,5.6496768191336317e-05,0.333463449699163,0,23,30.0
1,0.9164503025157111,0.0005205051339067896,0.6376702638139368,1,24,30.0
2,0.8027854128962472,0.00022083090516389348,0.6797469692523421,0,24,30.0
3,0.7657807873828071,0.00019549414623941716,0.6387278293730759,0,24,30.0
4,0.7485190842832837,0.00017673563169886446,0.6666297772182868,0,24,30.0
5,0.7262117990425655,0.0001807341516160661,0.6015141306799433,1,24,30.0
6,0.7096425011044457,0.0001542833086291683,0.7179257957498554,0,24,30.0
7,0.6990203396195457,0.00014217481899928922,0.6679237257342349,0,24,30.0
8,0.6746464400064378,0.00014384641569146575,0.6094991625682545,0,24,30.0
9,0.6690655403903553,0.00013964731425360134,0.579601118408958,1,24,30.0
10,0.6502568345694315,0.00011776557749683325,0.567686982000405,1,24,30.0
11,0.6288819454965138,0.00013134629287898342,0.6183587764710309,0,24,30.0
12,0.6225582705367179,0.00011977155927091925,0.6070895902360016,0,24,30.0
13,0.60612985988458,0.00011671557556491323,0.5585940355050419,1,24,30.0
14,0.5952985779870124,0.00010778391008768397,0.5701421855190988,0,24,30.0
15,0.5834199871335711,9.668894935679245e-05,0.6394322533839145,0,24,30.0
16,0.5759213609354836,9.744764507299155e-05,0.5539936287260732,1,24,30.0
17,0.5622611088412148,0.00010420495220300619,0.5674740878435282,0,24,30.0
18,0.5529924670145625,9.367931978063315e-05,0.6185145913830653,0,24,30.0
19,0.5471437470543952,8.986350760443158e-05,0.527494631164711,1,24,30.0
20,0.5294487327337265,8.705333441737042e-05,0.5847652770337547,0,24,30.0
21,0.5162319264241627,8.79417150264046e-05,0.5277216299342723,0,24,30.0
22,0.5099511515526545,8.893227805813131e-05,0.47636424143787337,1,24,30.0
23,0.49865243442001794,8.99727765499847e-05,0.5502949353111418,0,24,30.0
24,0.48974516633011045,8.179242580635695e-05,0.4967341926325912,0,24,30.0
25,0.4795615179907708,9.07281461141316e-05,0.4866997856149065,0,24,30.0
26,0.4679864854330108,8.897537775607946e-05,0.5095236643485213,0,24,30.0
27,0.46745976770208,8.77880228515659e-05,0.5044888799429422,0,24,30.0
28,0.46244573451223825,8.8033017510454e-05,0.5254645243830044,0,24,30.0
29,0.4474783575250989,8.38351243579555e-05,0.49496803197421524,0,24,30.0
1,0.9118842837356386,0.00045871875963279134,0.5797880966238812,1,25,30.0
2,0.8098879960321245,0.00023233303658170846,0.6090363301561632,0,25,30.0
3,0.7597482112191972,0.00019357956790329246,0.5291800029141083,1,25,30.0
4,0.7377761928808122,0.00015420396405152999,0.558304910688573,0,25,30.0
5,0.7167588273684183,0.00014716879637230055,0.5225461637470085,1,25,30.0
6,0.6949117659103303,0.00015607994369236708,0.5023454195806678,1,25,30.0
7,0.6750521879820597,0.0001354649492506204,0.4863033597648024,1,25,30.0
8,0.6505593735547293,0.00013429166860337967,0.521209065808017,0,25,30.0
9,0.6394198082742237,0.00012812353409009076,0.45732291641699474,1,25,30.0
10,0.6198043709709531,0.00011964039627595671,0.4693863999165999,0,25,30.0
11,0.6087173393794468,0.00012658402608524608,0.4614949043337968,0,25,30.0
12,0.5976966427905219,0.00010690228979607734,0.4891861633395765,0,25,30.0
13,0.565035822490851,0.0001070942331959183,0.4579164782610218,0,25,30.0
14,0.5609835492713111,9.547780380325137e-05,0.41304241249738805,1,25,30.0
15,0.5459625408762977,8.97994005277897e-05,0.38426989681973783,1,25,30.0
16,0.5354719467106319,9.459341397035002e-05,0.3811632734114375,1,25,30.0
17,0.5207790828176907,8.154734868661589e-05,0.4168005612429599,0,25,30.0
18,0.5122370691526503,8.861953518221743e-05,0.38567167605972386,0,25,30.0
19,0.4959045095103128,8.3235587875866e-05,0.418676989531553,0,25,30.0
20,0.4825634023263341,8.556237510977856e-05,0.39498584381711316,0,25,30.0
21,0.47530061787083033,7.997163919797112e-05,0.3979634814736409,0,25,30.0
22,0.47152190442596165,8.231865121204118e-05,0.3961579524565271,0,25,30.0
23,0.4574847906118348,8.239462385972729e-05,0.3795900463503251,1,25,30.0
24,0.4544235450171289,7.502203780383016e-05,0.3769976922069157,1,25,30.0
25,0.4405558655659358,7.047943983620609e-05,0.36916663413736184,1,25,30.0
26,0.4313679067861466,7.302133469368397e-05,0.3648972528381367,1,25,30.0
27,0.4305482418054626,7.026937722306077e-05,0.3718415667383484,0,25,30.0
28,0.4286733865737915,7.360572436439161e-05,0.3666798118876679,0,25,30.0
29,0.40863819633211407,6.96962644204697e-05,0.3532286725218747,1,25,30.0
30,0.4076599567419007,6.745547302887731e-05,0.35776187461506676,0,25,30.0
31,0.3948991983419373,6.864192545479108e-05,0.3669049247679576,0,25,30.0
32,0.39852824807167053,6.607324251360427e-05,0.35440114899060615,0,25,30.0
33,0.39111652225255966,6.0862546671982965e-05,0.3594463655361587,0,25,30.0
34,0.3808977600364458,5.7649512070513864e-05,0.3566238370459804,0,25,30.0
35,0.37862091937235426,6.428325230531517e-05,0.3605824528145838,0,25,30.0
36,0.37414882828791934,6.061245598435302e-05,0.34883591615158305,1,25,30.0
37,0.3658465806927,6.22299344935787e-05,0.34548814293799146,1,25,30.0
38,0.37060327118351344,6.380296768579033e-05,0.3467321733773594,0,25,30.0
39,0.36187407480818884,5.9769288738953906e-05,0.34918766943231916,0,25,30.0
40,0.37813364607947214,6.117687795873887e-05,0.35159178995255613,0,25,30.0
1,0.9146091753528232,0.00048591459458943324,0.569214472630957,1,26,30.0
2,0.8153036052272433,0.00023046303578580374,0.5009809772492289,1,26,30.0
3,0.7676625968444915,0.00019997038994222835,0.4860197463599442,1,26,30.0
4,0.7510786439691272,0.00016858890176947518,0.46831520358254375,1,26,30.0
5,0.7309935788313547,0.00017234028183295215,0.44817158188363193,1,26,30.0
6,0.6940929463931492,0.00016145585669576014,0.4311023426054015,1,26,30.0
7,0.6757125911258516,0.00014472446431076,0.4083605217462195,1,26,30.0
8,0.6556179197061629,0.00014533510208517933,0.3654919425496569,1,26,30.0
9,0.6486638521864301,0.00012647579604249803,0.3718780370582998,0,26,30.0
10,0.6066652486721674,0.00012416998877251033,0.3758061840751574,0,26,30.0
11,0.6032292697401274,0.0001060816903191153,0.4145445939186568,0,26,30.0
12,0.5957029117714792,0.00012207040596140794,0.3546293333660352,1,26,30.0
13,0.5719724950336275,0.0001170466530311387,0.3351210032425243,1,26,30.0
14,0.5696469506337529,0.00011329077270125882,0.3537384833676653,0,26,30.0
15,0.5471501804533458,0.00010581178823832445,0.34469261970773357,0,26,30.0
16,0.5323818130862146,9.934179269337273e-05,0.3677143034374926,0,26,30.0
17,0.5389026091212318,9.582715514018976e-05,0.34788744220039136,0,26,30.0
18,0.5123173700911658,0.00010159564659434615,0.2969642872963541,1,26,30.0
19,0.5051158503407523,9.68475400700949e-05,0.31135202072054297,0,26,30.0
20,0.4912900984996841,9.537390490420097e-05,0.2961058690277753,1,26,30.0
21,0.4792824366262981,9.589715972695212e-05,0.3199782471507409,0,26,30.0
22,0.48307742923498154,9.817312201491968e-05,0.30825554894252644,0,26,30.0
23,0.4608735889196396,8.807594856209886e-05,0.3048300416688074,0,26,30.0
24,0.456522914980139,8.381171742907359e-05,0.2947463107003039,1,26,30.0
25,0.44360535875672386,8.714104695259483e-05,0.2979861310291491,0,26,30.0
26,0.43889314255544115,8.107029004479825e-05,0.28891238887738696,1,26,30.0
27,0.4415915232329142,7.86146948441802e-05,0.2836744192840941,1,26,30.0
28,0.4256449845575151,8.071837103107966e-05,0.29491191276549117,0,26,30.0
29,0.4284199696211588,7.759354360002493e-05,0.28871905091828093,0,26,30.0
30,0.4164666263830094,7.753839582576239e-05,0.2844984633433887,0,26,30.0
31,0.4006541091061774,7.662800808681087e-05,0.2837818752484351,0,26,30.0
32,0.4023489100592477,7.666888034561583e-05,0.2736352499555489,1,26,30.0
33,0.3993225150874683,7.775963067182428e-05,0.2764161107569384,0,26,30.0
34,0.39571612966912134,7.129080750885242e-05,0.27545734562531227,0,26,30.0
35,0.3898628967858496,7.52909309951411e-05,0.2775070891029224,0,26,30.0
36,0.3842492174534571,7.030295416500718e-05,0.2773128844130183,0,26,30.0
37,0.3800846678870065,6.990935054047787e-05,0.27747669863257807,0,26,30.0
38,0.36973313632465543,7.060316394407502e-05,0.2756174063443749,0,26,30.0
39,0.37318949153025943,7.315982241250043e-05,0.2794412414059327,0,26,30.0
1,0.9318793054137912,0.00048298361885134087,0.6516647244754591,1,27,30.0
2,0.8165549224331266,0.00021674500186193092,0.7004436202618757,0,27,30.0
3,0.7768241159972691,0.00019250081156011825,0.6369900977321965,1,27,30.0
4,0.7358777636573428,0.0001686249393276826,0.5713561620065558,1,27,30.0
5,0.7158675981419427,0.0001528178181615658,0.5398021079750679,1,27,30.0
6,0.6949815125692458,0.00013769937530534144,0.5143815645201486,1,27,30.0
7,0.6614520180793035,0.00013799234043939838,0.5329994590658891,0,27,30.0
8,0.655450300801368,0.00012972555660304525,0.4950790834209697,1,27,30.0
9,0.6252917753798621,0.0001307672890626626,0.49685674314556816,0,27,30.0
10,0.6088391091851961,0.00011857872128270433,0.4701333160282147,1,27,30.0
11,0.5925510138982818,0.00010784419269579562,0.49808346597771896,0,27,30.0
12,0.5913521164939517,0.00010414801605899508,0.4513646513826934,1,27,30.0
13,0.5657690664132436,0.00010477392173751945,0.4722641719738964,0,27,30.0
14,0.552059031313374,0.00010929485177344067,0.45332290253296553,0,27,30.0
15,0.5344620797605741,0.00010470431845446693,0.45000235096887053,1,27,30.0
16,0.5221672228404454,9.576528082973146e-05,0.4575825123048504,0,27,30.0
17,0.5083146726801282,8.424817614078555e-05,0.41154341064845984,1,27,30.0
18,0.5093263220928964,8.778693180439794e-05,0.43033196004899404,0,27,30.0
19,0.49386529482546304,8.010813230828804e-05,0.4115340736834144,1,27,30.0
20,0.4781131311541512,9.348605263290839e-05,0.39406922369109476,1,27,30.0
21,0.4695112868433907,8.505587963251553e-05,0.4088201381054967,0,27,30.0
22,0.45968110859394073,8.781475840112849e-05,0.4057665026561934,0,27,30.0
23,0.45964564560424714,8.5575442469798e-05,0.40535230077953954,0,27,30.0
24,0.43929807664383025,8.279782447234971e-05,0.41994233486744076,0,27,30.0
25,0.4419857668025153,8.17607415661942e-05,0.40876911076818884,0,27,30.0
26,0.43100149042549585,7.648925483885077e-05,0.3855112124732149,1,27,30.0
27,0.4246991826664834,8.41031436114766e-05,0.39467657217190333,0,27,30.0
28,0.4125581749138378,7.618727163173302e-05,0.40348000393102046,0,27,30.0
29,0.41194070875644684,7.476132685994907e-05,0.39596686159309585,0,27,30.0
30,0.39708199848731357,7.916506772397995e-05,0.4042871717800978,0,27,30.0
31,0.3977516818614233,6.960375746227025e-05,0.38826363738852476,0,27,30.0
32,0.38702654980477835,7.608032077162837e-05,0.3797881124835265,1,27,30.0
33,0.38362875758182435,7.561733898563987e-05,0.37839563255790276,1,27,30.0
34,0.37654047317448114,7.374282436753024e-05,0.39615109629235284,0,27,30.0
35,0.38191485901673633,6.801443543649622e-05,0.39452094379586244,0,27,30.0
36,0.36609551239581334,7.150057033522033e-05,0.3949220557263506,0,27,30.0
37,0.37002750929622424,7.260109092991722e-05,0.3908018260470286,0,27,30.0
38,0.3744972674619584,7.212754341405041e-05,0.3928624031394117,0,27,30.0
39,0.3615938685834408,7.525618491941021e-05,0.3888479781446428,0,27,30.0
40,0.36537665341581615,7.320953218801325e-05,0.39506468415139656,0,27,30.0
1,0.9155364845480237,0.0004519407789519478,0.5138859761302925,1,28,30.0
2,0.8085074382168906,0.00025075840866996995,0.4775190846538187,1,28,30.0
3,0.7728462566932043,0.00020754705664807087,0.48543874831295175,0,28,30.0
4,0.7417207786015102,0.00018739304617892706,0.4651468613401016,1,28,30.0
5,0.705818384885788,0.00016974820244372712,0.45069105207071253,1,28,30.0
6,0.6837643058527083,0.00016477664809956747,0.4405319397788447,1,28,30.0
7,0.6458689588166419,0.000152941459202252,0.41216181671269814,1,28,30.0
8,0.6242728304295313,0.00014441627267626158,0.42387263868170433,0,28,30.0
9,0.618076160904907,0.00013604411062607098,0.4517054067227307,0,28,30.0
10,0.6061349280533337,0.0001250983392916775,0.42821433349289295,0,28,30.0
11,0.5981858127883503,0.0001171825442725094,0.38539375719775504,1,28,30.0
12,0.5710856421362787,0.00011147329938207154,0.36828045995787756,1,28,30.0
13,0.5654392288554282,9.922020914624834e-05,0.3865756017126497,0,28,30.0
14,0.5514966221082778,9.866329686961503e-05,0.36062746154310305,1,28,30.0
15,0.5474742250073523,9.391905660734101e-05,0.3970179256971637,0,28,30.0
16,0.5258568358563241,9.387154070628596e-05,0.3494991463540028,1,28,30.0
17,0.5156950606476693,9.219200286939408e-05,0.3635744372791436,0,28,30.0
18,0.4995607041886875,9.648290004060116e-05,0.3268731700316262,1,28,30.0
19,0.49811458126420066,9.341452529215963e-05,0.319565099424177,1,28,30.0
20,0.482133839456808,8.811036232578946e-05,0.32303405141054636,0,28,30.0
21,0.469017088058449,8.391339807054638e-05,0.32088134907214805,0,28,30.0
22,0.46104662936358226,7.964087113318133e-05,0.30193257761002845,1,28,30.0
23,0.4571077795255752,8.252859624051434e-05,0.3189082587753305,0,28,30.0
24,0.45397766892399105,7.561905312329708e-05,0.29670870526474136,1,28,30.0
25,0.4321688779053234,7.532847753498659e-05,0.30061828803247226,0,28,30.0
26,0.4241979249886104,7.703947782526181e-05,0.30876697411532744,0,28,30.0
27,0.41722530623277027,7.894498256583964e-05,0.3281113345148107,0,28,30.0
28,0.4089106974147615,7.573024110267094e-05,0.3164030184875792,0,28,30.0
29,0.41443833247536704,7.558357693986701e-05,0.3189611048560168,0,28,30.0
30,0.39743744156190325,7.882694163050647e-05,0.3377223188822292,0,28,30.0
31,0.3987472933672723,7.318697451063643e-05,0.3150064124560086,0,28,30.0
1,0.9298148800929388,0.0005154845187332414,0.5502221115603851,1,29,30.0
2,0.8237897909822918,0.00023553594621175545,0.5791650309354297,0,29,30.0
3,0.7686505218346914,0.0002169021766652198,0.5348854333392146,1,29,30.0
4,0.7434175262848536,0.00017836846148254284,0.4909310033051704,1,29,30.0
5,0.7203969281344187,0.00016128244767190023,0.5193857848797482,0,29,30.0
6,0.7086375809851146,0.00016043175388144197,0.4629730294786566,1,29,30.0
7,0.6722628495522908,0.00014060313922181238,0.4408795070832064,1,29,30.0
8,0.6460143590257281,0.00012050506094445674,0.4379735388608702,1,29,30.0
9,0.6440306469088509,0.00013667774804898292,0.40077077761713825,1,29,30.0
10,0.6251967049070767,0.00010987158882579977,0.44367894971585214,0,29,30.0
11,0.6041957249953633,0.00011499466269188339,0.3881046614487557,1,29,30.0
12,0.5894124043129739,0.00011103210159663355,0.3876201601751666,1,29,30.0
13,0.5768922464478583,0.00010758331310561127,0.3778434610611982,1,29,30.0
14,0.5611695899140268,0.00010011986965504807,0.38605208156347887,0,29,30.0
15,0.5393178186246327,9.819482935805961e-05,0.4122055192379841,0,29,30.0
16,0.5333243622666314,9.216538048695795e-05,0.37115086547666465,1,29,30.0
17,0.5144622134310859,9.909119381475085e-05,0.35805248972076376,1,29,30.0
18,0.494647150238355,9.321266614798722e-05,0.37439942167626555,0,29,30.0
19,0.49725297022433507,9.174743484306549e-05,0.3645290216933792,0,29,30.0
20,0.4888928993826821,8.325660772762993e-05,0.36891072033150335,0,29,30.0
21,0.4662777114482153,8.393302782462255e-05,0.37215896403575005,0,29,30.0
22,0.4552924977171989,9.429126670771179e-05,0.35103476786061855,1,29,30.0
23,0.44866670739083064,8.423990983005969e-05,0.3328577142295004,1,29,30.0
24,0.4468936664717538,8.460790654464203e-05,0.34736447103685464,0,29,30.0
25,0.43861403848443714,7.795166571408377e-05,0.32661157590564543,1,29,30.0
26,0.42231074117478873,7.891166392038853e-05,0.3207110148775547,1,29,30.0
27,0.4211814282905488,7.545836247334678e-05,0.33851054562854277,0,29,30.0
28,0.4162684373912357,7.633785653957776e-05,0.3277781532632048,0,29,30.0
29,0.4001405013813859,7.833385925117735e-05,0.34885680112403583,0,29,30.0
30,0.39660494384311495,7.695426765643614e-05,0.32925304758211643,0,29,30.0
31,0.3795910452802976,8.171795473442347e-05,0.33541032333300475,0,29,30.0
32,0.38501304388046265,6.99301773195094e-05,0.3431507907137466,0,29,30.0
33,0.38319322502329234,7.175977628191634e-05,0.34157560037156914,0,29,30.0
1,0.9125080452245824,0.0005336258673410424,0.6926640897525631,1,30,30.0
2,0.7938738254939809,0.0002623844799339114,0.701914137235499,0,30,30.0
3,0.7512635567609002,0.00021244307675207143,0.6990233691401154,0,30,30.0
4,0.7225801376735463,0.00022024255697889364,0.6855151034099233,1,30,30.0
5,0.6919178135254804,0.00018194268366856063,0.656607344301949,1,30,30.0
6,0.6756927889936111,0.00017932010609108734,0.6820814986217998,0,30,30.0
7,0.6523222362293917,0.00016164486895671443,0.5862584391576057,1,30,30.0
8,0.6260668740553015,0.00015504038516048562,0.5817589597551837,1,30,30.0
9,0.6187594971236061,0.00014716568197507192,0.6301022014943838,0,30,30.0
10,0.6066536412519568,0.00015143936171251184,0.5856877542961862,0,30,30.0
11,0.5929951331194709,0.00013107060718432287,0.5878997914563391,0,30,30.0
12,0.5719754359301399,0.00013015744009274333,0.6151242667894161,0,30,30.0
13,0.5596624321797314,0.00011984781141269624,0.5951962786589129,0,30,30.0
14,0.5358589901643641,0.00011353885775486774,0.5484127258956508,1,30,30.0
15,0.52287159001126,0.00011160166451351388,0.6118475728628131,0,30,30.0
16,0.5141938952838674,0.0001000336162499426,0.5380027291156662,1,30,30.0
17,0.5033181965351105,0.00011046765019487152,0.5448158886098369,0,30,30.0
18,0.49526042272062865,9.535911736105952e-05,0.5332919888433997,1,30,30.0
19,0.4831612302976496,9.72352438753553e-05,0.5881176836402919,0,30,30.0
20,0.4654115957372329,9.151195353136727e-05,0.5416349810784461,0,30,30.0
21,0.4524364972815794,9.648738808156101e-05,0.5316215525268444,1,30,30.0
22,0.4435306016136618,8.3039185461958e-05,0.546209670316349,0,30,30.0
23,0.4379202744540046,9.219375206157566e-05,0.5346608239386845,0,30,30.0
24,0.43609933677841634,8.611251614638604e-05,0.5652285232604143,0,30,30.0
25,0.43113879806855143,7.93336530263974e-05,0.5549551258583332,0,30,30.0
26,0.42028867847779217,7.752828849548036e-05,0.5523518282626545,0,30,30.0
27,0.40835142416112563,7.407707299160606e-05,0.5390733996901668,0,30,30.0
28,0.4042897869558895,7.349324386108064e-05,0.5732808071085307,0,30,30.0
1,0.9155618267900804,0.00045834719391731434,0.6373119048899756,1,31,30.0
2,0.8095329621258904,0.00021001835394760264,0.538983436457214,1,31,30.0
3,0.7716268574490267,0.00019340465223649517,0.4916670233858978,1,31,30.0
4,0.746158595646129,0.00016140492730568547,0.5141279270835951,0,31,30.0
5,0.7162374973297119,0.0001425398637794013,0.4723774705373329,1,31,30.0
6,0.6994514654664432,0.0001348157341400271,0.4782692684229485,0,31,30.0
7,0.6802445180275861,0.00012861572767553084,0.47212646467864794,1,31,30.0
8,0.6598358568023233,0.00013047023248338304,0.44678953266734744,1,31,30.0
9,0.6423906403429368,0.00012341451511019841,0.4489946201879884,0,31,30.0
10,0.626938052037183,0.0001139883284956929,0.4338908899648517,1,31,30.0
11,0.618291084205403,0.00011129244581645574,0.43857508677206325,0,31,30.0
12,0.6035952729337356,9.469589007066508e-05,0.4230005698197785,1,31,30.0
13,0.5903597056865693,0.00010033771922120222,0.41110349828014714,1,31,30.0
14,0.5762398653170642,0.00010072467454900855,0.3934456915922568,1,31,30.0
15,0.5624464175280403,9.041947239037493e-05,0.3891233995091813,1,31,30.0
16,0.5513839087065528,8.779552607687519e-05,0.40174600702562047,0,31,30.0
17,0.5344493722214418,9.664939660818645e-05,0.3374705309512799,1,31,30.0
18,0.5213709943434771,9.804591973079368e-05,0.3503539344201724,0,31,30.0
19,0.515355930258246,9.243248590364066e-05,0.3945184042422655,0,31,30.0
20,0.5026002017890706,8.429572532323244e-05,0.3547553715867846,0,31,30.0
21,0.4913803780780119,8.422791686504805e-05,0.34713794660564945,0,31,30.0
22,0.48699953520999234,7.557411727783106e-05,0.34723972568267353,0,31,30.0
23,0.47222435509457306,8.12234240156078e-05,0.3302357839392146,1,31,30.0
24,0.4715579260798062,8.150115365210427e-05,0.3276423367243944,1,31,30.0
25,0.45962947361609513,8.709685691214605e-05,0.33964551052963887,0,31,30.0
26,0.4509591716177323,7.811809165800428e-05,0.32887012355936984,0,31,30.0
27,0.4383343987605151,8.134669316110804e-05,0.3044229511956555,1,31,30.0
28,0.4340929939466364,8.226629523800084e-05,0.328833586749567,0,31,30.0
29,0.4212229791809531,7.908128553775468e-05,0.3075706985859096,0,31,30.0
30,0.41554235640694115,7.473339933580171e-05,0.3068408398145439,0,31,30.0
31,0.4101490294232088,7.91877270624836e-05,0.3195339228728469,0,31,30.0
32,0.40832459085127887,7.54160104192766e-05,0.2966240290794146,1,31,30.0
33,0.4059638054931865,7.368779680451981e-05,0.31578306179288934,0,31,30.0
34,0.39268687402500824,7.460164479733281e-05,0.3028560151685275,0,31,30.0
35,0.39748686341678396,8.036921272458345e-05,0.30567482579885286,0,31,30.0
36,0.39260528192800637,8.127642846803236e-05,0.303258830145952,0,31,30.0
37,0.37990523436490226,7.514454452629092e-05,0.30675631865665615,0,31,30.0
38,0.38429388333769404,7.84031929095577e-05,0.30151433883262124,0,31,30.0
39,0.38472678766531104,7.901127434760222e-05,0.30380214758174123,0,31,30.0
1,0.9187295056251158,0.0004873101989435683,0.6021577883847872,1,32,30.0
2,0.8087833631469543,0.00022951913750323704,0.5739415038203695,1,32,30.0
3,0.7649289017700287,0.0002239409468420052,0.622178407391252,0,32,30.0
4,0.7391190090811396,0.0001882192833385576,0.5149712335293563,1,32,30.0
5,0.7072281593299774,0.00016811386319522532,0.4802826881649261,1,32,30.0
6,0.6790128817041237,0.00015728890822908604,0.52599831741986,0,32,30.0
7,0.6505953963980617,0.00013380476514842496,0.457842130762333,1,32,30.0
8,0.629955578999347,0.0001344976075174545,0.5135390198907168,0,32,30.0
9,0.6062423712517842,0.00012969879648460256,0.49538680173789224,0,32,30.0
10,0.6010970896985157,0.00013780775543089104,0.49837621543397254,0,32,30.0
11,0.5798892342900656,0.00011588083050656973,0.47861703450933935,0,32,30.0
12,0.5619471579431051,0.00011098864053499447,0.48649823935905867,0,32,30.0
13,0.5473043545182928,0.00010513914694675772,0.5060117473190779,0,32,30.0
14,0.5307545866592821,0.00010618950493306943,0.4550225292381115,1,32,30.0
15,0.5229060843766454,9.703802140163123e-05,0.5071912431861261,0,32,30.0
16,0.49976043097944145,0.0001063314112217491,0.49074580292557946,0,32,30.0
17,0.49729920762131014,9.721905222381409e-05,0.4765592547167174,0,32,30.0
18,0.4882257947002549,0.00010517976388436214,0.4681977740960357,0,32,30.0
19,0.48503764817513617,9.219821253917685e-05,0.44846901621630614,1,32,30.0
20,0.46555926605879544,9.690302236360521e-05,0.4748219424064456,0,32,30.0
21,0.440770447613245,9.434115378668599e-05,0.5033924083764058,0,32,30.0
22,0.4541484232408455,9.579439929767838e-05,0.44834362944731343,1,32,30.0
23,0.4337957149528595,8.83618673272515e-05,0.4609307758651624,0,32,30.0
24,0.4275669581200703,8.697852023164686e-05,0.4409588633948921,1,32,30.0
25,0.4205507445766265,8.631628040884936e-05,0.4543583461517735,0,32,30.0
26,0.4041119268141597,8.014350563585085e-05,0.4207526742492193,1,32,30.0
27,0.41127770708267947,8.104575699032564e-05,0.4569769496980839,0,32,30.0
28,0.4011225003794015,7.959306269886915e-05,0.4571002510545204,0,32,30.0
29,0.40394757346934584,8.299346067009954e-05,0.4691534297255992,0,32,30.0
30,0.38947714667722405,7.529271051570975e-05,0.4530930079215499,0,32,30.0
31,0.3867733255926385,7.851162484597347e-05,0.44776985813056075,0,32,30.0
32,0.3833691578313529,7.660082885567716e-05,0.4671159376552132,0,32,30.0
33,0.3712780707212816,7.51647592069166e-05,0.4612102063597381,0,32,30.0
1,0.9169790822835195,0.00045853555318552976,0.7380128906655009,1,33,30.0
2,0.80624401143619,0.00021801782531838398,0.7329987846750127,1,33,30.0
3,0.7676922998258046,0.00019152881967394414,0.7347152231901461,0,33,30.0
4,0.733709454536438,0.00018076734964519607,0.6335098145243957,1,33,30.0
5,0.7091154832215536,0.000140991767433921,0.7196862455656539,0,33,30.0
6,0.6928055506376993,0.0001450311227104283,0.6187311659664056,1,33,30.0
7,0.674621391154471,0.00013277775975612237,0.6899331426097479,0,33,30.0
8,0.6738388325486865,0.00012290996848952047,0.6427470013525188,0,33,30.0
9,0.6417189772639956,0.00011857327704741952,0.6339757875100671,0,33,30.0
10,0.6207505056545848,0.00011412855080076649,0.601312770146859,1,33,30.0
11,0.6027662690196719,0.00011083665023241858,0.59641985057777,1,33,30.0
12,0.602419664817197,0.0001058694974095228,0.6260437461335269,0,33,30.0
13,0.5774091542476699,0.00010077086287873542,0.63205165449153,0,33,30.0
14,0.5751913817865508,9.776018062742271e-05,0.5417762263746306,1,33,30.0
15,0.5583730510302952,9.747575534545052e-05,0.5345526482523777,1,33,30.0
16,0.5429867956609953,9.190755866127023e-05,0.5645265039440829,0,33,30.0
17,0.537137763486022,9.197399590664732e-05,0.5296467367930997,1,33,30.0
18,0.5262248927638644,8.74536700350637e-05,0.5717628771448917,0,33,30.0
19,0.5035665730635325,8.558433771776479e-05,0.5224765629917124,1,33,30.0
20,0.5015468448400497,8.555949149186268e-05,0.47358943295662537,1,33,30.0
21,0.47751617360682713,8.136070482578361e-05,0.535916491313239,0,33,30.0
22,0.4778468906879425,9.060529273916646e-05,0.45107238350624534,1,33,30.0
23,0.4728184427533831,7.98722518690435e-05,0.5020824561672012,0,33,30.0
24,0.4540435285085723,8.109948001739602e-05,0.5041627759105111,0,33,30.0
25,0.4545267784879321,7.851516069682216e-05,0.5823346797470397,0,33,30.0
26,0.4384646408614658,7.703420271268225e-05,0.46552461764274944,0,33,30.0
27,0.43214627426295055,7.602946035539e-05,0.477725899289148,0,33,30.0
28,0.4210682912241845,7.70639166408468e-05,0.5159049524971717,0,33,30.0
29,0.41179879364513217,7.332523654483902e-05,0.4562992579825713,0,33,30.0
1,0.9241254719949904,0.00045560692610923157,0.6087947177840259,1,34,30.0
2,0.8270593533913294,0.00021313107269331036,0.5134680849097735,1,34,30.0
3,0.7935619545834405,0.00017718112299224318,0.5018715123471738,1,34,30.0
4,0.7667062843129748,0.00016976136941507103,0.49358567370723905,1,34,30.0
5,0.7358522954441252,0.00016514155859546182,0.405660089926318,1,34,30.0
6,0.7145841348738897,0.00013871015947924682,0.4268512568207609,0,34,30.0
7,0.6944376982393718,0.00013178983014464998,0.42761092187141697,0,34,30.0
8,0.6779389693623498,0.00012861712881810186,0.3929742296517304,1,34,30.0
9,0.6587186902761459,0.0001266827615230189,0.35325901767824586,1,34,30.0
10,0.6456534415483475,0.00010804264690835095,0.3505678659525721,1,34,30.0
11,0.6247716900848207,0.00010420770784202475,0.36188624195032093,0,34,30.0
12,0.6104494074270839,0.00010242795663846967,0.379922510506941,0,34,30.0
13,0.5876766535497847,9.734479902233164e-05,0.32676826644393303,1,34,30.0
14,0.5760332771709987,9.671472755490824e-05,0.36221660180318366,0,34,30.0
15,0.5625308407914071,9.930229766940188e-05,0.3431037486066547,0,34,30.0
16,0.5437945265855108,9.604262028179142e-05,0.3240881513048923,1,34,30.0
17,0.5435136670158023,9.588928506196854e-05,0.3172935262015938,1,34,30.0
18,0.5239169367012524,9.172782176305883e-05,0.303749411896849,1,34,30.0
19,0.5225997432356789,9.341261271142034e-05,0.3077571065868383,0,34,30.0
20,0.5013180673122406,9.124388132130705e-05,0.28656207859866417,1,34,30.0
21,0.49393354249852045,9.257598313048394e-05,0.290397187273486,0,34,30.0
22,0.4823329725435802,7.89119704634123e-05,0.3064034335847933,0,34,30.0
23,0.4725554677702132,8.467168455743896e-05,0.2784306067064857,1,34,30.0
24,0.4612710110488392,7.99340014921091e-05,0.2667095707282497,1,34,30.0
25,0.4535643908949125,8.167200554626539e-05,0.27584124368913726,0,34,30.0
26,0.449781412879626,7.744283209917957e-05,0.25978747299205546,1,34,30.0
27,0.43884932604574023,7.305509842851843e-05,0.27009743043421297,0,34,30.0
28,0.43423030951193403,7.918647809544512e-05,0.2726832298994298,0,34,30.0
29,0.4241563156247139,7.489746093640514e-05,0.2701426637117239,0,34,30.0
30,0.4163414513071378,6.886712994206132e-05,0.2670278894796194,0,34,30.0
31,0.4126436983545621,6.972391998888703e-05,0.2645214182360282,0,34,30.0
32,0.40431559050366994,6.891188942453092e-05,0.2641960065903089,0,34,30.0
33,0.39794617359127316,6.713032516494249e-05,0.2537261993860521,1,34,30.0
34,0.3979185386782601,6.752159441973726e-05,0.25622092489514364,0,34,30.0
35,0.40334188334998633,6.613552691955451e-05,0.2505309835120116,1,34,30.0
36,0.39522180670783635,6.81979655339438e-05,0.2559572792120358,0,34,30.0
37,0.38751087621563957,6.70630798551775e-05,0.2541930149003761,0,34,30.0
38,0.39580066714968,6.349039233013865e-05,0.25501503199192965,0,34,30.0
39,0.3937688856607392,6.727064395644924e-05,0.2571053066519869,0,34,30.0
40,0.38286627048537847,6.696212615982707e-05,0.2541475598495107,0,34,30.0
1,0.9052762949750537,0.00045972457172908997,0.6771003857624432,1,35,30.0
2,0.78207823350316,0.0002958677899490188,0.7704191949249299,0,35,30.0
3,0.7417122608139401,0.00020208316527714487,0.7079405208880251,0,35,30.0
4,0.7084965429135731,0.00019021553054612706,0.6247840883933808,1,35,30.0
5,0.6922548640341986,0.0001707009602493296,0.6500040558744068,0,35,30.0
6,0.6665098049810955,0.00015604963655711063,0.6045378852358534,1,35,30.0
7,0.6449314185551235,0.0001428103727708471,0.5745301579302253,1,35,30.0
8,0.6443304341463816,0.00013286208888443763,0.5643595363175081,1,35,30.0
9,0.6126475774106526,0.00012527711606664872,0.5723115339382621,0,35,30.0
10,0.597516768390224,0.00013352433381355478,0.6409451419656927,0,35,30.0
11,0.5788274822490556,0.00012705859834178618,0.6018538502745392,0,35,30.0
12,0.5686911099723407,0.00011477943640091412,0.5647720136672012,0,35,30.0
13,0.559525745610396,0.0001149673077764289,0.5649364294776739,0,35,30.0
14,0.5456828052798907,0.00011812802785286858,0.5299262095335101,1,35,30.0
15,0.5244105380205881,0.00010942381405108054,0.49528727160135577,1,35,30.0
16,0.5217834785580635,0.00010705677864496552,0.5213838062934146,0,35,30.0
17,0.5061548150011471,0.00011512155747151978,0.4482201641071434,1,35,30.0
18,0.4921229559750784,0.00011006943081849299,0.4774083082587266,0,35,30.0
19,0.492043066237654,0.00010212698400989342,0.46963740154054046,0,35,30.0
20,0.4770368376658076,0.00010061955115469616,0.47739772461662605,0,35,30.0
21,0.46323466549317044,0.00010567921569981125,0.47307478390203034,0,35,30.0
22,0.46453735551663805,0.0001080233167678151,0.4677838377408252,0,35,30.0
23,0.45447972594272523,9.223177178119797e-05,0.4623112644969432,0,35,30.0
24,0.4426709147436278,9.787423723970452e-05,0.47639221223917877,0,35,30.0
1,0.9231902907876407,0.00043809764679548715,0.5574001570378045,1,36,30.0
2,0.817161604236154,0.00022747103023849536,0.6368616418560642,0,36,30.0
3,0.7750479971661287,0.0001962265111026628,0.5281759691284493,1,36,30.0
4,0.7490475296974182,0.0001792906834024881,0.5442688737874267,0,36,30.0
5,0.7192286217913908,0.00013939632892074502,0.48105982821707366,1,36,30.0
6,0.700057321436265,0.0001317047158783466,0.44816833415172336,1,36,30.0
7,0.6693502608467551,0.00013672391411519665,0.47508509189211445,0,36,30.0
8,0.6552464344922234,0.00011573778585229507,0.4525875787285934,0,36,30.0
9,0.6282222106176264,0.00011100789732368225,0.4181248227458934,1,36,30.0
10,0.6064347565174103,0.00010382341553100987,0.4365060557831193,0,36,30.0
11,0.6065341718056623,0.00010316107496584985,0.40574691351425973,1,36,30.0
12,0.5888104813940385,0.00010182481346419082,0.39112051652301516,1,36,30.0
13,0.5785028093001422,0.00010129754407577874,0.437212137705514,0,36,30.0
14,0.5505853965001948,9.347075709443101e-05,0.3980750077437775,0,36,30.0
15,0.5440402595435871,9.143667116672185e-05,0.40704400527546397,0,36,30.0
16,0.5277176373145159,8.545841941240188e-05,0.42251682338283986,0,36,30.0
17,0.5119346509961521,8.993401433519252e-05,0.39095395915385145,1,36,30.0
18,0.5139511525630951,8.471553540884462e-05,0.4095575470303475,0,36,30.0
19,0.49240814868141625,7.730826970039155e-05,0.4195498078279619,0,36,30.0
20,0.4765904700054842,8.359057298067081e-05,0.401009951320777,0,36,30.0
21,0.470355135903639,8.007863849771264e-05,0.4124750038086792,0,36,30.0
22,0.45779630191185894,7.81144319797236e-05,0.3747737023529839,1,36,30.0
23,0.45142420670565436,7.7629742993261e-05,0.37658590969707517,0,36,30.0
24,0.4438059456208173,7.725652437383199e-05,0.3653638029264765,1,36,30.0
25,0.43526913067873785,6.840643888127114e-05,0.3895183119596746,0,36,30.0
26,0.41475044103229747,7.759841884013868e-05,0.3473393006964765,1,36,30.0
27,0.4174301754025852,7.414727999061784e-05,0.34107700324427254,1,36,30.0
28,0.4093960050274344,7.20211236672613e-05,0.3845345405905459,0,36,30.0
29,0.40528189855463365,6.75734420570627e-05,0.36151180780747094,0,36,30.0
30,0.39746602037373713,6.403826140312423e-05,0.3577690902450275,0,36,30.0
31,0.3927497264216928,6.763668596463771e-05,0.3640185695751633,0,36,30.0
32,0.38254684087108165,6.783989117727341e-05,0.360200466075282,0,36,30.0
33,0.372498284367954,7.047597896684344e-05,0.36814134235673107,0,36,30.0
34,0.3667211648295907,6.484481671256671e-05,0.36986450959605033,0,36,30.0
1,0.9203388445517596,0.00047586255309665026,0.5809112853712315,1,37,30.0
2,0.8123341251822079,0.00022865631009849225,0.5591631330327654,1,37,30.0
3,0.7842409673859091,0.00018074782702195294,0.5330680507366361,1,37,30.0
4,0.7470865593237035,0.00015330112861085902,0.5003211159883153,1,37,30.0
5,0.7189120166441973,0.0001612652068348218,0.45415631524705447,1,37,30.0
6,0.7007303770850687,0.0001622282194576281,0.45696769389807257,0,37,30.0
7,0.6851740507518544,0.0001371432316612781,0.43437952881359243,1,37,30.0
8,0.6512152601690854,0.0001281366010730648,0.40282302847915047,1,37,30.0
9,0.6452955757870393,0.00012777359747012857,0.387985588375858,1,37,30.0
10,0.6204196172602037,0.00012020704067681971,0.3558421895015154,1,37,30.0
11,0.6095486907398,0.00011331561280017281,0.3767454553269164,0,37,30.0
12,0.5994736229672152,0.00010062615928130553,0.3706699647736819,0,37,30.0
13,0.5904769536326914,0.00010081697118413798,0.3708507138297712,0,37,30.0
14,0.5822617127614863,0.00010387541675727869,0.32111790872735085,1,37,30.0
15,0.5615437483086305,9.218095716171186e-05,0.35262649186637024,0,37,30.0
16,0.5582813213853275,8.782484655966982e-05,0.32281184452992673,0,37,30.0
17,0.5382844900383669,8.574556139886708e-05,0.32269999773106617,0,37,30.0
18,0.5345791357405045,9.048137662295417e-05,0.3125982737821457,1,37,30.0
19,0.5120748810908373,8.244863724137437e-05,0.3266194393936801,0,37,30.0
20,0.5144767543848823,8.676101197659805e-05,0.29200014468179086,1,37,30.0
21,0.5011687878300162,8.631909590536346e-05,0.28845219816419104,1,37,30.0
22,0.482471066012102,8.019057666602106e-05,0.2910808137056149,0,37,30.0
23,0.4713838812182931,8.58819656594492e-05,0.30686225790342836,0,37,30.0
24,0.47954023375230675,7.977532933342873e-05,0.29892960507403543,0,37,30.0
25,0.4577114375198589,7.777789086343119e-05,0.27920810853773376,1,37,30.0
26,0.4563572999309091,7.759476438342758e-05,0.26513400034479345,1,37,30.0
27,0.45124849116100985,7.83466783211813e-05,0.28346060298360265,0,37,30.0
28,0.4390602756949032,7.918809312875109e-05,0.2638185158800736,1,37,30.0
29,0.41897136148284464,7.403887528412537e-05,0.2581334454021804,1,37,30.0
30,0.4271595492082484,8.31051153534859e-05,0.2574528774087684,1,37,30.0
31,0.4152011387488421,7.187594254740842e-05,0.24935389129025717,1,37,30.0
32,0.4111788700608646,7.559015721199102e-05,0.25967047516666236,0,37,30.0
33,0.4014925651690539,7.324116193237441e-05,0.2540210800480867,0,37,30.0
34,0.40511839880662803,7.80208215206478e-05,0.2487397281393669,1,37,30.0
35,0.40343833250157973,7.146639374481953e-05,0.2515425612271322,0,37,30.0
36,0.39822041322203244,7.261125673026339e-05,0.2441325126194758,1,37,30.0
37,0.39676265365937174,7.113559275988819e-05,0.24287296180352033,1,37,30.0
38,0.40011535988134495,7.21778032825301e-05,0.248981092722449,0,37,30.0
39,0.3977430441800286,7.33814123497509e-05,0.2475103077508379,0,37,30.0
40,0.39373409257215614,6.852233140414362e-05,0.24952658443861972,0,37,30.0
1,0.9035881488096147,0.0005566149160412827,0.6547813003337635,1,38,30.0
2,0.8019050913197654,0.0002671042389660475,0.6669322112460195,0,38,30.0
3,0.7514013229381471,0.00021545445443258533,0.6065464794267843,1,38,30.0
4,0.7298147742237363,0.00019075496770494196,0.5899377157106812,1,38,30.0
5,0.7069465645721981,0.0001550489231747287,0.5636318946828517,1,38,30.0
6,0.6921460862670626,0.00014724039725219233,0.6663622711276754,0,38,30.0
7,0.6673682828744253,0.00013501534167084,0.565000718018963,0,38,30.0
8,0.6448478478760946,0.00013181128356553104,0.5892299394346674,0,38,30.0
9,0.6265287686671529,0.0001369969932056847,0.5666258190466572,0,38,30.0
10,0.6103934744993845,0.00013121680283456087,0.560156576579364,1,38,30.0
11,0.6019648256756011,0.0001159478914425043,0.6439253509719185,0,38,30.0
12,0.5890687044177737,0.00011141652101373655,0.5558362107938577,1,38,30.0
13,0.5833663855280194,0.0001139754300917654,0.5119977552677982,1,38,30.0
14,0.5695316177748498,0.00010744037951683692,0.523821052035109,0,38,30.0
15,0.5445239345232645,9.999668574372273e-05,0.5345026084729833,0,38,30.0
16,0.5362812678019205,0.00010301071125424988,0.498652046225754,1,38,30.0
17,0.5110764304796854,0.0001038808735583665,0.5178451284874863,0,38,30.0
18,0.525607274046966,9.58507686542968e-05,0.5315263006688282,0,38,30.0
19,0.49877408359731945,8.193072608264629e-05,0.5187517077477409,0,38,30.0
20,0.48426523201522376,8.635038388352509e-05,0.5003346329176389,0,38,30.0
21,0.48374569699877784,8.437568158115027e-05,0.4835697349611353,1,38,30.0
22,0.4674435183405876,8.061136490834455e-05,0.5143107781544034,0,38,30.0
23,0.46261625914346605,7.734581967746461e-05,0.5476040635564567,0,38,30.0
24,0.4530284358631997,7.643161543888883e-05,0.5669958428917099,0,38,30.0
25,0.44010191233385176,7.860196819819976e-05,0.5523042736470851,0,38,30.0
26,0.43046666859161287,7.907953485777224e-05,0.5918621552273491,0,38,30.0
27,0.427096603172166,7.454959632013924e-05,0.5488461857776358,0,38,30.0
28,0.4127039884527524,6.845095603715717e-05,0.4971523900918529,0,38,30.0
1,0.9107091651243322,0.00054709341185277,0.6079046286103456,1,39,30.0
2,0.8126396473716287,0.00023445015711545507,0.6343073425244312,0,39,30.0
3,0.7752554052016314,0.0002187575348002343,0.5480289635135677,1,39,30.0
4,0.7506314782535328,0.00018248478411217494,0.5270523990998368,1,39,30.0
5,0.7246449554667753,0.000179030531709192,0.5450560148837963,0,39,30.0
6,0.7265169248861425,0.0001583189977442517,0.48306393175290363,1,39,30.0
7,0.6912317710764267,0.00014198072757982814,0.5104184277412938,0,39,30.0
8,0.6730364014120663,0.00014358882300952888,0.4629523102208881,1,39,30.0
9,0.6530515754924101,0.0001464460390921244,0.43462845314814436,1,39,30.0
10,0.6425370020024916,0.00014426161908298073,0.4334605611207123,1,39,30.0
11,0.6223014978801503,0.00013443051421371124,0.4680369635621812,0,39,30.0
12,0.6137022796799155,0.0001291304687209263,0.40559825994096066,1,39,30.0
13,0.5938480215914109,0.00011913365314659827,0.4623384254185047,0,39,30.0
14,0.5864139721674078,0.00011836016244213918,0.4361995385400408,0,39,30.0
15,0.5706216307247386,0.00010832000963787055,0.49001196184383916,0,39,30.0
16,0.5570858324275297,0.00011293950314318542,0.4217977655092301,0,39,30.0
17,0.5465032051591312,0.00010532867385978428,0.4253933633646313,0,39,30.0
18,0.5445278185255388,0.00010855147128869944,0.38858189128226733,1,39,30.0
19,0.5270043765797334,0.00010328578372376369,0.4301296247689218,0,39,30.0
20,0.5189354907063877,9.776771595865926e-05,0.3556330615031073,1,39,30.0
21,0.5068555099122665,9.449668907430297e-05,0.3334602167723237,1,39,30.0
22,0.4949453413486481,9.071274360073457e-05,0.3372178877741612,0,39,30.0
23,0.48124206627116484,9.180492959464626e-05,0.35922339397563785,0,39,30.0
24,0.48224528642261727,9.055840029545566e-05,0.38338634025985796,0,39,30.0
25,0.46897089761846206,8.534962000660872e-05,0.3448735168339473,0,39,30.0
26,0.4665872072472292,8.403248447233208e-05,0.33576152833776485,0,39,30.0
27,0.462223658842199,9.205189399996443e-05,0.3501367526720807,0,39,30.0
28,0.4509304404258728,8.538100895855357e-05,0.34055720231913694,0,39,30.0
1,0.9078833496286756,0.00046845712521254815,0.6825326380950091,1,40,30.0
2,0.8142171580167044,0.00022423199135075613,0.6423335002026622,1,40,30.0
3,0.7561104375691641,0.000222639572408904,0.6237189876274472,1,40,30.0
4,0.736770321215902,0.00018306296633021529,0.6769139552696284,0,40,30.0
5,0.7060180114848273,0.00016903346286632032,0.5430340771703095,1,40,30.0
6,0.6898935458489827,0.00016353291019705857,0.5458315661644053,0,40,30.0
7,0.662208269749369,0.0001426323761690929,0.5322757111339391,1,40,30.0
8,0.6372455933264324,0.0001438759611898734,0.5707961450342633,0,40,30.0
9,0.6224751348296801,0.00013643290999642064,0.5085463200281992,1,40,30.0
10,0.6031041716535886,0.0001344524615498293,0.5526722182329502,0,40,30.0
11,0.594763542569819,0.00011921589915194393,0.5012367258582261,1,40,30.0
12,0.5774617415098917,0.00012216792925928965,0.5373555375461441,0,40,30.0
13,0.5632801013333457,0.0001116321436711587,0.4879008802771929,1,40,30.0
14,0.5480285968099322,0.00010709829326688556,0.4935859523962422,0,40,30.0
15,0.5407967269420624,0.00010876920160150067,0.5086107607119486,0,40,30.0
16,0.5240308482732091,9.408089153155397e-05,0.4546441853691942,1,40,30.0
17,0.5072292795493489,8.995172430288567e-05,0.47261036913355114,0,40,30.0
18,0.5064567111077762,9.652926469460086e-05,0.47650344059230093,0,40,30.0
19,0.489282967434043,9.177061136662295e-05,0.47224276660718856,0,40,30.0
20,0.4778972530648822,9.282173812694272e-05,0.4221425978385727,1,40,30.0
21,0.47833182095062166,8.995345277591176e-05,0.4638879296666467,0,40,30.0
22,0.4612948585833822,9.048216257464706e-05,0.46360634667988204,0,40,30.0
23,0.46270153884376797,8.841853862880573e-05,0.4673506082031093,0,40,30.0
24,0.4402483935867037,8.040070904479806e-05,0.4559929359908011,0,40,30.0
25,0.4376632691848846,8.54444239978745e-05,0.4464088472315008,0,40,30.0
26,0.4321239810614359,8.36974826424488e-05,0.42341194071312005,0,40,30.0
27,0.4300798752478191,8.000731776562697e-05,0.43416517333890287,0,40,30.0
