epoch,train_ce,train_coral,val_loss,best,subject,coral_lambda
1,0.9344839355524849,0.0,0.5885093718489792,1,1,0.0
2,0.8206892097697539,0.0,0.5049730743654265,1,1,0.0
3,0.7730696334558375,0.0,0.5103085996446344,0,1,0.0
4,0.7475320402313681,0.0,0.5230437734134441,0,1,0.0
5,0.7332498171750237,0.0,0.5033249588145835,1,1,0.0
6,0.7042135000228882,0.0,0.5408323884873257,0,1,0.0
7,0.6832464631866006,0.0,0.4596200435583199,1,1,0.0
8,0.6686907361535465,0.0,0.45114986695572656,1,1,0.0
9,0.6379371653584873,0.0,0.4247810823964234,1,1,0.0
10,0.6344474739888135,0.0,0.41317563971664445,1,1,0.0
11,0.6176231335191166,0.0,0.4871335945553469,0,1,0.0
12,0.6012593711123747,0.0,0.4382673526623873,0,1,0.0
13,0.5889587535577662,0.0,0.40161691148377254,1,1,0.0
14,0.5772504403310663,0.0,0.3802063579766432,1,1,0.0
15,0.5638906945200527,0.0,0.4543279113542701,0,1,0.0
16,0.5493048404946047,0.0,0.4332887750377083,0,1,0.0
17,0.5355635488734526,0.0,0.3685321601371607,1,1,0.0
18,0.5274312650456148,0.0,0.364081439828922,1,1,0.0
19,0.5227848754209631,0.0,0.3754845567918243,0,1,0.0
20,0.5084171558127684,0.0,0.3345107100249076,1,1,0.0
21,0.5008497862254873,0.0,0.3544907572350803,0,1,0.0
22,0.4819932313526378,0.0,0.39285177269790633,0,1,0.0
23,0.46882523754063776,0.0,0.3572041163646694,0,1,0.0
24,0.4707265135119943,0.0,0.3550591629071714,0,1,0.0
25,0.45035941285245557,0.0,0.35947944804825727,0,1,0.0
26,0.45288087480208455,0.0,0.35132013567970855,0,1,0.0
27,0.4425346826805788,0.0,0.31065150414282433,1,1,0.0
28,0.4352810281164506,0.0,0.3393115912253016,0,1,0.0
29,0.42360895100761864,0.0,0.3382481813677341,0,1,0.0
30,0.4241015274735058,0.0,0.31853118387841634,0,1,0.0
31,0.4201221960432389,0.0,0.3376886179553193,0,1,0.0
32,0.41667559813050664,0.0,0.3229704776618942,0,1,0.0
33,0.41110217395950766,0.0,0.36066018635139346,0,1,0.0
34,0.4032403602319605,0.0,0.3353779153222259,0,1,0.0
1,0.914208558026482,0.0,0.563775588576981,1,2,0.0
2,0.8154995841138503,0.0,0.578501206811019,0,2,0.0
3,0.7703198664328631,0.0,0.551600263219343,1,2,0.0
4,0.7535647616666906,0.0,0.5369156376404145,1,2,0.0
5,0.7134831687983345,0.0,0.534234101522164,1,2,0.0
6,0.6994786395746119,0.0,0.5088562434532051,1,2,0.0
7,0.6774592266363256,0.0,0.4952430018512344,1,2,0.0
8,0.6541625780217788,0.0,0.4272388845937549,1,2,0.0
9,0.6287980868535883,0.0,0.4982650112670442,0,2,0.0
10,0.6167160286622889,0.0,0.40041827365001254,1,2,0.0
11,0.6030084518825307,0.0,0.4889321835713028,0,2,0.0
12,0.581682291802238,0.0,0.38597827804713003,1,2,0.0
13,0.5754130023367264,0.0,0.40870164321050767,0,2,0.0
14,0.5659535390489242,0.0,0.38269023453336937,1,2,0.0
15,0.5435042272595798,0.0,0.40555320280451823,0,2,0.0
16,0.5312638710526859,0.0,0.3786407213693356,1,2,0.0
17,0.5116476988091189,0.0,0.3654080454625111,1,2,0.0
18,0.5070074347888722,0.0,0.33509562160971296,1,2,0.0
19,0.5007966746302212,0.0,0.3477405937487175,0,2,0.0
20,0.48073433076634126,0.0,0.3222939186458123,1,2,0.0
21,0.47004117369651793,0.0,0.3805703054546517,0,2,0.0
22,0.4693060303435606,0.0,0.356746749110457,0,2,0.0
23,0.45830159082132227,0.0,0.31786476903570965,1,2,0.0
24,0.44332315991906557,0.0,0.35475842741237756,0,2,0.0
25,0.43912777339710907,0.0,0.33968555941857564,0,2,0.0
26,0.42633855973972995,0.0,0.31494480669527036,1,2,0.0
27,0.4310291574281805,0.0,0.32093776372564164,0,2,0.0
28,0.43053427093169266,0.0,0.3202173299587125,0,2,0.0
29,0.4165006721720976,0.0,0.3152592445188363,0,2,0.0
30,0.4068516303511227,0.0,0.3088200536517707,1,2,0.0
31,0.3981305371312534,0.0,0.32165144710644533,0,2,0.0
32,0.3961336013148813,0.0,0.31964710040575944,0,2,0.0
33,0.3874681087101207,0.0,0.3122283106593067,0,2,0.0
34,0.38426070178256316,0.0,0.3179760922692825,0,2,0.0
35,0.3755195652737337,0.0,0.30912023100141417,0,2,0.0
36,0.38144168958944435,0.0,0.3086159501885188,1,2,0.0
37,0.36944240542019113,0.0,0.31049181530183007,0,2,0.0
38,0.37030822774943184,0.0,0.30393569472720705,1,2,0.0
39,0.3630932110197404,0.0,0.30702293020034344,0,2,0.0
40,0.37770272984224207,0.0,0.30531478319035965,0,2,0.0
1,0.9292745384432021,0.0,0.5747374506776194,1,3,0.0
2,0.8088396823122388,0.0,0.5223318846719491,1,3,0.0
3,0.7735306684459958,0.0,0.48061894822226386,1,3,0.0
4,0.7369851427418845,0.0,0.48750912175225386,0,3,0.0
5,0.7180683946325666,0.0,0.4773593152072263,1,3,0.0
6,0.68877969398385,0.0,0.46562261072238365,1,3,0.0
7,0.667735490060988,0.0,0.4170493789781546,1,3,0.0
8,0.6453812356506076,0.0,0.4351379302752669,0,3,0.0
9,0.6338576937005633,0.0,0.4030108288973427,1,3,0.0
10,0.6060705007541747,0.0,0.4203901455263506,0,3,0.0
11,0.5945743893583616,0.0,0.4297966393691238,0,3,0.0
12,0.5785691188204856,0.0,0.3878193375934005,1,3,0.0
13,0.5632886283454441,0.0,0.4155588845078577,0,3,0.0
14,0.5511597724897521,0.0,0.3861487159721575,1,3,0.0
15,0.537814546908651,0.0,0.3571789895299526,1,3,0.0
16,0.5227147723947253,0.0,0.4280038256187453,0,3,0.0
17,0.5087211146241143,0.0,0.3497045489808514,1,3,0.0
18,0.5060373416968754,0.0,0.37826371899415756,0,3,0.0
19,0.4960452534613155,0.0,0.3742325237433382,0,3,0.0
20,0.4741550137599309,0.0,0.3839740875397638,0,3,0.0
21,0.4740568431360381,0.0,0.3405530222174591,1,3,0.0
22,0.4626677618140266,0.0,0.3382923181274993,1,3,0.0
23,0.45568300570760456,0.0,0.3697061957264621,0,3,0.0
24,0.45255548045748756,0.0,0.3532545402046018,0,3,0.0
25,0.43798425013110753,0.0,0.3427413490351757,0,3,0.0
26,0.41701568556683405,0.0,0.3787919259054206,0,3,0.0
27,0.4096412541610854,0.0,0.33233982679806473,1,3,0.0
28,0.4140604106443269,0.0,0.33523891413850443,0,3,0.0
29,0.40379604803664343,0.0,0.34556013773966043,0,3,0.0
30,0.4053659967723347,0.0,0.331477686905678,1,3,0.0
31,0.38788515613192603,0.0,0.3419277035092805,0,3,0.0
32,0.3888488662030016,0.0,0.3508093244398829,0,3,0.0
33,0.38369890799125034,0.0,0.33068978799148063,1,3,0.0
34,0.3783764051539557,0.0,0.3337681654122795,0,3,0.0
35,0.37479325596775326,0.0,0.3292890212258408,1,3,0.0
36,0.36644748811210903,0.0,0.3251197353105417,1,3,0.0
37,0.3687866386913118,0.0,0.3276881054954555,0,3,0.0
38,0.3712132959848359,0.0,0.32648510617326343,0,3,0.0
39,0.3692380129581406,0.0,0.3315955847430321,0,3,0.0
40,0.36154183159981457,0.0,0.3307694917328634,0,3,0.0
1,0.9262440975974587,0.0,0.6625771554414045,1,4,0.0
2,0.8054988215951359,0.0,0.5500085403131977,1,4,0.0
3,0.7724144101142884,0.0,0.5008251932296124,1,4,0.0
4,0.7442435909720028,0.0,0.5100614880740424,0,4,0.0
5,0.7249520652434405,0.0,0.47674684739983064,1,4,0.0
6,0.6996346235275268,0.0,0.44163572228762693,1,4,0.0
7,0.6794795092414407,0.0,0.4594943314159122,0,4,0.0
8,0.6549173193819383,0.0,0.4617494278938779,0,4,0.0
9,0.6447925090789794,0.0,0.4355960396658931,1,4,0.0
10,0.6335474091417649,0.0,0.41476813385244565,1,4,0.0
11,0.6158645096947165,0.0,0.4152292290644955,0,4,0.0
12,0.6039531641146716,0.0,0.38921302445876166,1,4,0.0
13,0.5851525404874016,0.0,0.41660207302774016,0,4,0.0
14,0.5785441654569963,0.0,0.4011770643211983,0,4,0.0
15,0.5691124621559592,0.0,0.4002811594791652,0,4,0.0
16,0.5559346177998711,0.0,0.36465952456901984,1,4,0.0
17,0.5441061927991755,0.0,0.3720436456751162,0,4,0.0
18,0.5269178443095264,0.0,0.339724428226566,1,4,0.0
19,0.5135184126741746,0.0,0.3398030654808447,0,4,0.0
20,0.5045283212381251,0.0,0.35808985855982045,0,4,0.0
21,0.4982694846742293,0.0,0.3303104083905165,1,4,0.0
22,0.4831298687878777,0.0,0.34707590475413325,0,4,0.0
23,0.47664499843821806,0.0,0.34906430693352053,0,4,0.0
24,0.4650013282018549,0.0,0.32643372882869093,1,4,0.0
25,0.4500549376010895,0.0,0.3475737782679635,0,4,0.0
26,0.44983141352148615,0.0,0.34640388424478546,0,4,0.0
27,0.44160155689015107,0.0,0.3393275250219226,0,4,0.0
28,0.4329720984486973,0.0,0.3371056641005116,0,4,0.0
29,0.4310176351491143,0.0,0.3192958303306628,1,4,0.0
30,0.42463149603675393,0.0,0.337733550120997,0,4,0.0
31,0.422909887047375,0.0,0.33008083070505045,0,4,0.0
32,0.41645183212616865,0.0,0.32763294425506917,0,4,0.0
33,0.40724832555826973,0.0,0.3211120972629151,0,4,0.0
34,0.40240212152985966,0.0,0.32528521098715046,0,4,0.0
35,0.3903958162840675,0.0,0.32037495758554063,0,4,0.0
36,0.38544972328578725,0.0,0.32281694786008086,0,4,0.0
1,0.9224369736278758,0.0,0.5358606069222372,1,5,0.0
2,0.821230075639837,0.0,0.49554475376650786,1,5,0.0
3,0.7702116797952091,0.0,0.49747961877781066,0,5,0.0
4,0.7352111781344695,0.0,0.4786808560437101,1,5,0.0
5,0.7102005439646104,0.0,0.4393534807484434,1,5,0.0
6,0.6918909044826732,0.0,0.41462540327880476,1,5,0.0
7,0.6698379278182983,0.0,0.4671827421556684,0,5,0.0
8,0.6470033021534191,0.0,0.4203178879487987,0,5,0.0
9,0.6284792612580692,0.0,0.4119591772058563,1,5,0.0
10,0.6173364004668067,0.0,0.41378526710020475,0,5,0.0
11,0.6037483962143169,0.0,0.35926183757988545,1,5,0.0
12,0.5833921863752253,0.0,0.40318440056419574,0,5,0.0
13,0.5728895471376532,0.0,0.42470825717070904,0,5,0.0
14,0.5621533134404351,0.0,0.3456878758546953,1,5,0.0
15,0.5416719675064087,0.0,0.36434874940266937,0,5,0.0
16,0.5375141455846675,0.0,0.3471088845881639,0,5,0.0
17,0.5190602860030006,0.0,0.35184420452361814,0,5,0.0
18,0.5090806375531589,0.0,0.3658963973499788,0,5,0.0
19,0.5002752844025107,0.0,0.33352706893998546,1,5,0.0
20,0.48965964878306667,0.0,0.33115747331453016,1,5,0.0
21,0.4801024054779726,0.0,0.29767639126185336,1,5,0.0
22,0.4787659564438988,0.0,0.33135099550378594,0,5,0.0
23,0.4555658172158634,0.0,0.3064936251537038,0,5,0.0
24,0.4573954676880556,0.0,0.30492578649072904,0,5,0.0
25,0.44112018346786497,0.0,0.32528536606556685,0,5,0.0
26,0.4390943397493923,0.0,0.3104914987074806,0,5,0.0
27,0.41745848234962013,0.0,0.2944947122625369,1,5,0.0
28,0.4261380441048566,0.0,0.31240767844036876,0,5,0.0
29,0.41106251758687634,0.0,0.2960214170010951,0,5,0.0
30,0.3977365350022036,0.0,0.32157074692727133,0,5,0.0
31,0.3988819760434768,0.0,0.3080961795092127,0,5,0.0
32,0.3898511784918168,0.0,0.29750341769611166,0,5,0.0
33,0.3829722663935493,0.0,0.2946287124166907,0,5,0.0
34,0.378854455316768,0.0,0.304977062008575,0,5,0.0
1,0.9146011351119905,0.0,0.6761063931828994,1,6,0.0
2,0.8114557450725919,0.0,0.6175755084549693,1,6,0.0
3,0.7595748504002889,0.0,0.601390833902197,1,6,0.0
4,0.7275170300688062,0.0,0.6205590666426835,0,6,0.0
5,0.706876013250578,0.0,0.7013330091606547,0,6,0.0
6,0.685713604092598,0.0,0.5932194582042958,1,6,0.0
7,0.664919953970682,0.0,0.5299638556889067,1,6,0.0
8,0.6512343393904823,0.0,0.5890433172428177,0,6,0.0
9,0.6224444121831939,0.0,0.5288574579495291,1,6,0.0
10,0.6204548698096048,0.0,0.5407364387478286,0,6,0.0
11,0.5990326237820444,0.0,0.5240671865440281,1,6,0.0
12,0.5914237531168121,0.0,0.4776256780761816,1,6,0.0
13,0.5643997465570768,0.0,0.48686699741643696,0,6,0.0
14,0.5593070724890346,0.0,0.4839687327519077,0,6,0.0
15,0.5305589607783726,0.0,0.5139580105873773,0,6,0.0
16,0.5274198463275319,0.0,0.46981810882634,1,6,0.0
17,0.5134415608786401,0.0,0.4924079280919998,0,6,0.0
18,0.5045177886883417,0.0,0.4706144586714838,0,6,0.0
19,0.4936558444585119,0.0,0.4494419390312526,1,6,0.0
20,0.49279881162302835,0.0,0.4260755375258274,1,6,0.0
21,0.47326260060071945,0.0,0.4352903630717946,0,6,0.0
22,0.4614353995947611,0.0,0.39340981563983124,1,6,0.0
23,0.4608117739359538,0.0,0.4337867738830224,0,6,0.0
24,0.453686586802914,0.0,0.42644046014572046,0,6,0.0
25,0.4402784875461033,0.0,0.4356770496211661,0,6,0.0
26,0.43335076705330894,0.0,0.3918142688875805,1,6,0.0
27,0.41402018602405277,0.0,0.4126994890804817,0,6,0.0
28,0.41698196849652697,0.0,0.39999211040787835,0,6,0.0
29,0.4092220596614338,0.0,0.42457515206492125,0,6,0.0
30,0.39813075285582317,0.0,0.4075999603096723,0,6,0.0
31,0.3946892557044824,0.0,0.3939616776042208,0,6,0.0
32,0.3843804438199316,0.0,0.37673551442163794,1,6,0.0
33,0.38118827662297655,0.0,0.3949219953389523,0,6,0.0
34,0.3716157488524914,0.0,0.3912132488876443,0,6,0.0
35,0.37569940977153327,0.0,0.4024835816622434,0,6,0.0
36,0.3689443591449942,0.0,0.39891069630479165,0,6,0.0
37,0.3772719090893155,0.0,0.3926784714587194,0,6,0.0
38,0.3717089717586835,0.0,0.3926983821320877,0,6,0.0
39,0.36952787158744677,0.0,0.38510493553726377,0,6,0.0
1,0.929556430095718,0.0,0.4780062605311724,1,7,0.0
2,0.8144251519725436,0.0,0.5061076369553739,0,7,0.0
3,0.7783556906949907,0.0,0.49442391619323606,0,7,0.0
4,0.7380292791695822,0.0,0.43735892559143585,1,7,0.0
5,0.7255000188237145,0.0,0.43010509080219084,1,7,0.0
6,0.7045137868041084,0.0,0.444544386908255,0,7,0.0
7,0.6835224898088545,0.0,0.4325837586855544,0,7,0.0
8,0.6677365047591073,0.0,0.4146231133084588,1,7,0.0
9,0.6592086241358802,0.0,0.41944740279957643,0,7,0.0
10,0.6362373992091134,0.0,0.41676078804332056,0,7,0.0
11,0.6280964563290278,0.0,0.4008006055735981,1,7,0.0
12,0.6114365146273658,0.0,0.3985649064690773,1,7,0.0
13,0.5926149647150721,0.0,0.3514046045027069,1,7,0.0
14,0.5856629727142197,0.0,0.34497846411602723,1,7,0.0
15,0.5668140848477682,0.0,0.39891701184178474,0,7,0.0
16,0.5522411880748612,0.0,0.37423579098692833,0,7,0.0
17,0.5420200320936385,0.0,0.3533118120728974,0,7,0.0
18,0.5354726392598379,0.0,0.375797725286489,0,7,0.0
19,0.5198109387641862,0.0,0.3476484319858328,0,7,0.0
20,0.5136112198233604,0.0,0.3346427186275633,1,7,0.0
21,0.48811055223147076,0.0,0.3510306633970545,0,7,0.0
22,0.4818158990570477,0.0,0.33613541554335546,0,7,0.0
23,0.4748276273409526,0.0,0.3271890839407094,1,7,0.0
24,0.4697350270691372,0.0,0.3426782028971861,0,7,0.0
25,0.45612785610414686,0.0,0.32089739109927373,1,7,0.0
26,0.4511811694218999,0.0,0.32520639468089413,0,7,0.0
27,0.4399473216562044,0.0,0.33895926669338583,0,7,0.0
28,0.4335331838755381,0.0,0.30924889890039353,1,7,0.0
29,0.4219638215644019,0.0,0.2947909022496337,1,7,0.0
30,0.4201059866519201,0.0,0.31708447773012277,0,7,0.0
31,0.4086893686936015,0.0,0.29515560135278185,0,7,0.0
32,0.4047592275199436,0.0,0.30146785254054603,0,7,0.0
33,0.40140924744662787,0.0,0.2971750367556066,0,7,0.0
34,0.39531267434358597,0.0,0.3117847055474265,0,7,0.0
35,0.3988471911067054,0.0,0.3067513205178577,0,7,0.0
36,0.3931669021646182,0.0,0.3068707356011713,0,7,0.0
1,0.9245913553805578,0.0,0.532800678245136,1,8,0.0
2,0.8232732599689847,0.0,0.4945582804913082,1,8,0.0
3,0.7846063857986814,0.0,0.49819759090571664,0,8,0.0
4,0.7573924830981663,0.0,0.4890961327359208,1,8,0.0
5,0.7271705142089299,0.0,0.4465178690801206,1,8,0.0
6,0.7092549453179041,0.0,0.435776655271239,1,8,0.0
7,0.6895499137185869,0.0,0.4129813268483534,1,8,0.0
8,0.660271962483724,0.0,0.41391565249516415,0,8,0.0
9,0.6481267526036217,0.0,0.4336292525684392,0,8,0.0
10,0.631839737650894,0.0,0.4405559110194303,0,8,0.0
11,0.6135514087620235,0.0,0.41874281975731664,0,8,0.0
12,0.5931333431175777,0.0,0.4069556849889266,1,8,0.0
13,0.5879566992322603,0.0,0.40319780551130613,1,8,0.0
14,0.5727836447102683,0.0,0.4507042018012104,0,8,0.0
15,0.5623248670072782,0.0,0.3788467893148759,1,8,0.0
16,0.5424213654228619,0.0,0.4015908516653356,0,8,0.0
17,0.5256691191877637,0.0,0.3825002535965368,0,8,0.0
18,0.5152603604254269,0.0,0.37659245742182446,1,8,0.0
19,0.49783090005318326,0.0,0.37602525595699393,1,8,0.0
20,0.502052305000169,0.0,0.35063642186996263,1,8,0.0
21,0.487097934952804,0.0,0.35648452392217667,0,8,0.0
22,0.4783127513669786,0.0,0.32974142762359165,1,8,0.0
23,0.46163872203656603,0.0,0.33722845457161704,0,8,0.0
24,0.45086121399487766,0.0,0.3303772957548004,0,8,0.0
25,0.4348392841361818,0.0,0.3158870133706647,1,8,0.0
26,0.4300189305629049,0.0,0.3210232997877419,0,8,0.0
27,0.4308516024833634,0.0,0.3091742403288739,1,8,0.0
28,0.424821080551261,0.0,0.32621066660000275,0,8,0.0
29,0.4201044138698351,0.0,0.31596150913639287,0,8,0.0
30,0.4071645864418575,0.0,0.32403770362266676,0,8,0.0
31,0.4075627245363735,0.0,0.32866156992749274,0,8,0.0
32,0.40271143473329996,0.0,0.33367545908389495,0,8,0.0
33,0.3907234108164197,0.0,0.30966492952444613,0,8,0.0
34,0.3823575168138459,0.0,0.31699480066838315,0,8,0.0
1,0.9313547263542811,0.0,0.5868652168278451,1,9,0.0
2,0.8234899696849641,0.0,0.5687656457975988,1,9,0.0
3,0.7774980132068906,0.0,0.46850811445657214,1,9,0.0
4,0.7478897202582586,0.0,0.4807976900590944,0,9,0.0
5,0.7190793575275511,0.0,0.4550470373872645,1,9,0.0
6,0.6984458445083528,0.0,0.44867419637693745,1,9,0.0
7,0.6760066357396898,0.0,0.44420725739307815,1,9,0.0
8,0.6575843954370135,0.0,0.4168109305024823,1,9,0.0
9,0.6428672635839099,0.0,0.40952070719257844,1,9,0.0
10,0.6247643725503058,0.0,0.4353521217963717,0,9,0.0
11,0.600118008752664,0.0,0.404621506489525,1,9,0.0
12,0.5861569898469108,0.0,0.43089299865520614,0,9,0.0
13,0.5777490735054016,0.0,0.41338580198510694,0,9,0.0
14,0.5658271344644683,0.0,0.4403727775265614,0,9,0.0
15,0.5639241994136855,0.0,0.3919581276958495,1,9,0.0
16,0.536809830438523,0.0,0.3642961535954493,1,9,0.0
17,0.5262763755662101,0.0,0.39515185617470583,0,9,0.0
18,0.5237964679087911,0.0,0.37162822803414924,0,9,0.0
19,0.5122721578393664,0.0,0.367946474506463,0,9,0.0
20,0.4916077337804295,0.0,0.3953934628548574,0,9,0.0
21,0.4864198753521556,0.0,0.3469214346833731,1,9,0.0
22,0.47265669738962535,0.0,0.38501208091358086,0,9,0.0
23,0.4602794423699379,0.0,0.33959517851637183,1,9,0.0
24,0.45515082882983343,0.0,0.359307848732475,0,9,0.0
25,0.4396121186159906,0.0,0.3667617950065987,0,9,0.0
26,0.4350699427581969,0.0,0.35959173957313373,0,9,0.0
27,0.4332632635320936,0.0,0.34061767481724736,0,9,0.0
28,0.4217952812711398,0.0,0.3352699417539174,1,9,0.0
29,0.40364021488598417,0.0,0.3466727266486184,0,9,0.0
30,0.39995934814214706,0.0,0.35340253291626356,0,9,0.0
31,0.40237139342796235,0.0,0.3557922442190924,0,9,0.0
32,0.39415182102294194,0.0,0.3447968504086985,0,9,0.0
33,0.3938389612095697,0.0,0.3506926846696674,0,9,0.0
34,0.38323203332367395,0.0,0.35282497919521105,0,9,0.0
35,0.38272558330070405,0.0,0.34936964088563766,0,9,0.0
1,0.9178736960186678,0.0,0.800396974719055,1,10,0.0
2,0.8022112825337578,0.0,0.7225987503632674,1,10,0.0
3,0.76744384765625,0.0,0.6228808555493535,1,10,0.0
4,0.7399690719211802,0.0,0.5731499685487331,1,10,0.0
5,0.7181900613448199,0.0,0.542541211068164,1,10,0.0
6,0.6962242610314313,0.0,0.49191718960452074,1,10,0.0
7,0.6822229224092821,0.0,0.6414266241760889,0,10,0.0
8,0.6695668560617111,0.0,0.5178964361003213,0,10,0.0
9,0.6355822479023653,0.0,0.48520224737701406,1,10,0.0
10,0.624805644680472,0.0,0.502555346401719,0,10,0.0
11,0.6101333344683928,0.0,0.45522322961245104,1,10,0.0
12,0.5999535104807685,0.0,0.539917535092865,0,10,0.0
13,0.5879067256170161,0.0,0.4080551688061379,1,10,0.0
14,0.5746385809253244,0.0,0.5149366311539071,0,10,0.0
15,0.5633770269506118,0.0,0.4672968043782872,0,10,0.0
16,0.5484976922764497,0.0,0.5912026888548712,0,10,0.0
17,0.5388043463230133,0.0,0.448263910129279,0,10,0.0
18,0.5244372571215911,0.0,0.4495580034208755,0,10,0.0
19,0.5221332381753361,0.0,0.4343905791512439,0,10,0.0
20,0.5043579343487234,0.0,0.3721482348352212,1,10,0.0
21,0.4943662401507882,0.0,0.4074015202484376,0,10,0.0
22,0.4903397987870609,0.0,0.40398024836070545,0,10,0.0
23,0.48944409875308764,0.0,0.36994642283416834,1,10,0.0
24,0.4737230497248032,0.0,0.4036952096826947,0,10,0.0
25,0.46601560711860657,0.0,0.36921928651534996,1,10,0.0
26,0.4575247512144201,0.0,0.4035149108625078,0,10,0.0
27,0.45562308220302355,0.0,0.3969807278439158,0,10,0.0
28,0.43934432583696703,0.0,0.37015066832988336,0,10,0.0
29,0.4277795062345617,0.0,0.3395355291572479,1,10,0.0
30,0.4274389025043039,0.0,0.36112933869584324,0,10,0.0
31,0.4251106462057899,0.0,0.3616652270323575,0,10,0.0
32,0.41024397190879375,0.0,0.36523951653982395,0,10,0.0
33,0.40882681257584513,0.0,0.37640128802642536,0,10,0.0
34,0.4017700363607968,0.0,0.34834137601425874,0,10,0.0
35,0.40219483375549314,0.0,0.3554323980269365,0,10,0.0
36,0.3881494213553036,0.0,0.35428364892635206,0,10,0.0
1,0.9234151754034571,0.0,0.7087991141473912,1,11,0.0
2,0.8106443199766687,0.0,0.648748015533629,1,11,0.0
3,0.7800787558038551,0.0,0.6124407255228731,1,11,0.0
4,0.7497148441981121,0.0,0.6228223545558451,0,11,0.0
5,0.7181353964001299,0.0,0.5975961000531788,1,11,0.0
6,0.703433764986245,0.0,0.5473435133434299,1,11,0.0
7,0.6754971850349243,0.0,0.6055738514088985,0,11,0.0
8,0.648332552019372,0.0,0.6066287352751216,0,11,0.0
9,0.6407644034150135,0.0,0.5115614347641211,1,11,0.0
10,0.6133506017995168,0.0,0.6014590309748025,0,11,0.0
11,0.5979569809264448,0.0,0.5279558851445084,0,11,0.0
12,0.5930820725050318,0.0,0.523536036957449,0,11,0.0
13,0.5791542461837631,0.0,0.5141462143261311,0,11,0.0
14,0.5553759465734642,0.0,0.5343593249486843,0,11,0.0
15,0.5467253514083035,0.0,0.4770833125546829,1,11,0.0
16,0.5384702388062534,0.0,0.5341106318779734,0,11,0.0
17,0.524549952831613,0.0,0.5259455682999481,0,11,0.0
18,0.4984121925859566,0.0,0.5241983627817105,0,11,0.0
19,0.49295344589704493,0.0,0.42888047389366357,1,11,0.0
20,0.4820013559726347,0.0,0.4531441033299089,0,11,0.0
21,0.4754647152969636,0.0,0.46853465928314025,0,11,0.0
22,0.4611884053931179,0.0,0.5193738045439943,0,11,0.0
23,0.46231502222727583,0.0,0.45766304993944396,0,11,0.0
24,0.4514340000698365,0.0,0.42082746580318753,1,11,0.0
25,0.437931873712195,0.0,0.45843338387204746,0,11,0.0
26,0.43691875094390775,0.0,0.4494926619416951,0,11,0.0
27,0.4283977736191577,0.0,0.4498658706694085,0,11,0.0
28,0.4186760977090123,0.0,0.42772545260826345,0,11,0.0
29,0.41170311871781406,0.0,0.439604143097646,0,11,0.0
30,0.4055921449718705,0.0,0.4367480238063246,0,11,0.0
31,0.40007649236414805,0.0,0.4690811384914518,0,11,0.0
1,0.9196299882822259,0.0,0.5465500068572549,1,12,0.0
2,0.81618819888248,0.0,0.4926928753503562,1,12,0.0
3,0.7724148076634074,0.0,0.4830008065194516,1,12,0.0
4,0.7432717750238818,0.0,0.5081667116419089,0,12,0.0
5,0.7343230871267097,0.0,0.45175158050909325,1,12,0.0
6,0.7028088320133298,0.0,0.45882068539516796,0,12,0.0
7,0.6884053058402483,0.0,0.47701569547817163,0,12,0.0
8,0.6654860377311707,0.0,0.48049285073478143,0,12,0.0
9,0.6576790643292804,0.0,0.46991019621244995,0,12,0.0
10,0.6326882908510607,0.0,0.40677386278116123,1,12,0.0
11,0.6226761635652808,0.0,0.48826949575211537,0,12,0.0
12,0.6029547338568887,0.0,0.47198087692901475,0,12,0.0
13,0.5981785024321357,0.0,0.4391556039468982,0,12,0.0
14,0.5756600523410842,0.0,0.4491840662904979,0,12,0.0
15,0.5683513914429864,0.0,0.4029896849645209,1,12,0.0
16,0.5556249396745548,0.0,0.4502796546249037,0,12,0.0
17,0.5381911130145539,0.0,0.4190628572912371,0,12,0.0
18,0.5400472186332526,0.0,0.3876877447801756,1,12,0.0
19,0.5233011526423831,0.0,0.3903801019355868,0,12,0.0
20,0.5175996602967728,0.0,0.41679727038432246,0,12,0.0
21,0.5016911799131438,0.0,0.4083619870290637,0,12,0.0
22,0.48801149878391,0.0,0.3904790352360482,0,12,0.0
23,0.4784110146899556,0.0,0.38936833784707064,0,12,0.0
24,0.46533299705316855,0.0,0.3620561716858351,1,12,0.0
25,0.45565657733484755,0.0,0.34978534970453057,1,12,0.0
26,0.45586534502894377,0.0,0.367528119388364,0,12,0.0
27,0.4375177649564521,0.0,0.3580844049334789,0,12,0.0
28,0.435602385637372,0.0,0.3408203485843858,1,12,0.0
29,0.4335701562637507,0.0,0.3399086501141302,1,12,0.0
30,0.42837683059448417,0.0,0.34242743442642126,0,12,0.0
31,0.4096274154130803,0.0,0.3446294357722919,0,12,0.0
32,0.40717437412849694,0.0,0.3330530587320915,1,12,0.0
33,0.40447174740392106,0.0,0.3448468811898323,0,12,0.0
34,0.39593701237855955,0.0,0.34052189692132,0,12,0.0
35,0.396496050406334,0.0,0.33172124121522956,1,12,0.0
36,0.3907484547343365,0.0,0.34313633302154783,0,12,0.0
37,0.3792434133762537,0.0,0.3403343834874221,0,12,0.0
38,0.37628566248472345,0.0,0.3337168121215494,0,12,0.0
39,0.3812034338019615,0.0,0.3311360909479291,1,12,0.0
40,0.38913859011128893,0.0,0.3366787813402622,0,12,0.0
1,0.9168248176574707,0.0,0.5841119215488434,1,13,0.0
2,0.812984233101209,0.0,0.6823282171487808,0,13,0.0
3,0.7757897426684698,0.0,0.5240908579230309,1,13,0.0
4,0.744325862753959,0.0,0.5830014781951904,0,13,0.0
5,0.7221020779439381,0.0,0.5251596472263336,0,13,0.0
6,0.704054071080117,0.0,0.4948411135673523,1,13,0.0
7,0.6822579162461417,0.0,0.5287949986457825,0,13,0.0
8,0.6698089596771059,0.0,0.46706958508491514,1,13,0.0
9,0.6564734876155853,0.0,0.45088886362314223,1,13,0.0
10,0.6363594141744432,0.0,0.4395048193633556,1,13,0.0
11,0.6334636906782786,0.0,0.40278627002239226,1,13,0.0
12,0.6153668523544357,0.0,0.39524131873250007,1,13,0.0
13,0.595199697074436,0.0,0.41448078940808775,0,13,0.0
14,0.5839368828705379,0.0,0.4168032604455948,0,13,0.0
15,0.5863627276959873,0.0,0.3903971767425537,1,13,0.0
16,0.5583772538673311,0.0,0.38943602415919304,1,13,0.0
17,0.5481139868497849,0.0,0.37966853523254396,1,13,0.0
18,0.5327450242780504,0.0,0.3894445238262415,0,13,0.0
19,0.5285993527088847,0.0,0.3656511967778206,1,13,0.0
20,0.5169310814567974,0.0,0.378599052220583,0,13,0.0
21,0.505955943394275,0.0,0.3483350194096565,1,13,0.0
22,0.4886656254529953,0.0,0.3744032870233059,0,13,0.0
23,0.49043763677279156,0.0,0.35780833980441096,0,13,0.0
24,0.46728688868738355,0.0,0.32695687682926655,1,13,0.0
25,0.47063767448777244,0.0,0.3291342417150736,0,13,0.0
26,0.4485984316893986,0.0,0.35214891089498995,0,13,0.0
27,0.43966881717954365,0.0,0.35506676813960075,0,13,0.0
28,0.4378211491164707,0.0,0.339046434789896,0,13,0.0
29,0.43473542091392336,0.0,0.3289567828327417,0,13,0.0
30,0.4212201720192319,0.0,0.33783337885141373,0,13,0.0
31,0.4158449996085394,0.0,0.3446951992437243,0,13,0.0
1,0.9235075554215765,0.0,0.5600485635031469,1,14,0.0
2,0.8178819382047079,0.0,0.4737832555169063,1,14,0.0
3,0.7786320196576866,0.0,0.46684334966456753,1,14,0.0
4,0.7488511097000305,0.0,0.4679064569739009,0,14,0.0
5,0.7291414328368313,0.0,0.42073625594204583,1,14,0.0
6,0.7126750630068491,0.0,0.4543402612901057,0,14,0.0
7,0.696292726390333,0.0,0.49144883200209194,0,14,0.0
8,0.6798281806061067,0.0,0.41620830204554005,1,14,0.0
9,0.6564971165484693,0.0,0.4358673863314683,0,14,0.0
10,0.6504519567432174,0.0,0.39392046092124927,1,14,0.0
11,0.630630141640284,0.0,0.38504853085173396,1,14,0.0
12,0.6256271536091724,0.0,0.39749865271006957,0,14,0.0
13,0.6194698645407894,0.0,0.3740590268717196,1,14,0.0
14,0.5993514793464937,0.0,0.3961393239852077,0,14,0.0
15,0.5875261077679783,0.0,0.3422381910463936,1,14,0.0
16,0.5780343521072204,0.0,0.3522778242642719,0,14,0.0
17,0.5627095311521048,0.0,0.3389037320664156,1,14,0.0
18,0.5536590186228235,0.0,0.3422264498721527,0,14,0.0
19,0.538937713008329,0.0,0.32096248393161386,1,14,0.0
20,0.5213101531367704,0.0,0.3421482725183316,0,14,0.0
21,0.5120742723166224,0.0,0.32634453971940497,0,14,0.0
22,0.5061016021722771,0.0,0.3259827673905376,0,14,0.0
23,0.4891798438796078,0.0,0.3123250294411897,1,14,0.0
24,0.47400998315179205,0.0,0.36418718616279994,0,14,0.0
25,0.47138761360961273,0.0,0.322826037249155,0,14,0.0
26,0.462702903402857,0.0,0.3302782347720347,0,14,0.0
27,0.45735071186559745,0.0,0.31399355461231904,0,14,0.0
28,0.44541804079549857,0.0,0.30336255619006963,1,14,0.0
29,0.43666483120745925,0.0,0.3006429972254979,1,14,0.0
30,0.434677162802363,0.0,0.32244208153261583,0,14,0.0
31,0.42728654878685274,0.0,0.29565062866333647,1,14,0.0
32,0.4145662353699466,0.0,0.29666520557091597,0,14,0.0
33,0.413876270314297,0.0,0.29236827004629745,1,14,0.0
34,0.41790089585694923,0.0,0.2948202067901465,0,14,0.0
35,0.4006439684385277,0.0,0.30436511013325396,0,14,0.0
36,0.40538441380822515,0.0,0.2982693858088014,0,14,0.0
37,0.39996943236833593,0.0,0.29751833046271287,0,14,0.0
38,0.3997208942849952,0.0,0.29597005708822244,0,14,0.0
39,0.3872123999767993,0.0,0.2940607859178426,0,14,0.0
40,0.3850106499999402,0.0,0.29692143813807814,0,14,0.0
1,0.929483909692083,0.0,0.6689176952141032,1,15,0.0
2,0.8089724559159506,0.0,0.6181412038327179,1,15,0.0
3,0.7636656101260867,0.0,0.5725321669610586,1,15,0.0
4,0.7326044057096753,0.0,0.6143916474079674,0,15,0.0
5,0.7213482842558906,0.0,0.5534864493615339,1,15,0.0
6,0.6977964100383577,0.0,0.5634199680899933,0,15,0.0
7,0.6807875860305059,0.0,0.5503753241501934,1,15,0.0
8,0.6550417833385014,0.0,0.48737382206658253,1,15,0.0
9,0.6483577716918218,0.0,0.5452525639431033,0,15,0.0
10,0.6337633686406272,0.0,0.5349806855198518,0,15,0.0
11,0.609357883532842,0.0,0.5131503997974799,0,15,0.0
12,0.6017183090249697,0.0,0.4903362857860704,0,15,0.0
13,0.5927525900659107,0.0,0.4780216230769533,1,15,0.0
14,0.575309079672609,0.0,0.47591323175265554,1,15,0.0
15,0.5588112338667824,0.0,0.4764902046282781,0,15,0.0
16,0.553879901057198,0.0,0.4905305672401201,0,15,0.0
17,0.5417215951851436,0.0,0.44900754740508186,1,15,0.0
18,0.5210689629117647,0.0,0.45053572375005585,0,15,0.0
19,0.5251001417636871,0.0,0.4524570173957526,0,15,0.0
20,0.4999895337082091,0.0,0.44960782478157707,0,15,0.0
21,0.48643890200626283,0.0,0.42596752964489293,1,15,0.0
22,0.47337983264809563,0.0,0.43245841948862496,0,15,0.0
23,0.4713803554574649,0.0,0.40946887078875543,1,15,0.0
24,0.46979744271153495,0.0,0.4197345191537762,0,15,0.0
25,0.4511225624453454,0.0,0.41478467233579125,0,15,0.0
26,0.4407527248064677,0.0,0.4184446521603901,0,15,0.0
27,0.44312156914245515,0.0,0.44279588332789416,0,15,0.0
28,0.42852898829040076,0.0,0.40750211863394203,1,15,0.0
29,0.4215179930130641,0.0,0.416195612236314,0,15,0.0
30,0.4121356968368803,0.0,0.4191782975322683,0,15,0.0
31,0.40927578047627494,0.0,0.39581539466147686,1,15,0.0
32,0.3993801343299094,0.0,0.4091958650700648,0,15,0.0
33,0.39283910677546546,0.0,0.4066634083206045,0,15,0.0
34,0.39603281979049954,0.0,0.41572376316316756,0,15,0.0
35,0.3913739501010804,0.0,0.40555108294262765,0,15,0.0
36,0.3841795027256012,0.0,0.40656951365852995,0,15,0.0
37,0.3856775771294321,0.0,0.4127521746275292,0,15,0.0
38,0.37671961457956404,0.0,0.40103335838743454,0,15,0.0
1,0.9088559901013094,0.0,0.7813739256494364,1,16,0.0
2,0.805903160572052,0.0,0.7536516245256817,1,16,0.0
3,0.7804041799376993,0.0,0.7372119507718744,1,16,0.0
4,0.7437466011327856,0.0,0.7414092691081344,0,16,0.0
5,0.7218185515964732,0.0,0.6403116901462498,1,16,0.0
6,0.7080765696132885,0.0,0.680969327118746,0,16,0.0
7,0.69051794795429,0.0,0.6732532908455835,0,16,0.0
8,0.675148002540364,0.0,0.6409364483791805,0,16,0.0
9,0.6602541082045611,0.0,0.6354351732128491,1,16,0.0
10,0.6356403315768523,0.0,0.6089430409948284,1,16,0.0
11,0.6204989068648394,0.0,0.6137030842830674,0,16,0.0
12,0.6058333386393154,0.0,0.577348613245472,1,16,0.0
13,0.6019486718318041,0.0,0.5822601189279253,0,16,0.0
14,0.577615835386164,0.0,0.5846530156656942,0,16,0.0
15,0.5690427404992721,0.0,0.5619224026134819,1,16,0.0
16,0.5613400273463305,0.0,0.5467622721144602,1,16,0.0
17,0.5481023837538327,0.0,0.5403369245951849,1,16,0.0
18,0.5344687321606805,0.0,0.578922713385013,0,16,0.0
19,0.5242972608874826,0.0,0.5572099663839218,0,16,0.0
20,0.5097941416151384,0.0,0.5622231349697032,0,16,0.0
21,0.4957134625490974,0.0,0.5332576977978846,1,16,0.0
22,0.4927097036558039,0.0,0.4942570311311957,1,16,0.0
23,0.4965186389053569,0.0,0.4499517862236171,1,16,0.0
24,0.47233526215833777,0.0,0.47974106685244605,0,16,0.0
25,0.4672439589219935,0.0,0.4770469612693078,0,16,0.0
26,0.461247154193766,0.0,0.5232964849016469,0,16,0.0
27,0.4569182154010324,0.0,0.43333088111472484,1,16,0.0
28,0.4467212371966418,0.0,0.42466981024056233,1,16,0.0
29,0.4398877697832444,0.0,0.4304285517670293,0,16,0.0
30,0.43038216759176817,0.0,0.4425645088124427,0,16,0.0
31,0.42202987530652214,0.0,0.4774422220363738,0,16,0.0
32,0.4221676633638494,0.0,0.443108249052315,0,16,0.0
33,0.40702097731478076,0.0,0.42126508553822833,1,16,0.0
34,0.40649963827694163,0.0,0.4169045292837605,1,16,0.0
35,0.40753598108011135,0.0,0.4237893798295606,0,16,0.0
36,0.3955382757327136,0.0,0.42114272017640925,0,16,0.0
37,0.39824315554955425,0.0,0.4218822476274142,0,16,0.0
38,0.3993951786966885,0.0,0.4152479087281379,1,16,0.0
39,0.3991068380720475,0.0,0.4020877056883652,1,16,0.0
40,0.3949626144240884,0.0,0.4133050216168102,0,16,0.0
1,0.9307650995541767,0.0,0.7398473705492192,1,17,0.0
2,0.8057085914784167,0.0,0.6911136741555419,1,17,0.0
3,0.7634372768631901,0.0,0.6242167456860164,1,17,0.0
4,0.7411664788981518,0.0,0.6028041661402934,1,17,0.0
5,0.7156991441565824,0.0,0.5714817830338604,1,17,0.0
6,0.6997342425656606,0.0,0.6070908286781544,0,17,0.0
7,0.6712798232055572,0.0,0.712938500164444,0,17,0.0
8,0.6549046851066221,0.0,0.7024647971704306,0,17,0.0
9,0.636034736791289,0.0,0.6182259339913118,0,17,0.0
10,0.6241978564894343,0.0,0.5742441765059877,0,17,0.0
11,0.6041531465857862,0.0,0.5751599638254459,0,17,0.0
12,0.5969333181898278,0.0,0.5707352777145359,1,17,0.0
13,0.5759050702474203,0.0,0.6245313960076456,0,17,0.0
14,0.5556280189249889,0.0,0.5724759788338264,0,17,0.0
15,0.5481591587325176,0.0,0.4856527313624825,1,17,0.0
16,0.5465197681662548,0.0,0.541436596159131,0,17,0.0
17,0.5387264845601047,0.0,0.5412707551939971,0,17,0.0
18,0.5239796128617712,0.0,0.5892186444209261,0,17,0.0
19,0.5021428756685142,0.0,0.5290185075327145,0,17,0.0
20,0.490820982729096,0.0,0.5416056082056903,0,17,0.0
21,0.4729637482080115,0.0,0.5039600023958515,0,17,0.0
22,0.4760399669049734,0.0,0.5252576331678634,0,17,0.0
1,0.9257663523041925,0.0,0.5877324998293237,1,18,0.0
2,0.82072275599768,0.0,0.6969180950646421,0,18,0.0
3,0.7833756776743157,0.0,0.5882606177111096,0,18,0.0
4,0.7536318517008493,0.0,0.5100614655992735,1,18,0.0
5,0.7441091523614041,0.0,0.5046638367507857,1,18,0.0
6,0.7105095019174177,0.0,0.5987485892119332,0,18,0.0
7,0.6978184158025786,0.0,0.49202064120102473,1,18,0.0
8,0.6710107756215472,0.0,0.5422942082030188,0,18,0.0
9,0.6629839913789616,0.0,0.49694421892528723,0,18,0.0
10,0.6334505205930665,0.0,0.3999500738582447,1,18,0.0
11,0.6304463477328767,0.0,0.3735340470434774,1,18,0.0
12,0.6071111414321634,0.0,0.3654490431121295,1,18,0.0
13,0.5931978596504345,0.0,0.40000105342016673,0,18,0.0
14,0.5767638011034145,0.0,0.5271445494642216,0,18,0.0
15,0.5614791612985522,0.0,0.3359383231940194,1,18,0.0
16,0.5487577152806659,0.0,0.3091725609394878,1,18,0.0
17,0.5364600402671237,0.0,0.318325223984301,0,18,0.0
18,0.5217858126690221,0.0,0.30375230394442765,1,18,0.0
19,0.5040937994801721,0.0,0.30745702282855636,0,18,0.0
20,0.49689698427222495,0.0,0.32228612222493636,0,18,0.0
21,0.4897481910018034,0.0,0.34941389647925775,0,18,0.0
22,0.4847582124693449,0.0,0.3111049823644685,0,18,0.0
23,0.4662024607492048,0.0,0.3252990266684993,0,18,0.0
24,0.4640248823304509,0.0,0.2854680656146798,1,18,0.0
25,0.44584969171257904,0.0,0.30758120613426526,0,18,0.0
26,0.4411518351976262,0.0,0.3131740859112404,0,18,0.0
27,0.4334894723670427,0.0,0.27563627982242206,1,18,0.0
28,0.4207987435335337,0.0,0.27195829460063314,1,18,0.0
29,0.42123477160930634,0.0,0.2904360639954913,0,18,0.0
30,0.4169779700595279,0.0,0.2646585702725086,1,18,0.0
31,0.402714159946109,0.0,0.28604456365022973,0,18,0.0
32,0.4004372008318125,0.0,0.28069436435548956,0,18,0.0
33,0.395727546409119,0.0,0.2801877014691724,0,18,0.0
34,0.39846100675505264,0.0,0.2625779309436957,1,18,0.0
35,0.376206531774166,0.0,0.30648008488343126,0,18,0.0
36,0.3865896082201669,0.0,0.31275780277922643,0,18,0.0
37,0.3785224187859269,0.0,0.29135580859020077,0,18,0.0
38,0.3814499000477236,0.0,0.2990661963499773,0,18,0.0
39,0.38557408923326536,0.0,0.2979141025751872,0,18,0.0
40,0.3835875177106192,0.0,0.29896352294527817,0,18,0.0
1,0.9311092488822483,0.0,0.5999900153085571,1,19,0.0
2,0.8010342894565492,0.0,0.5664375150062478,1,19,0.0
3,0.7692821550936926,0.0,0.5230569072819132,1,19,0.0
4,0.744986579531715,0.0,0.46920600304626753,1,19,0.0
5,0.7077050805091858,0.0,0.5076026053811771,0,19,0.0
6,0.6855123674585706,0.0,0.5408995529933225,0,19,0.0
7,0.6726441248541787,0.0,0.4862695768430268,0,19,0.0
8,0.6587360962515786,0.0,0.44773641259093766,1,19,0.0
9,0.6412066689559391,0.0,0.4915381897871189,0,19,0.0
10,0.6212614313477561,0.0,0.44594696126154026,1,19,0.0
11,0.6104594092993509,0.0,0.45852682251451515,0,19,0.0
12,0.5961737377302987,0.0,0.4321439501160658,1,19,0.0
13,0.5829339247374308,0.0,0.44499585333021124,0,19,0.0
14,0.5587309659236953,0.0,0.40422343992563653,1,19,0.0
15,0.5701350924514589,0.0,0.43244760699801027,0,19,0.0
16,0.5447143312721026,0.0,0.41552975585147794,0,19,0.0
17,0.5328221604937599,0.0,0.4000575201130978,1,19,0.0
18,0.5188298849832444,0.0,0.38502529899873755,1,19,0.0
19,0.5067254354556402,0.0,0.3744042365874004,1,19,0.0
20,0.4992101128612246,0.0,0.406539270226116,0,19,0.0
21,0.49189857038713636,0.0,0.3640393475840097,1,19,0.0
22,0.4846079516268912,0.0,0.366868252916214,0,19,0.0
23,0.4649467698874928,0.0,0.3974504469529491,0,19,0.0
24,0.455635106634526,0.0,0.38349463751410584,0,19,0.0
25,0.4576496662838118,0.0,0.35998467399782863,1,19,0.0
26,0.43699779290528523,0.0,0.37749313566673043,0,19,0.0
27,0.44037729856513796,0.0,0.37687739801535414,0,19,0.0
28,0.43432154329050154,0.0,0.3596982381322431,1,19,0.0
29,0.424812287801788,0.0,0.3617773020977238,0,19,0.0
30,0.4138269658599581,0.0,0.3448755506000607,1,19,0.0
31,0.40421929990961436,0.0,0.3724424841054427,0,19,0.0
32,0.39911270957617534,0.0,0.35457392951942085,0,19,0.0
33,0.4032940484938167,0.0,0.3440491292455923,1,19,0.0
34,0.3874736999471982,0.0,0.3434913962564566,1,19,0.0
35,0.39425666098083767,0.0,0.3575495282752736,0,19,0.0
36,0.38488190053474336,0.0,0.347062733537548,0,19,0.0
37,0.3842227143191156,0.0,0.3531725917257061,0,19,0.0
38,0.38611581247477306,0.0,0.3500074401910882,0,19,0.0
39,0.37992195323819206,0.0,0.34909927153242426,0,19,0.0
40,0.3823057154104823,0.0,0.34993772004014684,0,19,0.0
1,0.9308945501134509,0.0,0.6065660825640014,1,20,0.0
2,0.8210124699842363,0.0,0.5508188585152545,1,20,0.0
3,0.7726085973637444,0.0,0.5306627158898756,1,20,0.0
4,0.7490481705892653,0.0,0.47197346945099494,1,20,0.0
5,0.7192045208953676,0.0,0.5245934646484781,0,20,0.0
6,0.694881259685471,0.0,0.47570571847579285,0,20,0.0
7,0.6801658599149614,0.0,0.455852930504282,1,20,0.0
8,0.6687518925893874,0.0,0.42977167728388455,1,20,0.0
9,0.6405453249102547,0.0,0.4301086987319933,0,20,0.0
10,0.6385545695111865,0.0,0.39440522646464127,1,20,0.0
11,0.6215362144368035,0.0,0.4544923143996015,0,20,0.0
12,0.6123663300559634,0.0,0.3828122271931654,1,20,0.0
13,0.5887918834175382,0.0,0.3816821022810464,1,20,0.0
14,0.5885251153792653,0.0,0.3991254581237042,0,20,0.0
15,0.5627082930434317,0.0,0.3936429260517561,0,20,0.0
16,0.5512231375489917,0.0,0.40943270446257723,0,20,0.0
17,0.546297662669704,0.0,0.3668575312943158,1,20,0.0
18,0.5258023731765293,0.0,0.39783141935573746,0,20,0.0
19,0.5166220952357564,0.0,0.35260114375067536,1,20,0.0
20,0.5021833309105465,0.0,0.31878154479218695,1,20,0.0
21,0.49357079714536667,0.0,0.38563775022616503,0,20,0.0
22,0.4747760796121189,0.0,0.3491719837082197,0,20,0.0
23,0.46743245848587583,0.0,0.3644492107915973,0,20,0.0
24,0.46153507310719716,0.0,0.37084871040011014,0,20,0.0
25,0.45486453423897427,0.0,0.3312827530897831,0,20,0.0
26,0.4396785848907062,0.0,0.3679190151645809,0,20,0.0
27,0.43186066583508537,0.0,0.31679387296857,1,20,0.0
28,0.424774570834069,0.0,0.34019095362212015,0,20,0.0
29,0.4159114740434147,0.0,0.33692895452388705,0,20,0.0
30,0.4046453883250554,0.0,0.3371672739034221,0,20,0.0
31,0.4022445366496131,0.0,0.31514559104737194,1,20,0.0
32,0.40545295888469335,0.0,0.32594922490940587,0,20,0.0
33,0.3982293102003279,0.0,0.32545082881486614,0,20,0.0
34,0.3859759097297986,0.0,0.32756245907428183,0,20,0.0
35,0.391746984351249,0.0,0.31990032481385927,0,20,0.0
36,0.3777470180676097,0.0,0.3259333924336641,0,20,0.0
37,0.37868531083776835,0.0,0.32297082286397644,0,20,0.0
38,0.37953186177072074,0.0,0.3200770589409974,0,20,0.0
1,0.9154628493956157,0.0,0.6521607026520226,1,21,0.0
2,0.8171271901755106,0.0,0.6366330914994546,1,21,0.0
3,0.7727799756186349,0.0,0.5598848799869348,1,21,0.0
4,0.7392876467534474,0.0,0.553023104519864,1,21,0.0
5,0.7267694494553975,0.0,0.5770339423986618,0,21,0.0
6,0.6965719205992562,0.0,0.5382875575715461,1,21,0.0
7,0.6837379499560311,0.0,0.4803349974636142,1,21,0.0
8,0.6655384408576148,0.0,0.4940363971182711,0,21,0.0
9,0.636453281555857,0.0,0.46635655469646997,1,21,0.0
10,0.6242545981492315,0.0,0.45577609558865917,1,21,0.0
11,0.6134948382774988,0.0,0.4528177432423893,1,21,0.0
12,0.5914196017242613,0.0,0.4266704518218507,1,21,0.0
13,0.5862284863278979,0.0,0.41433026157512376,1,21,0.0
14,0.5682870358938262,0.0,0.46359097385365355,0,21,0.0
15,0.5523423747647376,0.0,0.4152693797103989,0,21,0.0
16,0.5496965359364238,0.0,0.44713653638014983,0,21,0.0
17,0.5209059367577235,0.0,0.42644971971268547,0,21,0.0
18,0.5204673058220318,0.0,0.43415941320412965,0,21,0.0
19,0.49533578079371227,0.0,0.4630649807507809,0,21,0.0
20,0.4935610344012578,0.0,0.4107291018776274,1,21,0.0
21,0.48279635040532975,0.0,0.42084422242562114,0,21,0.0
22,0.47063414681525456,0.0,0.4046918917479467,1,21,0.0
23,0.4605510696059182,0.0,0.4048455234397536,0,21,0.0
24,0.4563892270837511,0.0,0.3906538432708714,1,21,0.0
25,0.45113747602417353,0.0,0.38203354911878246,1,21,0.0
26,0.43551625808080036,0.0,0.4037495608514302,0,21,0.0
27,0.42853514069602605,0.0,0.36784522534371716,1,21,0.0
28,0.41991324438935235,0.0,0.40140033004420245,0,21,0.0
29,0.4159507730177471,0.0,0.3675132150944742,1,21,0.0
30,0.4083755264679591,0.0,0.363953326340964,1,21,0.0
31,0.3989596746507145,0.0,0.37874080665319576,0,21,0.0
32,0.3995240930290449,0.0,0.3819567561223056,0,21,0.0
33,0.39166345908528283,0.0,0.36385698002020006,1,21,0.0
34,0.38912681419224965,0.0,0.36057813573947295,1,21,0.0
35,0.3779927229597455,0.0,0.3835123059841868,0,21,0.0
36,0.3743633223431451,0.0,0.37317314672373125,0,21,0.0
37,0.3676374955546288,0.0,0.3683945823691295,0,21,0.0
38,0.37097217461892534,0.0,0.36622392401073495,0,21,0.0
39,0.3668841492562067,0.0,0.35638743565533293,1,21,0.0
40,0.3723434181440444,0.0,0.36272454503459944,0,21,0.0
1,0.9146453440189362,0.0,0.6494538648380447,1,22,0.0
2,0.806454864286241,0.0,0.6265154543937635,1,22,0.0
3,0.7616902036326272,0.0,0.6152513356514505,1,22,0.0
4,0.71993511844249,0.0,0.563567832961064,1,22,0.0
5,0.7055513177599225,0.0,0.5791896224938833,0,22,0.0
6,0.6752249555928367,0.0,0.6688702686776206,0,22,0.0
7,0.6565395075650442,0.0,0.587381345940965,0,22,0.0
8,0.6420157168592725,0.0,0.5462161602452398,1,22,0.0
9,0.6188783858503614,0.0,0.5375047126804123,1,22,0.0
10,0.614577598515011,0.0,0.5321787746387927,1,22,0.0
11,0.59058761348327,0.0,0.5046456710152213,1,22,0.0
12,0.5888980534814653,0.0,0.5287705848588772,0,22,0.0
13,0.567449770513035,0.0,0.5473327467928535,0,22,0.0
14,0.5438435365046773,0.0,0.476398779747566,1,22,0.0
15,0.5336081272079831,0.0,0.46396972597528674,1,22,0.0
16,0.5130618441672552,0.0,0.46622396989235865,0,22,0.0
17,0.4969093118395124,0.0,0.4976871023780292,0,22,0.0
18,0.5014843067952565,0.0,0.47628461661047694,0,22,0.0
19,0.47530483170634225,0.0,0.5118610172522897,0,22,0.0
20,0.47351464061509996,0.0,0.4865927454761047,0,22,0.0
21,0.4509689137339592,0.0,0.46122971024153003,1,22,0.0
22,0.447708693643411,0.0,0.47818769035649666,0,22,0.0
23,0.4354563806028593,0.0,0.4417670973874244,1,22,0.0
24,0.43167862331583384,0.0,0.4476213508813652,0,22,0.0
25,0.4217141941189766,0.0,0.4711857301355868,0,22,0.0
26,0.4154315704391116,0.0,0.43640215678006106,1,22,0.0
27,0.41288934115852627,0.0,0.4415721808963446,0,22,0.0
28,0.40180053987673353,0.0,0.44089489397832876,0,22,0.0
29,0.39369520261174157,0.0,0.44633458344381033,0,22,0.0
30,0.3820136075928098,0.0,0.439955341857714,0,22,0.0
31,0.3813499148402895,0.0,0.43310653748874045,1,22,0.0
32,0.37625557964756373,0.0,0.4290146321459126,1,22,0.0
33,0.3775379622266406,0.0,0.42077942770454535,1,22,0.0
34,0.3704735317400524,0.0,0.4439783466504599,0,22,0.0
35,0.36285141695822987,0.0,0.4403440045778515,0,22,0.0
36,0.36026734716835473,0.0,0.43297980279498494,0,22,0.0
37,0.360551147411267,0.0,0.4434400545716401,0,22,0.0
38,0.3542708612623669,0.0,0.4340932049860544,0,22,0.0
39,0.35151578166655134,0.0,0.43285051975927324,0,22,0.0
40,0.3543019308930352,0.0,0.43501628725165403,0,22,0.0
1,0.9271115736905918,0.0,0.6395258558011937,1,23,0.0
2,0.8191707182762235,0.0,0.5832408820966717,1,23,0.0
3,0.7832649467989455,0.0,0.4967535073240071,1,23,0.0
4,0.756997981043749,0.0,0.48734789612063645,1,23,0.0
5,0.7285443156264549,0.0,0.44080733796763105,1,23,0.0
6,0.711413842301036,0.0,0.4417107956906356,0,23,0.0
7,0.6859916774339454,0.0,0.44810915872795504,0,23,0.0
8,0.6794324967750284,0.0,0.5092289671238719,0,23,0.0
9,0.6547437982503758,0.0,0.4880317442079144,0,23,0.0
10,0.6354021041892296,0.0,0.450348022764465,0,23,0.0
11,0.6148644377325856,0.0,0.41509983701007036,1,23,0.0
12,0.6042329682860264,0.0,0.42418216067042536,0,23,0.0
13,0.5932687909104103,0.0,0.45075568178891123,0,23,0.0
14,0.5750689496134602,0.0,0.39130184339689217,1,23,0.0
15,0.567720306474109,0.0,0.40468081682120904,0,23,0.0
16,0.5530924391607905,0.0,0.3801214951633633,1,23,0.0
17,0.5346776763367098,0.0,0.3518657739369151,1,23,0.0
18,0.5285364909227505,0.0,0.3979605687048367,0,23,0.0
19,0.526222633761029,0.0,0.4033461031823534,0,23,0.0
20,0.5204893187728039,0.0,0.3647186235918968,0,23,0.0
21,0.4907825800568558,0.0,0.4006452641390165,0,23,0.0
22,0.4872163568818292,0.0,0.390868603030156,0,23,0.0
23,0.482593517663867,0.0,0.3399925866947777,1,23,0.0
24,0.4666098429020061,0.0,0.39450438746925265,0,23,0.0
25,0.4567853759887607,0.0,0.3527271280481263,0,23,0.0
26,0.44529147064963054,0.0,0.35883103511791986,0,23,0.0
27,0.43831604026084725,0.0,0.33378149266045704,1,23,0.0
28,0.43372864258843796,0.0,0.33066207712499884,1,23,0.0
29,0.4307825087114822,0.0,0.3489948349824163,0,23,0.0
30,0.4305304590352746,0.0,0.3317654149675733,0,23,0.0
31,0.4147424139948778,0.0,0.3360172697411052,0,23,0.0
32,0.4103017421655877,0.0,0.33499080026025185,0,23,0.0
33,0.4072508260954258,0.0,0.32173005596489196,1,23,0.0
34,0.4065143933822942,0.0,0.32291524825090073,0,23,0.0
35,0.40050616791081983,0.0,0.3261217190801205,0,23,0.0
36,0.3945100193106851,0.0,0.3298062438750732,0,23,0.0
37,0.3892875819705253,0.0,0.3267906202043864,0,23,0.0
38,0.3820908449070398,0.0,0.33079455152419085,0,23,0.0
39,0.39258866012096405,0.0,0.33276019570888754,0,23,0.0
40,0.38920061567495035,0.0,0.331003506997991,0,23,0.0
1,0.9160674604631606,0.0,0.7169221153083117,1,24,0.0
2,0.8159977261509214,0.0,0.6513274449417706,1,24,0.0
3,0.7768111413433438,0.0,0.6756409600618397,0,24,0.0
4,0.7486750490608669,0.0,0.6268517985668501,1,24,0.0
5,0.7198705737079892,0.0,0.6347091810001053,0,24,0.0
6,0.6929907117571149,0.0,0.5872957602987888,1,24,0.0
7,0.6771680400485084,0.0,0.6577948843117668,0,24,0.0
8,0.6542240707647233,0.0,0.6463662453206928,0,24,0.0
9,0.6454462032942545,0.0,0.5627610562482344,1,24,0.0
10,0.6291734668470564,0.0,0.7186866784204355,0,24,0.0
11,0.6116478861797423,0.0,0.7781419242743538,0,24,0.0
12,0.5968050750948134,0.0,0.6120683106514606,0,24,0.0
13,0.5911703993167196,0.0,0.6500963693567616,0,24,0.0
14,0.5700154904098738,0.0,0.5624209547845217,1,24,0.0
15,0.553646805030959,0.0,0.6088551770790145,0,24,0.0
16,0.5508417377159709,0.0,0.5482665418914938,1,24,0.0
17,0.5388494041703996,0.0,0.557848002927506,0,24,0.0
18,0.5295048877596855,0.0,0.5344818244096239,1,24,0.0
19,0.5072566579495158,0.0,0.5140291297363366,1,24,0.0
20,0.5009804527674403,0.0,0.4284622643957375,1,24,0.0
21,0.496924632361957,0.0,0.5481051753467394,0,24,0.0
22,0.474270520110925,0.0,0.43802276921839367,0,24,0.0
23,0.4666938146664983,0.0,0.48087229459029945,0,24,0.0
24,0.46173749828622457,0.0,0.45488489450894387,0,24,0.0
25,0.45032469573475065,0.0,0.49626337123001635,0,24,0.0
26,0.4358376626457487,0.0,0.5013956686006746,0,24,0.0
27,0.44333249224083765,0.0,0.474435486268961,0,24,0.0
1,0.9291726932639167,0.0,0.5847909143812939,1,25,0.0
2,0.8203814107747305,0.0,0.5434806233110802,1,25,0.0
3,0.7694684863090515,0.0,0.5150358698272729,1,25,0.0
4,0.739800173611868,0.0,0.5230699586316614,0,25,0.0
5,0.715901472738811,0.0,0.5156435392032447,0,25,0.0
6,0.6881255585522879,0.0,0.5447856589881946,0,25,0.0
7,0.674210311401458,0.0,0.4973277528760899,1,25,0.0
8,0.6573145886262258,0.0,0.4606476932973929,1,25,0.0
9,0.6359515530722482,0.0,0.4648294876099113,0,25,0.0
10,0.623651272839024,0.0,0.465544830235677,0,25,0.0
11,0.5998971497728711,0.0,0.44359103705681546,1,25,0.0
12,0.5988646057390031,0.0,0.4437911833975636,0,25,0.0
13,0.5740228093096188,0.0,0.4232543939480959,1,25,0.0
14,0.5569734885579064,0.0,0.41602981591248656,1,25,0.0
15,0.5468454800900959,0.0,0.44270999196699445,0,25,0.0
16,0.539406880026772,0.0,0.3931124729124953,1,25,0.0
17,0.527246064373425,0.0,0.38474616188728356,1,25,0.0
18,0.5052397332730747,0.0,0.43483091709044736,0,25,0.0
19,0.503505082712287,0.0,0.383539487508461,1,25,0.0
20,0.4911497724907739,0.0,0.3754425004079668,1,25,0.0
21,0.48283943924165906,0.0,0.38011560389318577,0,25,0.0
22,0.4746664162902605,0.0,0.4013327992852905,0,25,0.0
23,0.45753462115923565,0.0,0.3459617924245011,1,25,0.0
24,0.445854321476959,0.0,0.3536415118461763,0,25,0.0
25,0.4398302822595551,0.0,0.3632400064678559,0,25,0.0
26,0.43377759130228133,0.0,0.36415737195753717,0,25,0.0
27,0.43140675801606404,0.0,0.39596360994191837,0,25,0.0
28,0.4164051211306027,0.0,0.37799512375880717,0,25,0.0
29,0.4108627207932018,0.0,0.3687240660033176,0,25,0.0
30,0.41007923973458155,0.0,0.35214035807765826,0,25,0.0
1,0.9108864040601821,0.0,0.502655643535236,1,26,0.0
2,0.8094605008761088,0.0,0.5221680034714097,0,26,0.0
3,0.7781676415886197,0.0,0.46228164501175795,1,26,0.0
4,0.7514151803084782,0.0,0.46222270560158557,1,26,0.0
5,0.7246873442615781,0.0,0.41513448254201735,1,26,0.0
6,0.7074265111060369,0.0,0.39948001363831825,1,26,0.0
7,0.68752411930334,0.0,0.3973506852520542,1,26,0.0
8,0.6753638713132768,0.0,0.3770871591286821,1,26,0.0
9,0.6594958511136827,0.0,0.3807840018470451,0,26,0.0
10,0.6427337303757668,0.0,0.37205752218745675,1,26,0.0
11,0.6184236641441073,0.0,0.3689326732650191,1,26,0.0
12,0.6059546215193612,0.0,0.33968251059222326,1,26,0.0
13,0.5974051682722001,0.0,0.3570695350971428,0,26,0.0
14,0.581342760296095,0.0,0.36009506321118095,0,26,0.0
15,0.5773862827391851,0.0,0.3434587752813381,0,26,0.0
16,0.5666072219610214,0.0,0.34713918033423996,0,26,0.0
17,0.5459723327131498,0.0,0.3191102037603909,1,26,0.0
18,0.5432522215303921,0.0,0.3348178646833727,0,26,0.0
19,0.5277072237361045,0.0,0.3172101326616957,1,26,0.0
20,0.516523845139004,0.0,0.32831732993223617,0,26,0.0
21,0.5050168622817311,0.0,0.31530525579035584,1,26,0.0
22,0.49639820484887986,0.0,0.34414871293090504,0,26,0.0
23,0.49677521735429764,0.0,0.3111907498293297,1,26,0.0
24,0.47674513998485746,0.0,0.29178803233427425,1,26,0.0
25,0.4602998218366078,0.0,0.288413557713423,1,26,0.0
26,0.4682209999078796,0.0,0.29433667112539463,0,26,0.0
27,0.4477624020406178,0.0,0.29365810353493527,0,26,0.0
28,0.4429942482993716,0.0,0.2843278664342936,1,26,0.0
29,0.43953137951237814,0.0,0.291177469121323,0,26,0.0
30,0.4267954389963831,0.0,0.28297517363081437,1,26,0.0
31,0.4160057838474001,0.0,0.2729597902500569,1,26,0.0
32,0.4122148965086256,0.0,0.2809437072969585,0,26,0.0
33,0.41250562632367727,0.0,0.28053006588622187,0,26,0.0
34,0.4061515047436669,0.0,0.2882879717076692,0,26,0.0
35,0.4030894087184043,0.0,0.28059021908591064,0,26,0.0
36,0.3945537397549266,0.0,0.28024854371714697,0,26,0.0
37,0.3962379576904433,0.0,0.27492187135868257,0,26,0.0
38,0.39147496187970754,0.0,0.27360856701777314,0,26,0.0
1,0.9192108802852177,0.0,0.5942324953764556,1,27,0.0
2,0.8138684013060161,0.0,0.5549241958962761,1,27,0.0
3,0.7799755966379529,0.0,0.5872201888788084,0,27,0.0
4,0.739937947619529,0.0,0.5383306507036271,1,27,0.0
5,0.7128827273845673,0.0,0.504569194004362,1,27,0.0
6,0.6859258853253865,0.0,0.5166917383550149,0,27,0.0
7,0.6741999040047327,0.0,0.529778332423102,0,27,0.0
8,0.6509628281706855,0.0,0.477682002099902,1,27,0.0
9,0.6292751154729298,0.0,0.44871799852925276,1,27,0.0
10,0.6183578435863767,0.0,0.4964849188139564,0,27,0.0
11,0.6036380366200492,0.0,0.4856521393425069,0,27,0.0
12,0.5926775864901996,0.0,0.4785580171294782,0,27,0.0
13,0.5659849111522947,0.0,0.5009179993076363,0,27,0.0
14,0.5589326307887122,0.0,0.4471853221144512,1,27,0.0
15,0.5446108171627635,0.0,0.4569043209738577,0,27,0.0
16,0.5344147767339434,0.0,0.4125645259764754,1,27,0.0
17,0.5373932889529637,0.0,0.43367776850819106,0,27,0.0
18,0.514095830420653,0.0,0.45333077251790505,0,27,0.0
19,0.5092001812798637,0.0,0.4253324562842064,0,27,0.0
20,0.4910884105733463,0.0,0.47028136202077636,0,27,0.0
21,0.4891911322871844,0.0,0.4250402357052212,0,27,0.0
22,0.48190721088931676,0.0,0.41835843216673085,0,27,0.0
23,0.4690002351999283,0.0,0.4343625218098463,0,27,0.0
1,0.9156006283703304,0.0,0.5409766472377029,1,28,0.0
2,0.8139166846161797,0.0,0.4830698677930543,1,28,0.0
3,0.7723675405695325,0.0,0.49453470423087503,0,28,0.0
4,0.7485514581203461,0.0,0.48154547625683713,1,28,0.0
5,0.7238929122686386,0.0,0.46655167189397273,1,28,0.0
6,0.6854833861192068,0.0,0.4688790320555225,0,28,0.0
7,0.6849593640792937,0.0,0.42138407633271435,1,28,0.0
8,0.6644785666749591,0.0,0.4058614754386205,1,28,0.0
9,0.6496683355598223,0.0,0.42761560595110365,0,28,0.0
10,0.6342032693681263,0.0,0.3803158935403122,1,28,0.0
11,0.6250900491362527,0.0,0.38790282954250793,0,28,0.0
12,0.5992218628525734,0.0,0.3999801423754017,0,28,0.0
13,0.5838351891863913,0.0,0.38270501505233745,0,28,0.0
14,0.5751861844744001,0.0,0.38723375667592425,0,28,0.0
15,0.5553057580476716,0.0,0.3517640159930022,1,28,0.0
16,0.5662578184689794,0.0,0.3580591066153965,0,28,0.0
17,0.539795516857079,0.0,0.347403563143186,1,28,0.0
18,0.5257375790249734,0.0,0.37040452339922264,0,28,0.0
19,0.5229867657735234,0.0,0.33880540797131276,1,28,0.0
20,0.5025602894879523,0.0,0.33972974610183365,0,28,0.0
21,0.4941981172277814,0.0,0.31730019294432243,1,28,0.0
22,0.489564268716744,0.0,0.3228779207692971,0,28,0.0
23,0.4741255243619283,0.0,0.2994912839354149,1,28,0.0
24,0.46446093704019276,0.0,0.34295451587446857,0,28,0.0
25,0.4480102548287028,0.0,0.32490822227391647,0,28,0.0
26,0.45072524639822187,0.0,0.3000681230925597,0,28,0.0
27,0.4413627467694737,0.0,0.3104239881576823,0,28,0.0
28,0.430073755128043,0.0,0.3003615518991869,0,28,0.0
29,0.4244947192214784,0.0,0.3260657484651029,0,28,0.0
30,0.41502184740134646,0.0,0.29830652242829886,1,28,0.0
31,0.41791206953071414,0.0,0.2976966555332151,1,28,0.0
32,0.4081528992170379,0.0,0.2995904759898865,0,28,0.0
33,0.3959565648720378,0.0,0.30289978672523926,0,28,0.0
34,0.3959882465146837,0.0,0.30678774656954055,0,28,0.0
35,0.3946929336303756,0.0,0.3004335665591142,0,28,0.0
36,0.39009387525064604,0.0,0.30019819735514097,0,28,0.0
37,0.38510911273104803,0.0,0.3077251382521438,0,28,0.0
38,0.37938579526685534,0.0,0.3102098882815169,0,28,0.0
1,0.9241461711270469,0.0,0.5369552503667944,1,29,0.0
2,0.8291683076393037,0.0,0.5161604239885482,1,29,0.0
3,0.780935749411583,0.0,0.5036322160674245,1,29,0.0
4,0.764572601942789,0.0,0.4899002210952935,1,29,0.0
5,0.7317296394280025,0.0,0.43701141735581933,1,29,0.0
6,0.7095741856665838,0.0,0.45665673667177137,0,29,0.0
7,0.6896126241911025,0.0,0.4057238276789305,1,29,0.0
8,0.6670216158741996,0.0,0.40993171574830395,0,29,0.0
9,0.6439543409006936,0.0,0.4264214663088781,0,29,0.0
10,0.6254946717194149,0.0,0.3869347816721026,1,29,0.0
11,0.6174638462918145,0.0,0.37469443700307437,1,29,0.0
12,0.6065965507711683,0.0,0.37433470752674386,1,29,0.0
13,0.5904181688314393,0.0,0.39127403623340673,0,29,0.0
14,0.5738651128042311,0.0,0.37271932415606734,1,29,0.0
15,0.5693498395738148,0.0,0.39601063898412614,0,29,0.0
16,0.5508627927019483,0.0,0.37730052172371537,0,29,0.0
17,0.5469466689087096,0.0,0.4067620171372872,0,29,0.0
18,0.5437856124980109,0.0,0.4077384955778833,0,29,0.0
19,0.5193726863889467,0.0,0.3828437805022556,0,29,0.0
20,0.5141534748531523,0.0,0.39250012982473886,0,29,0.0
21,0.5012242673408418,0.0,0.3718810790761884,1,29,0.0
22,0.488321738583701,0.0,0.35092731300540325,1,29,0.0
23,0.47613651908579324,0.0,0.36885466398647326,0,29,0.0
24,0.46637121304160073,0.0,0.3684962388942052,0,29,0.0
25,0.453493948493685,0.0,0.36000128852677526,0,29,0.0
26,0.4462379366159439,0.0,0.35333448576436866,0,29,0.0
27,0.4367212699282737,0.0,0.3655881827931784,0,29,0.0
28,0.4493574599424998,0.0,0.3564984544996737,0,29,0.0
29,0.42717494035050985,0.0,0.34012998819044743,1,29,0.0
30,0.42403386249428704,0.0,0.33555925644761797,1,29,0.0
31,0.4103552589104289,0.0,0.3638498064944554,0,29,0.0
32,0.4078206554764793,0.0,0.3464291489369459,0,29,0.0
33,0.39737139606759664,0.0,0.35381135965067806,0,29,0.0
34,0.39687477903706686,0.0,0.3512328198758986,0,29,0.0
35,0.3907644638702983,0.0,0.34182472605938163,0,29,0.0
36,0.382478073594116,0.0,0.34353083149939395,0,29,0.0
37,0.37960086159762885,0.0,0.34504072209556796,0,29,0.0
1,0.9028773321824916,0.0,0.6634457612168391,1,30,0.0
2,0.7872328183230232,0.0,0.6659931921283981,0,30,0.0
3,0.7473176458302666,0.0,0.6631475512819064,1,30,0.0
4,0.7174564775298623,0.0,0.643548067082437,1,30,0.0
5,0.7078461913501515,0.0,0.6043891544223167,1,30,0.0
6,0.6824617042261012,0.0,0.6225574765809486,0,30,0.0
7,0.6651676914271186,0.0,0.6221292577389399,0,30,0.0
8,0.6443493681795457,0.0,0.5689132819709897,1,30,0.0
9,0.6201942492933834,0.0,0.6026126760984677,0,30,0.0
10,0.5997923707260805,0.0,0.5964967031160109,0,30,0.0
11,0.5893731218927046,0.0,0.6201542779571455,0,30,0.0
12,0.5807565356002135,0.0,0.5793750273561149,0,30,0.0
13,0.5584115789217108,0.0,0.5910019307294934,0,30,0.0
14,0.5504830830237445,0.0,0.5519887748511888,1,30,0.0
15,0.5388558394768659,0.0,0.5815579607223893,0,30,0.0
16,0.5176211146747365,0.0,0.5308402580753239,1,30,0.0
17,0.5056707252474392,0.0,0.5557770540358703,0,30,0.0
18,0.5037521102849175,0.0,0.5506830145071673,0,30,0.0
19,0.4956318788668689,0.0,0.5311454419000086,0,30,0.0
20,0.492261309483472,0.0,0.5407607815485164,0,30,0.0
21,0.46408334795166467,0.0,0.5506646645898358,0,30,0.0
22,0.4669150057960959,0.0,0.48288240997242826,1,30,0.0
23,0.4466391226824592,0.0,0.4918115131045841,0,30,0.0
24,0.44038249569780685,0.0,0.5139335026526081,0,30,0.0
25,0.4257603473523084,0.0,0.5350497771768021,0,30,0.0
26,0.4280896512901082,0.0,0.4981118433027357,0,30,0.0
27,0.41589990749078637,0.0,0.5495965711466514,0,30,0.0
28,0.4110842266503502,0.0,0.5152890700462125,0,30,0.0
29,0.4050085481475381,0.0,0.5279245158599001,0,30,0.0
1,0.927112304463106,0.0,0.5598312773919507,1,31,0.0
2,0.8152965363334207,0.0,0.5446012730807173,1,31,0.0
3,0.7720442344160641,0.0,0.4849664483520824,1,31,0.0
4,0.7440731272977941,0.0,0.5021919140119483,0,31,0.0
5,0.7253626038046445,0.0,0.4795366213079547,1,31,0.0
6,0.7062266735469593,0.0,0.45529811589206265,1,31,0.0
7,0.6756595723769244,0.0,0.4212798113751826,1,31,0.0
8,0.6842423761592192,0.0,0.4413245949967235,0,31,0.0
9,0.6409802356187035,0.0,0.4173758111295368,1,31,0.0
10,0.627737423952888,0.0,0.4095304349766058,1,31,0.0
11,0.6101456084672142,0.0,0.3762415183496653,1,31,0.0
12,0.5977415971896227,0.0,0.3849227124713495,0,31,0.0
13,0.5764395524473751,0.0,0.3503517390894185,1,31,0.0
14,0.5632068244849935,0.0,0.34295637232761494,1,31,0.0
15,0.5512176853768965,0.0,0.33801922084209635,1,31,0.0
16,0.5370502983822542,0.0,0.33602408156338004,1,31,0.0
17,0.52193863567184,0.0,0.35605232667170716,0,31,0.0
18,0.5105859861654394,0.0,0.2991735333681222,1,31,0.0
19,0.5044845247969908,0.0,0.3347535055100885,0,31,0.0
20,0.4890754668151631,0.0,0.3040049871343896,0,31,0.0
21,0.4714354634284973,0.0,0.31115541905648253,0,31,0.0
22,0.46493683983297907,0.0,0.3025735511391269,0,31,0.0
23,0.46200229630750766,0.0,0.2919984719438493,1,31,0.0
24,0.4554781699881834,0.0,0.31530442986574597,0,31,0.0
25,0.4460702394737917,0.0,0.3084129852321728,0,31,0.0
26,0.42755650948075685,0.0,0.3235723586129043,0,31,0.0
27,0.43133265130660114,0.0,0.31000744124544743,0,31,0.0
28,0.42819710654370924,0.0,0.2854423347163047,1,31,0.0
29,0.4091164683594423,0.0,0.28111828101278835,1,31,0.0
30,0.4040146981968599,0.0,0.27829494710509595,1,31,0.0
31,0.3935127149609958,0.0,0.30686344276806066,0,31,0.0
32,0.3934354315785801,0.0,0.2795123732274563,0,31,0.0
33,0.3754594129674575,0.0,0.28794485615714005,0,31,0.0
34,0.37947799037484564,0.0,0.2740462089728516,1,31,0.0
35,0.3776019878247205,0.0,0.2799936175671476,0,31,0.0
36,0.3730753674226649,0.0,0.2767088360121503,0,31,0.0
37,0.37313883181880503,0.0,0.27691244638199075,0,31,0.0
38,0.368521120968987,0.0,0.2674203817494722,1,31,0.0
39,0.36817974728696484,0.0,0.27112141435462295,0,31,0.0
40,0.3740686660303789,0.0,0.27400171683699476,0,31,0.0
1,0.9242269770208612,0.0,0.5868898884155359,1,32,0.0
2,0.8212453859398164,0.0,0.5390323065964245,1,32,0.0
3,0.7679383036601974,0.0,0.5549099856716955,0,32,0.0
4,0.7434477202863579,0.0,0.5784534523148596,0,32,0.0
5,0.7261067908930491,0.0,0.5406907743509904,0,32,0.0
6,0.6909575261265398,0.0,0.48247815964341956,1,32,0.0
7,0.6695926677749817,0.0,0.5279732806447112,0,32,0.0
8,0.6482591708022428,0.0,0.5234879669640479,0,32,0.0
9,0.6245957928967764,0.0,0.5046801537643244,0,32,0.0
10,0.6150276445480715,0.0,0.5407096345582579,0,32,0.0
11,0.6072629431644118,0.0,0.4924146504497822,0,32,0.0
12,0.6045569684132036,0.0,0.49883261122028827,0,32,0.0
13,0.580273848341172,0.0,0.4992327685171609,0,32,0.0
1,0.932682019614038,0.0,0.7334474689106562,1,33,0.0
2,0.8067365693194526,0.0,0.6316627188350263,1,33,0.0
3,0.7645156092586971,0.0,0.7065019985184484,0,33,0.0
4,0.7295397527161098,0.0,0.6908325025751139,0,33,0.0
5,0.7119300897632327,0.0,0.5419895574598652,1,33,0.0
6,0.6915908732584545,0.0,0.5753674557663568,0,33,0.0
7,0.6729786701145626,0.0,0.6805325928142999,0,33,0.0
8,0.6587762924886885,0.0,0.611136772281164,0,33,0.0
9,0.6366528758690471,0.0,0.5440706267764015,0,33,0.0
10,0.6265577304930914,0.0,0.5175807775307762,1,33,0.0
11,0.6090143351327806,0.0,0.5427347005835937,0,33,0.0
12,0.6008469547544207,0.0,0.554559198605638,0,33,0.0
13,0.5810695446672893,0.0,0.5776922936455664,0,33,0.0
14,0.5656826843818029,0.0,0.5601972855929412,0,33,0.0
15,0.5480018687390146,0.0,0.530772117991857,0,33,0.0
16,0.5473837330937386,0.0,0.5485414945120661,0,33,0.0
17,0.5251457811821074,0.0,0.5250269151462893,0,33,0.0
1,0.9272289744445256,0.0,0.5637750289349084,1,34,0.0
2,0.8336434626863116,0.0,0.4942793418214557,1,34,0.0
3,0.7979912019911266,0.0,0.5063822149763378,0,34,0.0
4,0.7576676614227749,0.0,0.4370273719455073,1,34,0.0
5,0.7356602436020261,0.0,0.4287518470983197,1,34,0.0
6,0.7168236481291907,0.0,0.44141419358865286,0,34,0.0
7,0.6925656547149023,0.0,0.3805158089237045,1,34,0.0
8,0.6825892492419198,0.0,0.38361748921649347,0,34,0.0
9,0.6614108993893578,0.0,0.3821277197497832,0,34,0.0
10,0.6519181270684514,0.0,0.3458378346788311,1,34,0.0
11,0.631751913754713,0.0,0.3171709691129632,1,34,0.0
12,0.620725158069815,0.0,0.35495140344400716,0,34,0.0
13,0.6066262906505948,0.0,0.3160043205704675,1,34,0.0
14,0.5809484606697446,0.0,0.3071750503883539,1,34,0.0
15,0.5779471741545767,0.0,0.33141911617980996,0,34,0.0
16,0.5633961079376084,0.0,0.36272712602087614,0,34,0.0
17,0.5643918631332261,0.0,0.33037367518571636,0,34,0.0
18,0.5415665454098156,0.0,0.32417775303796736,0,34,0.0
19,0.5278163786445346,0.0,0.33740097475507236,0,34,0.0
20,0.5190654322504997,0.0,0.2880691565303214,1,34,0.0
21,0.5062539871959459,0.0,0.27120392291599577,1,34,0.0
22,0.5000240802764893,0.0,0.26702630470245053,1,34,0.0
23,0.4839031146395774,0.0,0.26413190548730525,1,34,0.0
24,0.4863186244453703,0.0,0.28610659391417675,0,34,0.0
25,0.46686013149363653,0.0,0.2698932417488705,0,34,0.0
26,0.4598302103224255,0.0,0.2627340923560588,1,34,0.0
27,0.4510794846074922,0.0,0.27534966313815606,0,34,0.0
28,0.4402252073798861,0.0,0.24359197835059404,1,34,0.0
29,0.43477491608687807,0.0,0.24734747074143076,0,34,0.0
30,0.4231173051964669,0.0,0.2535070406234696,0,34,0.0
31,0.4133743831799144,0.0,0.24340834039519746,1,34,0.0
32,0.41927685127371833,0.0,0.24336257336130337,1,34,0.0
33,0.411379999702885,0.0,0.24385840316594057,0,34,0.0
34,0.4008108352621396,0.0,0.23713010732708434,1,34,0.0
35,0.40581679805403664,0.0,0.2437636138438945,0,34,0.0
36,0.39495602072704405,0.0,0.2445518994862606,0,34,0.0
37,0.39333290606737137,0.0,0.24361187493999603,0,34,0.0
38,0.38875092122526395,0.0,0.2375381678839038,0,34,0.0
39,0.3987455332563037,0.0,0.2398249113769886,0,34,0.0
40,0.3923149495607331,0.0,0.2409048390289245,0,34,0.0
1,0.914520202648072,0.0,0.7002530617654816,1,35,0.0
2,0.7971601173991248,0.0,0.6604277381965936,1,35,0.0
3,0.7569340460357212,0.0,0.6565213317959762,1,35,0.0
4,0.7312925713402885,0.0,0.5879527503116564,1,35,0.0
5,0.6954893746546337,0.0,0.7082281708717346,0,35,0.0
6,0.6678110176608676,0.0,0.6256554031913931,0,35,0.0
7,0.6493734256142661,0.0,0.5779030467114172,1,35,0.0
8,0.6256336278858639,0.0,0.6129061343871858,0,35,0.0
9,0.6099661904431525,0.0,0.5340033528849113,1,35,0.0
10,0.5890911668539047,0.0,0.5270211679383743,1,35,0.0
11,0.5877172801466215,0.0,0.5626666984128311,0,35,0.0
12,0.5727017748923529,0.0,0.5046189570845652,1,35,0.0
13,0.5558550797757649,0.0,0.5335933113978668,0,35,0.0
14,0.5349761346975962,0.0,0.5671717481887784,0,35,0.0
15,0.5287963428667614,0.0,0.4832706066571977,1,35,0.0
16,0.5125574725014823,0.0,0.4768885966267221,1,35,0.0
17,0.5019816408554713,0.0,0.5246595759406563,0,35,0.0
18,0.4942866556701206,0.0,0.4542635980346971,1,35,0.0
19,0.4693757487194879,0.0,0.4511725723373988,1,35,0.0
20,0.466251976788044,0.0,0.44355996470313425,1,35,0.0
21,0.4548523614094371,0.0,0.4555442323831241,0,35,0.0
22,0.4461027341229575,0.0,0.4310270901461524,1,35,0.0
23,0.4320914152832258,0.0,0.4081899497103839,1,35,0.0
24,0.4278838872199967,0.0,0.41033465972493505,0,35,0.0
25,0.41465854006154196,0.0,0.4053225519658982,1,35,0.0
26,0.40251746418930234,0.0,0.4040059151497385,1,35,0.0
27,0.39484907190004986,0.0,0.4228950420563871,0,35,0.0
28,0.3983711160364605,0.0,0.4311584410034428,0,35,0.0
29,0.3807022827012198,0.0,0.4003976669993775,1,35,0.0
30,0.36785229934113367,0.0,0.4257764585377756,0,35,0.0
31,0.3660461672005199,0.0,0.39705713000148535,1,35,0.0
32,0.3671451705907072,0.0,0.40090834551052124,0,35,0.0
33,0.3641783133858726,0.0,0.3945619189911637,1,35,0.0
34,0.36027338586392854,0.0,0.41282939461390833,0,35,0.0
35,0.3559108376502991,0.0,0.3858465455888101,1,35,0.0
36,0.35351532608980224,0.0,0.39603608588049233,0,35,0.0
37,0.3489112474379085,0.0,0.3973965194645869,0,35,0.0
38,0.34468918577546165,0.0,0.38520918911215196,1,35,0.0
39,0.33967882660882814,0.0,0.3869696823141176,0,35,0.0
40,0.34976570751695407,0.0,0.39717912489225055,0,35,0.0
1,0.9352260729845833,0.0,0.5236490370571465,1,36,0.0
2,0.8235385971910814,0.0,0.5093119463203559,1,36,0.0
3,0.7801475034040564,0.0,0.5160139975742687,0,36,0.0
4,0.7510762361919179,0.0,0.5220497457469507,0,36,0.0
5,0.7392699508106008,0.0,0.5057875491890648,1,36,0.0
6,0.7096368123503293,0.0,0.5200176730698494,0,36,0.0
7,0.6914416705860811,0.0,0.5076243046262718,0,36,0.0
8,0.6843173377654131,0.0,0.48435470716988177,1,36,0.0
9,0.6567222777534933,0.0,0.4929753803673517,0,36,0.0
10,0.6459660470485687,0.0,0.5255792806801036,0,36,0.0
11,0.6396888150888331,0.0,0.5149680210127747,0,36,0.0
12,0.6352820115930894,0.0,0.4978101204373961,0,36,0.0
13,0.607918546480291,0.0,0.47894046109738647,1,36,0.0
14,0.5875057392260608,0.0,0.4698472070993557,1,36,0.0
15,0.5909728299168979,0.0,0.5109292133938901,0,36,0.0
16,0.5767658742035137,0.0,0.5192880596583866,0,36,0.0
17,0.5582797394079321,0.0,0.47770806240857683,0,36,0.0
18,0.54496570334715,0.0,0.48251074238134267,0,36,0.0
19,0.5393037522540373,0.0,0.5023971329824071,0,36,0.0
20,0.5304623295279111,0.0,0.4348770136893767,1,36,0.0
21,0.5226315673659829,0.0,0.4376881449789146,0,36,0.0
22,0.5004346318104688,0.0,0.45991004588228007,0,36,0.0
23,0.5005116063005784,0.0,0.46285848819116504,0,36,0.0
24,0.49429247554610756,0.0,0.45790768646627655,0,36,0.0
25,0.47573656615088966,0.0,0.4282157632057524,1,36,0.0
26,0.47702439988360684,0.0,0.4373021811962918,0,36,0.0
27,0.46376034897916457,0.0,0.4349110652089481,0,36,0.0
28,0.45658776128993317,0.0,0.4468720949706831,0,36,0.0
29,0.44578352430287527,0.0,0.4223608957226518,1,36,0.0
30,0.435250647278393,0.0,0.41167672249665743,1,36,0.0
31,0.4344759075080647,0.0,0.42360003195853235,0,36,0.0
32,0.4294278653228984,0.0,0.44436307592603985,0,36,0.0
33,0.4192666527102975,0.0,0.41326698334514683,0,36,0.0
34,0.4141947669141433,0.0,0.4125390472299517,0,36,0.0
35,0.4187204171629513,0.0,0.41394224078969316,0,36,0.0
36,0.40569240065181955,0.0,0.40393602683033214,1,36,0.0
37,0.4077023720040041,0.0,0.41355459273964357,0,36,0.0
38,0.4027998464948991,0.0,0.3985250829596837,1,36,0.0
39,0.4026588941321653,0.0,0.4083492082724483,0,36,0.0
40,0.4022135955445907,0.0,0.40932375356427414,0,36,0.0
1,0.9433668339953704,0.0,0.5951276970117947,1,37,0.0
2,0.8243000086616067,0.0,0.5394621978055414,1,37,0.0
3,0.7910783571355483,0.0,0.48077402696518834,1,37,0.0
4,0.7622543292887071,0.0,0.5375400711796634,0,37,0.0
5,0.7300449574694914,0.0,0.4622771391934138,1,37,0.0
6,0.7166323928272023,0.0,0.5099456273823333,0,37,0.0
7,0.6910472077481887,0.0,0.3817017823974588,1,37,0.0
8,0.6820249017547159,0.0,0.39854355929046104,0,37,0.0
9,0.6615366388769711,0.0,0.38160609615103314,1,37,0.0
10,0.6461662881514605,0.0,0.39264277348109167,0,37,0.0
11,0.6268532956347747,0.0,0.3879219107482992,0,37,0.0
12,0.6214487945332247,0.0,0.3585135066634827,1,37,0.0
13,0.5926056153634015,0.0,0.38400426119535336,0,37,0.0
14,0.5918928959790398,0.0,0.3589975593605855,0,37,0.0
15,0.581166407290627,0.0,0.3316611959335738,1,37,0.0
16,0.5675109856268938,0.0,0.3638844280929629,0,37,0.0
17,0.5644341868512771,0.0,0.33448533590343177,0,37,0.0
18,0.5437093825901256,0.0,0.31775531050235123,1,37,0.0
19,0.5303314191453598,0.0,0.3234656623814481,0,37,0.0
20,0.5170266894733204,0.0,0.29930701164982426,1,37,0.0
21,0.5036716541823218,0.0,0.3047824631706416,0,37,0.0
22,0.4966473491752849,0.0,0.3130577205405604,0,37,0.0
23,0.4909916407921735,0.0,0.2997489367656693,0,37,0.0
24,0.48011429695522084,0.0,0.3123196771354984,0,37,0.0
25,0.46613874856163473,0.0,0.2885931438679318,1,37,0.0
26,0.4546167023041669,0.0,0.2850662055028122,1,37,0.0
27,0.4567678269217996,0.0,0.284327585369785,1,37,0.0
28,0.44276585649041567,0.0,0.27279054229927824,1,37,0.0
29,0.4350664201904746,0.0,0.27255447428838137,1,37,0.0
30,0.4344250072451199,0.0,0.26429521864833344,1,37,0.0
31,0.41975019048242007,0.0,0.26463577136366734,0,37,0.0
32,0.4234134624986088,0.0,0.25897734798873867,1,37,0.0
33,0.4032122769776513,0.0,0.25456569397598044,1,37,0.0
34,0.40425151831963485,0.0,0.2674712602409007,0,37,0.0
35,0.4088643186232623,0.0,0.2616035191194831,0,37,0.0
36,0.39598519591724174,0.0,0.2600225595851168,0,37,0.0
37,0.3992528200149536,0.0,0.2632747892049148,0,37,0.0
38,0.3875019255806418,0.0,0.2665423638142362,0,37,0.0
39,0.40125594104037565,0.0,0.2654457298095002,0,37,0.0
40,0.3958235109553618,0.0,0.25889007254424223,0,37,0.0
1,0.9198998099281674,0.0,0.748464598611477,1,38,0.0
2,0.8021734661999202,0.0,0.6228331547619154,1,38,0.0
3,0.7649577125197365,0.0,0.6641449478471345,0,38,0.0
4,0.7362043623413358,0.0,0.5409492751043736,1,38,0.0
5,0.7154475649197897,0.0,0.6041370232070338,0,38,0.0
6,0.7023106302533831,0.0,0.5591849241837682,0,38,0.0
7,0.6709906700111571,0.0,0.5111917670274208,1,38,0.0
8,0.6631936395452136,0.0,0.5268045209836971,0,38,0.0
9,0.6411761804705575,0.0,0.5272411528034205,0,38,0.0
10,0.6290674120897338,0.0,0.537572049127526,0,38,0.0
11,0.6158095339224452,0.0,0.538825836318947,0,38,0.0
12,0.6058351017889523,0.0,0.4698715728255139,1,38,0.0
13,0.5722118410326186,0.0,0.5212863487074492,0,38,0.0
14,0.5764839145399275,0.0,0.5942133277820577,0,38,0.0
15,0.5642144821939015,0.0,0.47313056464406883,0,38,0.0
16,0.5360065943428448,0.0,0.4979007907114387,0,38,0.0
17,0.534684015526658,0.0,0.4990345741138791,0,38,0.0
18,0.5289922282099724,0.0,0.5143374099595239,0,38,0.0
19,0.5196872591262772,0.0,0.5223018074540285,0,38,0.0
1,0.9248473798527437,0.0,0.588204276011188,1,39,0.0
2,0.8249909807653988,0.0,0.5441038091887918,1,39,0.0
3,0.779504924661973,0.0,0.5645645874313736,0,39,0.0
4,0.7584654653773588,0.0,0.5111501385587898,1,39,0.0
5,0.7295656723134658,0.0,0.5173122390429348,0,39,0.0
6,0.7038956964717192,0.0,0.49719721512124043,1,39,0.0
7,0.684925182426677,0.0,0.568371246790273,0,39,0.0
8,0.6799532897332136,0.0,0.5450395379731866,0,39,0.0
9,0.6572630868238561,0.0,0.4818200769785099,1,39,0.0
10,0.6343542106011335,0.0,0.44488107034896557,1,39,0.0
11,0.6249306121293237,0.0,0.41046777397903655,1,39,0.0
12,0.6115062527796802,0.0,0.44971460039119426,0,39,0.0
13,0.5974216457675485,0.0,0.4490433591058818,0,39,0.0
14,0.5777948432108935,0.0,0.4205177018417427,0,39,0.0
15,0.5608396800125346,0.0,0.3782811131483359,1,39,0.0
16,0.5603925094884985,0.0,0.40895867080242826,0,39,0.0
17,0.5432834274628583,0.0,0.4366948516768389,0,39,0.0
18,0.5266042362241184,0.0,0.3868579415433166,0,39,0.0
19,0.5248462501694174,0.0,0.3576096594639729,1,39,0.0
20,0.5108488664907568,0.0,0.3637125641857949,0,39,0.0
21,0.4939023771706749,0.0,0.332893225910888,1,39,0.0
22,0.4897710134001339,0.0,0.3384982245948818,0,39,0.0
23,0.47676720794509436,0.0,0.351614663665465,0,39,0.0
24,0.46807817325872536,0.0,0.36895818732483393,0,39,0.0
25,0.4651869346113766,0.0,0.3684573784236555,0,39,0.0
26,0.44775518774986267,0.0,0.35607437150078447,0,39,0.0
27,0.448540644084706,0.0,0.32347637607565205,1,39,0.0
28,0.4316929115968592,0.0,0.3674014239210863,0,39,0.0
29,0.4287218731992385,0.0,0.3704919023189981,0,39,0.0
30,0.42321167342803057,0.0,0.3537262510412032,0,39,0.0
31,0.4151727203060599,0.0,0.35128004722723727,0,39,0.0
32,0.4100931430564207,0.0,0.327620843658162,0,39,0.0
33,0.3983098212410422,0.0,0.3473769070130368,0,39,0.0
34,0.40178902534877553,0.0,0.33718914003253353,0,39,0.0
1,0.9125110272850309,0.0,0.6932087596019032,1,40,0.0
2,0.8109719987426486,0.0,0.6438916040537563,1,40,0.0
3,0.7690944189117068,0.0,0.7014386424317411,0,40,0.0
4,0.7408558797268641,0.0,0.6776296347271495,0,40,0.0
5,0.7136116985763822,0.0,0.6184992633817676,1,40,0.0
6,0.6949155124880019,0.0,0.5712227513752193,1,40,0.0
7,0.6724600664206913,0.0,0.6188706538729218,0,40,0.0
8,0.6531683618114108,0.0,0.5710681351672566,1,40,0.0
9,0.6264777304161162,0.0,0.5329868565250409,1,40,0.0
10,0.6239476037167367,0.0,0.5636645536671419,0,40,0.0
11,0.609140521358876,0.0,0.5881818929580757,0,40,0.0
12,0.5980676320337114,0.0,0.5595122381146828,0,40,0.0
13,0.5693678639474369,0.0,0.6286240124827952,0,40,0.0
14,0.5700780238424029,0.0,0.5760704490129853,0,40,0.0
15,0.5561465826772508,0.0,0.5298159767730235,1,40,0.0
16,0.5435371544389498,0.0,0.5608821955815116,0,40,0.0
17,0.5280024469608352,0.0,0.5292842467897008,1,40,0.0
18,0.5095468475705102,0.0,0.5063921360394558,1,40,0.0
19,0.5078099692861239,0.0,0.5361734508308659,0,40,0.0
20,0.49510996150118963,0.0,0.5140373116072415,0,40,0.0
21,0.4869526610487983,0.0,0.5076600588454224,0,40,0.0
22,0.46096109066690716,0.0,0.5017721314787403,1,40,0.0
23,0.46282582942928585,0.0,0.48005919089488547,1,40,0.0
24,0.4557067858321326,0.0,0.4737458976629368,1,40,0.0
25,0.43686806446030024,0.0,0.47911890837591997,0,40,0.0
26,0.4372881909921056,0.0,0.4742116968896662,0,40,0.0
27,0.4272148414027123,0.0,0.484447100920114,0,40,0.0
28,0.42699652378048214,0.0,0.4576186479609333,1,40,0.0
29,0.40180884301662445,0.0,0.4577734886234967,0,40,0.0
30,0.4024415851703712,0.0,0.4541764931152832,1,40,0.0
31,0.40147201468547183,0.0,0.44997253158785194,1,40,0.0
32,0.3907787235719817,0.0,0.4691778237752018,0,40,0.0
33,0.38744355951036724,0.0,0.4449799491375656,1,40,0.0
34,0.38566888372103375,0.0,0.47251211403754595,0,40,0.0
35,0.3807179863963808,0.0,0.45820374455436386,0,40,0.0
36,0.3697478526404926,0.0,0.4592275001281748,0,40,0.0
37,0.36472364071579205,0.0,0.45628993060630957,0,40,0.0
38,0.36872021410436856,0.0,0.45393409390211653,0,40,0.0
39,0.3679785955519903,0.0,0.45350211457730727,0,40,0.0
40,0.37259343018134433,0.0,0.4561519713654018,0,40,0.0
