SVM+RF [hard],SVM+RF [soft],SVM+RF [weighted_soft],SVM+RF [stacking],SVM+RF+RESNET_SE [hard],SVM+RF+RESNET_SE [soft],SVM+RF+RESNET_SE [weighted_soft],SVM+RF+RESNET_SE [stacking],SVM+RESNET_SE [hard],SVM+RESNET_SE [soft],SVM+RESNET_SE [weighted_soft],SVM+RESNET_SE [stacking],RF+RESNET_SE [hard],RF+RESNET_SE [soft],RF+RESNET_SE [weighted_soft],RF+RESNET_SE [stacking]
0.6610942948088491,0.649816523040822,0.649816523040822,0.6527181635773187,0.6524405626002479,0.6645235673487432,0.6647342189310367,0.6611113880960973,0.6369135198352118,0.6662139350459715,0.6609414103784977,0.6571125337360053,0.6369135198352118,0.6495088803707171,0.6536245594028613,0.6552017836358172
0.8641173938134359,0.8710381125315656,0.8710381125315656,0.85593413610655,0.8964960117861521,0.9179853333641861,0.9209526230126124,0.9334295499021527,0.8892519667284784,0.938886731572223,0.9365487380211936,0.934003182136448,0.8892519667284784,0.9205208530269031,0.918064682637076,0.9156023791923195
0.8026899482277057,0.8042340506037851,0.8010125474986906,0.8048987540882226,0.8511797223409321,0.8714683959163262,0.8907520215229762,0.9213071344356976,0.911591275737929,0.9153489550758082,0.9153489550758082,0.920096205095941,0.911591275737929,0.9200548733425885,0.9170437623207864,0.9159937783234582
0.7679634527580891,0.7895177004224463,0.7895177004224463,0.7948992270623438,0.8141969192202644,0.8505754199063442,0.8505754199063442,0.8976593025586487,0.8967431655888143,0.8833713944149832,0.8901610959415269,0.9021129850413099,0.8967431655888143,0.9047744674515926,0.9047744674515926,0.9042524471026339
0.6954911174105827,0.6839557936594786,0.6839557936594786,0.6945188053480695,0.690231548127254,0.7029232192414432,0.7019184515154909,0.7213016947311006,0.6575722460290012,0.7131905782253918,0.6994380496120438,0.7179581309143829,0.6575722460290012,0.6783104260105524,0.6762441780231154,0.6875057254760225
0.7559901477531702,0.7582373274388503,0.7582373274388503,0.7527373680356827,0.7660723696558241,0.7696412160441346,0.7706341359789636,0.8131171710480268,0.8089474753239861,0.7994877494460711,0.8001760280815139,0.822305284301754,0.8089474753239861,0.7867660278960685,0.7917874235820742,0.8115892385107393
0.774968415788696,0.7751259041344729,0.7751259041344729,0.7636466285824796,0.7842793610733726,0.8071307757895999,0.8157372618881039,0.8136948212660968,0.7879275050695798,0.8213001588466575,0.8215215380552203,0.8102382153594976,0.7879275050695798,0.8100519578797376,0.8057866025854848,0.8098323820775393
0.7543530055835337,0.7540154224460032,0.7540154224460032,0.7679265249835581,0.8268025981310153,0.8564595260867576,0.8594077005835805,0.881515130418639,0.8544364759411147,0.877382052488078,0.8758621169511847,0.8781615981507473,0.8544364759411147,0.8637094695422478,0.8559028686109562,0.8675000027713207
0.7924311503784587,0.7941401528677398,0.7941401528677398,0.7939540915406746,0.8263575556299823,0.8392319039581637,0.8392319039581637,0.850121937517762,0.8266835341910488,0.8488024541238529,0.844511975802113,0.850121937517762,0.8266835341910488,0.8285139338563796,0.8299290622994335,0.8344982375638149
0.6979028659134293,0.729803063133466,0.729803063133466,0.7317537685387152,0.7631085559085913,0.7889338239602546,0.7889338239602546,0.77037835525552,0.7364832076272612,0.7578401989476289,0.762297228755022,0.7615436024122632,0.7364832076272612,0.7849303474303474,0.7846524640436816,0.7675909807239533
0.858444922684521,0.8715574059168956,0.8715574059168956,0.8792997758006861,0.9189151937065929,0.9495169504482472,0.9495169504482472,0.9392645328817402,0.9281574458359605,0.9548947732415882,0.9519107361596001,0.9392645328817402,0.9281574458359605,0.9681823162265776,0.9652824639800768,0.9436722927147596
0.8166930173542191,0.8284033249147437,0.8284033249147437,0.8181157452051905,0.8799694620290475,0.9126241384139657,0.9093099534773588,0.9478495415292569,0.9232760841577027,0.9351051136742895,0.9402540540772522,0.9470005666331793,0.9232760841577027,0.9412379654486427,0.9437135316303811,0.958154928453493
0.9000335687796831,0.9057969096853655,0.9057969096853655,0.9028379805693849,0.9172650957028122,0.9439702520506621,0.9452999874489438,0.9602795548075986,0.9320032384807375,0.9583683370697426,0.9582292429962729,0.9553171523816235,0.9320032384807375,0.9498983462484648,0.9523157226219401,0.9553586679481867
0.8077138410107172,0.8033502208752642,0.8033502208752642,0.7992979004746312,0.8239374422089587,0.8385059767693572,0.8404816156707104,0.8530434402586318,0.8259557959068353,0.8573501326924315,0.8599835193322557,0.8520896046558297,0.8259557959068353,0.8436769771174707,0.8462942477323663,0.8419351435905764
0.8426218181543597,0.8293364782161914,0.8293364782161914,0.8252275588340883,0.8834975455331493,0.9025373879475382,0.9060193695230505,0.8934396616029538,0.8945577520305781,0.9252173325096358,0.9179834226980629,0.8959594248256487,0.8945577520305781,0.9047720658953924,0.9038629866815396,0.8952319776435596
0.8388107682115974,0.8424360719400894,0.8424360719400894,0.8402360640702609,0.8651840105395855,0.8831140782112237,0.8883501351594225,0.8833869612975549,0.8602969372160483,0.8853344499371106,0.8863166147457427,0.8858407843954931,0.8602969372160483,0.8713304246160456,0.8698265230631796,0.8827026932660242
0.8042652517120371,0.8105412111453243,0.8105412111453243,0.8008047406159735,0.8372641956250871,0.8563611383613781,0.858509938556373,0.8712587783430247,0.8740116833659312,0.8937732347864469,0.8937091246089548,0.8839037066994385,0.8740116833659312,0.8817522348410967,0.8817522348410967,0.8767572452180958
0.8234392881774706,0.8080817266955753,0.8080817266955753,0.7972568988303086,0.8476890800075159,0.8717493566138641,0.8798690309293272,0.9245033087625679,0.9057980852113593,0.9281328162994125,0.9309571245213939,0.9243791351313785,0.9057980852113593,0.914959588382652,0.9159783059299766,0.9120017226859358
0.7582753072081415,0.7764834456619182,0.7764834456619182,0.7719922124178586,0.8249063601371984,0.8281159717222759,0.8296071957806618,0.8640883047275527,0.8452531284759923,0.8562258626306614,0.8540613604661593,0.8638526081562377,0.8452531284759923,0.851241156869117,0.8528507456008758,0.8514596142939789
0.6926349754468984,0.7313662661326212,0.7313662661326212,0.7327773303442635,0.7686906757136196,0.7860278269308993,0.7834544529492167,0.8242790317006919,0.8409122093625153,0.8027626069716814,0.818008688935989,0.818210518450428,0.8409122093625153,0.8523426154638557,0.8523426154638557,0.8457670486868917
0.7784542053178383,0.79639113255138,0.79639113255138,0.7906905186316951,0.8189262813735455,0.8383244618219227,0.8383244618219227,0.8700214132222903,0.8657640857497411,0.8542498274672188,0.8542498274672188,0.864341708710614,0.8657640857497411,0.8739040842720978,0.8771348816591786,0.8757562300785976
0.7298605455735194,0.745339237514993,0.745339237514993,0.7546702650897497,0.8033968623520553,0.8130600870303217,0.8230745735382387,0.8281077374216186,0.8229863982628072,0.827780783198464,0.8316124833959107,0.8367736079754149,0.8229863982628072,0.8367198771443471,0.8433795535173487,0.8379502225250064
0.6764175957441693,0.7288967266151981,0.7288967266151981,0.7406684678319221,0.7696289778692281,0.8088956667825444,0.8127651448636246,0.8185839049838002,0.8105694274671286,0.829120954789786,0.8298968067849777,0.8172251903146679,0.8105694274671286,0.8079324734639961,0.8132644463138547,0.8148081603366952
0.6852724367396084,0.7328673784172903,0.7328673784172903,0.7348113191278497,0.7945659991484725,0.822459932131929,0.825614225895916,0.8253275380483758,0.786832906815587,0.8111822915115783,0.81483639899751,0.8189770710234725,0.786832906815587,0.8072490809742923,0.8096110730811683,0.8101794996969398
0.7680174319261338,0.7804420496242107,0.7804420496242107,0.7750637913511158,0.8175856301406549,0.8827291950021794,0.8842815928430581,0.9068837157932771,0.9082572012001204,0.907614249091239,0.915357006432518,0.9096921051526508,0.9082572012001204,0.9296366731705443,0.9296366731705443,0.9270871707155592
0.7363611427329986,0.7375016052274896,0.7375016052274896,0.7428610979275431,0.7592918655083316,0.7767849893072587,0.7787407662205608,0.8156070147830108,0.8003377829096816,0.7843561566138814,0.7884063637590413,0.8083419606141384,0.8003377829096816,0.7893568142739108,0.7907972787781422,0.8114191821795678
0.8291525086155735,0.8315414599934948,0.8315414599934948,0.8283386376613873,0.8717348748161806,0.8973714962325866,0.9016591621362929,0.9145563911792048,0.9025924069484389,0.9278141588892024,0.9297321735847297,0.9146460682950024,0.9025924069484389,0.9205244652823723,0.91968057557421,0.905328162743791
0.8087149984189221,0.8087167045567987,0.8087167045567987,0.8101258158561204,0.838415219741473,0.8636728447523555,0.8697089731950232,0.8912287873940503,0.8036751585075397,0.8890444219704222,0.8849470100397324,0.8972837246832661,0.8036751585075397,0.8485945892278346,0.851977843689687,0.8424848304607748
0.7889011178336834,0.7818914730543475,0.7818914730543475,0.7805231183382444,0.8001217446683521,0.8356997853968771,0.8386655861589467,0.8530862755112105,0.8679324789502041,0.8537420384866312,0.8551968056628207,0.8534321449284812,0.8679324789502041,0.8413257484601007,0.8413257484601007,0.848056959372081
0.8003173741104742,0.8164012616904505,0.8164012616904505,0.8241433473499221,0.814710694137107,0.8432285779808999,0.8470921398116793,0.8616660980675033,0.8243258732107972,0.8646594863526469,0.8671937901827671,0.855078457336687,0.8243258732107972,0.8683783169226419,0.8631051497981957,0.8499031342724628
0.7377602508887344,0.7423233240054189,0.7423233240054189,0.7485412127580856,0.7647396862027521,0.7769039423275411,0.7769039423275411,0.7965849673613078,0.793511514442473,0.7871540744529235,0.7897184464759348,0.7962272914380112,0.793511514442473,0.8059658109203888,0.8101158337862251,0.8055851452012492
0.7344483912664599,0.7659991144696452,0.7659991144696452,0.7600509903736714,0.808703530167809,0.8482841112257683,0.849990081196695,0.868578612954674,0.8536963366136607,0.860980255438257,0.8586103444282529,0.8663750802402261,0.8536963366136607,0.8618230386090392,0.8634993782233303,0.8705985939002243
0.8477766212286448,0.8603266788314902,0.8603266788314902,0.8539838556656056,0.8804194070466653,0.9021553190317968,0.9021553190317968,0.9061195272986985,0.9044424033359716,0.9080019130187772,0.911172269109241,0.9077466222511856,0.9044424033359716,0.9112936838675216,0.9112936838675216,0.8980191153262884
0.844441056815531,0.854605019073881,0.854605019073881,0.8555244792475258,0.886668822654924,0.9050580819107423,0.9054374838452062,0.9244400521406175,0.9096531814754379,0.9157145965096202,0.9187660817379869,0.9339235417296987,0.9096531814754379,0.9057833033126239,0.9060348913085905,0.9208939836371186
0.7501497150169296,0.7385697655475938,0.7385697655475938,0.7378346482145538,0.7519065033286536,0.7623811127485907,0.7594361582488939,0.7508782879978838,0.7200351834322918,0.7581882771745352,0.7538902325089769,0.7568125878931266,0.7200351834322918,0.7302332535885168,0.7323550548688331,0.7418540213661796
0.7203683413360833,0.7179439349080913,0.7179439349080913,0.7198886947134568,0.7644515730659684,0.7743604460913921,0.7745964683609965,0.8315152169839551,0.8052037046720512,0.7946768649988731,0.8050277836250701,0.8231870079089726,0.8052037046720512,0.8061215092848528,0.8128560136810838,0.8247650329538312
0.7907394434391044,0.8372903352028173,0.8372903352028173,0.8388499574539366,0.8807599194280528,0.8964265347665414,0.8964265347665414,0.8984627494562505,0.8697078100179132,0.8861587776111055,0.8889157499112251,0.8984627494562505,0.8697078100179132,0.9100170978925276,0.9041721787811658,0.9034523845095356
0.80764422807116,0.8362031582468434,0.8362031582468434,0.8293065021818384,0.8653535916443756,0.8841836269456522,0.8839509211885848,0.8808062358069997,0.8591185125214976,0.8856313240294544,0.8894828342636829,0.8794738565094535,0.8591185125214976,0.8677914242620125,0.8672626569405537,0.8766299694688262
0.7681083234921882,0.752751027509293,0.752751027509293,0.760748472201019,0.8306088613697309,0.8574850069511936,0.8574850069511936,0.8789605277524515,0.8611446856178568,0.8806090117717698,0.8807701140007573,0.8880148646998036,0.8611446856178568,0.8614356490782327,0.8622631383222021,0.8564169301093644
0.7593831519907634,0.7827909021873491,0.7827909021873491,0.7865383462867818,0.816164216140143,0.8527774387985572,0.8627533755610493,0.8701401976121994,0.8560993454756968,0.8716938960140493,0.8685244239339286,0.8695198502176585,0.8560993454756968,0.8718078959484152,0.8718078959484152,0.8752461466828985
