subject,channel,alpha,f1,drop_pp
1,0,1.0,0.5890469697552322,0.0
1,0,0.75,0.582271774378309,0.6775195376923171
1,0,0.5,0.5375196688479316,5.152730090730062
1,0,0.25,0.5060688333986059,8.297813635662632
1,0,0.0,0.4778506233578034,11.11963463974288
1,1,1.0,0.5890469697552322,0.0
1,1,0.75,0.6037367879471444,-1.4689818191912174
1,1,0.5,0.6161369408843222,-2.7089971129090062
1,1,0.25,0.6023014152747673,-1.325444551953514
1,1,0.0,0.5958145981135058,-0.6767628358273603
1,2,1.0,0.5890469697552322,0.0
1,2,0.75,0.5711229260582008,1.7924043697031378
1,2,0.5,0.5441866894180302,4.486028033720202
1,2,0.25,0.4909715937126655,9.807537604256666
1,2,0.0,0.4096735005868266,17.937346916840557
1,3,1.0,0.5890469697552322,0.0
1,3,0.75,0.5664425331981563,2.260443655707589
1,3,0.5,0.5462032091398904,4.284376061534179
1,3,0.25,0.5033549591876906,8.56920105675416
1,3,0.0,0.4630704807523539,12.597648900287828
1,4,1.0,0.5890469697552322,0.0
1,4,0.75,0.5867832040549226,0.22637657003096168
1,4,0.5,0.5820267554946859,0.7020214260546331
1,4,0.25,0.5542397909419187,3.480717881331352
1,4,0.0,0.511037991611068,7.800897814416419
1,5,1.0,0.5890469697552322,0.0
1,5,0.75,0.5259154622323748,6.313150752285734
1,5,0.5,0.4628845063781777,12.61624633770545
1,5,0.25,0.4165559354359897,17.24910343192425
1,5,0.0,0.40080097942269044,18.824599033254174
1,6,1.0,0.5890469697552322,0.0
1,6,0.75,0.6275608664820693,-3.851389672683714
1,6,0.5,0.6491502437545491,-6.0103273999316915
1,6,0.25,0.6541736086709519,-6.512663891571968
1,6,0.0,0.6512993685666398,-6.225239881140765
1,7,1.0,0.5890469697552322,0.0
1,7,0.75,0.60250554568536,-1.345857593012778
1,7,0.5,0.5739092553869882,1.513771436824396
1,7,0.25,0.5530212501480573,3.6025719607174933
1,7,0.0,0.5076653154127101,8.138165434252208
1,8,1.0,0.5890469697552322,0.0
1,8,0.75,0.5987332103345175,-0.9686240579285355
1,8,0.5,0.5892555770120491,-0.020860725681692838
1,8,0.25,0.5743560044435683,1.4690965311663917
1,8,0.0,0.5124982647543246,7.654870500090761
2,0,1.0,0.7907522450722583,0.0
2,0,0.75,0.7909518928797026,-0.01996478074443031
2,0,0.5,0.7836183862098496,0.7133858862408693
2,0,0.25,0.7610174209404321,2.9734824131826154
2,0,0.0,0.7286701269832713,6.2082118088987
2,1,1.0,0.7907522450722583,0.0
2,1,0.75,0.774366078181553,1.6386166890705267
2,1,0.5,0.7569655965874709,3.3786648484787407
2,1,0.25,0.7425645459773981,4.81876990948602
2,1,0.0,0.711562579261189,7.918966581106924
2,2,1.0,0.7907522450722583,0.0
2,2,0.75,0.7883968951039251,0.2355349968333198
2,2,0.5,0.774966956903418,1.5785288168840284
2,2,0.25,0.7467302947565657,4.402195031569256
2,2,0.0,0.7244576467611202,6.629459831113804
2,3,1.0,0.7907522450722583,0.0
2,3,0.75,0.7985467631482712,-0.7794518076012946
2,3,0.5,0.8010216214672436,-1.0269376394985374
2,3,0.25,0.7877941883998205,0.2958056672437759
2,3,0.0,0.7721860134709391,1.8566231601319205
2,4,1.0,0.7907522450722583,0.0
2,4,0.75,0.8108325824745004,-2.008033740224213
2,4,0.5,0.8335252237239771,-4.277297865171881
2,4,0.25,0.8200104495297579,-2.9258204457499604
2,4,0.0,0.7862622753441539,0.4489969728104337
2,5,1.0,0.7907522450722583,0.0
2,5,0.75,0.7997180314919732,-0.8965786419714905
2,5,0.5,0.7969699627105111,-0.6217717638252851
2,5,0.25,0.7965860695943217,-0.583382452206338
2,5,0.0,0.717485188087297,7.326705698496127
2,6,1.0,0.7907522450722583,0.0
2,6,0.75,0.7921879807199261,-0.14357356476678573
2,6,0.5,0.7962632131196092,-0.5510968047350961
2,6,0.25,0.7872466305091728,0.3505614563085513
2,6,0.0,0.7838512382585331,0.6901006813725186
2,7,1.0,0.7907522450722583,0.0
2,7,0.75,0.7825263834697798,0.8225861602478513
2,7,0.5,0.7676374132385634,2.3114831833694893
2,7,0.25,0.7284448422484691,6.230740282378921
2,7,0.0,0.6625771484012033,12.817509667105497
2,8,1.0,0.7907522450722583,0.0
2,8,0.75,0.7799658228071102,1.0786422265148032
2,8,0.5,0.7365051226964398,5.424712237581852
2,8,0.25,0.6949580771976178,9.579416787464046
2,8,0.0,0.6908280831858595,9.992416188639874
3,0,1.0,0.8235374117830072,0.0
3,0,0.75,0.819811135593288,0.3726276189719213
3,0,0.5,0.7754110704110704,4.812634137193683
3,0,0.25,0.7397133313955746,8.382408038743261
3,0,0.0,0.5757381125447157,24.779929923829147
3,1,1.0,0.8235374117830072,0.0
3,1,0.75,0.8247758101737562,-0.12383983907490181
3,1,0.5,0.8236161783345161,-0.007876655150884648
3,1,0.25,0.8158983927520556,0.7639019030951655
3,1,0.0,0.8033523536313945,2.0185058151612756
3,2,1.0,0.8235374117830072,0.0
3,2,0.75,0.7989629807641667,2.4574431018840492
3,2,0.5,0.6382843860141536,18.52530257688536
3,2,0.25,0.639381411779089,18.41560000039182
3,2,0.0,0.5999228380015879,22.361457378141935
3,3,1.0,0.8235374117830072,0.0
3,3,0.75,0.802723956966483,2.081345481652419
3,3,0.5,0.7163824231985704,10.715498858443684
3,3,0.25,0.5655396162121636,25.799779557084356
3,3,0.0,0.5134096004601476,31.01278113228596
3,4,1.0,0.8235374117830072,0.0
3,4,0.75,0.8146184212452292,0.8918990537778004
3,4,0.5,0.7831768302881763,4.0360581494830905
3,4,0.25,0.7442940503307834,7.924336145222377
3,4,0.0,0.7151278707979313,10.840954098507593
3,5,1.0,0.8235374117830072,0.0
3,5,0.75,0.8296261763082946,-0.6088764525287393
3,5,0.5,0.8109417384888354,1.2595673294171772
3,5,0.25,0.7936968205690673,2.9840591213939893
3,5,0.0,0.7475474576250503,7.598995415795695
3,6,1.0,0.8235374117830072,0.0
3,6,0.75,0.814926818650223,0.8610593132784228
3,6,0.5,0.799763809139523,2.377360264348416
3,6,0.25,0.8035337629793974,2.000364880360983
3,6,0.0,0.7993994326312648,2.413797915174243
3,7,1.0,0.8235374117830072,0.0
3,7,0.75,0.8105938620860642,1.2943549696943002
3,7,0.5,0.782259269493312,4.127814228969518
3,7,0.25,0.7605275590643686,6.300985271863857
3,7,0.0,0.7213029100529101,10.223450173009708
3,8,1.0,0.8235374117830072,0.0
3,8,0.75,0.8076540108653368,1.5883400917670376
3,8,0.5,0.8164213436769827,0.7116068106024498
3,8,0.25,0.8087446071765145,1.4792804606492682
3,8,0.0,0.7355489868702658,8.79884249127414
4,0,1.0,0.8033660464464197,0.0
4,0,0.75,0.7605554250625296,4.2810621383890135
4,0,0.5,0.6858471347372568,11.751891170916295
4,0,0.25,0.6296543592284352,17.37116872179846
4,0,0.0,0.5736103208572545,22.975572558916525
4,1,1.0,0.8033660464464197,0.0
4,1,0.75,0.7647771749131934,3.858887153322632
4,1,0.5,0.7550668850668851,4.829916137953461
4,1,0.25,0.7038178859417317,9.954816050468807
4,1,0.0,0.6677114495316382,13.565459691478154
4,2,1.0,0.8033660464464197,0.0
4,2,0.75,0.7617195926996592,4.164645374676057
4,2,0.5,0.7224850420251514,8.088100442126834
4,2,0.25,0.7002203884399935,10.314565800642628
4,2,0.0,0.6717843428909003,13.158170355551945
4,3,1.0,0.8033660464464197,0.0
4,3,0.75,0.7685586682283714,3.4807378218048357
4,3,0.5,0.7288391518487405,7.4526894597679245
4,3,0.25,0.7229390872957169,8.042695915070286
4,3,0.0,0.7257620016590778,7.760404478734195
4,4,1.0,0.8033660464464197,0.0
4,4,0.75,0.8025350062042044,0.0831040242215364
4,4,0.5,0.784482978957008,1.888306748941171
4,4,0.25,0.7382821961178905,6.508385032852926
4,4,0.0,0.7063026626221772,9.706338382424251
4,5,1.0,0.8033660464464197,0.0
4,5,0.75,0.7888038448965222,1.4562201549897513
4,5,0.5,0.7807014800623986,2.2664566384021145
4,5,0.25,0.7709011626114944,3.2464883834925296
4,5,0.0,0.7348395558921874,6.852649055423232
4,6,1.0,0.8033660464464197,0.0
4,6,0.75,0.7794003205187415,2.3965725927678205
4,6,0.5,0.7464541973569441,5.691184908947566
4,6,0.25,0.7299421218055488,7.342392464087089
4,6,0.0,0.7150069880646891,8.835905838173064
4,7,1.0,0.8033660464464197,0.0
4,7,0.75,0.7628434214266981,4.052262501972159
4,7,0.5,0.7256247777986908,7.7741268647728905
4,7,0.25,0.6773799799726843,12.598606647373545
4,7,0.0,0.6400391419010699,16.332690454534983
4,8,1.0,0.8033660464464197,0.0
4,8,0.75,0.8292086118340581,-2.5842565387638405
4,8,0.5,0.8208792184659749,-1.7513172019555157
4,8,0.25,0.7837025518118822,1.9663494634537537
4,8,0.0,0.7220862774213787,8.127976902504109
5,0,1.0,0.5478460110409988,0.0
5,0,0.75,0.5583651246378433,-1.0519113596844432
5,0,0.5,0.5531768795053349,-0.5330868464336058
5,0,0.25,0.5475671682141553,0.027884282684353945
5,0,0.0,0.5531859976356233,-0.5339986594624424
5,1,1.0,0.5478460110409988,0.0
5,1,0.75,0.5562270627464778,-0.8381051705478981
5,1,0.5,0.5443728023152596,0.34732087257391964
5,1,0.25,0.5264720855488807,2.137392549211814
5,1,0.0,0.5351249687951114,1.2721042245887437
5,2,1.0,0.5478460110409988,0.0
5,2,0.75,0.5504470882958344,-0.2601077254835604
5,2,0.5,0.5590135909798065,-1.1167579938807681
5,2,0.25,0.5611396729190729,-1.3293661878074015
5,2,0.0,0.5484186069715138,-0.057259593051495195
5,3,1.0,0.5478460110409988,0.0
5,3,0.75,0.5859582422029871,-3.8112231161988253
5,3,0.5,0.6055476197230517,-5.770160868205288
5,3,0.25,0.6040156546789419,-5.616964363794308
5,3,0.0,0.5540999035339653,-0.6253892492966484
5,4,1.0,0.5478460110409988,0.0
5,4,0.75,0.5367204674302904,1.1125543610708388
5,4,0.5,0.531471320626936,1.637469041406281
5,4,0.25,0.5120192751255795,3.5826735915419294
5,4,0.0,0.5063631642860466,4.148284675495228
5,5,1.0,0.5478460110409988,0.0
5,5,0.75,0.5206482965794221,2.7197714461576705
5,5,0.5,0.514043906721595,3.380210431940389
5,5,0.25,0.5027759985558439,4.507001248515497
5,5,0.0,0.42499008511361414,12.285592592738471
5,6,1.0,0.5478460110409988,0.0
5,6,0.75,0.5556462057086298,-0.7800194667630933
5,6,0.5,0.5513153504531373,-0.346933941213845
5,6,0.25,0.5409144081846148,0.6931602856384056
5,6,0.0,0.5285440548748214,1.930195616617747
5,7,1.0,0.5478460110409988,0.0
5,7,0.75,0.5509412776503848,-0.30952666093859715
5,7,0.5,0.5535465902548102,-0.5700579213811396
5,7,0.25,0.5246196719960925,2.322633904490634
5,7,0.0,0.4870257051570149,6.082030588398396
5,8,1.0,0.5478460110409988,0.0
5,8,0.75,0.5416670617304121,0.6178949310586712
5,8,0.5,0.5252422833423103,2.260372769868857
5,8,0.25,0.482047783551543,6.579822748945585
5,8,0.0,0.4642829686744032,8.356304236659561
6,0,1.0,0.7019897636520736,0.0
6,0,0.75,0.7070880166936503,-0.5098253041576739
6,0,0.5,0.6306685986769421,7.132116497513142
6,0,0.25,0.6215778327398622,8.041193091221132
6,0,0.0,0.6021523467006595,9.9837416951414
6,1,1.0,0.7019897636520736,0.0
6,1,0.75,0.7029282158599874,-0.09384522079138868
6,1,0.5,0.6456483965974906,5.6341367054582925
6,1,0.25,0.6026261527285135,9.936361092356005
6,1,0.0,0.5577938649091243,14.419589874294925
6,2,1.0,0.7019897636520736,0.0
6,2,0.75,0.6932137012240426,0.8776062428030973
6,2,0.5,0.6654333467544185,3.6556416897655097
6,2,0.25,0.6034129330821004,9.857683056997313
6,2,0.0,0.5684369198372058,13.355284381486776
6,3,1.0,0.7019897636520736,0.0
6,3,0.75,0.7300096041747405,-2.801984052266693
6,3,0.5,0.7072879397982138,-0.5298176146140254
6,3,0.25,0.658240241307392,4.374952234468155
6,3,0.0,0.6331386843534247,6.885107929864887
6,4,1.0,0.7019897636520736,0.0
6,4,0.75,0.6801545997740223,2.183516387805129
6,4,0.5,0.6637912328955894,3.819853075648416
6,4,0.25,0.6359765920551947,6.601317159687881
6,4,0.0,0.6041404376129884,9.784932603908514
6,5,1.0,0.7019897636520736,0.0
6,5,0.75,0.6065027730344867,9.54869906175868
6,5,0.5,0.49276840494081586,20.922135871125768
6,5,0.25,0.3969221059295787,30.506765772249484
6,5,0.0,0.35349934159534446,34.84904220567291
6,6,1.0,0.7019897636520736,0.0
6,6,0.75,0.6986727785506814,0.33169851013921114
6,6,0.5,0.6580829474026628,4.390681624941073
6,6,0.25,0.5842267504006704,11.776301325140315
6,6,0.0,0.5504047009462738,15.158506270579974
6,7,1.0,0.7019897636520736,0.0
6,7,0.75,0.6622345302838898,3.975523336818376
6,7,0.5,0.5468519144686431,15.513784918343044
6,7,0.25,0.5000101992866485,20.19795643654251
6,7,0.0,0.4334381615974504,26.855160205462315
6,8,1.0,0.7019897636520736,0.0
6,8,0.75,0.6945263703607594,0.746339329131418
6,8,0.5,0.6977072652917151,0.4282498360358433
6,8,0.25,0.6883039505836863,1.3685813068387231
6,8,0.0,0.6391306118633754,6.285915178869816
7,0,1.0,0.6103768130849756,0.0
7,0,0.75,0.5932193567469318,1.7157456338043775
7,0,0.5,0.6078094886262058,0.25673244587698374
7,0,0.25,0.5988127192744211,1.1564093810554454
7,0,0.0,0.5789059342631652,3.1470878821810433
7,1,1.0,0.6103768130849756,0.0
7,1,0.75,0.5786359909562679,3.1740822128707658
7,1,0.5,0.5762037885790852,3.4173024505890437
7,1,0.25,0.5525972515764156,5.777956150856001
7,1,0.0,0.5241149364144168,8.626187667055884
7,2,1.0,0.6103768130849756,0.0
7,2,0.75,0.7509178891147894,-14.05410760298138
7,2,0.5,0.7620461248031425,-15.166931171816689
7,2,0.25,0.7476825231419386,-13.730571005696302
7,2,0.0,0.6983499404457397,-8.797312736076412
7,3,1.0,0.6103768130849756,0.0
7,3,0.75,0.6238899490571449,-1.35131359721693
7,3,0.5,0.6499068213783404,-3.953000829336484
7,3,0.25,0.751556512218039,-14.11796991330634
7,3,0.0,0.7350496437720269,-12.467283068705125
7,4,1.0,0.6103768130849756,0.0
7,4,0.75,0.6950693855393304,-8.469257245435479
7,4,0.5,0.6721901495297844,-6.18133364448088
7,4,0.25,0.6599934490879642,-4.96166360029886
7,4,0.0,0.6386250957084294,-2.82482826234538
7,5,1.0,0.6103768130849756,0.0
7,5,0.75,0.5991244709084504,1.1252342176525154
7,5,0.5,0.6033414601681818,0.7035352916793802
7,5,0.25,0.6165819843954586,-0.6205171310483037
7,5,0.0,0.5911056108968998,1.9271202188075764
7,6,1.0,0.6103768130849756,0.0
7,6,0.75,0.6055196622080021,0.48571508769734706
7,6,0.5,0.5702890423714252,4.008777071355041
7,6,0.25,0.5518137553807969,5.856305770417869
7,6,0.0,0.5384176987431618,7.1959114341813795
7,7,1.0,0.6103768130849756,0.0
7,7,0.75,0.6315175534033601,-2.114074031838453
7,7,0.5,0.6545343639904216,-4.415755090544604
7,7,0.25,0.6421850559985511,-3.1808242913575535
7,7,0.0,0.6099909866987119,0.03858263862637212
7,8,1.0,0.6103768130849756,0.0
7,8,0.75,0.7369789809970602,-12.660216791208455
7,8,0.5,0.7186181171144389,-10.82413040294633
7,8,0.25,0.662344768121444,-5.196795503646845
7,8,0.0,0.6212602461396579,-1.0883433054682312
8,0,1.0,0.8097692431244736,0.0
8,0,0.75,0.7995290586033462,1.0240184521127405
8,0,0.5,0.7962855388685879,1.3483704255885742
8,0,0.25,0.7675828584124476,4.218638471202607
8,0,0.0,0.7405320939673739,6.9237149157099775
8,1,1.0,0.8097692431244736,0.0
8,1,0.75,0.7925931025691302,1.7176140555343444
8,1,0.5,0.7872912518167565,2.2477991307717105
8,1,0.25,0.7490734676083641,6.06957755161095
8,1,0.0,0.7080273298216803,10.174191330279337
8,2,1.0,0.8097692431244736,0.0
8,2,0.75,0.8068413178124075,0.2927925312066093
8,2,0.5,0.8013991367994061,0.8370106325067517
8,2,0.25,0.7818951175882908,2.7874125536182848
8,2,0.0,0.7318436568551778,7.79255862692958
8,3,1.0,0.8097692431244736,0.0
8,3,0.75,0.8002424114152803,0.9526831709193329
8,3,0.5,0.8012844198159762,0.8484823308497424
8,3,0.25,0.7834458429436735,2.632340018080015
8,3,0.0,0.755234740938332,5.453450218614164
8,4,1.0,0.8097692431244736,0.0
8,4,0.75,0.7988109493428743,1.0958293781599293
8,4,0.5,0.7841778710438776,2.559137208059603
8,4,0.25,0.728796817139594,8.097242598487963
8,4,0.0,0.7372478887578693,7.252135436660434
8,5,1.0,0.8097692431244736,0.0
8,5,0.75,0.7909227980931783,1.884644503129529
8,5,0.5,0.7114744536233237,9.82947895011499
8,5,0.25,0.6542960789108991,15.547316421357449
8,5,0.0,0.6321852887375522,17.758395438692144
8,6,1.0,0.8097692431244736,0.0
8,6,0.75,0.8135992366447506,-0.38299935202770197
8,6,0.5,0.818484553133676,-0.8715310009202337
8,6,0.25,0.8233159159339302,-1.354667280945654
8,6,0.0,0.8087008729304327,0.10683701940409351
8,7,1.0,0.8097692431244736,0.0
8,7,0.75,0.8150438818783337,-0.5274638753860028
8,7,0.5,0.7941195145841163,1.5649728540357288
8,7,0.25,0.7222400023822408,8.752924074223278
8,7,0.0,0.7003575145741106,10.941172855036307
8,8,1.0,0.8097692431244736,0.0
8,8,0.75,0.8024511350215576,0.7318108102915999
8,8,0.5,0.7791064354434473,3.066280768102636
8,8,0.25,0.752764877479587,5.7004365644886645
8,8,0.0,0.6738092769946016,13.595996612987204
9,0,1.0,0.7885463877541343,0.0
9,0,0.75,0.7847669758739035,0.37794118802307874
9,0,0.5,0.7691611070113362,1.9385280742798106
9,0,0.25,0.7647737447274411,2.377264302669324
9,0,0.0,0.7357716549624578,5.277473279167655
9,1,1.0,0.7885463877541343,0.0
9,1,0.75,0.764285613249208,2.4260774504926363
9,1,0.5,0.7281849936716108,6.03613940825235
9,1,0.25,0.6573930450980634,13.115334265607093
9,1,0.0,0.6388800591474659,14.96663286066684
9,2,1.0,0.7885463877541343,0.0
9,2,0.75,0.7770598824631083,1.1486505291026017
9,2,0.5,0.7635819547182756,2.4964433035858713
9,2,0.25,0.7615042756178536,2.7042112136280716
9,2,0.0,0.7429760813843986,4.557030636973569
9,3,1.0,0.7885463877541343,0.0
9,3,0.75,0.7996950336022226,-1.1148645848088279
9,3,0.5,0.8084515065700051,-1.990511881587076
9,3,0.25,0.8031000629719249,-1.4553675217790607
9,3,0.0,0.7744741664039037,1.4072221350230674
9,4,1.0,0.7885463877541343,0.0
9,4,0.75,0.7784808935128096,1.0065494241324746
9,4,0.5,0.7665756662204317,2.197072153370261
9,4,0.25,0.6976718217496716,9.087456600446275
9,4,0.0,0.6629394429926625,12.560694476147184
9,5,1.0,0.7885463877541343,0.0
9,5,0.75,0.7705549913404903,1.7991396413644
9,5,0.5,0.7345447081653979,5.400167958873647
9,5,0.25,0.7060689545768712,8.247743317726307
9,5,0.0,0.6824945188317281,10.605186892240626
9,6,1.0,0.7885463877541343,0.0
9,6,0.75,0.7876766232059281,0.08697645482061978
9,6,0.5,0.7835237600035636,0.5022627750570718
9,6,0.25,0.7823453983254873,0.6200989428646997
9,6,0.0,0.7668535696770526,2.1692818077081677
9,7,1.0,0.7885463877541343,0.0
9,7,0.75,0.7739879653135487,1.4558422440585583
9,7,0.5,0.7694846406821725,1.9061747071961843
9,7,0.25,0.7231593369653071,6.538705078882723
9,7,0.0,0.6779093802168882,11.063700753724614
9,8,1.0,0.7885463877541343,0.0
9,8,0.75,0.7793413875752715,0.9205000178862832
9,8,0.5,0.7723830995289505,1.616328822518387
9,8,0.25,0.7587978373323354,2.9748550421798914
9,8,0.0,0.6982549472403738,9.029144051376047
10,0,1.0,0.7281613805121943,0.0
10,0,0.75,0.7121959188413303,1.596546167086399
10,0,0.5,0.6868810426134703,4.128033789872399
10,0,0.25,0.662275990837565,6.58853896746292
10,0,0.0,0.6279389145242804,10.022246598791384
10,1,1.0,0.7281613805121943,0.0
10,1,0.75,0.7598897146214956,-3.1728334109301315
10,1,0.5,0.7239611372484765,0.4200243263717707
10,1,0.25,0.6820633128917043,4.609806762048995
10,1,0.0,0.6457425820489895,8.241879846320476
10,2,1.0,0.7281613805121943,0.0
10,2,0.75,0.7140198537820516,1.4141526730142684
10,2,0.5,0.6941578979651104,3.400348254708385
10,2,0.25,0.6523366456520454,7.582473486014885
10,2,0.0,0.6302536048321956,9.790777567999864
10,3,1.0,0.7281613805121943,0.0
10,3,0.75,0.7039232396849653,2.423814082722897
10,3,0.5,0.6919381808410824,3.622319967111187
10,3,0.25,0.6740062507216839,5.415512979051041
10,3,0.0,0.5963702745930433,13.1791105919151
10,4,1.0,0.7281613805121943,0.0
10,4,0.75,0.7675818110600721,-3.9420430547877805
10,4,0.5,0.7876685578578644,-5.950717734567013
10,4,0.25,0.7746949916187797,-4.653361110658549
10,4,0.0,0.7582124670756266,-3.005108656343236
10,5,1.0,0.7281613805121943,0.0
10,5,0.75,0.7270720795005584,0.10893010116358459
10,5,0.5,0.6821725447160625,4.598883579613178
10,5,0.25,0.6521193807039628,7.604199980823145
10,5,0.0,0.6328560144958022,9.530536601639206
10,6,1.0,0.7281613805121943,0.0
10,6,0.75,0.7285446437620351,-0.038326324984083726
10,6,0.5,0.719224165729774,0.8937214782420266
10,6,0.25,0.7110944925606463,1.7066887951547982
10,6,0.0,0.7016439886325171,2.6517391879677166
10,7,1.0,0.7281613805121943,0.0
10,7,0.75,0.7017732690321523,2.6388111480041943
10,7,0.5,0.6811089811089812,4.705239940321304
10,7,0.25,0.6203059862078849,10.785539430430935
10,7,0.0,0.583403805388491,14.475757512370324
10,8,1.0,0.7281613805121943,0.0
10,8,0.75,0.752735661682329,-2.4574281170134715
10,8,0.5,0.7441401895902147,-1.5978809078020406
10,8,0.25,0.6988881895009748,2.92731910112195
10,8,0.0,0.668872336171697,5.9289044340497306
11,0,1.0,0.8514339254432103,0.0
11,0,0.75,0.8384708365279219,1.2963088915288412
11,0,0.5,0.822796157059315,2.8637768383895312
11,0,0.25,0.7787669522518585,7.266697319135174
11,0,0.0,0.6952027913444172,15.623113409879307
11,1,1.0,0.8514339254432103,0.0
11,1,0.75,0.857725935522169,-0.6292010078958743
11,1,0.5,0.8420567176516882,0.9377207791522069
11,1,0.25,0.8110595671207245,4.0374358322485815
11,1,0.0,0.7624767937145119,8.895713172869835
11,2,1.0,0.8514339254432103,0.0
11,2,0.75,0.8320770383236391,1.9356887119571176
11,2,0.5,0.7990082938690355,5.242563157417479
11,2,0.25,0.7713799580840612,8.005396735914905
11,2,0.0,0.7426791936933925,10.875473174981776
11,3,1.0,0.8514339254432103,0.0
11,3,0.75,0.8434645244439444,0.7969400999265908
11,3,0.5,0.8279847655129797,2.3449159930230556
11,3,0.25,0.7851127648501313,6.6321160593079025
11,3,0.0,0.7459113702244075,10.552255521880284
11,4,1.0,0.8514339254432103,0.0
11,4,0.75,0.8444410900346868,0.6992835408523468
11,4,0.5,0.8388412528904889,1.259267255272134
11,4,0.25,0.8171776264242444,3.4256299018965874
11,4,0.0,0.7821769652355274,6.9256960207682905
11,5,1.0,0.8514339254432103,0.0
11,5,0.75,0.8601346132902221,-0.8700687847011834
11,5,0.5,0.8206307695805071,3.0803155862703213
11,5,0.25,0.7046875995313815,14.67463259118288
11,5,0.0,0.6512251543240839,20.02087711191264
11,6,1.0,0.8514339254432103,0.0
11,6,0.75,0.8763503058640657,-2.491638042085542
11,6,0.5,0.8834935221950706,-3.205959675186032
11,6,0.25,0.8640996057045364,-1.2665680261326084
11,6,0.0,0.8606034904862178,-0.9169565043007477
11,7,1.0,0.8514339254432103,0.0
11,7,0.75,0.8551968752584953,-0.37629498152850216
11,7,0.5,0.8174582984697686,3.3975626973441697
11,7,0.25,0.7165590033596687,13.487492208354157
11,7,0.0,0.646501513749826,20.49324116933843
11,8,1.0,0.8514339254432103,0.0
11,8,0.75,0.8333552322781452,1.8078693165065052
11,8,0.5,0.8062203600996705,4.521356534353982
11,8,0.25,0.7819453801563575,6.948854528685278
11,8,0.0,0.7382052698538377,11.322865558937256
12,0,1.0,0.8693395358673497,0.0
12,0,0.75,0.8741289694703799,-0.4789433603030191
12,0,0.5,0.8589420886426504,1.0397447224699263
12,0,0.25,0.8402953306076597,2.904420525968998
12,0,0.0,0.8265039811474322,4.283555471991751
12,1,1.0,0.8693395358673497,0.0
12,1,0.75,0.8838504206838969,-1.4510884816547165
12,1,0.5,0.8821307621922361,-1.2791226324886384
12,1,0.25,0.8760327060600227,-0.6693170192673015
12,1,0.0,0.8231994969799848,4.614003888736484
12,2,1.0,0.8693395358673497,0.0
12,2,0.75,0.8717516521456161,-0.24121162782664296
12,2,0.5,0.8425279486796038,2.68115871877459
12,2,0.25,0.8211721780679345,4.816735779941517
12,2,0.0,0.8033238144919788,6.601572137537093
12,3,1.0,0.8693395358673497,0.0
12,3,0.75,0.870157669359797,-0.08181334924473038
12,3,0.5,0.8661747349763831,0.31648008909666014
12,3,0.25,0.8170023421821984,5.233719368515133
12,3,0.0,0.7651434260905796,10.419610977677007
12,4,1.0,0.8693395358673497,0.0
12,4,0.75,0.8511750772619849,1.8164458605364753
12,4,0.5,0.8312884532295368,3.805108263781287
12,4,0.25,0.7920394483204616,7.730008754688811
12,4,0.0,0.7609774176153371,10.836211825201259
12,5,1.0,0.8693395358673497,0.0
12,5,0.75,0.8581436329950041,1.119590287234562
12,5,0.5,0.8175656405332514,5.177389533409826
12,5,0.25,0.7905532639885222,7.878627187882747
12,5,0.0,0.7655742049091535,10.376533095819617
12,6,1.0,0.8693395358673497,0.0
12,6,0.75,0.8686353858023672,0.07041500649824783
12,6,0.5,0.8689895377388704,0.03499981284792453
12,6,0.25,0.8772890698166375,-0.7949533949287768
12,6,0.0,0.86278553366015,0.6554002207199705
12,7,1.0,0.8693395358673497,0.0
12,7,0.75,0.8627522629246053,0.6587272942744415
12,7,0.5,0.8502875594820697,1.905197638528
12,7,0.25,0.8237668002407116,4.557273562663811
12,7,0.0,0.748004896549417,12.133463931793266
12,8,1.0,0.8693395358673497,0.0
12,8,0.75,0.8683523561436075,0.0987179723742182
12,8,0.5,0.8541970060554138,1.5142529811935868
12,8,0.25,0.8357400236223236,3.359951224502611
12,8,0.0,0.7983068717722706,7.103266409507913
13,0,1.0,0.8577125490915831,0.0
13,0,0.75,0.8699328986840174,-1.2220349592434232
13,0,0.5,0.8652510193703059,-0.7538470278722786
13,0,0.25,0.8318918622527656,2.5820686838817553
13,0,0.0,0.8288219092173661,2.889063987421703
13,1,1.0,0.8577125490915831,0.0
13,1,0.75,0.8524995071977453,0.5213041893837866
13,1,0.5,0.834996663347024,2.2715885744559072
13,1,0.25,0.8094625517599593,4.824999733162382
13,1,0.0,0.7893522038308285,6.836034526075463
13,2,1.0,0.8577125490915831,0.0
13,2,0.75,0.8464839754267747,1.122857366480845
13,2,0.5,0.8268294019788328,3.088314711275031
13,2,0.25,0.8068735169709444,5.083903212063867
13,2,0.0,0.7423505742019447,11.53619748896384
13,3,1.0,0.8577125490915831,0.0
13,3,0.75,0.8421612549409159,1.555129415066725
13,3,0.5,0.8379135836871772,1.9798965404405955
13,3,0.25,0.8224675223883482,3.5245026703234927
13,3,0.0,0.8077282297675062,4.998431932407687
13,4,1.0,0.8577125490915831,0.0
13,4,0.75,0.8558287959844852,0.1883753107097874
13,4,0.5,0.8152536391672163,4.245890992436685
13,4,0.25,0.7765056933325486,8.120685575903453
13,4,0.0,0.7739287121819038,8.378383690967928
13,5,1.0,0.8577125490915831,0.0
13,5,0.75,0.8582616169422421,-0.05490678506590019
13,5,0.5,0.8403536361720741,1.7358912919508973
13,5,0.25,0.8141646008656898,4.354794822589336
13,5,0.0,0.7868232956589922,7.088925343259089
13,6,1.0,0.8577125490915831,0.0
13,6,0.75,0.8284402581199484,2.927229097163475
13,6,0.5,0.8108966425596209,4.6815906531962215
13,6,0.25,0.7890126290354283,6.869992005615478
13,6,0.0,0.7761024593323569,8.161008975922623
13,7,1.0,0.8577125490915831,0.0
13,7,0.75,0.8205726750681775,3.7139874023405572
13,7,0.5,0.7927102657103052,6.500228338127789
13,7,0.25,0.7297326069986261,12.797994209295705
13,7,0.0,0.6837809254042277,17.39316236873554
13,8,1.0,0.8577125490915831,0.0
13,8,0.75,0.8555097339863768,0.22028151052063683
13,8,0.5,0.8506371430689383,0.7075406022644781
13,8,0.25,0.822155439834811,3.5557109256772135
13,8,0.0,0.7967635605622668,6.09489885293163
14,0,1.0,0.8420935068686086,0.0
14,0,0.75,0.8433049454928938,-0.12114386242851882
14,0,0.5,0.8259457354982425,1.614777137036616
14,0,0.25,0.8191324363919884,2.2961070476620216
14,0,0.0,0.7696588487185341,7.243465815007455
14,1,1.0,0.8420935068686086,0.0
14,1,0.75,0.82475284742417,1.7340659444438633
14,1,0.5,0.8031950115271138,3.889849534149481
14,1,0.25,0.7792819743581554,6.281153251045324
14,1,0.0,0.7708744887775894,7.121901809101927
14,2,1.0,0.8420935068686086,0.0
14,2,0.75,0.8353946287550036,0.6698878113605033
14,2,0.5,0.7652205070997116,7.6872999768897055
14,2,0.25,0.7060635241211699,13.602998274743872
14,2,0.0,0.6614311175621945,18.06623893064141
14,3,1.0,0.8420935068686086,0.0
14,3,0.75,0.8498306861464882,-0.7737179277879536
14,3,0.5,0.8176431849678328,2.4450321900775784
14,3,0.25,0.7729805774809824,6.911292938762625
14,3,0.0,0.7336927217703257,10.840078509828288
14,4,1.0,0.8420935068686086,0.0
14,4,0.75,0.8244474478580811,1.7646059010527515
14,4,0.5,0.8175708040791312,2.4522702789477435
14,4,0.25,0.8122554994323707,2.983800743623788
14,4,0.0,0.804247403060602,3.784610380800657
14,5,1.0,0.8420935068686086,0.0
14,5,0.75,0.8491238376319021,-0.7030330763293513
14,5,0.5,0.8169490572565301,2.514444961207851
14,5,0.25,0.7601096049297378,8.198390193887084
14,5,0.0,0.7008324989437315,14.126100792487717
14,6,1.0,0.8420935068686086,0.0
14,6,0.75,0.8433049454928938,-0.12114386242851882
14,6,0.5,0.8405579807036863,0.15355261649223628
14,6,0.25,0.8337120918184473,0.8381415050161323
14,6,0.0,0.8341410275063702,0.7952479362238418
14,7,1.0,0.8420935068686086,0.0
14,7,0.75,0.8430522912509482,-0.09587843823395392
14,7,0.5,0.8340668094304526,0.8026697438155983
14,7,0.25,0.8089413605318412,3.315214633676744
14,7,0.0,0.7800216421609454,6.207186470766324
14,8,1.0,0.8420935068686086,0.0
14,8,0.75,0.8377051853305967,0.4388321538011941
14,8,0.5,0.8279635853717142,1.4129921496894404
14,8,0.25,0.7990706067840088,4.302290008459986
14,8,0.0,0.7391810625100259,10.291244435858271
15,0,1.0,0.9038183872874876,0.0
15,0,0.75,0.898421642181794,0.5396745105693657
15,0,0.5,0.8698489549976084,3.3969432289879253
15,0,0.25,0.8284958863596859,7.532250092780179
15,0,0.0,0.7779809505835151,12.58374367039725
15,1,1.0,0.9038183872874876,0.0
15,1,0.75,0.8875255039470935,1.6292883340394138
15,1,0.5,0.83217144379094,7.1646943496547655
15,1,0.25,0.7726939840186395,13.112440326884812
15,1,0.0,0.7336027386161076,17.021564867138007
15,2,1.0,0.9038183872874876,0.0
15,2,0.75,0.8872350013802554,1.6583385907232295
15,2,0.5,0.8579351159990678,4.588327128841985
15,2,0.25,0.8305141444350362,7.33042428524514
15,2,0.0,0.7901080192839647,11.371036800352297
15,3,1.0,0.9038183872874876,0.0
15,3,0.75,0.8967900282283935,0.7028359059094158
15,3,0.5,0.8894925993472825,1.4325787940205115
15,3,0.25,0.841838988686151,6.197939860133661
15,3,0.0,0.75531249321434,14.850589407314763
15,4,1.0,0.9038183872874876,0.0
15,4,0.75,0.9073443297773656,-0.352594248987792
15,4,0.5,0.8866586594662027,1.7159727821284942
15,4,0.25,0.8581717055690297,4.564668171845798
15,4,0.0,0.7922257893191915,11.159259796829613
15,5,1.0,0.9038183872874876,0.0
15,5,0.75,0.8944912707299222,0.9327116557565462
15,5,0.5,0.8658137999824349,3.800458730505274
15,5,0.25,0.8015459914148697,10.227239587261794
15,5,0.0,0.7683377200764969,13.548066721099072
15,6,1.0,0.9038183872874876,0.0
15,6,0.75,0.9019038133088573,0.1914573978630374
15,6,0.5,0.8817465329252215,2.207185436226611
15,6,0.25,0.8695848656017353,3.4233521685752333
15,6,0.0,0.8675392994450105,3.627908784247713
15,7,1.0,0.9038183872874876,0.0
15,7,0.75,0.87882250233037,2.4995884957117687
15,7,0.5,0.8439629953388497,5.985539194863798
15,7,0.25,0.8257762449353994,7.804214235208828
15,7,0.0,0.8114643483473263,9.235403894016137
15,8,1.0,0.9038183872874876,0.0
15,8,0.75,0.9016274257539434,0.21909615335442556
15,8,0.5,0.8765249302102713,2.729345707721631
15,8,0.25,0.8734437429683399,3.0374644319147714
15,8,0.0,0.8268832171811191,7.693517010636852
16,0,1.0,0.8365328072711172,0.0
16,0,0.75,0.8471538610908941,-1.062105381977685
16,0,0.5,0.7892424346851639,4.729037258595337
16,0,0.25,0.7646872222099683,7.184558506114891
16,0,0.0,0.7255860204255864,11.094678684553083
16,1,1.0,0.8365328072711172,0.0
16,1,0.75,0.8407481200374353,-0.42153127663180356
16,1,0.5,0.8145090821414498,2.2023725129667437
16,1,0.25,0.7657058037359656,7.082700353515159
16,1,0.0,0.712352856122206,12.417995114891124
16,2,1.0,0.8365328072711172,0.0
16,2,0.75,0.8266345768238123,0.9898230447304979
16,2,0.5,0.7672391337284099,6.929367354270733
16,2,0.25,0.7223233462404836,11.420946103063368
16,2,0.0,0.6762240167165561,16.030879055456115
16,3,1.0,0.8365328072711172,0.0
16,3,0.75,0.8388987339186363,-0.2365926647519112
16,3,0.5,0.8311787363194951,0.5354070951622103
16,3,0.25,0.8225508172821757,1.3981989988941512
16,3,0.0,0.7991555442545311,3.737726301658617
16,4,1.0,0.8365328072711172,0.0
16,4,0.75,0.8254157758576671,1.1117031413450107
16,4,0.5,0.8063941038285563,3.0138703442560977
16,4,0.25,0.7492209928553503,8.731181441576696
16,4,0.0,0.6920645689935223,14.446823827759491
16,5,1.0,0.8365328072711172,0.0
16,5,0.75,0.7804544842777217,5.607832299339554
16,5,0.5,0.7336640452175509,10.286876205356632
16,5,0.25,0.6673563111791799,16.91764960919373
16,5,0.0,0.6200477038852467,21.64851033858706
16,6,1.0,0.8365328072711172,0.0
16,6,0.75,0.8352202502353868,0.13125570357304106
16,6,0.5,0.8240769874749007,1.2455819796216572
16,6,0.25,0.8176294644437365,1.890334282738071
16,6,0.0,0.8144557029406276,2.2077104330489594
16,7,1.0,0.8365328072711172,0.0
16,7,0.75,0.8417805240759297,-0.5247716804812508
16,7,0.5,0.8448710614580507,-0.8338254186933458
16,7,0.25,0.7896753192714063,4.6857487999710905
16,7,0.0,0.7506967865410115,8.583602073010576
16,8,1.0,0.8365328072711172,0.0
16,8,0.75,0.8415617145388663,-0.5028907267749072
16,8,0.5,0.8288570121850225,0.7675795086094728
16,8,0.25,0.7833097294696318,5.322307780148538
16,8,0.0,0.7494563779014652,8.707642936965199
17,0,1.0,0.7830052924177425,0.0
17,0,0.75,0.7660512379802109,1.6954054437531618
17,0,0.5,0.7342609730824476,4.874431933529488
17,0,0.25,0.6837048263859784,9.930046603176413
17,0,0.0,0.5182748468741654,26.473044554357717
17,1,1.0,0.7830052924177425,0.0
17,1,0.75,0.7719479323721573,1.1057360045585218
17,1,0.5,0.7512743464408471,3.173094597689541
17,1,0.25,0.7451502624235121,3.7855029994230405
17,1,0.0,0.7234294421003282,5.957585031741431
17,2,1.0,0.7830052924177425,0.0
17,2,0.75,0.7914619015359375,-0.8456609118195013
17,2,0.5,0.7734432973379162,0.9561995079826358
17,2,0.25,0.7441729287917098,3.8832363626032707
17,2,0.0,0.6333804199460579,14.962487247168465
17,3,1.0,0.7830052924177425,0.0
17,3,0.75,0.7764758677260499,0.6529424691692598
17,3,0.5,0.7633771939153929,1.962809850234959
17,3,0.25,0.7402806065155512,4.272468590219136
17,3,0.0,0.7296712911643984,5.333400125334409
17,4,1.0,0.7830052924177425,0.0
17,4,0.75,0.781101461638364,0.19038307793785014
17,4,0.5,0.7726594532616347,1.0345839156107872
17,4,0.25,0.7241031824120523,5.890211000569023
17,4,0.0,0.703017333208237,7.998795920950553
17,5,1.0,0.7830052924177425,0.0
17,5,0.75,0.7366913238326313,4.631396858511128
17,5,0.5,0.6869846901733192,9.602060224442333
17,5,0.25,0.6186913877267288,16.43139046910137
17,5,0.0,0.4598408138225973,32.316447859514525
17,6,1.0,0.7830052924177425,0.0
17,6,0.75,0.7874929553409962,-0.44876629232536436
17,6,0.5,0.7953250603342342,-1.2319767916491697
17,6,0.25,0.7939319555573426,-1.0926663139600112
17,6,0.0,0.787980894737252,-0.49756023195094423
17,7,1.0,0.7830052924177425,0.0
17,7,0.75,0.7766277503481552,0.6377542069587294
17,7,0.5,0.7772835287368101,0.5721763680932468
17,7,0.25,0.7598915538755547,2.311373854218779
17,7,0.0,0.7130174972086737,6.998779520906884
17,8,1.0,0.7830052924177425,0.0
17,8,0.75,0.7690459224580757,1.3959369959666845
17,8,0.5,0.7211470134475454,6.185827897019713
17,8,0.25,0.6859211894610497,9.708410295669278
17,8,0.0,0.6786467760735295,10.4358516344213
18,0,1.0,0.7733596423429095,0.0
18,0,0.75,0.7458095936753951,2.7550048667514426
18,0,0.5,0.7542465194306495,1.9113122912260083
18,0,0.25,0.7339728703152348,3.938677202767471
18,0,0.0,0.726404728449121,4.695491389378859
18,1,1.0,0.7733596423429095,0.0
18,1,0.75,0.7766263435017449,-0.3266701158835317
18,1,0.5,0.7587324170578992,1.462722528501037
18,1,0.25,0.7323549569317106,4.100468541119895
18,1,0.0,0.7173708345090379,5.598880783387161
18,2,1.0,0.7733596423429095,0.0
18,2,0.75,0.7863789481309765,-1.3019305788066982
18,2,0.5,0.7483171344426311,2.50425079002784
18,2,0.25,0.6863928177472016,8.696682459570793
18,2,0.0,0.6375561397122609,13.580350263064867
18,3,1.0,0.7733596423429095,0.0
18,3,0.75,0.7734659696067855,-0.010632726387593827
18,3,0.5,0.7447159115415312,2.8643730801378386
18,3,0.25,0.680513375581423,9.284626676148655
18,3,0.0,0.6544203630161844,11.89392793267251
18,4,1.0,0.7733596423429095,0.0
18,4,0.75,0.7872244581745056,-1.3864815831596045
18,4,0.5,0.7808400172818434,-0.7480374938933831
18,4,0.25,0.7740814092990156,-0.07217669561060402
18,4,0.0,0.7549025266959198,1.8457115646989708
18,5,1.0,0.7733596423429095,0.0
18,5,0.75,0.7746939024806458,-0.13342601377362984
18,5,0.5,0.7369747880661749,3.6384854276734657
18,5,0.25,0.6730104696787459,10.034917266416365
18,5,0.0,0.6338593792954847,13.95002630474248
18,6,1.0,0.7733596423429095,0.0
18,6,0.75,0.8115001191409055,-3.8140476797995926
18,6,0.5,0.8278482749439902,-5.448863260108061
18,6,0.25,0.8372086354778614,-6.384899313495184
18,6,0.0,0.8333965368049967,-6.003689446208716
18,7,1.0,0.7733596423429095,0.0
18,7,0.75,0.7833902393027106,-1.003059695980102
18,7,0.5,0.7380051926081992,3.535444973471036
18,7,0.25,0.7009233123357932,7.243633000711636
18,7,0.0,0.6887953440471588,8.456429829575073
18,8,1.0,0.7733596423429095,0.0
18,8,0.75,0.7759879761853254,-0.26283338424158975
18,8,0.5,0.7296109537256378,4.374868861727177
18,8,0.25,0.7137054450624363,5.965419728047328
18,8,0.0,0.6941539263829422,7.920571595996739
19,0,1.0,0.8797489215997554,0.0
19,0,0.75,0.8736074285653701,0.614149303438527
19,0,0.5,0.8534102762639741,2.633864533578123
19,0,0.25,0.8019625784727118,7.778634312704358
19,0,0.0,0.7781653613004413,10.158356029931404
19,1,1.0,0.8797489215997554,0.0
19,1,0.75,0.8710048727729927,0.8744048826762718
19,1,0.5,0.8574364942515627,2.231242734819272
19,1,0.25,0.8315109677021391,4.8237953897616315
19,1,0.0,0.7853066830067935,9.444223859296185
19,2,1.0,0.8797489215997554,0.0
19,2,0.75,0.8790939237441111,0.06549978556442682
19,2,0.5,0.8515206922687923,2.822822933096303
19,2,0.25,0.7622753475468175,11.74735740529379
19,2,0.0,0.6672718917918928,21.247702980786254
19,3,1.0,0.8797489215997554,0.0
19,3,0.75,0.8638427150235846,1.5906206576170812
19,3,0.5,0.8307739705353658,4.897495106438954
19,3,0.25,0.7642540922254109,11.549482937434451
19,3,0.0,0.7179873847483628,16.176153685139262
19,4,1.0,0.8797489215997554,0.0
19,4,0.75,0.8736149797053682,0.6133941894387207
19,4,0.5,0.837358231082348,4.23906905174074
19,4,0.25,0.7928749378072164,8.687398379253896
19,4,0.0,0.7252443638892241,15.450455771053129
19,5,1.0,0.8797489215997554,0.0
19,5,0.75,0.8609211619110708,1.8827759688684553
19,5,0.5,0.8071472161230215,7.2601705476733835
19,5,0.25,0.7035631074730277,17.61858141267276
19,5,0.0,0.5800753020952689,29.967361950448645
19,6,1.0,0.8797489215997554,0.0
19,6,0.75,0.87431802140986,0.5430900189895338
19,6,0.5,0.8668241910967626,1.292473050299281
19,6,0.25,0.8564396864070075,2.3309235192747857
19,6,0.0,0.8188087499258903,6.094017167386512
19,7,1.0,0.8797489215997554,0.0
19,7,0.75,0.8743174018965361,0.5431519703219312
19,7,0.5,0.8473996358329631,3.23492857667923
19,7,0.25,0.8064472200284003,7.330170157135507
19,7,0.0,0.7431650077596049,13.658391384015045
19,8,1.0,0.8797489215997554,0.0
19,8,0.75,0.8690690113697359,1.0679910230019463
19,8,0.5,0.8412757932082697,3.8473128391485645
19,8,0.25,0.8208690330477356,5.887988855201975
19,8,0.0,0.7711683313333242,10.858059026643119
20,0,1.0,0.791450955420722,0.0
20,0,0.75,0.7787352345494265,1.2715720871295466
20,0,0.5,0.7607529060691565,3.0698049351565504
20,0,0.25,0.7422528830918769,4.91980723288451
20,0,0.0,0.7290259782072104,6.2424977213511585
20,1,1.0,0.791450955420722,0.0
20,1,0.75,0.751129763411956,4.032119200876593
20,1,0.5,0.7305693648293341,6.088159059138787
20,1,0.25,0.6854110456248989,10.603990979582312
20,1,0.0,0.6704755289622197,12.097542645850224
20,2,1.0,0.791450955420722,0.0
20,2,0.75,0.7593030563598661,3.214789906085591
20,2,0.5,0.764270065933781,2.7180889486940973
20,2,0.25,0.7131920306844204,7.825892473630159
20,2,0.0,0.6670107033094061,12.444025211131581
20,3,1.0,0.791450955420722,0.0
20,3,0.75,0.7541131609222544,3.7337794498467525
20,3,0.5,0.7613010527928682,3.0149902627853775
20,3,0.25,0.7725932399230342,1.8857715497687777
20,3,0.0,0.7515084329651004,3.9942522455621576
20,4,1.0,0.791450955420722,0.0
20,4,0.75,0.7961659319831562,-0.47149765624342477
20,4,0.5,0.7915531577520095,-0.010220233128754863
20,4,0.25,0.7849704180697246,0.6480537350997406
20,4,0.0,0.7359072760708916,5.5543679349830395
20,5,1.0,0.791450955420722,0.0
20,5,0.75,0.8185453122998341,-2.7094356879112103
20,5,0.5,0.8427624003587579,-5.131144493803596
20,5,0.25,0.845978339317369,-5.452738389664702
20,5,0.0,0.8092284616728382,-1.777750625211627
20,6,1.0,0.791450955420722,0.0
20,6,0.75,0.7588073820315513,3.2643573389170677
20,6,0.5,0.7497015228437217,4.174943257700026
20,6,0.25,0.737683013176275,5.3767942244446925
20,6,0.0,0.7206093628020802,7.084159261864176
20,7,1.0,0.791450955420722,0.0
20,7,0.75,0.7683193572890809,2.313159813164112
20,7,0.5,0.7475174294480882,4.3933525972633785
20,7,0.25,0.7305248200075786,6.09261354131434
20,7,0.0,0.7114830679280301,7.99678874926919
20,8,1.0,0.791450955420722,0.0
20,8,0.75,0.7908565967719369,0.059435864878509825
20,8,0.5,0.8088680789934247,-1.7417123572702753
20,8,0.25,0.8033997173762368,-1.1948761955514864
20,8,0.0,0.7433809066373909,4.80700487833311
21,0,1.0,0.746637554196377,0.0
21,0,0.75,0.7204601681244059,2.6177386071971065
21,0,0.5,0.6882909416653069,5.83466125310701
21,0,0.25,0.5612685098261055,18.536904437027147
21,0,0.0,0.5079166352067253,23.872091898965174
21,1,1.0,0.746637554196377,0.0
21,1,0.75,0.7267219784715965,1.9915575724780532
21,1,0.5,0.7149646059660033,3.16729482303737
21,1,0.25,0.7156628072014739,3.09747469949031
21,1,0.0,0.6896339123268191,5.700364186955786
21,2,1.0,0.746637554196377,0.0
21,2,0.75,0.7734407332489499,-2.68031790525729
21,2,0.5,0.7849372721960319,-3.8299717999654925
21,2,0.25,0.7685241873483025,-2.1886633151925516
21,2,0.0,0.7488625211164563,-0.2224966920079341
21,3,1.0,0.746637554196377,0.0
21,3,0.75,0.7359405039931721,1.0697050203204883
21,3,0.5,0.7295784006854704,1.7059153510906588
21,3,0.25,0.7094817826737309,3.7155771522646153
21,3,0.0,0.6663663632900371,8.027119090633994
21,4,1.0,0.746637554196377,0.0
21,4,0.75,0.7440812869237952,0.2556267272581847
21,4,0.5,0.7470931952142372,-0.04556410178602199
21,4,0.25,0.7542364745360691,-0.7598920339692117
21,4,0.0,0.7309139079441346,1.572364625224243
21,5,1.0,0.746637554196377,0.0
21,5,0.75,0.7274737563323936,1.9163797863983367
21,5,0.5,0.6946470945790021,5.199045961737491
21,5,0.25,0.5713012275479719,17.533632664840514
21,5,0.0,0.587393144364088,15.924440983228905
21,6,1.0,0.746637554196377,0.0
21,6,0.75,0.746038884977988,0.05986692183890252
21,6,0.5,0.7518075804494886,-0.5170026253111581
21,6,0.25,0.7450122755654169,0.16252786309600697
21,6,0.0,0.7440971094907617,0.2540444705615319
21,7,1.0,0.746637554196377,0.0
21,7,0.75,0.7539203045016998,-0.7282750305322772
21,7,0.5,0.7334411314036521,1.3196422792724927
21,7,0.25,0.7216833894106729,2.4954164785704114
21,7,0.0,0.7089208532281884,3.7716700968188577
21,8,1.0,0.746637554196377,0.0
21,8,0.75,0.7294228130123468,1.7214741184030213
21,8,0.5,0.709127861054754,3.7509693141623
21,8,0.25,0.6906225612420321,5.601499295434486
21,8,0.0,0.6524678660380716,9.41696881583054
22,0,1.0,0.7319601421140074,0.0
22,0,0.75,0.7486280762958477,-1.6667934181840316
22,0,0.5,0.7240054459719731,0.7954696142034257
22,0,0.25,0.7172757668291594,1.4684375284848006
22,0,0.0,0.6975845513830472,3.4375590730960193
22,1,1.0,0.7319601421140074,0.0
22,1,0.75,0.7424100623746556,-1.0449920260648171
22,1,0.5,0.7436237023163556,-1.1663560202348155
22,1,0.25,0.7364531450207288,-0.44930029067213884
22,1,0.0,0.7072248757285235,2.4735266385483845
22,2,1.0,0.7319601421140074,0.0
22,2,0.75,0.7412558654589181,-0.9295723344910689
22,2,0.5,0.7374046795876301,-0.5444537473622724
22,2,0.25,0.7243267159125885,0.7633426201418936
22,2,0.0,0.7217036175869491,1.0256524527058275
22,3,1.0,0.7319601421140074,0.0
22,3,0.75,0.7281734874351666,0.3786654678840762
22,3,0.5,0.7153319603524086,1.6628181761598748
22,3,0.25,0.7099650149058632,2.1995127208144227
22,3,0.0,0.6864383849386055,4.552175717540186
22,4,1.0,0.7319601421140074,0.0
22,4,0.75,0.7355005913435954,-0.3540449229587961
22,4,0.5,0.7268974806710947,0.5062661442912675
22,4,0.25,0.7122320733431844,1.9728068770823004
22,4,0.0,0.7048767143331607,2.7083427780846714
22,5,1.0,0.7319601421140074,0.0
22,5,0.75,0.7395519840660907,-0.7591841952083289
22,5,0.5,0.7329504000473053,-0.09902579332978778
22,5,0.25,0.6987742422360077,3.318589987799969
22,5,0.0,0.6420147522313433,8.99453898826641
22,6,1.0,0.7319601421140074,0.0
22,6,0.75,0.7456856812793271,-1.3725539165319711
22,6,0.5,0.7574052366031109,-2.544509448910348
22,6,0.25,0.7532223883605336,-2.1262246246526173
22,6,0.0,0.7353411525900683,-0.3381010476060875
22,7,1.0,0.7319601421140074,0.0
22,7,0.75,0.7225005971846366,0.9459544929370844
22,7,0.5,0.6945537260752361,3.740641603877126
22,7,0.25,0.6547498654393079,7.721027667469949
22,7,0.0,0.5854172033130493,14.654293880095814
22,8,1.0,0.7319601421140074,0.0
22,8,0.75,0.7353780679262765,-0.34179258122690737
22,8,0.5,0.709031157004328,2.2928985109679445
22,8,0.25,0.6712623304129448,6.069781170106259
22,8,0.0,0.6186421778342095,11.33179642797979
23,0,1.0,0.70910140134959,0.0
23,0,0.75,0.6877895327535615,2.1311868596028516
23,0,0.5,0.6637874520628978,4.531394928669219
23,0,0.25,0.5889455920171907,12.015580933239933
23,0,0.0,0.5671483651593252,14.195303619026479
23,1,1.0,0.70910140134959,0.0
23,1,0.75,0.731594758961003,-2.2493357611413023
23,1,0.5,0.7507672017682074,-4.166580041861745
23,1,0.25,0.7157427501296177,-0.6641348780027756
23,1,0.0,0.6584939333660251,5.060746798356486
23,2,1.0,0.70910140134959,0.0
23,2,0.75,0.7263000262477992,-1.7198624898209225
23,2,0.5,0.7308334766418805,-2.1732075292290487
23,2,0.25,0.7288427338297082,-1.9741332480118223
23,2,0.0,0.7103531666264293,-0.1251765276839345
23,3,1.0,0.70910140134959,0.0
23,3,0.75,0.7171020850047561,-0.8000683655166152
23,3,0.5,0.7235755576107272,-1.4474156261137239
23,3,0.25,0.6740590780917782,3.504232325781176
23,3,0.0,0.6265196551080343,8.258174624155568
23,4,1.0,0.70910140134959,0.0
23,4,0.75,0.6836650237441925,2.543637760539752
23,4,0.5,0.6673771894675092,4.172421188208075
23,4,0.25,0.6403273763910318,6.877402495855822
23,4,0.0,0.6325027825965488,7.659861875304119
23,5,1.0,0.70910140134959,0.0
23,5,0.75,0.6958630123506093,1.3238388998980666
23,5,0.5,0.6645284185587694,4.457298279082056
23,5,0.25,0.5882393498276197,12.086205152197028
23,5,0.0,0.4979730929931444,21.11283083564456
23,6,1.0,0.70910140134959,0.0
23,6,0.75,0.7134681195627617,-0.4366718213171694
23,6,0.5,0.7190628180309914,-0.996141668140138
23,6,0.25,0.7000682709836374,0.9033130365952546
23,6,0.0,0.7000228125617224,0.9078588787867603
23,7,1.0,0.70910140134959,0.0
23,7,0.75,0.7242095232052753,-1.510812185568533
23,7,0.5,0.7186528861671123,-0.9551484817522327
23,7,0.25,0.6788453011012714,3.0256100248318596
23,7,0.0,0.6117682957354742,9.733310561411578
23,8,1.0,0.70910140134959,0.0
23,8,0.75,0.6893372265896014,1.9764174759988595
23,8,0.5,0.6700607484189993,3.904065293059067
23,8,0.25,0.6519453653536424,5.715603599594754
23,8,0.0,0.6139369634843912,9.51644378651988
24,0,1.0,0.7187832402850035,0.0
24,0,0.75,0.6919287332949572,2.6854506990046323
24,0,0.5,0.6798158676271011,3.89673726579024
24,0,0.25,0.6801691791883517,3.8614061096651775
24,0,0.0,0.653442786337419,6.534045394758447
24,1,1.0,0.7187832402850035,0.0
24,1,0.75,0.692592719803136,2.619052048186754
24,1,0.5,0.6668624473334726,5.192079295153096
24,1,0.25,0.618203973635767,10.057926664923656
24,1,0.0,0.5976931550054322,12.109008527957133
24,2,1.0,0.7187832402850035,0.0
24,2,0.75,0.7329564280103278,-1.4173187725324277
24,2,0.5,0.7109956549345281,0.7787585350475412
24,2,0.25,0.6978856261516951,2.0897614133308373
24,2,0.0,0.672786574651261,4.5996665633742495
24,3,1.0,0.7187832402850035,0.0
24,3,0.75,0.7840214172821681,-6.523817699716461
24,3,0.5,0.8117478968824716,-9.296465659746811
24,3,0.25,0.8180869590599635,-9.930371877496002
24,3,0.0,0.8076309417150809,-8.884770143007737
24,4,1.0,0.7187832402850035,0.0
24,4,0.75,0.7051935202285979,1.3589720056405574
24,4,0.5,0.6888072421555115,2.997599812949203
24,4,0.25,0.633831958348926,8.495128193607748
24,4,0.0,0.599230476493911,11.955276379109247
24,5,1.0,0.7187832402850035,0.0
24,5,0.75,0.6724716178502723,4.631162243473119
24,5,0.5,0.6041252708939367,11.465796939106676
24,5,0.25,0.5461461114889276,17.263712879607596
24,5,0.0,0.47927210313072155,23.951113715428196
24,6,1.0,0.7187832402850035,0.0
24,6,0.75,0.7156212540110698,0.31619862739337146
24,6,0.5,0.706025044992455,1.2758195292548513
24,6,0.25,0.6628151411904268,5.596809909457667
24,6,0.0,0.647587704629441,7.119553565556247
24,7,1.0,0.7187832402850035,0.0
24,7,0.75,0.7179541082432441,0.0829132041759384
24,7,0.5,0.694367154846448,2.4416085438555557
24,7,0.25,0.6618493995730867,5.6933840711916766
24,7,0.0,0.5615079711706874,15.72752691143161
24,8,1.0,0.7187832402850035,0.0
24,8,0.75,0.7200453987493627,-0.12621584643591754
24,8,0.5,0.7242957180734356,-0.5512477788432113
24,8,0.25,0.7169528531670558,0.1830387117947696
24,8,0.0,0.7005442104875724,1.8239029797431083
25,0,1.0,0.8296803810523873,0.0
25,0,0.75,0.8047125772244256,2.496780382796171
25,0,0.5,0.7635776679896913,6.610271306269599
25,0,0.25,0.7423966321411695,8.728374891121781
25,0,0.0,0.7251949685486088,10.448541250377852
25,1,1.0,0.8296803810523873,0.0
25,1,0.75,0.8273271259474168,0.23532551049705308
25,1,0.5,0.8062280034448046,2.3452377607582675
25,1,0.25,0.7949144253692433,3.4765955683144
25,1,0.0,0.7651035927513632,6.4576788301024095
25,2,1.0,0.8296803810523873,0.0
25,2,0.75,0.8490558267990256,-1.9375445746638298
25,2,0.5,0.8098800208659362,1.9800360186451038
25,2,0.25,0.7669162166584846,6.276416439390264
25,2,0.0,0.6882500331359427,14.14303479164446
25,3,1.0,0.8296803810523873,0.0
25,3,0.75,0.8370996393818784,-0.7419258329491085
25,3,0.5,0.8211498824348151,0.8530498617572158
25,3,0.25,0.796681076420327,3.2999304632060245
25,3,0.0,0.7585950953375243,7.1085285714862945
25,4,1.0,0.8296803810523873,0.0
25,4,0.75,0.7928646194468634,3.681576160552391
25,4,0.5,0.7478963034849095,8.178407756747774
25,4,0.25,0.7182000602337353,11.1480320818652
25,4,0.0,0.6563026225326283,17.337775851975902
25,5,1.0,0.8296803810523873,0.0
25,5,0.75,0.8140703922716488,1.5609988780738493
25,5,0.5,0.7658211301688047,6.385925088358258
25,5,0.25,0.7011658545856658,12.851452646672145
25,5,0.0,0.6408460641730795,18.883431687930774
25,6,1.0,0.8296803810523873,0.0
25,6,0.75,0.8343816918356464,-0.4701310783259083
25,6,0.5,0.8338467953658787,-0.41664143134914067
25,6,0.25,0.8250012335565651,0.4679147495822211
25,6,0.0,0.7985844857692335,3.109589528315382
25,7,1.0,0.8296803810523873,0.0
25,7,0.75,0.8245730878341319,0.5107293218255426
25,7,0.5,0.8123608807146534,1.7319500337733884
25,7,0.25,0.7777541483772452,5.192623267514207
25,7,0.0,0.7478147182384471,8.186566281394015
25,8,1.0,0.8296803810523873,0.0
25,8,0.75,0.8402392569007217,-1.055887584833437
25,8,0.5,0.8520367953892127,-2.2356414336825448
25,8,0.25,0.8289124440785856,0.07679369738017305
25,8,0.0,0.7955515733754315,3.412880767695581
26,0,1.0,0.6480865351480508,0.0
26,0,0.75,0.6502508511142293,-0.21643159661784983
26,0,0.5,0.6448087064887527,0.3277828659298154
26,0,0.25,0.6312097596246466,1.6876775523404164
26,0,0.0,0.6007882345912604,4.729830055679041
26,1,1.0,0.6480865351480508,0.0
26,1,0.75,0.6492288273886957,-0.11422922406448821
26,1,0.5,0.6507102528093373,-0.262371766128644
26,1,0.25,0.6280903292343158,1.9996205913734966
26,1,0.0,0.6055766451910721,4.250988995697869
26,2,1.0,0.6480865351480508,0.0
26,2,0.75,0.6404749026386652,0.7611632509385569
26,2,0.5,0.6062230243561665,4.186351079188433
26,2,0.25,0.5784360853816172,6.965044976643364
26,2,0.0,0.5449384925257545,10.314804262229627
26,3,1.0,0.6480865351480508,0.0
26,3,0.75,0.6527378938018555,-0.4651358653804727
26,3,0.5,0.651356298728972,-0.32697635809212366
26,3,0.25,0.6481959768578689,-0.01094417098180811
26,3,0.0,0.6470248378113933,0.10616973366575078
26,4,1.0,0.6480865351480508,0.0
26,4,0.75,0.635553962870054,1.2532572277996867
26,4,0.5,0.6090692494038048,3.901728574424601
26,4,0.25,0.5696366255249553,7.84499096230955
26,4,0.0,0.5441050722876135,10.39814628604373
26,5,1.0,0.6480865351480508,0.0
26,5,0.75,0.6354604182626538,1.2626116885397054
26,5,0.5,0.6184121541588768,2.9674380989173965
26,5,0.25,0.5780690901345119,7.00174450135389
26,5,0.0,0.5614628508442284,8.662368430382239
26,6,1.0,0.6480865351480508,0.0
26,6,0.75,0.6587559069463946,-1.0669371798343819
26,6,0.5,0.6806882003091981,-3.2601665161147264
26,6,0.25,0.686083822927935,-3.7997287779884203
26,6,0.0,0.6890506053735447,-4.0964070225493865
26,7,1.0,0.6480865351480508,0.0
26,7,0.75,0.6684780895068096,-2.0391554358758834
26,7,0.5,0.6700109008659196,-2.192436571786882
26,7,0.25,0.6677998314795351,-1.9713296331484331
26,7,0.0,0.6435917943259325,0.4494740822118315
26,8,1.0,0.6480865351480508,0.0
26,8,0.75,0.6509436044550412,-0.28570693069903674
26,8,0.5,0.6458410019187804,0.22455332292704577
26,8,0.25,0.6169278003176728,3.115873483037801
26,8,0.0,0.5845558827662053,6.353065238184552
27,0,1.0,0.8372982544148568,0.0
27,0,0.75,0.8358727347572255,0.142551965763138
27,0,0.5,0.8237817604582245,1.3516493956632347
27,0,0.25,0.8070601680034115,3.023808641144532
27,0,0.0,0.6695952288191382,16.77030255957186
27,1,1.0,0.8372982544148568,0.0
27,1,0.75,0.8049737007804697,3.232455363438713
27,1,0.5,0.7672508045310839,7.004744988377299
27,1,0.25,0.7234523809523808,11.3845873462476
27,1,0.0,0.6941957758516546,14.310247856320224
27,2,1.0,0.8372982544148568,0.0
27,2,0.75,0.8173731985775781,1.9925055837278771
27,2,0.5,0.8090122866355941,2.8285967779262733
27,2,0.25,0.7771795106560473,6.0118743758809545
27,2,0.0,0.7576030809346014,7.969517348025546
27,3,1.0,0.8372982544148568,0.0
27,3,0.75,0.8236138842954467,1.368437011941015
27,3,0.5,0.8179543124064524,1.9343942008404391
27,3,0.25,0.7966439205264645,4.065433388839235
27,3,0.0,0.6509948952843072,18.630335913054964
27,4,1.0,0.8372982544148568,0.0
27,4,0.75,0.8414495565410199,-0.41513021261631033
27,4,0.5,0.8324779718051059,0.4820282609750981
27,4,0.25,0.8062605469365625,3.1037707478294374
27,4,0.0,0.7352448885124367,10.205336590242009
27,5,1.0,0.8372982544148568,0.0
27,5,0.75,0.822280476669166,1.5017777745690797
27,5,0.5,0.7798607119917201,5.7437542423136705
27,5,0.25,0.702632752392037,13.46655020228198
27,5,0.0,0.6086211363609879,22.867711805386893
27,6,1.0,0.8372982544148568,0.0
27,6,0.75,0.813823392646124,2.3474861768732813
27,6,0.5,0.8013303198876406,3.596793452721625
27,6,0.25,0.8037124132265662,3.3585841188290666
27,6,0.0,0.7949753348788289,4.232291953602796
27,7,1.0,0.8372982544148568,0.0
27,7,0.75,0.8431842333622794,-0.5885978947422599
27,7,0.5,0.8268304683117218,1.0467786103135035
27,7,0.25,0.8023827024936356,3.49155519212212
27,7,0.0,0.7059399245862817,13.13583298285751
27,8,1.0,0.8372982544148568,0.0
27,8,0.75,0.8455325929123967,-0.823433849753985
27,8,0.5,0.8325248500885765,0.47734043262803727
27,8,0.25,0.8138959719157203,2.340228249913656
27,8,0.0,0.75409859256454,8.31996618503168
28,0,1.0,0.7425563591510702,0.0
28,0,0.75,0.7527754107290702,-1.021905157799996
28,0,0.5,0.7581126690159681,-1.5556309864897866
28,0,0.25,0.7377815159262668,0.4774843224803371
28,0,0.0,0.7442363935979229,-0.16800344468527184
28,1,1.0,0.7425563591510702,0.0
28,1,0.75,0.7378772859591274,0.46790731919428286
28,1,0.5,0.749671799747923,-0.7115440596852762
28,1,0.25,0.7357275916832842,0.6828767467786045
28,1,0.0,0.7046079593413791,3.7948399809691113
28,2,1.0,0.7425563591510702,0.0
28,2,0.75,0.7473100250327704,-0.4753665881700231
28,2,0.5,0.7443215995373083,-0.17652403862380428
28,2,0.25,0.7265697449294684,1.5986614221601858
28,2,0.0,0.6984969741621376,4.405938498893258
28,3,1.0,0.7425563591510702,0.0
28,3,0.75,0.7562687840992313,-1.371242494816105
28,3,0.5,0.7478008679901539,-0.5244508839083672
28,3,0.25,0.7354857288067367,0.7070630344333528
28,3,0.0,0.6927352313206233,4.982112783044689
28,4,1.0,0.7425563591510702,0.0
28,4,0.75,0.7085148775693297,3.4041481581740474
28,4,0.5,0.6767391149630824,6.5817244187987844
28,4,0.25,0.670412820908526,7.214353824254416
28,4,0.0,0.6634217574967761,7.913460165429409
28,5,1.0,0.7425563591510702,0.0
28,5,0.75,0.7215493034886304,2.1007055662439766
28,5,0.5,0.6913409629607383,5.1215396190331886
28,5,0.25,0.619561532810051,12.29948263410192
28,5,0.0,0.56278470899319,17.97716501578802
28,6,1.0,0.7425563591510702,0.0
28,6,0.75,0.7434901428672278,-0.0933783716157599
28,6,0.5,0.7458658816160277,-0.3309522464957526
28,6,0.25,0.7432403227635288,-0.06839636124585935
28,6,0.0,0.7403883593972713,0.21679997537988882
28,7,1.0,0.7425563591510702,0.0
28,7,0.75,0.7404383563706624,0.21180027804078572
28,7,0.5,0.7281825614937494,1.437379765732083
28,7,0.25,0.6944484046042554,4.810795454681482
28,7,0.0,0.6444527815934066,9.810357755766363
28,8,1.0,0.7425563591510702,0.0
28,8,0.75,0.7434281868915474,-0.08718277404772268
28,8,0.5,0.7417723319234383,0.07840272276319338
28,8,0.25,0.7366007320558724,0.5955627095197813
28,8,0.0,0.6680372428465355,7.451911630453467
29,0,1.0,0.7471549746347116,0.0
29,0,0.75,0.7503505063917273,-0.31955317570157016
29,0,0.5,0.756802314603236,-0.9647339968524404
29,0,0.25,0.7261445749161259,2.101039971858565
29,0,0.0,0.6042896656815548,14.286530895315675
29,1,1.0,0.7471549746347116,0.0
29,1,0.75,0.7455056690738308,0.16493055608808316
29,1,0.5,0.7353690606414545,1.1785913993257124
29,1,0.25,0.7319774611178645,1.517751351684704
29,1,0.0,0.7280285803764546,1.9126394258257018
29,2,1.0,0.7471549746347116,0.0
29,2,0.75,0.7494194048136098,-0.22644301788982135
29,2,0.5,0.7545130681225898,-0.7358093487878192
29,2,0.25,0.7430099241480316,0.4145050486680013
29,2,0.0,0.7113360185707074,3.5818956064004204
29,3,1.0,0.7471549746347116,0.0
29,3,0.75,0.7519498720443992,-0.47948974096876373
29,3,0.5,0.761087177942293,-1.3932203307581381
29,3,0.25,0.7460526824487022,0.11022921860094348
29,3,0.0,0.7362152908295604,1.0939683805151201
29,4,1.0,0.7471549746347116,0.0
29,4,0.75,0.7331962009425909,1.395877369212073
29,4,0.5,0.7209291356077869,2.6225839026924658
29,4,0.25,0.6718258456348931,7.532912899981847
29,4,0.0,0.6460970700469596,10.1057904587752
29,5,1.0,0.7471549746347116,0.0
29,5,0.75,0.741762543820964,0.5392430813747628
29,5,0.5,0.7218573627769149,2.5297611857796665
29,5,0.25,0.642166335109208,10.498863952550364
29,5,0.0,0.4755207675063929,27.163420712831872
29,6,1.0,0.7471549746347116,0.0
29,6,0.75,0.7526184011944966,-0.5463426559785045
29,6,0.5,0.7651807007267327,-1.8025726092021133
29,6,0.25,0.773824573803261,-2.6669599168549385
29,6,0.0,0.7696526218186615,-2.2497647183949865
29,7,1.0,0.7471549746347116,0.0
29,7,0.75,0.7564571480547396,-0.9302173420028037
29,7,0.5,0.7636897705773822,-1.65347959426706
29,7,0.25,0.7545348287659638,-0.7379854131252195
29,7,0.0,0.7112826879956292,3.5872286639082374
29,8,1.0,0.7471549746347116,0.0
29,8,0.75,0.7458501573224682,0.13048173122434115
29,8,0.5,0.715352801683342,3.1802172951369556
29,8,0.25,0.6988671114170859,4.828786321762568
29,8,0.0,0.6315159162739978,11.563905836071376
30,0,1.0,0.8371950748827156,0.0
30,0,0.75,0.8601148204322577,-2.2919745549542125
30,0,0.5,0.8633792623286519,-2.6184187445936313
30,0,0.25,0.862291710343332,-2.5096635460616357
30,0,0.0,0.8474552001830029,-1.0260125300287304
30,1,1.0,0.8371950748827156,0.0
30,1,0.75,0.8352015387503129,0.1993536132402718
30,1,0.5,0.8276195582541849,0.9575516628530734
30,1,0.25,0.7994866011100727,3.770847377264286
30,1,0.0,0.774879419734921,6.231565514779458
30,2,1.0,0.8371950748827156,0.0
30,2,0.75,0.8308934344777393,0.6301640404976272
30,2,0.5,0.8342833027718637,0.2911772110851918
30,2,0.25,0.8276474333934838,0.9547641489231817
30,2,0.0,0.816374632860807,2.082044202190858
30,3,1.0,0.8371950748827156,0.0
30,3,0.75,0.8436111224047271,-0.6416047522011525
30,3,0.5,0.8370789000803897,0.011617480232595234
30,3,0.25,0.8226840750412706,1.4510999841444994
30,3,0.0,0.8121226531307834,2.507242175193225
30,4,1.0,0.8371950748827156,0.0
30,4,0.75,0.844739714139782,-0.7544639257066388
30,4,0.5,0.8332424567410679,0.39526181416477124
30,4,0.25,0.7941292409498183,4.306583393289731
30,4,0.0,0.7894301513121644,4.776492357055117
30,5,1.0,0.8371950748827156,0.0
30,5,0.75,0.836857301192349,0.03377736903665829
30,5,0.5,0.8161899482084366,2.1005126674279007
30,5,0.25,0.797265092008703,3.9929982874012615
30,5,0.0,0.7482363761132856,8.895869876942996
30,6,1.0,0.8371950748827156,0.0
30,6,0.75,0.8502464522980856,-1.3051377415369991
30,6,0.5,0.8525364390106387,-1.5341364127923085
30,6,0.25,0.837648144743273,-0.045306986055737575
30,6,0.0,0.8498596170737561,-1.2664542191040518
30,7,1.0,0.8371950748827156,0.0
30,7,0.75,0.8427784091797067,-0.5583334296991094
30,7,0.5,0.8170719830026132,2.0123091880102417
30,7,0.25,0.783373166379212,5.382190850350366
30,7,0.0,0.7237926802872537,11.340239459546186
30,8,1.0,0.8371950748827156,0.0
30,8,0.75,0.833165061180327,0.4030013702388646
30,8,0.5,0.8170645809170887,2.013049396562694
30,8,0.25,0.8018434612651031,3.535161361761252
30,8,0.0,0.7594399748168645,7.775510006585106
31,0,1.0,0.7635180943867947,0.0
31,0,0.75,0.7609763732349405,0.2541721151854248
31,0,0.5,0.7559438910182783,0.7574203368516441
31,0,0.25,0.72985621205052,3.366188233627476
31,0,0.0,0.6941331362031578,6.938495818363699
31,1,1.0,0.7635180943867947,0.0
31,1,0.75,0.7584847889130037,0.5033305473790994
31,1,0.5,0.740124062118723,2.3394032268071796
31,1,0.25,0.7083301400538997,5.518795433289503
31,1,0.0,0.7052450252876739,5.827306909912089
31,2,1.0,0.7635180943867947,0.0
31,2,0.75,0.7573900799499977,0.6128014436797002
31,2,0.5,0.7432397347862487,2.0278359600546025
31,2,0.25,0.7204123570273573,4.310573735943746
31,2,0.0,0.6880044151154024,7.55136792713923
31,3,1.0,0.7635180943867947,0.0
31,3,0.75,0.7670813957246484,-0.35633013378536527
31,3,0.5,0.7570725412429871,0.6445553143807681
31,3,0.25,0.7372095265258085,2.630856786098623
31,3,0.0,0.7049772609695913,5.85408334172034
31,4,1.0,0.7635180943867947,0.0
31,4,0.75,0.7708098321597584,-0.7291737772963658
31,4,0.5,0.7568220009502687,0.6696093436525996
31,4,0.25,0.7439604598345184,1.9557634552276326
31,4,0.0,0.7106699405491158,5.284815383767894
31,5,1.0,0.7635180943867947,0.0
31,5,0.75,0.7732296000320434,-0.9711505645248697
31,5,0.5,0.7613354551018594,0.21826392849353393
31,5,0.25,0.7297675676833526,3.375052670344214
31,5,0.0,0.6683363362992981,9.518175808749662
31,6,1.0,0.7635180943867947,0.0
31,6,0.75,0.7672772639316369,-0.37591695448421225
31,6,0.5,0.744792077474828,1.8726016911966736
31,6,0.25,0.7402599656879632,2.3258128698831593
31,6,0.0,0.6965979353500593,6.692015903673543
31,7,1.0,0.7635180943867947,0.0
31,7,0.75,0.752776394464687,1.0741699922107717
31,7,0.5,0.6961826558134788,6.7335438573315916
31,7,0.25,0.6167165036620342,14.680159072476052
31,7,0.0,0.5075292688433518,25.598882554344293
31,8,1.0,0.7635180943867947,0.0
31,8,0.75,0.7341069596233529,2.9411134763441815
31,8,0.5,0.7071337960106697,5.638429837612502
31,8,0.25,0.664382818037255,9.913527634953978
31,8,0.0,0.6064596027177247,15.705849166907004
32,0,1.0,0.8121691733397414,0.0
32,0,0.75,0.8172191932142043,-0.5050019874462963
32,0,0.5,0.771155834623582,4.101333871615942
32,0,0.25,0.7339908107906836,7.8178362549057745
32,0,0.0,0.703234287639794,10.893488569994735
32,1,1.0,0.8121691733397414,0.0
32,1,0.75,0.806660085230986,0.5509088108755389
32,1,0.5,0.7963178930245993,1.5851280315142047
32,1,0.25,0.7574219741543131,5.474719918542825
32,1,0.0,0.6561182462214913,15.605092711825009
32,2,1.0,0.8121691733397414,0.0
32,2,0.75,0.8070655183876171,0.5103654952124281
32,2,0.5,0.7880533535545603,2.411581978518107
32,2,0.25,0.7795934306960883,3.257574264365304
32,2,0.0,0.7308083614515141,8.13608118882273
32,3,1.0,0.8121691733397414,0.0
32,3,0.75,0.7897925055085445,2.237666783119685
32,3,0.5,0.7834744869409882,2.8694686398753166
32,3,0.25,0.7690648328709646,4.310434046877676
32,3,0.0,0.7463080384126674,6.586113492707401
32,4,1.0,0.8121691733397414,0.0
32,4,0.75,0.7944754856219773,1.7693687717764028
32,4,0.5,0.7574469639738066,5.472220936593475
32,4,0.25,0.7215185611258652,9.065061221387616
32,4,0.0,0.6989306494058349,11.323852393390643
32,5,1.0,0.8121691733397414,0.0
32,5,0.75,0.8131685698200514,-0.09993964803099997
32,5,0.5,0.8097636455437457,0.24055277959956767
32,5,0.25,0.7614022860842569,5.0766887255484505
32,5,0.0,0.682346285067091,12.982288827265032
32,6,1.0,0.8121691733397414,0.0
32,6,0.75,0.8070982671463336,0.5070906193407776
32,6,0.5,0.7956794722602492,1.6489701079492214
32,6,0.25,0.7779686239195035,3.420054942023787
32,6,0.0,0.7697822133056973,4.238696003404407
32,7,1.0,0.8121691733397414,0.0
32,7,0.75,0.8009060557868557,1.126311755288567
32,7,0.5,0.7718104018304612,4.035877150928013
32,7,0.25,0.7082348436358701,10.393432970387128
32,7,0.0,0.6441864117343556,16.79827616053857
32,8,1.0,0.8121691733397414,0.0
32,8,0.75,0.8159199189335962,-0.37507455938547984
32,8,0.5,0.8068008277257157,0.536834561402566
32,8,0.25,0.7327159885293203,7.945318481042108
32,8,0.0,0.6474301257288496,16.473904761089177
33,0,1.0,0.8715613652868555,0.0
33,0,0.75,0.8616815161240032,0.9879849162852228
33,0,0.5,0.849610051982709,2.195131330414646
33,0,0.25,0.7944277357241692,7.713362956268622
33,0,0.0,0.7154899404604911,15.607142482636437
33,1,1.0,0.8715613652868555,0.0
33,1,0.75,0.8607130603691383,1.0848304917717155
33,1,0.5,0.8498157521643307,2.1745613122524765
33,1,0.25,0.8119587150133643,5.960265027349121
33,1,0.0,0.7854733731036994,8.60879921831561
33,2,1.0,0.8715613652868555,0.0
33,2,0.75,0.8561553033817014,1.5406061905154034
33,2,0.5,0.824653139320425,4.690822596643041
33,2,0.25,0.8069570528646324,6.460431242222309
33,2,0.0,0.7717869005083109,9.977446477854457
33,3,1.0,0.8715613652868555,0.0
33,3,0.75,0.8615161255435062,1.0045239743349255
33,3,0.5,0.8438542561379923,2.7707109148863207
33,3,0.25,0.8059384017228929,6.562296356396258
33,3,0.0,0.7433745751266072,12.818679016024825
33,4,1.0,0.8715613652868555,0.0
33,4,0.75,0.8475650604443368,2.399630484251869
33,4,0.5,0.8321888490760657,3.9372516210789743
33,4,0.25,0.8138683303897103,5.769303489714517
33,4,0.0,0.7815287296755626,9.003263561129282
33,5,1.0,0.8715613652868555,0.0
33,5,0.75,0.8291381413746388,4.2423223912216645
33,5,0.5,0.7203786494344356,15.118271585241983
33,5,0.25,0.6528739549351021,21.868741035175333
33,5,0.0,0.5702371956661912,30.132416962066422
33,6,1.0,0.8715613652868555,0.0
33,6,0.75,0.8429621482519032,2.8599217034952273
33,6,0.5,0.7729062435185944,9.865512176826108
33,6,0.25,0.747159572660546,12.440179262630945
33,6,0.0,0.7265961292139304,14.496523607292511
33,7,1.0,0.8715613652868555,0.0
33,7,0.75,0.8583528548424721,1.3208510444383315
33,7,0.5,0.8328951789274135,3.8666186359441967
33,7,0.25,0.7489102222111508,12.265114307570467
33,7,0.0,0.6595988439605476,21.19625213263079
33,8,1.0,0.8715613652868555,0.0
33,8,0.75,0.8612015001413826,1.0359865145472824
33,8,0.5,0.8437554766330324,2.780588865382305
33,8,0.25,0.816961585082305,5.459978020455047
33,8,0.0,0.7477856034697198,12.377576181713568
34,0,1.0,0.8275370321835749,0.0
34,0,0.75,0.8161851661895702,1.1351865994004728
34,0,0.5,0.806581630566667,2.09554016169079
34,0,0.25,0.767220119644471,6.031691253910387
34,0,0.0,0.6695984595877071,15.793857259586774
34,1,1.0,0.8275370321835749,0.0
34,1,0.75,0.8281745521432105,-0.06375199596355685
34,1,0.5,0.8219722235922831,0.5564808591291825
34,1,0.25,0.8163034270630667,1.1233605120508194
34,1,0.0,0.8064743281192357,2.106270406433919
34,2,1.0,0.8275370321835749,0.0
34,2,0.75,0.8182563207253583,0.9280711458216628
34,2,0.5,0.8041196499510054,2.3417382232569506
34,2,0.25,0.7804458230068929,4.709120917668197
34,2,0.0,0.7548048677570172,7.273216442655772
34,3,1.0,0.8275370321835749,0.0
34,3,0.75,0.8221198627219654,0.5417169461609528
34,3,0.5,0.8280048409827026,-0.04678087991276669
34,3,0.25,0.8196838906308137,0.7853141552761178
34,3,0.0,0.7942389944671767,3.3298037716398166
34,4,1.0,0.8275370321835749,0.0
34,4,0.75,0.8159469660682467,1.1590066115328201
34,4,0.5,0.818615988010043,0.89210441735319
34,4,0.25,0.8021852606885649,2.535177149501
34,4,0.0,0.7869198331302287,4.061719905334615
34,5,1.0,0.8275370321835749,0.0
34,5,0.75,0.8311508276295989,-0.3613795446024026
34,5,0.5,0.8196177840388894,0.7919248144685476
34,5,0.25,0.7759916466586635,5.15453855249114
34,5,0.0,0.7150213215566644,11.251571062691045
34,6,1.0,0.8275370321835749,0.0
34,6,0.75,0.8289788740812062,-0.1441841897631302
34,6,0.5,0.8311654854994748,-0.36284533158998933
34,6,0.25,0.8389773022610261,-1.1440270077451187
34,6,0.0,0.825553582344327,0.19834498392479194
34,7,1.0,0.8275370321835749,0.0
34,7,0.75,0.8165139636412413,1.1023068542333592
34,7,0.5,0.7920392342983705,3.549779788520435
34,7,0.25,0.7780702788434748,4.946675334010009
34,7,0.0,0.7516739347766134,7.5863097406961515
34,8,1.0,0.8275370321835749,0.0
34,8,0.75,0.8060482262704896,2.148880591308533
34,8,0.5,0.7977048336974736,2.9832198486101302
34,8,0.25,0.746156658912749,8.138037327082593
34,8,0.0,0.6909395884513951,13.659744373217976
35,0,1.0,0.7174537227048936,0.0
35,0,0.75,0.7090131720065931,0.844055069830052
35,0,0.5,0.6898362704397187,2.761745226517487
35,0,0.25,0.6721687593537987,4.528496335109489
35,0,0.0,0.6501648408556325,6.728888184926108
35,1,1.0,0.7174537227048936,0.0
35,1,0.75,0.7027349712958626,1.4718751409031006
35,1,0.5,0.6876952973977002,2.9758425307193415
35,1,0.25,0.6877961410333838,2.965758167150978
35,1,0.0,0.6720431654050207,4.541055729987287
35,2,1.0,0.7174537227048936,0.0
35,2,0.75,0.7078396237876428,0.9614098917250846
35,2,0.5,0.7119915916544323,0.5462131050461339
35,2,0.25,0.7052429573958665,1.2210765309027094
35,2,0.0,0.6678986661704043,4.955505653448933
35,3,1.0,0.7174537227048936,0.0
35,3,0.75,0.7173737098248125,0.008001288008108176
35,3,0.5,0.7053160536509208,1.2137669053972844
35,3,0.25,0.6649292636994166,5.2524459005476976
35,3,0.0,0.6267794341457726,9.067428855912096
35,4,1.0,0.7174537227048936,0.0
35,4,0.75,0.7025299564649391,1.4923766239954506
35,4,0.5,0.6980613500122418,1.9392372692651816
35,4,0.25,0.6853295205826053,3.212420212228828
35,4,0.0,0.6673216338219901,5.013208888290355
35,5,1.0,0.7174537227048936,0.0
35,5,0.75,0.7061414032326006,1.1312319472293053
35,5,0.5,0.6909069926825626,2.654673002233099
35,5,0.25,0.6710244141925554,4.642930851233817
35,5,0.0,0.6618916742544556,5.5562048450437995
35,6,1.0,0.7174537227048936,0.0
35,6,0.75,0.7183470199775831,-0.08932972726894972
35,6,0.5,0.7145262642720456,0.2927458432848029
35,6,0.25,0.6991817192365258,1.827200346836777
35,6,0.0,0.7058095343300598,1.164418837483383
35,7,1.0,0.7174537227048936,0.0
35,7,0.75,0.7097957065462085,0.765801615868511
35,7,0.5,0.711710603175179,0.5743119529714624
35,7,0.25,0.6953490255591648,2.2104697145728824
35,7,0.0,0.6706357804993198,4.681794220557379
35,8,1.0,0.7174537227048936,0.0
35,8,0.75,0.7166014298258694,0.0852292879024219
35,8,0.5,0.7234737345353784,-0.6020011830484839
35,8,0.25,0.7084026019863595,0.9051120718534089
35,8,0.0,0.6720537818215537,4.539994088333987
36,0,1.0,0.6676186222302093,0.0
36,0,0.75,0.6592209429854289,0.8397679244780409
36,0,0.5,0.6462810692222457,2.1337553007963583
36,0,0.25,0.6249457933823384,4.267282884787093
36,0,0.0,0.6216529750791291,4.59656471510802
36,1,1.0,0.6676186222302093,0.0
36,1,0.75,0.6577303508185175,0.9888271411691796
36,1,0.5,0.6461497335326668,2.1468888697542488
36,1,0.25,0.6284894514387158,3.9129170791493473
36,1,0.0,0.6086913343329754,5.892728789723389
36,2,1.0,0.6676186222302093,0.0
36,2,0.75,0.6794158154269702,-1.179719319676087
36,2,0.5,0.6781616961402914,-1.0543073910082135
36,2,0.25,0.6589290095424126,0.8689612687796666
36,2,0.0,0.6323823026897755,3.5236319540433825
36,3,1.0,0.6676186222302093,0.0
36,3,0.75,0.6672504967618752,0.036812546833409066
36,3,0.5,0.6572458797021601,1.0372742528049206
36,3,0.25,0.6486626590505521,1.8955963179657198
36,3,0.0,0.6427825653625716,2.483605686763768
36,4,1.0,0.6676186222302093,0.0
36,4,0.75,0.6730423959831263,-0.5423773752917027
36,4,0.5,0.6823707825550913,-1.4752160324882024
36,4,0.25,0.6650360335705163,0.25825886596929637
36,4,0.0,0.6354384340954415,3.218018813476775
36,5,1.0,0.6676186222302093,0.0
36,5,0.75,0.6957675512260665,-2.814892899585719
36,5,0.5,0.6869407780253076,-1.9322155795098328
36,5,0.25,0.48448948156772853,18.312914066248076
36,5,0.0,0.4337308728004303,23.388774942977896
36,6,1.0,0.6676186222302093,0.0
36,6,0.75,0.678748924817382,-1.1130302587172736
36,6,0.5,0.672722949886197,-0.5104327655987673
36,6,0.25,0.6598855274375197,0.7733094792689577
36,6,0.0,0.6446844128632148,2.293420936699453
36,7,1.0,0.6676186222302093,0.0
36,7,0.75,0.6659036936244296,0.17149286057797086
36,7,0.5,0.6582733554826333,0.9345266747575964
36,7,0.25,0.5877655246684652,7.9853097561744075
36,7,0.0,0.5501280548988986,11.74905673313107
36,8,1.0,0.6676186222302093,0.0
36,8,0.75,0.6584268771146049,0.9191745115604388
36,8,0.5,0.6373158596482864,3.030276258192288
36,8,0.25,0.6085836236387032,5.903499859150607
36,8,0.0,0.5814210898926744,8.61975323375349
37,0,1.0,0.8697770904209203,0.0
37,0,0.75,0.8608741352291405,0.890295519177986
37,0,0.5,0.8489271005817058,2.084998983921449
37,0,0.25,0.8052089139664538,6.456817645446655
37,0,0.0,0.7613665216416794,10.841056877924093
37,1,1.0,0.8697770904209203,0.0
37,1,0.75,0.8642763130830549,0.550077733786547
37,1,0.5,0.863297588119573,0.6479502301347306
37,1,0.25,0.8402497493462432,2.952734107467714
37,1,0.0,0.8086881059164628,6.108898450445754
37,2,1.0,0.8697770904209203,0.0
37,2,0.75,0.8606410160364679,0.9136074384452408
37,2,0.5,0.8527984428521813,1.6978647568739014
37,2,0.25,0.8208888979978504,4.8888192423069965
37,2,0.0,0.7661997514987415,10.35773389221788
37,3,1.0,0.8697770904209203,0.0
37,3,0.75,0.8703209292764912,-0.05438388555708551
37,3,0.5,0.8622177732346581,0.7559317186262238
37,3,0.25,0.8426591153987123,2.711797502220803
37,3,0.0,0.8199677260466525,4.980936437426786
37,4,1.0,0.8697770904209203,0.0
37,4,0.75,0.8705309276201639,-0.0753837199243601
37,4,0.5,0.8673045253999352,0.24725650209851402
37,4,0.25,0.8591044249493474,1.0672665471572973
37,4,0.0,0.8196830428683215,5.009404755259883
37,5,1.0,0.8697770904209203,0.0
37,5,0.75,0.8729481617539129,-0.3171071332992548
37,5,0.5,0.8749610192077376,-0.5183928786817282
37,5,0.25,0.8662127663971579,0.35643240237623885
37,5,0.0,0.8479336778910306,2.184341252988975
37,6,1.0,0.8697770904209203,0.0
37,6,0.75,0.8699560649815734,-0.017897456065307793
37,6,0.5,0.8552210024037599,1.4556088017160462
37,6,0.25,0.8417922720848261,2.798481833609423
37,6,0.0,0.8261537197935181,4.3623370627402185
37,7,1.0,0.8697770904209203,0.0
37,7,0.75,0.8570702170259715,1.2706873394948803
37,7,0.5,0.8322626543874442,3.751443603347615
37,7,0.25,0.8115573277111774,5.821976270974294
37,7,0.0,0.7695516156751366,10.022547474578369
37,8,1.0,0.8697770904209203,0.0
37,8,0.75,0.851717612025975,1.8059478394945372
37,8,0.5,0.8225403251719041,4.723676524901621
37,8,0.25,0.8051183413669509,6.46587490539694
37,8,0.0,0.7754091355709442,9.436795484997617
38,0,1.0,0.7918187442043476,0.0
38,0,0.75,0.7708754902591533,2.0943253945194362
38,0,0.5,0.7715591099395904,2.0259634264757187
38,0,0.25,0.7514151073813683,4.040363682297931
38,0,0.0,0.731839161240205,5.997958296414263
38,1,1.0,0.7918187442043476,0.0
38,1,0.75,0.7855074792994575,0.631126490489009
38,1,0.5,0.7803285308663415,1.149021333800615
38,1,0.25,0.7592146804801044,3.260406372424318
38,1,0.0,0.7230717349491924,6.87470092551552
38,2,1.0,0.7918187442043476,0.0
38,2,0.75,0.8010136569613283,-0.91949127569807
38,2,0.5,0.7810877502263839,1.0730993977963732
38,2,0.25,0.7517589476018374,4.0059796602510245
38,2,0.0,0.7326212257930858,5.919751841126186
38,3,1.0,0.7918187442043476,0.0
38,3,0.75,0.8030632302357391,-1.1244486031391498
38,3,0.5,0.8028749063297886,-1.1056162125441027
38,3,0.25,0.7732708075871776,1.8547936617170024
38,3,0.0,0.7185962621394768,7.322248206487081
38,4,1.0,0.7918187442043476,0.0
38,4,0.75,0.782135569755614,0.9683174448733567
38,4,0.5,0.7307215929532058,6.109715125114179
38,4,0.25,0.6142554301811803,17.75633140231673
38,4,0.0,0.5166046805020801,27.521406370226753
38,5,1.0,0.7918187442043476,0.0
38,5,0.75,0.7816326751978926,1.0186069006455023
38,5,0.5,0.7348166930359705,5.700205116837709
38,5,0.25,0.6289174326796514,16.290131152469623
38,5,0.0,0.5383567180673009,25.346202613704673
38,6,1.0,0.7918187442043476,0.0
38,6,0.75,0.7723805202873313,1.9438223917016328
38,6,0.5,0.7520366876572209,3.9782056547126743
38,6,0.25,0.7424386766494474,4.93800675549002
38,6,0.0,0.7289334205970032,6.288532360734445
38,7,1.0,0.7918187442043476,0.0
38,7,0.75,0.796463344243832,-0.46446000394844145
38,7,0.5,0.797015965077023,-0.5197220872675379
38,7,0.25,0.7893201363738661,0.2498607830481503
38,7,0.0,0.7465483288233696,4.527041538097798
38,8,1.0,0.7918187442043476,0.0
38,8,0.75,0.7841916174298516,0.7627126774496062
38,8,0.5,0.7654967257644375,2.632201843991011
38,8,0.25,0.7646757683784736,2.7142975825873994
38,8,0.0,0.7497674427022254,4.205130150212222
39,0,1.0,0.7449511783342594,0.0
39,0,0.75,0.6937825028342653,5.116867549999404
39,0,0.5,0.6157302759768417,12.922090235741768
39,0,0.25,0.5894514774516489,15.549970088261045
39,0,0.0,0.5851060983994089,15.984507993485053
39,1,1.0,0.7449511783342594,0.0
39,1,0.75,0.7426156378240694,0.23355405101900262
39,1,0.5,0.7351589194473731,0.9792258886886285
39,1,0.25,0.7150717781645313,2.987940016972812
39,1,0.0,0.6936042251951927,5.134695313906668
39,2,1.0,0.7449511783342594,0.0
39,2,0.75,0.7643218955956117,-1.937071726135231
39,2,0.5,0.7739347521921058,-2.8983573857846445
39,2,0.25,0.7426394617391141,0.23117165951452856
39,2,0.0,0.6910117088450188,5.3939469489240555
39,3,1.0,0.7449511783342594,0.0
39,3,0.75,0.7359997379454927,0.8951440388766718
39,3,0.5,0.7200710619547003,2.4880116379559114
39,3,0.25,0.6826188133566248,6.233236497763461
39,3,0.0,0.6491336527019486,9.581752563231083
39,4,1.0,0.7449511783342594,0.0
39,4,0.75,0.7704747346362562,-2.5523556301996764
39,4,0.5,0.751038834009321,-0.6087655675061643
39,4,0.25,0.6733337217569306,7.161745657732876
39,4,0.0,0.6192048618778374,12.574631645642198
39,5,1.0,0.7449511783342594,0.0
39,5,0.75,0.7291610191794927,1.579015915476667
39,5,0.5,0.6940082100872412,5.094296824701816
39,5,0.25,0.6583253445349184,8.662583379934096
39,5,0.0,0.6036761959140777,14.127498242018167
39,6,1.0,0.7449511783342594,0.0
39,6,0.75,0.7438167925664244,0.11343857678349778
39,6,0.5,0.7293641027351669,1.5587075599092448
39,6,0.25,0.6879925494835416,5.6958628850717785
39,6,0.0,0.6677024326024635,7.724874573179585
39,7,1.0,0.7449511783342594,0.0
39,7,0.75,0.7528256853858702,-0.7874507051610857
39,7,0.5,0.7416375502659697,0.331362806828972
39,7,0.25,0.7040549142499446,4.08962640843148
39,7,0.0,0.622844052226677,12.210712610758234
39,8,1.0,0.7449511783342594,0.0
39,8,0.75,0.7504581656599941,-0.5506987325734736
39,8,0.5,0.7444735358876894,0.047764244657000354
39,8,0.25,0.7213691673186053,2.3582011015654047
39,8,0.0,0.6938260693003631,5.112510903389634
40,0,1.0,0.7636231325637258,0.0
40,0,0.75,0.7835769918476725,-1.9953859283946662
40,0,0.5,0.7692454825786388,-0.5622350014912958
40,0,0.25,0.7600604649673361,0.3562667596389679
40,0,0.0,0.7173641765228712,4.6258956040854615
40,1,1.0,0.7636231325637258,0.0
40,1,0.75,0.7577633418580635,0.5859790705662338
40,1,0.5,0.7302333180243944,3.338981453933143
40,1,0.25,0.7110472315638849,5.257590099984089
40,1,0.0,0.7208694505126527,4.275368205107311
40,2,1.0,0.7636231325637258,0.0
40,2,0.75,0.749790350326421,1.3832782237304775
40,2,0.5,0.7300684025001842,3.3554730063541593
40,2,0.25,0.734548837588314,2.9074294975411807
40,2,0.0,0.7238440491849109,3.9779083378814972
40,3,1.0,0.7636231325637258,0.0
40,3,0.75,0.7647880262906431,-0.11648937269173043
40,3,0.5,0.7647004790609744,-0.10773464972485547
40,3,0.25,0.7369341208619953,2.6689011701730547
40,3,0.0,0.7025737265199015,6.104940604382437
40,4,1.0,0.7636231325637258,0.0
40,4,0.75,0.7585290404040403,0.5094092159685482
40,4,0.5,0.7587407224502382,0.48824101134876674
40,4,0.25,0.7448656548071815,1.875747775654435
40,4,0.0,0.7311971929994676,3.242593956425821
40,5,1.0,0.7636231325637258,0.0
40,5,0.75,0.7666491854502738,-0.3026052886548003
40,5,0.5,0.7541258740361185,0.94972585276073
40,5,0.25,0.7180803315478237,4.554280101590214
40,5,0.0,0.6734868162095203,9.013631635420548
40,6,1.0,0.7636231325637258,0.0
40,6,0.75,0.7585014333331792,0.5121699230546617
40,6,0.5,0.7497604341401306,1.386269842359522
40,6,0.25,0.727507471580108,3.6115660983617848
40,6,0.0,0.6810627671154201,8.25603654483057
40,7,1.0,0.7636231325637258,0.0
40,7,0.75,0.7536888727856216,0.9934259778104249
40,7,0.5,0.7462469644135405,1.7376168150185278
40,7,0.25,0.6807118965809553,8.29112359827705
40,7,0.0,0.6269049145367116,13.671821802701423
40,8,1.0,0.7636231325637258,0.0
40,8,0.75,0.7522296983380701,1.1393434225655752
40,8,0.5,0.7402748042187698,2.3348328344956037
40,8,0.25,0.7144495967257042,4.917353583802164
40,8,0.0,0.5987486944228112,16.487443814091463
