subject,channel,f1_full,f1_occluded,drop_pp
1,0,0.5890469697552322,0.4778506233578034,11.11963463974288
1,1,0.5890469697552322,0.5958145981135058,-0.6767628358273603
1,2,0.5890469697552322,0.4096735005868266,17.937346916840557
1,3,0.5890469697552322,0.4630704807523539,12.597648900287828
1,4,0.5890469697552322,0.511037991611068,7.800897814416419
1,5,0.5890469697552322,0.40080097942269044,18.824599033254174
1,6,0.5890469697552322,0.6512993685666398,-6.225239881140765
1,7,0.5890469697552322,0.5076653154127101,8.138165434252208
1,8,0.5890469697552322,0.5124982647543246,7.654870500090761
2,0,0.7907522450722583,0.7286701269832713,6.2082118088987
2,1,0.7907522450722583,0.711562579261189,7.918966581106924
2,2,0.7907522450722583,0.7244576467611202,6.629459831113804
2,3,0.7907522450722583,0.7721860134709391,1.8566231601319205
2,4,0.7907522450722583,0.7862622753441539,0.4489969728104337
2,5,0.7907522450722583,0.717485188087297,7.326705698496127
2,6,0.7907522450722583,0.7838512382585331,0.6901006813725186
2,7,0.7907522450722583,0.6625771484012033,12.817509667105497
2,8,0.7907522450722583,0.6908280831858595,9.992416188639874
3,0,0.8235374117830072,0.5757381125447157,24.779929923829147
3,1,0.8235374117830072,0.8033523536313945,2.0185058151612756
3,2,0.8235374117830072,0.5999228380015879,22.361457378141935
3,3,0.8235374117830072,0.5134096004601476,31.01278113228596
3,4,0.8235374117830072,0.7151278707979313,10.840954098507593
3,5,0.8235374117830072,0.7475474576250503,7.598995415795695
3,6,0.8235374117830072,0.7993994326312648,2.413797915174243
3,7,0.8235374117830072,0.7213029100529101,10.223450173009708
3,8,0.8235374117830072,0.7355489868702658,8.79884249127414
4,0,0.8033660464464197,0.5736103208572545,22.975572558916525
4,1,0.8033660464464197,0.6677114495316382,13.565459691478154
4,2,0.8033660464464197,0.6717843428909003,13.158170355551945
4,3,0.8033660464464197,0.7257620016590778,7.760404478734195
4,4,0.8033660464464197,0.7063026626221772,9.706338382424251
4,5,0.8033660464464197,0.7348395558921874,6.852649055423232
4,6,0.8033660464464197,0.7150069880646891,8.835905838173064
4,7,0.8033660464464197,0.6400391419010699,16.332690454534983
4,8,0.8033660464464197,0.7220862774213787,8.127976902504109
5,0,0.5478460110409988,0.5531859976356233,-0.5339986594624424
5,1,0.5478460110409988,0.5351249687951114,1.2721042245887437
5,2,0.5478460110409988,0.5484186069715138,-0.057259593051495195
5,3,0.5478460110409988,0.5540999035339653,-0.6253892492966484
5,4,0.5478460110409988,0.5063631642860466,4.148284675495228
5,5,0.5478460110409988,0.42499008511361414,12.285592592738471
5,6,0.5478460110409988,0.5285440548748214,1.930195616617747
5,7,0.5478460110409988,0.4870257051570149,6.082030588398396
5,8,0.5478460110409988,0.4642829686744032,8.356304236659561
6,0,0.7019897636520736,0.6021523467006595,9.9837416951414
6,1,0.7019897636520736,0.5577938649091243,14.419589874294925
6,2,0.7019897636520736,0.5684369198372058,13.355284381486776
6,3,0.7019897636520736,0.6331386843534247,6.885107929864887
6,4,0.7019897636520736,0.6041404376129884,9.784932603908514
6,5,0.7019897636520736,0.35349934159534446,34.84904220567291
6,6,0.7019897636520736,0.5504047009462738,15.158506270579974
6,7,0.7019897636520736,0.4334381615974504,26.855160205462315
6,8,0.7019897636520736,0.6391306118633754,6.285915178869816
7,0,0.6103768130849756,0.5789059342631652,3.1470878821810433
7,1,0.6103768130849756,0.5241149364144168,8.626187667055884
7,2,0.6103768130849756,0.6983499404457397,-8.797312736076412
7,3,0.6103768130849756,0.7350496437720269,-12.467283068705125
7,4,0.6103768130849756,0.6386250957084294,-2.82482826234538
7,5,0.6103768130849756,0.5911056108968998,1.9271202188075764
7,6,0.6103768130849756,0.5384176987431618,7.1959114341813795
7,7,0.6103768130849756,0.6099909866987119,0.03858263862637212
7,8,0.6103768130849756,0.6212602461396579,-1.0883433054682312
8,0,0.8097692431244736,0.7405320939673739,6.9237149157099775
8,1,0.8097692431244736,0.7080273298216803,10.174191330279337
8,2,0.8097692431244736,0.7318436568551778,7.79255862692958
8,3,0.8097692431244736,0.755234740938332,5.453450218614164
8,4,0.8097692431244736,0.7372478887578693,7.252135436660434
8,5,0.8097692431244736,0.6321852887375522,17.758395438692144
8,6,0.8097692431244736,0.8087008729304327,0.10683701940409351
8,7,0.8097692431244736,0.7003575145741106,10.941172855036307
8,8,0.8097692431244736,0.6738092769946016,13.595996612987204
9,0,0.7885463877541343,0.7357716549624578,5.277473279167655
9,1,0.7885463877541343,0.6388800591474659,14.96663286066684
9,2,0.7885463877541343,0.7429760813843986,4.557030636973569
9,3,0.7885463877541343,0.7744741664039037,1.4072221350230674
9,4,0.7885463877541343,0.6629394429926625,12.560694476147184
9,5,0.7885463877541343,0.6824945188317281,10.605186892240626
9,6,0.7885463877541343,0.7668535696770526,2.1692818077081677
9,7,0.7885463877541343,0.6779093802168882,11.063700753724614
9,8,0.7885463877541343,0.6982549472403738,9.029144051376047
10,0,0.7281613805121943,0.6279389145242804,10.022246598791384
10,1,0.7281613805121943,0.6457425820489895,8.241879846320476
10,2,0.7281613805121943,0.6302536048321956,9.790777567999864
10,3,0.7281613805121943,0.5963702745930433,13.1791105919151
10,4,0.7281613805121943,0.7582124670756266,-3.005108656343236
10,5,0.7281613805121943,0.6328560144958022,9.530536601639206
10,6,0.7281613805121943,0.7016439886325171,2.6517391879677166
10,7,0.7281613805121943,0.583403805388491,14.475757512370324
10,8,0.7281613805121943,0.668872336171697,5.9289044340497306
11,0,0.8514339254432103,0.6952027913444172,15.623113409879307
11,1,0.8514339254432103,0.7624767937145119,8.895713172869835
11,2,0.8514339254432103,0.7426791936933925,10.875473174981776
11,3,0.8514339254432103,0.7459113702244075,10.552255521880284
11,4,0.8514339254432103,0.7821769652355274,6.9256960207682905
11,5,0.8514339254432103,0.6512251543240839,20.02087711191264
11,6,0.8514339254432103,0.8606034904862178,-0.9169565043007477
11,7,0.8514339254432103,0.646501513749826,20.49324116933843
11,8,0.8514339254432103,0.7382052698538377,11.322865558937256
12,0,0.8693395358673497,0.8265039811474322,4.283555471991751
12,1,0.8693395358673497,0.8231994969799848,4.614003888736484
12,2,0.8693395358673497,0.8033238144919788,6.601572137537093
12,3,0.8693395358673497,0.7651434260905796,10.419610977677007
12,4,0.8693395358673497,0.7609774176153371,10.836211825201259
12,5,0.8693395358673497,0.7655742049091535,10.376533095819617
12,6,0.8693395358673497,0.86278553366015,0.6554002207199705
12,7,0.8693395358673497,0.748004896549417,12.133463931793266
12,8,0.8693395358673497,0.7983068717722706,7.103266409507913
13,0,0.8577125490915831,0.8288219092173661,2.889063987421703
13,1,0.8577125490915831,0.7893522038308285,6.836034526075463
13,2,0.8577125490915831,0.7423505742019447,11.53619748896384
13,3,0.8577125490915831,0.8077282297675062,4.998431932407687
13,4,0.8577125490915831,0.7739287121819038,8.378383690967928
13,5,0.8577125490915831,0.7868232956589922,7.088925343259089
13,6,0.8577125490915831,0.7761024593323569,8.161008975922623
13,7,0.8577125490915831,0.6837809254042277,17.39316236873554
13,8,0.8577125490915831,0.7967635605622668,6.09489885293163
14,0,0.8420935068686086,0.7696588487185341,7.243465815007455
14,1,0.8420935068686086,0.7708744887775894,7.121901809101927
14,2,0.8420935068686086,0.6614311175621945,18.06623893064141
14,3,0.8420935068686086,0.7336927217703257,10.840078509828288
14,4,0.8420935068686086,0.804247403060602,3.784610380800657
14,5,0.8420935068686086,0.7008324989437315,14.126100792487717
14,6,0.8420935068686086,0.8341410275063702,0.7952479362238418
14,7,0.8420935068686086,0.7800216421609454,6.207186470766324
14,8,0.8420935068686086,0.7391810625100259,10.291244435858271
15,0,0.9038183872874876,0.7779809505835151,12.58374367039725
15,1,0.9038183872874876,0.7336027386161076,17.021564867138007
15,2,0.9038183872874876,0.7901080192839647,11.371036800352297
15,3,0.9038183872874876,0.75531249321434,14.850589407314763
15,4,0.9038183872874876,0.7922257893191915,11.159259796829613
15,5,0.9038183872874876,0.7683377200764969,13.548066721099072
15,6,0.9038183872874876,0.8675392994450105,3.627908784247713
15,7,0.9038183872874876,0.8114643483473263,9.235403894016137
15,8,0.9038183872874876,0.8268832171811191,7.693517010636852
16,0,0.8365328072711172,0.7255860204255864,11.094678684553083
16,1,0.8365328072711172,0.712352856122206,12.417995114891124
16,2,0.8365328072711172,0.6762240167165561,16.030879055456115
16,3,0.8365328072711172,0.7991555442545311,3.737726301658617
16,4,0.8365328072711172,0.6920645689935223,14.446823827759491
16,5,0.8365328072711172,0.6200477038852467,21.64851033858706
16,6,0.8365328072711172,0.8144557029406276,2.2077104330489594
16,7,0.8365328072711172,0.7506967865410115,8.583602073010576
16,8,0.8365328072711172,0.7494563779014652,8.707642936965199
17,0,0.7830052924177425,0.5182748468741654,26.473044554357717
17,1,0.7830052924177425,0.7234294421003282,5.957585031741431
17,2,0.7830052924177425,0.6333804199460579,14.962487247168465
17,3,0.7830052924177425,0.7296712911643984,5.333400125334409
17,4,0.7830052924177425,0.703017333208237,7.998795920950553
17,5,0.7830052924177425,0.4598408138225973,32.316447859514525
17,6,0.7830052924177425,0.787980894737252,-0.49756023195094423
17,7,0.7830052924177425,0.7130174972086737,6.998779520906884
17,8,0.7830052924177425,0.6786467760735295,10.4358516344213
18,0,0.7733596423429095,0.726404728449121,4.695491389378859
18,1,0.7733596423429095,0.7173708345090379,5.598880783387161
18,2,0.7733596423429095,0.6375561397122609,13.580350263064867
18,3,0.7733596423429095,0.6544203630161844,11.89392793267251
18,4,0.7733596423429095,0.7549025266959198,1.8457115646989708
18,5,0.7733596423429095,0.6338593792954847,13.95002630474248
18,6,0.7733596423429095,0.8333965368049967,-6.003689446208716
18,7,0.7733596423429095,0.6887953440471588,8.456429829575073
18,8,0.7733596423429095,0.6941539263829422,7.920571595996739
19,0,0.8797489215997554,0.7781653613004413,10.158356029931404
19,1,0.8797489215997554,0.7853066830067935,9.444223859296185
19,2,0.8797489215997554,0.6672718917918928,21.247702980786254
19,3,0.8797489215997554,0.7179873847483628,16.176153685139262
19,4,0.8797489215997554,0.7252443638892241,15.450455771053129
19,5,0.8797489215997554,0.5800753020952689,29.967361950448645
19,6,0.8797489215997554,0.8188087499258903,6.094017167386512
19,7,0.8797489215997554,0.7431650077596049,13.658391384015045
19,8,0.8797489215997554,0.7711683313333242,10.858059026643119
20,0,0.791450955420722,0.7290259782072104,6.2424977213511585
20,1,0.791450955420722,0.6704755289622197,12.097542645850224
20,2,0.791450955420722,0.6670107033094061,12.444025211131581
20,3,0.791450955420722,0.7515084329651004,3.9942522455621576
20,4,0.791450955420722,0.7359072760708916,5.5543679349830395
20,5,0.791450955420722,0.8092284616728382,-1.777750625211627
20,6,0.791450955420722,0.7206093628020802,7.084159261864176
20,7,0.791450955420722,0.7114830679280301,7.99678874926919
20,8,0.791450955420722,0.7433809066373909,4.80700487833311
21,0,0.746637554196377,0.5079166352067253,23.872091898965174
21,1,0.746637554196377,0.6896339123268191,5.700364186955786
21,2,0.746637554196377,0.7488625211164563,-0.2224966920079341
21,3,0.746637554196377,0.6663663632900371,8.027119090633994
21,4,0.746637554196377,0.7309139079441346,1.572364625224243
21,5,0.746637554196377,0.587393144364088,15.924440983228905
21,6,0.746637554196377,0.7440971094907617,0.2540444705615319
21,7,0.746637554196377,0.7089208532281884,3.7716700968188577
21,8,0.746637554196377,0.6524678660380716,9.41696881583054
22,0,0.7319601421140074,0.6975845513830472,3.4375590730960193
22,1,0.7319601421140074,0.7072248757285235,2.4735266385483845
22,2,0.7319601421140074,0.7217036175869491,1.0256524527058275
22,3,0.7319601421140074,0.6864383849386055,4.552175717540186
22,4,0.7319601421140074,0.7048767143331607,2.7083427780846714
22,5,0.7319601421140074,0.6420147522313433,8.99453898826641
22,6,0.7319601421140074,0.7353411525900683,-0.3381010476060875
22,7,0.7319601421140074,0.5854172033130493,14.654293880095814
22,8,0.7319601421140074,0.6186421778342095,11.33179642797979
23,0,0.70910140134959,0.5671483651593252,14.195303619026479
23,1,0.70910140134959,0.6584939333660251,5.060746798356486
23,2,0.70910140134959,0.7103531666264293,-0.1251765276839345
23,3,0.70910140134959,0.6265196551080343,8.258174624155568
23,4,0.70910140134959,0.6325027825965488,7.659861875304119
23,5,0.70910140134959,0.4979730929931444,21.11283083564456
23,6,0.70910140134959,0.7000228125617224,0.9078588787867603
23,7,0.70910140134959,0.6117682957354742,9.733310561411578
23,8,0.70910140134959,0.6139369634843912,9.51644378651988
24,0,0.7187832402850035,0.653442786337419,6.534045394758447
24,1,0.7187832402850035,0.5976931550054322,12.109008527957133
24,2,0.7187832402850035,0.672786574651261,4.5996665633742495
24,3,0.7187832402850035,0.8076309417150809,-8.884770143007737
24,4,0.7187832402850035,0.599230476493911,11.955276379109247
24,5,0.7187832402850035,0.47927210313072155,23.951113715428196
24,6,0.7187832402850035,0.647587704629441,7.119553565556247
24,7,0.7187832402850035,0.5615079711706874,15.72752691143161
24,8,0.7187832402850035,0.7005442104875724,1.8239029797431083
25,0,0.8296803810523873,0.7251949685486088,10.448541250377852
25,1,0.8296803810523873,0.7651035927513632,6.4576788301024095
25,2,0.8296803810523873,0.6882500331359427,14.14303479164446
25,3,0.8296803810523873,0.7585950953375243,7.1085285714862945
25,4,0.8296803810523873,0.6563026225326283,17.337775851975902
25,5,0.8296803810523873,0.6408460641730795,18.883431687930774
25,6,0.8296803810523873,0.7985844857692335,3.109589528315382
25,7,0.8296803810523873,0.7478147182384471,8.186566281394015
25,8,0.8296803810523873,0.7955515733754315,3.412880767695581
26,0,0.6480865351480508,0.6007882345912604,4.729830055679041
26,1,0.6480865351480508,0.6055766451910721,4.250988995697869
26,2,0.6480865351480508,0.5449384925257545,10.314804262229627
26,3,0.6480865351480508,0.6470248378113933,0.10616973366575078
26,4,0.6480865351480508,0.5441050722876135,10.39814628604373
26,5,0.6480865351480508,0.5614628508442284,8.662368430382239
26,6,0.6480865351480508,0.6890506053735447,-4.0964070225493865
26,7,0.6480865351480508,0.6435917943259325,0.4494740822118315
26,8,0.6480865351480508,0.5845558827662053,6.353065238184552
27,0,0.8372982544148568,0.6695952288191382,16.77030255957186
27,1,0.8372982544148568,0.6941957758516546,14.310247856320224
27,2,0.8372982544148568,0.7576030809346014,7.969517348025546
27,3,0.8372982544148568,0.6509948952843072,18.630335913054964
27,4,0.8372982544148568,0.7352448885124367,10.205336590242009
27,5,0.8372982544148568,0.6086211363609879,22.867711805386893
27,6,0.8372982544148568,0.7949753348788289,4.232291953602796
27,7,0.8372982544148568,0.7059399245862817,13.13583298285751
27,8,0.8372982544148568,0.75409859256454,8.31996618503168
28,0,0.7425563591510702,0.7442363935979229,-0.16800344468527184
28,1,0.7425563591510702,0.7046079593413791,3.7948399809691113
28,2,0.7425563591510702,0.6984969741621376,4.405938498893258
28,3,0.7425563591510702,0.6927352313206233,4.982112783044689
28,4,0.7425563591510702,0.6634217574967761,7.913460165429409
28,5,0.7425563591510702,0.56278470899319,17.97716501578802
28,6,0.7425563591510702,0.7403883593972713,0.21679997537988882
28,7,0.7425563591510702,0.6444527815934066,9.810357755766363
28,8,0.7425563591510702,0.6680372428465355,7.451911630453467
29,0,0.7471549746347116,0.6042896656815548,14.286530895315675
29,1,0.7471549746347116,0.7280285803764546,1.9126394258257018
29,2,0.7471549746347116,0.7113360185707074,3.5818956064004204
29,3,0.7471549746347116,0.7362152908295604,1.0939683805151201
29,4,0.7471549746347116,0.6460970700469596,10.1057904587752
29,5,0.7471549746347116,0.4755207675063929,27.163420712831872
29,6,0.7471549746347116,0.7696526218186615,-2.2497647183949865
29,7,0.7471549746347116,0.7112826879956292,3.5872286639082374
29,8,0.7471549746347116,0.6315159162739978,11.563905836071376
30,0,0.8371950748827156,0.8474552001830029,-1.0260125300287304
30,1,0.8371950748827156,0.774879419734921,6.231565514779458
30,2,0.8371950748827156,0.816374632860807,2.082044202190858
30,3,0.8371950748827156,0.8121226531307834,2.507242175193225
30,4,0.8371950748827156,0.7894301513121644,4.776492357055117
30,5,0.8371950748827156,0.7482363761132856,8.895869876942996
30,6,0.8371950748827156,0.8498596170737561,-1.2664542191040518
30,7,0.8371950748827156,0.7237926802872537,11.340239459546186
30,8,0.8371950748827156,0.7594399748168645,7.775510006585106
31,0,0.7635180943867947,0.6941331362031578,6.938495818363699
31,1,0.7635180943867947,0.7052450252876739,5.827306909912089
31,2,0.7635180943867947,0.6880044151154024,7.55136792713923
31,3,0.7635180943867947,0.7049772609695913,5.85408334172034
31,4,0.7635180943867947,0.7106699405491158,5.284815383767894
31,5,0.7635180943867947,0.6683363362992981,9.518175808749662
31,6,0.7635180943867947,0.6965979353500593,6.692015903673543
31,7,0.7635180943867947,0.5075292688433518,25.598882554344293
31,8,0.7635180943867947,0.6064596027177247,15.705849166907004
32,0,0.8121691733397414,0.703234287639794,10.893488569994735
32,1,0.8121691733397414,0.6561182462214913,15.605092711825009
32,2,0.8121691733397414,0.7308083614515141,8.13608118882273
32,3,0.8121691733397414,0.7463080384126674,6.586113492707401
32,4,0.8121691733397414,0.6989306494058349,11.323852393390643
32,5,0.8121691733397414,0.682346285067091,12.982288827265032
32,6,0.8121691733397414,0.7697822133056973,4.238696003404407
32,7,0.8121691733397414,0.6441864117343556,16.79827616053857
32,8,0.8121691733397414,0.6474301257288496,16.473904761089177
33,0,0.8715613652868555,0.7154899404604911,15.607142482636437
33,1,0.8715613652868555,0.7854733731036994,8.60879921831561
33,2,0.8715613652868555,0.7717869005083109,9.977446477854457
33,3,0.8715613652868555,0.7433745751266072,12.818679016024825
33,4,0.8715613652868555,0.7815287296755626,9.003263561129282
33,5,0.8715613652868555,0.5702371956661912,30.132416962066422
33,6,0.8715613652868555,0.7265961292139304,14.496523607292511
33,7,0.8715613652868555,0.6595988439605476,21.19625213263079
33,8,0.8715613652868555,0.7477856034697198,12.377576181713568
34,0,0.8275370321835749,0.6695984595877071,15.793857259586774
34,1,0.8275370321835749,0.8064743281192357,2.106270406433919
34,2,0.8275370321835749,0.7548048677570172,7.273216442655772
34,3,0.8275370321835749,0.7942389944671767,3.3298037716398166
34,4,0.8275370321835749,0.7869198331302287,4.061719905334615
34,5,0.8275370321835749,0.7150213215566644,11.251571062691045
34,6,0.8275370321835749,0.825553582344327,0.19834498392479194
34,7,0.8275370321835749,0.7516739347766134,7.5863097406961515
34,8,0.8275370321835749,0.6909395884513951,13.659744373217976
35,0,0.7174537227048936,0.6501648408556325,6.728888184926108
35,1,0.7174537227048936,0.6720431654050207,4.541055729987287
35,2,0.7174537227048936,0.6678986661704043,4.955505653448933
35,3,0.7174537227048936,0.6267794341457726,9.067428855912096
35,4,0.7174537227048936,0.6673216338219901,5.013208888290355
35,5,0.7174537227048936,0.6618916742544556,5.5562048450437995
35,6,0.7174537227048936,0.7058095343300598,1.164418837483383
35,7,0.7174537227048936,0.6706357804993198,4.681794220557379
35,8,0.7174537227048936,0.6720537818215537,4.539994088333987
36,0,0.6676186222302093,0.6216529750791291,4.59656471510802
36,1,0.6676186222302093,0.6086913343329754,5.892728789723389
36,2,0.6676186222302093,0.6323823026897755,3.5236319540433825
36,3,0.6676186222302093,0.6427825653625716,2.483605686763768
36,4,0.6676186222302093,0.6354384340954415,3.218018813476775
36,5,0.6676186222302093,0.4337308728004303,23.388774942977896
36,6,0.6676186222302093,0.6446844128632148,2.293420936699453
36,7,0.6676186222302093,0.5501280548988986,11.74905673313107
36,8,0.6676186222302093,0.5814210898926744,8.61975323375349
37,0,0.8697770904209203,0.7613665216416794,10.841056877924093
37,1,0.8697770904209203,0.8086881059164628,6.108898450445754
37,2,0.8697770904209203,0.7661997514987415,10.35773389221788
37,3,0.8697770904209203,0.8199677260466525,4.980936437426786
37,4,0.8697770904209203,0.8196830428683215,5.009404755259883
37,5,0.8697770904209203,0.8479336778910306,2.184341252988975
37,6,0.8697770904209203,0.8261537197935181,4.3623370627402185
37,7,0.8697770904209203,0.7695516156751366,10.022547474578369
37,8,0.8697770904209203,0.7754091355709442,9.436795484997617
38,0,0.7918187442043476,0.731839161240205,5.997958296414263
38,1,0.7918187442043476,0.7230717349491924,6.87470092551552
38,2,0.7918187442043476,0.7326212257930858,5.919751841126186
38,3,0.7918187442043476,0.7185962621394768,7.322248206487081
38,4,0.7918187442043476,0.5166046805020801,27.521406370226753
38,5,0.7918187442043476,0.5383567180673009,25.346202613704673
38,6,0.7918187442043476,0.7289334205970032,6.288532360734445
38,7,0.7918187442043476,0.7465483288233696,4.527041538097798
38,8,0.7918187442043476,0.7497674427022254,4.205130150212222
39,0,0.7449511783342594,0.5851060983994089,15.984507993485053
39,1,0.7449511783342594,0.6936042251951927,5.134695313906668
39,2,0.7449511783342594,0.6910117088450188,5.3939469489240555
39,3,0.7449511783342594,0.6491336527019486,9.581752563231083
39,4,0.7449511783342594,0.6192048618778374,12.574631645642198
39,5,0.7449511783342594,0.6036761959140777,14.127498242018167
39,6,0.7449511783342594,0.6677024326024635,7.724874573179585
39,7,0.7449511783342594,0.622844052226677,12.210712610758234
39,8,0.7449511783342594,0.6938260693003631,5.112510903389634
40,0,0.7636231325637258,0.7173641765228712,4.6258956040854615
40,1,0.7636231325637258,0.7208694505126527,4.275368205107311
40,2,0.7636231325637258,0.7238440491849109,3.9779083378814972
40,3,0.7636231325637258,0.7025737265199015,6.104940604382437
40,4,0.7636231325637258,0.7311971929994676,3.242593956425821
40,5,0.7636231325637258,0.6734868162095203,9.013631635420548
40,6,0.7636231325637258,0.6810627671154201,8.25603654483057
40,7,0.7636231325637258,0.6269049145367116,13.671821802701423
40,8,0.7636231325637258,0.5987486944228112,16.487443814091463
