subject,channel,r,f1_drop_mean,f1_drop_sd
1,0,5,0.11692277110064128,0.018788991149517792
1,1,5,0.08923629880930514,0.007457471331495233
1,2,5,0.11630502582475781,0.00524539069128458
1,3,5,0.11530630220627129,0.0063983619914392085
1,4,5,0.06673267810038801,0.007755538708464783
1,5,5,0.08364729158529713,0.007961779995711973
1,6,5,0.0405241714711682,0.007600570312909774
1,7,5,0.10422642816562736,0.015289560701379531
1,8,5,0.15646407687853028,0.022754649359060138
2,0,5,0.05967447388237705,0.013081541855164693
2,1,5,0.08761121125299402,0.01021960432452942
2,2,5,0.11471011878159736,0.016925070269773128
2,3,5,0.0920466817877624,0.01981512315413605
2,4,5,0.06887024784050093,0.018128805838525726
2,5,5,0.05634527137714009,0.012028666298387367
2,6,5,0.03372810055671418,0.013544951903558415
2,7,5,0.21545911705618365,0.01663182204560978
2,8,5,0.13217010332988888,0.004170343641662281
3,0,5,0.18089618335562443,0.01872958952556019
3,1,5,0.11156542870356756,0.014353033451936005
3,2,5,0.2073354338257464,0.022496604026358728
3,3,5,0.2194590739156296,0.02218416338660212
3,4,5,0.06638487831831841,0.010550619700013933
3,5,5,0.10386279594056316,0.0067570677488313635
3,6,5,0.0010556015411957499,0.007248445078001429
3,7,5,0.16144737599316966,0.013001730057840931
3,8,5,0.13971636421147132,0.011319199435458989
4,0,5,0.1455710450675737,0.01768176763304159
4,1,5,0.15502122708421082,0.013743518804756018
4,2,5,0.13843930069225968,0.01128090659142155
4,3,5,0.13163211584232123,0.015703769605955684
4,4,5,0.14262350633241783,0.012696843561458305
4,5,5,0.1416194875477213,0.022243619672869763
4,6,5,0.0635817555670202,0.012446162305735687
4,7,5,0.1677799168738902,0.0162840245358903
4,8,5,0.11992273422061177,0.01524921717297103
5,0,5,0.04830369683437911,0.010463499655081124
5,1,5,0.06654969670442348,0.013672278688888383
5,2,5,0.0684273713496852,0.011499925120570973
5,3,5,0.035934128659878814,0.009568077648591682
5,4,5,0.08203540534507593,0.015153625329392042
5,5,5,0.06113990209044197,0.014198156739873556
5,6,5,0.021375856327829745,0.007111524099087938
5,7,5,0.037025256775823426,0.01453141375731529
5,8,5,0.11523023060396875,0.008178007339317386
6,0,5,0.09732218662267891,0.005641571109831997
6,1,5,0.1400804027954476,0.012301800466555421
6,2,5,0.08890674896955668,0.003207728921799859
6,3,5,0.06757445716494467,0.015893550266640032
6,4,5,0.09574916009174503,0.019203889556876633
6,5,5,0.19447877913755368,0.018186430524881624
6,6,5,0.10570813967185802,0.018550433883895844
6,7,5,0.18083701553535786,0.020756800265446903
6,8,5,0.12404323085172075,0.01396241881108736
7,0,5,0.06324345815598105,0.007012935245834902
7,1,5,0.1057919605818833,0.016148323326853634
7,2,5,0.06999746935421627,0.00663097205710911
7,3,5,-0.04541520481581964,0.009621890613122049
7,4,5,0.0005668618299759176,0.010563322321452516
7,5,5,0.06516401497406399,0.009117746643036308
7,6,5,0.04113041106913449,0.012012342896507738
7,7,5,0.07967708638260725,0.011066479517260742
7,8,5,0.06825421889852297,0.013948218471753617
8,0,5,0.12790089641846644,0.02440971531267067
8,1,5,0.11440288843919691,0.00837167708842576
8,2,5,0.10503441478896487,0.009316396932292931
8,3,5,0.134669588244354,0.016073859913533956
8,4,5,0.12898551476290232,0.026302473065409008
8,5,5,0.181144916977262,0.025300871564246274
8,6,5,0.02226120692001172,0.01163475357559364
8,7,5,0.17360016471254158,0.007656385972225783
8,8,5,0.15743340479979545,0.003620550194672936
9,0,5,0.10510898409533975,0.01685919552590642
9,1,5,0.16787219373181353,0.016577999788768283
9,2,5,0.08903179998227595,0.00636972673353795
9,3,5,0.06479144835210138,0.006110695204526402
9,4,5,0.13120031950769567,0.006036419805981043
9,5,5,0.12787975111286956,0.012606649786384396
9,6,5,0.0801889577819078,0.006399503182606192
9,7,5,0.1573900726820356,0.017867255242058646
9,8,5,0.20125682598972286,0.01168175020576413
10,0,5,0.12117310893019231,0.01677068359417821
10,1,5,0.05741603236505603,0.029201629603032537
10,2,5,0.10705395508372154,0.01024694468283204
10,3,5,0.14956047122475355,0.014605398623788448
10,4,5,0.05393973643799286,0.010480710096149084
10,5,5,0.12868395152149625,0.010446081631476834
10,6,5,0.10642676915327268,0.012955667884013729
10,7,5,0.13948865967986074,0.00861217339292008
10,8,5,0.12474515920934034,0.0190265444540157
11,0,5,0.12568141070290065,0.01691069257631874
11,1,5,0.13606570329601558,0.023198518345561255
11,2,5,0.15214893846272196,0.01245051238426274
11,3,5,0.18127695874697144,0.007465941593085149
11,4,5,0.104776207960355,0.014481622989635987
11,5,5,0.13506728077495742,0.012416316593756908
11,6,5,0.011554408393603843,0.013538000918601202
11,7,5,0.19168369317894857,0.00673621614786797
11,8,5,0.19475717660512548,0.012791651802783653
12,0,5,0.04823629908322169,0.005588927908538586
12,1,5,0.0958540952642714,0.014125478447371954
12,2,5,0.08555160898212628,0.015328661623580918
12,3,5,0.14168674666526482,0.018732797673837565
12,4,5,0.12059519593132668,0.005397242420949091
12,5,5,0.0647541739980398,0.006893405708223338
12,6,5,0.02495838842229512,0.009843340593248045
12,7,5,0.13922364786405086,0.010050496151054612
12,8,5,0.10687672521229019,0.01343179715784949
13,0,5,0.11925661796330175,0.015202799743885833
13,1,5,0.0718237322563551,0.013912875680462457
13,2,5,0.15979276570132145,0.011319354836241139
13,3,5,0.05816064496990279,0.013600084103994586
13,4,5,0.10796435806027165,0.008236369984510215
13,5,5,0.12016278370743431,0.008912944140095025
13,6,5,0.1047176282959289,0.009267823358320286
13,7,5,0.1815248372422656,0.01089622691462823
13,8,5,0.13202295726247867,0.004907651926483754
14,0,5,0.12116337607028094,0.009802310293148042
14,1,5,0.10599982031656552,0.017061737236918117
14,2,5,0.1449221783862341,0.00729511796904393
14,3,5,0.14489174710198613,0.006953824204685963
14,4,5,0.07743846886493448,0.013668319728581367
14,5,5,0.16549722386683502,0.014771209487591763
14,6,5,0.02052030168402654,0.002891445794087959
14,7,5,0.14797215420305293,0.005997884417906101
14,8,5,0.17213372498422694,0.007530388627374201
15,0,5,0.15959587158989427,0.01242871183194345
15,1,5,0.18902926565786746,0.00802480126627412
15,2,5,0.16616885344577498,0.012498374912341174
15,3,5,0.15639466746428746,0.011699072143117412
15,4,5,0.169261699026268,0.016795914236301637
15,5,5,0.16388609887148226,0.00920131013504457
15,6,5,0.07342012747352271,0.004338827304664041
15,7,5,0.14471914347772646,0.009558008215131263
15,8,5,0.15218664012949712,0.004400548677243938
16,0,5,0.12427350134060902,0.0063252789286731914
16,1,5,0.14439128797612585,0.007034689147002062
16,2,5,0.17915578288357645,0.021143700504537313
16,3,5,0.13816993457607407,0.012173685906191766
16,4,5,0.16379472863020586,0.011587182914339184
16,5,5,0.1907215471927614,0.011105058486449234
16,6,5,0.05378309047979564,0.006108910492300203
16,7,5,0.18513770651169573,0.011881932755742158
16,8,5,0.14684467081137995,0.008742936027735
17,0,5,0.231678556498034,0.0069106432502398655
17,1,5,0.13458544027537733,0.010518968478396671
17,2,5,0.1806424209185477,0.01737492897396333
17,3,5,0.13609124556363214,0.013036296078213399
17,4,5,0.15778691427676858,0.006623265285629739
17,5,5,0.19990566991064515,0.014053312305938412
17,6,5,0.053623425756501565,0.003698420532195098
17,7,5,0.13447864489848835,0.008246986711096447
17,8,5,0.1983588406265911,0.01006763454967254
18,0,5,0.09982821575035442,0.011771137873158675
18,1,5,0.066822883623709,0.0163042352277981
18,2,5,0.13152152768261655,0.006380360003369954
18,3,5,0.11590815673491646,0.007160237732607892
18,4,5,0.09824135272026346,0.014629688065690228
18,5,5,0.10696831949448007,0.023184902204584978
18,6,5,-0.010131209138703157,0.00799707934033348
18,7,5,0.12311555646984096,0.007473781264628306
18,8,5,0.0908684389006766,0.009528677103437272
19,0,5,0.14179162702744813,0.013348634494661359
19,1,5,0.11611099427775025,0.006977051419705446
19,2,5,0.15009175167713829,0.016855642504807904
19,3,5,0.14176459765364188,0.013940016411814912
19,4,5,0.09146069904955875,0.009134933155087043
19,5,5,0.20602652333139568,0.007915053154100878
19,6,5,0.09662545653283713,0.014339746312889506
19,7,5,0.21479850546815032,0.0182644679558954
19,8,5,0.12677878817174565,0.014102319271058384
20,0,5,0.08800149743194507,0.008804408292684491
20,1,5,0.10108574006766191,0.017653399668574765
20,2,5,0.20407167996881528,0.019144566886076072
20,3,5,0.04366855173520234,0.006927682499606789
20,4,5,0.08945695291084961,0.012101207381579316
20,5,5,0.13369253675049592,0.0339486374046222
20,6,5,0.05988230096593441,0.011094681910371745
20,7,5,0.10601620847862443,0.015970265337552525
20,8,5,0.11447619639734748,0.015392827916293384
21,0,5,0.18836827266103545,0.006800273311018712
21,1,5,0.09634304795842266,0.01898864478447372
21,2,5,0.12594488159893868,0.026097049839148415
21,3,5,0.0823315244099031,0.010871715800259302
21,4,5,0.061803713245714674,0.011709397311695527
21,5,5,0.16298560995615702,0.009175761975332979
21,6,5,0.07162904697914514,0.008609116167799927
21,7,5,0.10385919044563477,0.014830472311382922
21,8,5,0.13053656218251497,0.012694138809929863
22,0,5,0.0978368820639944,0.015083817847566745
22,1,5,0.10343550163710805,0.008479286644302432
22,2,5,0.09224820054563018,0.009768310205876159
22,3,5,0.09401707890756406,0.012494324860617743
22,4,5,0.06376003598012898,0.014335795900844722
22,5,5,0.1233559411989665,0.01282365266897348
22,6,5,0.042648539515619865,0.014404583140579543
22,7,5,0.15267506909930922,0.007823719213878864
22,8,5,0.17369125465546592,0.0160864572304117
23,0,5,0.11921984396076657,0.010788632574773008
23,1,5,0.09085535495422976,0.013238014622042675
23,2,5,0.06449322475007138,0.01253589924539556
23,3,5,0.07169922591455886,0.008784839902432024
23,4,5,0.05454007159805081,0.0140537661008242
23,5,5,0.13426987742121305,0.007613895513816819
23,6,5,0.037517493217480366,0.010033551682110517
23,7,5,0.15222400796063046,0.00765512241284881
23,8,5,0.13772126490941972,0.007829260262078365
24,0,5,0.06746076329765352,0.006647311743238207
24,1,5,0.11314649059182871,0.0171232743520368
24,2,5,0.1572686494844644,0.015056870260643273
24,3,5,0.05289649559037992,0.010901562315495581
24,4,5,0.11112860501178026,0.018349177837956913
24,5,5,0.156941547114682,0.014259589937840133
24,6,5,0.04132106704378893,0.005708719027477796
24,7,5,0.1698361381368305,0.008912789560261628
24,8,5,0.07286756023657034,0.008432450834996389
25,0,5,0.13984540580707888,0.015526340736460541
25,1,5,0.11486720319779939,0.011671864541692714
25,2,5,0.18307692586320673,0.011078020105443509
25,3,5,0.13328297216641063,0.010822181926351648
25,4,5,0.175774745114253,0.008450460742394299
25,5,5,0.18977289340226094,0.009266183081894289
25,6,5,0.07437278438848587,0.0061505896564264225
25,7,5,0.11969302314590344,0.010515373880309214
25,8,5,0.11112466674264394,0.007540471145465393
26,0,5,0.09286828321344291,0.011471055300594077
26,1,5,0.057262084778675316,0.008221162570626873
26,2,5,0.1287916046299852,0.005989959051784945
26,3,5,0.030403550684754553,0.008734385829743138
26,4,5,0.09397698460059663,0.013762085964953142
26,5,5,0.09057901518426079,0.013482368367911488
26,6,5,0.013776751824294674,0.007856307365080728
26,7,5,0.1028768567485536,0.010824803727179446
26,8,5,0.07544665027105805,0.008224691225232169
27,0,5,0.14622469267501403,0.017492761833825088
27,1,5,0.08188968475588898,0.02280943170422903
27,2,5,0.14013655888106838,0.007916657289274372
27,3,5,0.17840620260897147,0.011866933458073112
27,4,5,0.09185823360892773,0.013573466095441482
27,5,5,0.21855631181247973,0.02670926555924411
27,6,5,0.04762830178312207,0.009237498203527502
27,7,5,0.18833669646072876,0.0028992981443918347
27,8,5,0.15463030701110314,0.01820612726399049
28,0,5,0.08167663840973798,0.007679269722688086
28,1,5,0.07551314458181928,0.020866509686554294
28,2,5,0.08062880110667636,0.0068631382017142065
28,3,5,0.1346196475375769,0.015287344363674021
28,4,5,0.12953257769292914,0.011926338281345837
28,5,5,0.2036886429048379,0.01984647946024526
28,6,5,0.0347461035763116,0.009418832031308774
28,7,5,0.08819560405612561,0.008764306851638391
28,8,5,0.14439658034159913,0.010234116062379861
29,0,5,0.1578008472696532,0.0035693558752133685
29,1,5,0.06174012373819748,0.015461107767980993
29,2,5,0.10364428581246574,0.004883647665928895
29,3,5,0.0272858740958259,0.002584208115117942
29,4,5,0.1231578284899193,0.010187340592363271
29,5,5,0.20982555547923926,0.01752259223472732
29,6,5,0.05399225903111058,0.005977953371383064
29,7,5,0.07478287429058268,0.01062004645467729
29,8,5,0.15844488764329373,0.014935519152637081
30,0,5,0.0571268802590504,0.011561990122406916
30,1,5,0.07267457283416176,0.007098635364931965
30,2,5,0.07536381844559754,0.011048762056644512
30,3,5,0.08182449499926477,0.019442428578665797
30,4,5,0.1127518028116298,0.015036019693745847
30,5,5,0.13380288771197021,0.017643588896602284
30,6,5,0.008088993741991323,0.01600962608669578
30,7,5,0.18707572978403078,0.014459793736816755
30,8,5,0.13100524685705728,0.011002955805479343
31,0,5,0.10014988824632068,0.011103019065726931
31,1,5,0.09650760918472119,0.014253195517155856
31,2,5,0.12150155737141892,0.00925089462290377
31,3,5,0.12247144527848577,0.019206856995618343
31,4,5,0.14051849023260454,0.018459319465431778
31,5,5,0.1112816657533485,0.008452056607129055
31,6,5,0.11255180122434964,0.01067230025828948
31,7,5,0.19802219001211036,0.012005783550218113
31,8,5,0.1550465727375237,0.020791059658461036
32,0,5,0.11672897702053212,0.025334219718539275
32,1,5,0.1425365329123574,0.015640441884697542
32,2,5,0.1308040586602966,0.009910851202305098
32,3,5,0.052553182171255666,0.005554990344770588
32,4,5,0.14406246215986956,0.005910166667669094
32,5,5,0.18426464132643855,0.018080167277483912
32,6,5,0.09274778952183191,0.011579128444799702
32,7,5,0.18379018782941178,0.008908618351884102
32,8,5,0.16989248094288414,0.026317391490321192
33,0,5,0.20834054076519673,0.004645775769102627
33,1,5,0.14764541798915132,0.014104129956541481
33,2,5,0.1911262485857108,0.009224476918525714
33,3,5,0.14269982841601278,0.014099476805995853
33,4,5,0.15747404433247028,0.011123431295543582
33,5,5,0.19620825342318082,0.011587835255969226
33,6,5,0.20064811517721343,0.008447768606945119
33,7,5,0.19547047367294662,0.013211353591042538
33,8,5,0.23623823267169994,0.022446211741331473
34,0,5,0.1746929373867432,0.01171428571804683
34,1,5,0.06576242615288133,0.008304932905130978
34,2,5,0.1752633819139196,0.012169012000642741
34,3,5,0.12705300724722607,0.012971416567428451
34,4,5,0.08184204101572563,0.013381678082440012
34,5,5,0.10803548041209185,0.012033751329432225
34,6,5,0.03978663578307753,0.010962042155547127
34,7,5,0.1894450724569095,0.017070105038794758
34,8,5,0.149379080556726,0.01409223022331653
35,0,5,0.10564040733944428,0.011647193967766246
35,1,5,0.08192084696231654,0.005848305931515468
35,2,5,0.1109818112512051,0.004650028825980092
35,3,5,0.1090709499019407,0.014565244065982218
35,4,5,0.04481273015088214,0.00249547652550124
35,5,5,0.08735719644853575,0.010020999462576032
35,6,5,0.06621139494596591,0.004823237239218375
35,7,5,0.12757718146586877,0.00848568769882189
35,8,5,0.0998698079591592,0.016987370214633174
36,0,5,0.07075962081698686,0.0069212771648870415
36,1,5,0.07181705670386158,0.007590221293376477
36,2,5,0.09129676475119326,0.004696308166764707
36,3,5,0.05474010763516093,0.013673727648295034
36,4,5,0.08301960128973766,0.011499036242928421
36,5,5,0.13559380395277953,0.008766731598582182
36,6,5,0.06467384560374016,0.008260384052833513
36,7,5,0.11680988647080923,0.003818848799199739
36,8,5,0.08691263805948565,0.014794863778812412
37,0,5,0.12493566612423339,0.019211161477576122
37,1,5,0.10282977019716011,0.025808081306890565
37,2,5,0.20268816417489594,0.023961143878024456
37,3,5,0.0754266166756836,0.01895796839697247
37,4,5,0.11269239600574343,0.009671503990616325
37,5,5,0.11634522936117131,0.016272329147883523
37,6,5,0.060631092184372105,0.004149335112944445
37,7,5,0.1473406523637426,0.012012322172832017
37,8,5,0.11198393160546154,0.014787836506549822
38,0,5,0.12046916357268174,0.01467443499675637
38,1,5,0.1206728530554273,0.01079849806649476
38,2,5,0.11835301972572192,0.018828058848400078
38,3,5,0.14179319431368745,0.018866506979607966
38,4,5,0.20111158680451924,0.007682779990537183
38,5,5,0.20101302223983897,0.006413616282855237
38,6,5,0.10639145952993534,0.008566011867057643
38,7,5,0.118891390568357,0.021878796156884598
38,8,5,0.1256018699493852,0.019453006879016688
39,0,5,0.08636784571844158,0.012633813538478814
39,1,5,0.08407799012337261,0.012046575878787482
39,2,5,0.10391630923772413,0.010616975270277534
39,3,5,0.10992142077466571,0.013812088293673936
39,4,5,0.14086361901616315,0.008647572677708023
39,5,5,0.11390102279687157,0.005699549523219508
39,6,5,0.05538068291877489,0.014453126049141231
39,7,5,0.14368397054022744,0.02010292667872352
39,8,5,0.0724582783565958,0.014724156299414976
40,0,5,0.09220580419481002,0.010458499167118699
40,1,5,0.05102356446529708,0.009208621273198393
40,2,5,0.1745124813594475,0.014363721328959864
40,3,5,0.0621775676713711,0.022563742984158957
40,4,5,0.05455229913128001,0.010126809891729026
40,5,5,0.10992958336102214,0.014942453653974464
40,6,5,0.1250219229303749,0.00917567931085515
40,7,5,0.1794012375795243,0.007573409362147442
40,8,5,0.1851186194561969,0.011415492224958058
