subject,block,block_width,feature_channel,gate_mean,gate_sd
1,0,32,0,0.3669620156288147,0.057776518166065216
1,0,32,1,0.43908417224884033,0.06462675333023071
1,0,32,2,0.47168323397636414,0.035985931754112244
1,0,32,3,0.6479151844978333,0.039721108973026276
1,0,32,4,0.5643550157546997,0.039209820330142975
1,0,32,5,0.4198913276195526,0.04582947492599487
1,0,32,6,0.31607455015182495,0.07652806490659714
1,0,32,7,0.4941296875476837,0.04570816457271576
1,0,32,8,0.599154531955719,0.05108623579144478
1,0,32,9,0.46562233567237854,0.0644458457827568
1,0,32,10,0.5152420997619629,0.026754608377814293
1,0,32,11,0.48828548192977905,0.04512375593185425
1,0,32,12,0.3429979085922241,0.05368160083889961
1,0,32,13,0.5623593330383301,0.057625435292720795
1,0,32,14,0.37699002027511597,0.05319725349545479
1,0,32,15,0.48522207140922546,0.017763651907444
1,0,32,16,0.45974528789520264,0.05181116238236427
1,0,32,17,0.6551177501678467,0.07890547066926956
1,0,32,18,0.4618820548057556,0.05764346197247505
1,0,32,19,0.4477073848247528,0.032652147114276886
1,0,32,20,0.5006252527236938,0.06772921979427338
1,0,32,21,0.639254629611969,0.06727056205272675
1,0,32,22,0.4281380772590637,0.04989974945783615
1,0,32,23,0.40091976523399353,0.0381905771791935
1,0,32,24,0.4726041555404663,0.0475265197455883
1,0,32,25,0.5028183460235596,0.04946307837963104
1,0,32,26,0.5510571599006653,0.04867613688111305
1,0,32,27,0.5220947861671448,0.0330011285841465
1,0,32,28,0.5489477515220642,0.041727252304553986
1,0,32,29,0.5569123029708862,0.041112951934337616
1,0,32,30,0.6357326507568359,0.05843716114759445
1,0,32,31,0.5009691715240479,0.04893282800912857
1,1,32,0,0.4844099283218384,0.06339425593614578
1,1,32,1,0.3421536087989807,0.06500279158353806
1,1,32,2,0.506359875202179,0.03187573328614235
1,1,32,3,0.5531978011131287,0.03115732967853546
1,1,32,4,0.6102234125137329,0.03512958064675331
1,1,32,5,0.5350728034973145,0.06807922571897507
1,1,32,6,0.5088954567909241,0.040535978972911835
1,1,32,7,0.5683485865592957,0.030673403292894363
1,1,32,8,0.5000853538513184,0.04655458405613899
1,1,32,9,0.5134438276290894,0.09019728749990463
1,1,32,10,0.5123676657676697,0.0844721570611
1,1,32,11,0.4503920376300812,0.0545768216252327
1,1,32,12,0.49340948462486267,0.05963824316859245
1,1,32,13,0.45341309905052185,0.08302942663431168
1,1,32,14,0.5349013805389404,0.016160866245627403
1,1,32,15,0.558775782585144,0.06191965565085411
1,1,32,16,0.39020878076553345,0.06970483809709549
1,1,32,17,0.5979889035224915,0.05025188997387886
1,1,32,18,0.6189195513725281,0.05247877538204193
1,1,32,19,0.5091097354888916,0.06984107196331024
1,1,32,20,0.5324775576591492,0.025232700631022453
1,1,32,21,0.43031924962997437,0.028221260756254196
1,1,32,22,0.4827693700790405,0.0678434893488884
1,1,32,23,0.5272899866104126,0.03470770642161369
1,1,32,24,0.5965797305107117,0.06890591233968735
1,1,32,25,0.550142765045166,0.05235278606414795
1,1,32,26,0.5324730277061462,0.06998348981142044
1,1,32,27,0.5439468622207642,0.04296720772981644
1,1,32,28,0.4642488360404968,0.07753387838602066
1,1,32,29,0.6095404624938965,0.03700966387987137
1,1,32,30,0.38678252696990967,0.040977559983730316
1,1,32,31,0.5088244676589966,0.03825324773788452
1,2,64,0,0.5358837842941284,0.17188994586467743
1,2,64,1,0.4644273817539215,0.08633242547512054
1,2,64,2,0.49195852875709534,0.1361514925956726
1,2,64,3,0.5687521696090698,0.06408334523439407
1,2,64,4,0.4891369044780731,0.06747180223464966
1,2,64,5,0.4685283303260803,0.09880125522613525
1,2,64,6,0.35247743129730225,0.11317650228738785
1,2,64,7,0.5535903573036194,0.10302805155515671
1,2,64,8,0.5294247269630432,0.13557052612304688
1,2,64,9,0.5120876431465149,0.15619264543056488
1,2,64,10,0.475541889667511,0.0807458907365799
1,2,64,11,0.543088436126709,0.08091167360544205
1,2,64,12,0.5808436870574951,0.08925420790910721
1,2,64,13,0.5615575909614563,0.09722984582185745
1,2,64,14,0.3291763961315155,0.11995182186365128
1,2,64,15,0.4297800362110138,0.1271635890007019
1,2,64,16,0.4822486639022827,0.07898253202438354
1,2,64,17,0.5202974677085876,0.0628490149974823
1,2,64,18,0.5044652223587036,0.09470893442630768
1,2,64,19,0.5006597638130188,0.08291084319353104
1,2,64,20,0.4545873701572418,0.08560418337583542
1,2,64,21,0.45281848311424255,0.16134127974510193
1,2,64,22,0.5420392751693726,0.11369995772838593
1,2,64,23,0.564085841178894,0.07771017402410507
1,2,64,24,0.40810108184814453,0.07981140911579132
1,2,64,25,0.5292816758155823,0.09211806207895279
1,2,64,26,0.4531286358833313,0.10304184257984161
1,2,64,27,0.48885661363601685,0.12885414063930511
1,2,64,28,0.5492000579833984,0.15269549190998077
1,2,64,29,0.5364657044410706,0.07808779180049896
1,2,64,30,0.3975137770175934,0.11444295197725296
1,2,64,31,0.46222424507141113,0.04910510033369064
1,2,64,32,0.5324999094009399,0.1032295823097229
1,2,64,33,0.5899558067321777,0.07325328141450882
1,2,64,34,0.40929317474365234,0.11369886249303818
1,2,64,35,0.46402451395988464,0.10503432154655457
1,2,64,36,0.5844371914863586,0.0403129905462265
1,2,64,37,0.5414875149726868,0.08826445043087006
1,2,64,38,0.4217503070831299,0.06703920662403107
1,2,64,39,0.49753090739250183,0.1315278261899948
1,2,64,40,0.6018586754798889,0.11857336759567261
1,2,64,41,0.4363837242126465,0.11966314911842346
1,2,64,42,0.5051496624946594,0.1521771252155304
1,2,64,43,0.5512040853500366,0.1571667492389679
1,2,64,44,0.5560187101364136,0.1540907323360443
1,2,64,45,0.4089273512363434,0.07974506914615631
1,2,64,46,0.5126509666442871,0.11168471723794937
1,2,64,47,0.4115777015686035,0.06720639020204544
1,2,64,48,0.5246052145957947,0.09634967148303986
1,2,64,49,0.5768982768058777,0.10051459819078445
1,2,64,50,0.506225049495697,0.08046755939722061
1,2,64,51,0.4804387092590332,0.09001780301332474
1,2,64,52,0.47906193137168884,0.11829806119203568
1,2,64,53,0.5346136689186096,0.07231838256120682
1,2,64,54,0.46644023060798645,0.09128088504076004
1,2,64,55,0.4677886962890625,0.11741284281015396
1,2,64,56,0.5400813221931458,0.06019384413957596
1,2,64,57,0.5192486643791199,0.07603511214256287
1,2,64,58,0.6814237833023071,0.10630237311124802
1,2,64,59,0.5884814858436584,0.09048566967248917
1,2,64,60,0.45310214161872864,0.06664954125881195
1,2,64,61,0.4710199236869812,0.05713469907641411
1,2,64,62,0.5334624648094177,0.12918202579021454
1,2,64,63,0.4051636755466461,0.1647789031267166
1,3,64,0,0.4907466173171997,0.08017253875732422
1,3,64,1,0.494687020778656,0.05293967202305794
1,3,64,2,0.5314731597900391,0.08317044377326965
1,3,64,3,0.5398080348968506,0.12881243228912354
1,3,64,4,0.5339590311050415,0.04808834195137024
1,3,64,5,0.4835312068462372,0.03536533936858177
1,3,64,6,0.4835175573825836,0.07889760285615921
1,3,64,7,0.440813809633255,0.06089170277118683
1,3,64,8,0.5201859474182129,0.09601495414972305
1,3,64,9,0.46497273445129395,0.060371432453393936
1,3,64,10,0.5929325819015503,0.06358268111944199
1,3,64,11,0.4177127480506897,0.1044006273150444
1,3,64,12,0.5104907155036926,0.09775122255086899
1,3,64,13,0.619778573513031,0.06058775261044502
1,3,64,14,0.5578879117965698,0.06267204135656357
1,3,64,15,0.4417179822921753,0.07074660062789917
1,3,64,16,0.5349050164222717,0.045896127820014954
1,3,64,17,0.5786879658699036,0.07219445705413818
1,3,64,18,0.5264578461647034,0.07473908364772797
1,3,64,19,0.390779584646225,0.10603335499763489
1,3,64,20,0.47345611453056335,0.052162379026412964
1,3,64,21,0.4440491497516632,0.06016445904970169
1,3,64,22,0.532006561756134,0.048739686608314514
1,3,64,23,0.5336726307868958,0.07583478838205338
1,3,64,24,0.6420427560806274,0.0606197826564312
1,3,64,25,0.5348994135856628,0.06777443736791611
1,3,64,26,0.48205509781837463,0.11825674027204514
1,3,64,27,0.45028039813041687,0.0414862185716629
1,3,64,28,0.485301673412323,0.070376455783844
1,3,64,29,0.3945026695728302,0.05503423511981964
1,3,64,30,0.5218462347984314,0.06929397583007812
1,3,64,31,0.5010542273521423,0.06995193660259247
1,3,64,32,0.43812641501426697,0.020982999354600906
1,3,64,33,0.6037318706512451,0.09577672928571701
1,3,64,34,0.5466685891151428,0.035824790596961975
1,3,64,35,0.569996178150177,0.056927312165498734
1,3,64,36,0.5233820080757141,0.09565798938274384
1,3,64,37,0.4004981815814972,0.06917504221200943
1,3,64,38,0.48914361000061035,0.05571424588561058
1,3,64,39,0.5499864816665649,0.10713329911231995
1,3,64,40,0.5710743069648743,0.057899199426174164
1,3,64,41,0.39689481258392334,0.08696942031383514
1,3,64,42,0.42710646986961365,0.062226708978414536
1,3,64,43,0.5470982789993286,0.038722120225429535
1,3,64,44,0.43353399634361267,0.10792727768421173
1,3,64,45,0.5311590433120728,0.052063025534152985
1,3,64,46,0.5364740490913391,0.07658219337463379
1,3,64,47,0.63030606508255,0.03336147964000702
1,3,64,48,0.40109944343566895,0.14729832112789154
1,3,64,49,0.5201002955436707,0.04708675667643547
1,3,64,50,0.4181581437587738,0.05809573456645012
1,3,64,51,0.5267887115478516,0.08641386777162552
1,3,64,52,0.45358210802078247,0.084243044257164
1,3,64,53,0.49713072180747986,0.07041988521814346
1,3,64,54,0.368866890668869,0.07420488446950912
1,3,64,55,0.43105724453926086,0.05496945232152939
1,3,64,56,0.40819481015205383,0.10654918104410172
1,3,64,57,0.4051176607608795,0.10129040479660034
1,3,64,58,0.4372785985469818,0.08341021835803986
1,3,64,59,0.42667850852012634,0.031189361587166786
1,3,64,60,0.4749269485473633,0.08137170970439911
1,3,64,61,0.4588859975337982,0.05671744421124458
1,3,64,62,0.45041051506996155,0.0897090807557106
1,3,64,63,0.5267223119735718,0.13273245096206665
1,4,128,0,0.6993880271911621,0.1395646631717682
1,4,128,1,0.5096032023429871,0.0987878292798996
1,4,128,2,0.41576725244522095,0.11576046049594879
1,4,128,3,0.6835382580757141,0.24503889679908752
1,4,128,4,0.635021984577179,0.1584104299545288
1,4,128,5,0.617046594619751,0.11833620816469193
1,4,128,6,0.6182078719139099,0.24026785790920258
1,4,128,7,0.5604252219200134,0.16830116510391235
1,4,128,8,0.5570623874664307,0.14529499411582947
1,4,128,9,0.48602908849716187,0.1978370100259781
1,4,128,10,0.5321263670921326,0.15664486587047577
1,4,128,11,0.6016975045204163,0.10250238329172134
1,4,128,12,0.29561764001846313,0.15438653528690338
1,4,128,13,0.4253520965576172,0.13394765555858612
1,4,128,14,0.5540915727615356,0.14099164307117462
1,4,128,15,0.5630104541778564,0.14166560769081116
1,4,128,16,0.522036612033844,0.2005791962146759
1,4,128,17,0.41209322214126587,0.16282667219638824
1,4,128,18,0.5632057785987854,0.12073052674531937
1,4,128,19,0.45797649025917053,0.0804176926612854
1,4,128,20,0.5047481060028076,0.15115661919116974
1,4,128,21,0.5726810097694397,0.20589759945869446
1,4,128,22,0.6676127910614014,0.16720335185527802
1,4,128,23,0.427937775850296,0.11061722040176392
1,4,128,24,0.499559223651886,0.05875501409173012
1,4,128,25,0.5843296051025391,0.1388912796974182
1,4,128,26,0.43861132860183716,0.22026535868644714
1,4,128,27,0.6626697182655334,0.09109774976968765
1,4,128,28,0.3802127242088318,0.1119207888841629
1,4,128,29,0.5197227001190186,0.21526408195495605
1,4,128,30,0.6010029911994934,0.12464562058448792
1,4,128,31,0.6554422974586487,0.13935282826423645
1,4,128,32,0.2824704647064209,0.18420253694057465
1,4,128,33,0.7271358966827393,0.14039143919944763
1,4,128,34,0.6549266576766968,0.1973731815814972
1,4,128,35,0.5450505614280701,0.08947871625423431
1,4,128,36,0.713158905506134,0.12895840406417847
1,4,128,37,0.6345694065093994,0.20002706348896027
1,4,128,38,0.7002524733543396,0.20659351348876953
1,4,128,39,0.6847056746482849,0.1403639018535614
1,4,128,40,0.6607645750045776,0.11381876468658447
1,4,128,41,0.45095980167388916,0.04716307669878006
1,4,128,42,0.6409301161766052,0.10235799103975296
1,4,128,43,0.3848060369491577,0.1338297724723816
1,4,128,44,0.41679254174232483,0.08871545642614365
1,4,128,45,0.6727125644683838,0.11633987724781036
1,4,128,46,0.6481319069862366,0.09227285534143448
1,4,128,47,0.5732520222663879,0.07134037464857101
1,4,128,48,0.450331449508667,0.14757950603961945
1,4,128,49,0.6808884143829346,0.23433667421340942
1,4,128,50,0.6640663743019104,0.13356052339076996
1,4,128,51,0.47710350155830383,0.06718551367521286
1,4,128,52,0.4785061478614807,0.0908709317445755
1,4,128,53,0.6467718482017517,0.20039509236812592
1,4,128,54,0.36710479855537415,0.09790634363889694
1,4,128,55,0.5549408793449402,0.11202690005302429
1,4,128,56,0.5383995771408081,0.12349151819944382
1,4,128,57,0.6610159873962402,0.1595006138086319
1,4,128,58,0.401113361120224,0.177585631608963
1,4,128,59,0.6246184706687927,0.1404525488615036
1,4,128,60,0.4872676134109497,0.13742980360984802
1,4,128,61,0.43828776478767395,0.05349326878786087
1,4,128,62,0.6755701303482056,0.2210717797279358
1,4,128,63,0.521904706954956,0.2512733042240143
1,4,128,64,0.6308783888816833,0.19277404248714447
1,4,128,65,0.680648684501648,0.1464405506849289
1,4,128,66,0.47809749841690063,0.13815106451511383
1,4,128,67,0.5470873117446899,0.13860946893692017
1,4,128,68,0.40331849455833435,0.12565889954566956
1,4,128,69,0.45354247093200684,0.07415261119604111
1,4,128,70,0.5759992003440857,0.08132051676511765
1,4,128,71,0.6386181712150574,0.06772921979427338
1,4,128,72,0.6834976673126221,0.1598755419254303
1,4,128,73,0.46517103910446167,0.050594110041856766
1,4,128,74,0.4335756301879883,0.18299660086631775
1,4,128,75,0.5414537787437439,0.12685950100421906
1,4,128,76,0.7339283227920532,0.1667529195547104
1,4,128,77,0.4411693215370178,0.0488644614815712
1,4,128,78,0.7374334931373596,0.11996708065271378
1,4,128,79,0.4127390682697296,0.14528338611125946
1,4,128,80,0.5799433588981628,0.06507498770952225
1,4,128,81,0.6453953981399536,0.13968884944915771
1,4,128,82,0.6452813744544983,0.13525821268558502
1,4,128,83,0.39938822388648987,0.13257944583892822
1,4,128,84,0.5773493051528931,0.14612747728824615
1,4,128,85,0.6441323757171631,0.13034918904304504
1,4,128,86,0.3382086753845215,0.1243867576122284
1,4,128,87,0.46577200293540955,0.10448315739631653
1,4,128,88,0.39986810088157654,0.15677765011787415
1,4,128,89,0.30696815252304077,0.12046754360198975
1,4,128,90,0.5264971852302551,0.03885810822248459
1,4,128,91,0.39052122831344604,0.20131395757198334
1,4,128,92,0.4295755624771118,0.06442809849977493
1,4,128,93,0.5716408491134644,0.20465126633644104
1,4,128,94,0.43117862939834595,0.07639408111572266
1,4,128,95,0.32255399227142334,0.15278661251068115
1,4,128,96,0.4686982035636902,0.07610023766756058
1,4,128,97,0.4403049647808075,0.07023158669471741
1,4,128,98,0.7086043357849121,0.19359180331230164
1,4,128,99,0.6695588231086731,0.1768331676721573
1,4,128,100,0.6324928998947144,0.12690719962120056
1,4,128,101,0.3663114607334137,0.09670742601156235
1,4,128,102,0.6443700194358826,0.14321266114711761
1,4,128,103,0.6926522254943848,0.1475091129541397
1,4,128,104,0.6400661468505859,0.08093586564064026
1,4,128,105,0.5766018033027649,0.13235247135162354
1,4,128,106,0.5981835722923279,0.09907524287700653
1,4,128,107,0.5345128774642944,0.08831191807985306
1,4,128,108,0.4325718581676483,0.06666409224271774
1,4,128,109,0.6021485924720764,0.10866881906986237
1,4,128,110,0.4152226150035858,0.1661074459552765
1,4,128,111,0.3609424829483032,0.09695464372634888
1,4,128,112,0.6163304448127747,0.24222815036773682
1,4,128,113,0.6636523008346558,0.09285259991884232
1,4,128,114,0.5859371423721313,0.09197629988193512
1,4,128,115,0.6564239859580994,0.19350062310695648
1,4,128,116,0.6531530022621155,0.08188340067863464
1,4,128,117,0.46824297308921814,0.07965791970491409
1,4,128,118,0.6405990123748779,0.10244566202163696
1,4,128,119,0.573823094367981,0.187167227268219
1,4,128,120,0.4797634780406952,0.14437538385391235
1,4,128,121,0.5800644755363464,0.08939433842897415
1,4,128,122,0.2887078523635864,0.09053201228380203
1,4,128,123,0.5172827839851379,0.07580147683620453
1,4,128,124,0.5891936421394348,0.0955607146024704
1,4,128,125,0.5988960266113281,0.13199785351753235
1,4,128,126,0.7092979550361633,0.1482032835483551
1,4,128,127,0.46349868178367615,0.06193830817937851
1,5,128,0,0.4872623085975647,0.03771953284740448
1,5,128,1,0.5901061296463013,0.08972488343715668
1,5,128,2,0.607694149017334,0.20436936616897583
1,5,128,3,0.658151388168335,0.12817101180553436
1,5,128,4,0.6790767312049866,0.19876287877559662
1,5,128,5,0.6376515626907349,0.11985339224338531
1,5,128,6,0.6232496500015259,0.130854070186615
1,5,128,7,0.2731073796749115,0.07216831296682358
1,5,128,8,0.5184820890426636,0.0663481280207634
1,5,128,9,0.426357239484787,0.18204504251480103
1,5,128,10,0.5389835238456726,0.09408828616142273
1,5,128,11,0.45857730507850647,0.030906949192285538
1,5,128,12,0.5853773951530457,0.14921487867832184
1,5,128,13,0.39215025305747986,0.08471928536891937
1,5,128,14,0.41171467304229736,0.1121198982000351
1,5,128,15,0.6163385510444641,0.029941443353891373
1,5,128,16,0.44650888442993164,0.18032307922840118
1,5,128,17,0.4427260756492615,0.08539809286594391
1,5,128,18,0.37753552198410034,0.16697674989700317
1,5,128,19,0.6617461442947388,0.069458968937397
1,5,128,20,0.6470375657081604,0.15546360611915588
1,5,128,21,0.6654109358787537,0.1174294501543045
1,5,128,22,0.6570146083831787,0.12673363089561462
1,5,128,23,0.5596163272857666,0.060655295848846436
1,5,128,24,0.6244890093803406,0.15327762067317963
1,5,128,25,0.6445645093917847,0.13666507601737976
1,5,128,26,0.6780845522880554,0.16802984476089478
1,5,128,27,0.5924087762832642,0.08989965170621872
1,5,128,28,0.5783121585845947,0.14146041870117188
1,5,128,29,0.4656357169151306,0.05953844636678696
1,5,128,30,0.570147693157196,0.027850070968270302
1,5,128,31,0.7518731355667114,0.1352468729019165
1,5,128,32,0.4362195134162903,0.10867001116275787
1,5,128,33,0.6051108837127686,0.09592458605766296
1,5,128,34,0.5027002692222595,0.059335850179195404
1,5,128,35,0.6570184826850891,0.20494352281093597
1,5,128,36,0.6904570460319519,0.1288745403289795
1,5,128,37,0.6608161330223083,0.0767412930727005
1,5,128,38,0.6325268149375916,0.08153117448091507
1,5,128,39,0.6710128784179688,0.1279846727848053
1,5,128,40,0.6696551442146301,0.09054699540138245
1,5,128,41,0.4673931300640106,0.13862518966197968
1,5,128,42,0.646026074886322,0.14631886780261993
1,5,128,43,0.5158392190933228,0.10443107783794403
1,5,128,44,0.5198227167129517,0.07038041949272156
1,5,128,45,0.6767529249191284,0.145391047000885
1,5,128,46,0.5453160405158997,0.14246350526809692
1,5,128,47,0.6091011762619019,0.14704616367816925
1,5,128,48,0.42391422390937805,0.10521659255027771
1,5,128,49,0.6773265600204468,0.15790508687496185
1,5,128,50,0.44768813252449036,0.12924808263778687
1,5,128,51,0.4038000702857971,0.20305918157100677
1,5,128,52,0.6142589449882507,0.0973440632224083
1,5,128,53,0.7027044892311096,0.09655778110027313
1,5,128,54,0.4460282027721405,0.059078317135572433
1,5,128,55,0.3710426092147827,0.16125164926052094
1,5,128,56,0.58995521068573,0.12352900952100754
1,5,128,57,0.6521793007850647,0.09265142679214478
1,5,128,58,0.5349140167236328,0.052533116191625595
1,5,128,59,0.5419663786888123,0.17228692770004272
1,5,128,60,0.45996779203414917,0.13466839492321014
1,5,128,61,0.5623705983161926,0.07811757922172546
1,5,128,62,0.5832139849662781,0.045518092811107635
1,5,128,63,0.6169067621231079,0.19044944643974304
1,5,128,64,0.7029585242271423,0.12018683552742004
1,5,128,65,0.5314385294914246,0.1367490291595459
1,5,128,66,0.4393030107021332,0.11444252729415894
1,5,128,67,0.5327888131141663,0.06968513131141663
1,5,128,68,0.5042051672935486,0.05184965208172798
1,5,128,69,0.6945030093193054,0.12480857968330383
1,5,128,70,0.555956244468689,0.06524625420570374
1,5,128,71,0.558749794960022,0.07942438125610352
1,5,128,72,0.5976889729499817,0.15750165283679962
1,5,128,73,0.577297568321228,0.16722694039344788
1,5,128,74,0.3374987542629242,0.13753977417945862
1,5,128,75,0.6711723208427429,0.08295444399118423
1,5,128,76,0.4913416802883148,0.1353021115064621
1,5,128,77,0.6925777792930603,0.1262025088071823
1,5,128,78,0.5374388694763184,0.1195734366774559
1,5,128,79,0.3988123834133148,0.06714793294668198
1,5,128,80,0.633351743221283,0.16381341218948364
1,5,128,81,0.6460249423980713,0.1108870655298233
1,5,128,82,0.7387377023696899,0.1128382682800293
1,5,128,83,0.5066505074501038,0.15467584133148193
1,5,128,84,0.6329418420791626,0.22334450483322144
1,5,128,85,0.684457540512085,0.1241283193230629
1,5,128,86,0.4204801619052887,0.11430802941322327
1,5,128,87,0.5998674035072327,0.0488428995013237
1,5,128,88,0.5575437545776367,0.2655474841594696
1,5,128,89,0.6587269306182861,0.08371564745903015
1,5,128,90,0.6825317144393921,0.09655851870775223
1,5,128,91,0.6674354672431946,0.10204534232616425
1,5,128,92,0.45250827074050903,0.05726061388850212
1,5,128,93,0.577151358127594,0.09521229565143585
1,5,128,94,0.6319172382354736,0.17127633094787598
1,5,128,95,0.365323543548584,0.08065419644117355
1,5,128,96,0.6948632001876831,0.12778517603874207
1,5,128,97,0.6455104947090149,0.05164289474487305
1,5,128,98,0.6009771823883057,0.11522534489631653
1,5,128,99,0.431471049785614,0.16967065632343292
1,5,128,100,0.4829656481742859,0.07947492599487305
1,5,128,101,0.6643159985542297,0.10382268577814102
1,5,128,102,0.6499959230422974,0.18660520017147064
1,5,128,103,0.613574206829071,0.1638389527797699
1,5,128,104,0.6751970052719116,0.20530983805656433
1,5,128,105,0.561528205871582,0.10543354600667953
1,5,128,106,0.41528820991516113,0.08316308259963989
1,5,128,107,0.5460008382797241,0.13176757097244263
1,5,128,108,0.6506267189979553,0.1087651178240776
1,5,128,109,0.663131594657898,0.12584899365901947
1,5,128,110,0.3667871952056885,0.07023496180772781
1,5,128,111,0.5257367491722107,0.17478331923484802
1,5,128,112,0.5895341634750366,0.1234423890709877
1,5,128,113,0.6672098636627197,0.06036481633782387
1,5,128,114,0.4906674921512604,0.06764217466115952
1,5,128,115,0.6232916116714478,0.10570288449525833
1,5,128,116,0.5687738060951233,0.11974217742681503
1,5,128,117,0.6254082918167114,0.0660405308008194
1,5,128,118,0.38706862926483154,0.15522615611553192
1,5,128,119,0.7161483764648438,0.14748364686965942
1,5,128,120,0.5335817337036133,0.06204832345247269
1,5,128,121,0.41529014706611633,0.12396379560232162
1,5,128,122,0.5437415242195129,0.08750629425048828
1,5,128,123,0.6334422826766968,0.067897729575634
1,5,128,124,0.5509176850318909,0.15733735263347626
1,5,128,125,0.5700815916061401,0.05290601775050163
1,5,128,126,0.7350389361381531,0.08226504921913147
1,5,128,127,0.5857709646224976,0.16995199024677277
2,0,32,0,0.5691576600074768,0.04549293592572212
2,0,32,1,0.5045156478881836,0.09287697076797485
2,0,32,2,0.5904104113578796,0.028359955176711082
2,0,32,3,0.4117387533187866,0.03679829463362694
2,0,32,4,0.40977972745895386,0.09099411219358444
2,0,32,5,0.43417277932167053,0.028299635276198387
2,0,32,6,0.587327241897583,0.04639606177806854
2,0,32,7,0.5495874881744385,0.07764484733343124
2,0,32,8,0.35369712114334106,0.03002367541193962
2,0,32,9,0.4871942400932312,0.04641946032643318
2,0,32,10,0.5464142560958862,0.04264403507113457
2,0,32,11,0.4924633204936981,0.056610845029354095
2,0,32,12,0.40068119764328003,0.0759400725364685
2,0,32,13,0.3667965829372406,0.013956177979707718
2,0,32,14,0.49833381175994873,0.07445768266916275
2,0,32,15,0.5461668372154236,0.048174113035202026
2,0,32,16,0.5710863471031189,0.07626034319400787
2,0,32,17,0.43332576751708984,0.025708621367812157
2,0,32,18,0.5492127537727356,0.04666915163397789
2,0,32,19,0.4558619260787964,0.04973989725112915
2,0,32,20,0.5298093557357788,0.10153712332248688
2,0,32,21,0.6019715666770935,0.03321531042456627
2,0,32,22,0.4177190363407135,0.011108381673693657
2,0,32,23,0.5037686824798584,0.11995434761047363
2,0,32,24,0.5820643305778503,0.049910277128219604
2,0,32,25,0.6992264986038208,0.043844856321811676
2,0,32,26,0.5350722074508667,0.07841956615447998
2,0,32,27,0.563916802406311,0.03491600975394249
2,0,32,28,0.3718295991420746,0.0806344747543335
2,0,32,29,0.4712192118167877,0.035628288984298706
2,0,32,30,0.6115976572036743,0.0682259052991867
2,0,32,31,0.40475723147392273,0.08820480853319168
2,1,32,0,0.4210696816444397,0.07050774246454239
2,1,32,1,0.5031270980834961,0.07472608238458633
2,1,32,2,0.6473841071128845,0.06917449831962585
2,1,32,3,0.5617117881774902,0.17382633686065674
2,1,32,4,0.44295063614845276,0.05682181194424629
2,1,32,5,0.5928653478622437,0.03320913389325142
2,1,32,6,0.6005210280418396,0.05972505360841751
2,1,32,7,0.3712663948535919,0.08366786688566208
2,1,32,8,0.464169442653656,0.08876635134220123
2,1,32,9,0.48877280950546265,0.0413210503757
2,1,32,10,0.353664755821228,0.10091555863618851
2,1,32,11,0.5792531967163086,0.18646448850631714
2,1,32,12,0.536863386631012,0.09336104243993759
2,1,32,13,0.6177205443382263,0.1516881287097931
2,1,32,14,0.3418549597263336,0.08706784248352051
2,1,32,15,0.605374813079834,0.11477416753768921
2,1,32,16,0.5674655437469482,0.10842879116535187
2,1,32,17,0.3552497327327728,0.10485338419675827
2,1,32,18,0.5635495185852051,0.04775343835353851
2,1,32,19,0.6675990223884583,0.07358677685260773
2,1,32,20,0.45288655161857605,0.1576162427663803
2,1,32,21,0.6479754447937012,0.07428969442844391
2,1,32,22,0.4852202534675598,0.06794366240501404
2,1,32,23,0.4544055163860321,0.13748963177204132
2,1,32,24,0.6286444067955017,0.0449679009616375
2,1,32,25,0.5527413487434387,0.12645751237869263
2,1,32,26,0.6506044864654541,0.05565998703241348
2,1,32,27,0.4183850884437561,0.12602932751178741
2,1,32,28,0.4910377562046051,0.16259771585464478
2,1,32,29,0.6181192994117737,0.05420666188001633
2,1,32,30,0.47107216715812683,0.08221323788166046
2,1,32,31,0.44989442825317383,0.13386350870132446
2,2,64,0,0.4837028980255127,0.1500120311975479
2,2,64,1,0.6083616614341736,0.06553128361701965
2,2,64,2,0.5198956727981567,0.11236762255430222
2,2,64,3,0.5042580366134644,0.02643996849656105
2,2,64,4,0.47042834758758545,0.08456201106309891
2,2,64,5,0.6001742482185364,0.0678517073392868
2,2,64,6,0.39363721013069153,0.0923473984003067
2,2,64,7,0.5306252837181091,0.14422166347503662
2,2,64,8,0.4819672107696533,0.07206963747739792
2,2,64,9,0.5358954668045044,0.072555311024189
2,2,64,10,0.5129055976867676,0.15046963095664978
2,2,64,11,0.4587383568286896,0.09573724120855331
2,2,64,12,0.34119826555252075,0.09489626437425613
2,2,64,13,0.3265218138694763,0.07199079543352127
2,2,64,14,0.3279436528682709,0.06395373493432999
2,2,64,15,0.5544964671134949,0.0871344581246376
2,2,64,16,0.6070117950439453,0.08762522041797638
2,2,64,17,0.3618183732032776,0.1144077330827713
2,2,64,18,0.5279183983802795,0.06265249103307724
2,2,64,19,0.4061889350414276,0.061245396733284
2,2,64,20,0.5239672660827637,0.08833738416433334
2,2,64,21,0.4011666178703308,0.08365935832262039
2,2,64,22,0.5650282502174377,0.1198684573173523
2,2,64,23,0.5675950050354004,0.09217647463083267
2,2,64,24,0.46067142486572266,0.0580064095556736
2,2,64,25,0.5813443064689636,0.056484222412109375
2,2,64,26,0.573144793510437,0.15538813173770905
2,2,64,27,0.40729081630706787,0.08220282942056656
2,2,64,28,0.40399736166000366,0.049135081470012665
2,2,64,29,0.5557113289833069,0.16868768632411957
2,2,64,30,0.6270650029182434,0.0710475891828537
2,2,64,31,0.5349292755126953,0.060909174382686615
2,2,64,32,0.3310779929161072,0.10784751921892166
2,2,64,33,0.5110552906990051,0.07150839269161224
2,2,64,34,0.38737770915031433,0.10140898078680038
2,2,64,35,0.5916011333465576,0.09989532083272934
2,2,64,36,0.45324379205703735,0.16399863362312317
2,2,64,37,0.5373590588569641,0.04148669168353081
2,2,64,38,0.5504196882247925,0.10098675638437271
2,2,64,39,0.6308454871177673,0.05838733911514282
2,2,64,40,0.5494403839111328,0.11792661994695663
2,2,64,41,0.48705482482910156,0.06626348197460175
2,2,64,42,0.5373560190200806,0.05426942557096481
2,2,64,43,0.47386986017227173,0.09498339891433716
2,2,64,44,0.4944227337837219,0.07081911712884903
2,2,64,45,0.4998990595340729,0.14724881947040558
2,2,64,46,0.45869022607803345,0.08879029750823975
2,2,64,47,0.4313259422779083,0.15827591717243195
2,2,64,48,0.3757658004760742,0.09361128509044647
2,2,64,49,0.37897834181785583,0.12016807496547699
2,2,64,50,0.44472184777259827,0.15148544311523438
2,2,64,51,0.4201052486896515,0.11991390585899353
2,2,64,52,0.6261934638023376,0.07608897238969803
2,2,64,53,0.5768097043037415,0.08782114833593369
2,2,64,54,0.4447705149650574,0.11845917254686356
2,2,64,55,0.42829960584640503,0.11505203694105148
2,2,64,56,0.5451360940933228,0.03673119843006134
2,2,64,57,0.4512295722961426,0.08295977115631104
2,2,64,58,0.3855586647987366,0.12981198728084564
2,2,64,59,0.43521472811698914,0.075494684278965
2,2,64,60,0.5041686296463013,0.09729263931512833
2,2,64,61,0.4631427526473999,0.11072759330272675
2,2,64,62,0.268053263425827,0.07328501343727112
2,2,64,63,0.6907588243484497,0.09350135922431946
2,3,64,0,0.6052107810974121,0.14119206368923187
2,3,64,1,0.5824690461158752,0.21587491035461426
2,3,64,2,0.6694375872612,0.22069676220417023
2,3,64,3,0.350739985704422,0.14108765125274658
2,3,64,4,0.5954021215438843,0.090456023812294
2,3,64,5,0.4769395887851715,0.03541691228747368
2,3,64,6,0.45855820178985596,0.08664917945861816
2,3,64,7,0.6199973225593567,0.06109563261270523
2,3,64,8,0.3610495626926422,0.19667790830135345
2,3,64,9,0.4917171001434326,0.14498130977153778
2,3,64,10,0.6800477504730225,0.08764622360467911
2,3,64,11,0.44816043972969055,0.1948004513978958
2,3,64,12,0.3668898344039917,0.123543381690979
2,3,64,13,0.37269970774650574,0.1418851613998413
2,3,64,14,0.5528202056884766,0.11390978842973709
2,3,64,15,0.41233909130096436,0.22019311785697937
2,3,64,16,0.535828173160553,0.09370464831590652
2,3,64,17,0.5625779628753662,0.09598056226968765
2,3,64,18,0.37017500400543213,0.15327893197536469
2,3,64,19,0.6401439309120178,0.18469169735908508
2,3,64,20,0.3472209870815277,0.2204580456018448
2,3,64,21,0.6484494805335999,0.15074703097343445
2,3,64,22,0.6245455741882324,0.1370004117488861
2,3,64,23,0.4780808091163635,0.1267581433057785
2,3,64,24,0.7015708088874817,0.1391191929578781
2,3,64,25,0.39584454894065857,0.08942145854234695
2,3,64,26,0.43308982253074646,0.07385678589344025
2,3,64,27,0.3725293278694153,0.13966704905033112
2,3,64,28,0.6566222310066223,0.11940925568342209
2,3,64,29,0.43080422282218933,0.04531359672546387
2,3,64,30,0.40515533089637756,0.12162092328071594
2,3,64,31,0.5732116103172302,0.15373654663562775
2,3,64,32,0.6240569949150085,0.12815910577774048
2,3,64,33,0.48126551508903503,0.11263777315616608
2,3,64,34,0.32422736287117004,0.13498030602931976
2,3,64,35,0.6609805226325989,0.12260271608829498
2,3,64,36,0.6206004023551941,0.16678164899349213
2,3,64,37,0.27806273102760315,0.10404094308614731
2,3,64,38,0.2998228669166565,0.20808756351470947
2,3,64,39,0.47821107506752014,0.05990096926689148
2,3,64,40,0.4086495637893677,0.13720884919166565
2,3,64,41,0.4113120138645172,0.09892588108778
2,3,64,42,0.5288351774215698,0.05580419301986694
2,3,64,43,0.5142500400543213,0.07579956203699112
2,3,64,44,0.24265550076961517,0.1572140008211136
2,3,64,45,0.6572908163070679,0.25706180930137634
2,3,64,46,0.48283711075782776,0.1747463494539261
2,3,64,47,0.6508307456970215,0.08512446284294128
2,3,64,48,0.3954532742500305,0.09263704717159271
2,3,64,49,0.6847578883171082,0.17854025959968567
2,3,64,50,0.45588311553001404,0.16812443733215332
2,3,64,51,0.30419015884399414,0.18716610968112946
2,3,64,52,0.2583947479724884,0.10320419073104858
2,3,64,53,0.4050900638103485,0.09531959146261215
2,3,64,54,0.5568056702613831,0.1323791742324829
2,3,64,55,0.4524061977863312,0.09352309256792068
2,3,64,56,0.4217683672904968,0.1477074921131134
2,3,64,57,0.578931450843811,0.1278841346502304
2,3,64,58,0.5998820662498474,0.1429234743118286
2,3,64,59,0.512588381767273,0.16231735050678253
2,3,64,60,0.6143358945846558,0.06835249811410904
2,3,64,61,0.4325418174266815,0.12001548707485199
2,3,64,62,0.5643962621688843,0.0833507776260376
2,3,64,63,0.5912589430809021,0.08749925345182419
2,4,128,0,0.5833732485771179,0.12679395079612732
2,4,128,1,0.55437171459198,0.08599907904863358
2,4,128,2,0.47365400195121765,0.05769750103354454
2,4,128,3,0.5431276559829712,0.12962093949317932
2,4,128,4,0.5631682276725769,0.26881569623947144
2,4,128,5,0.3376688063144684,0.2785899043083191
2,4,128,6,0.5849143266677856,0.11811763048171997
2,4,128,7,0.5487706065177917,0.12029764801263809
2,4,128,8,0.4362080991268158,0.08779124915599823
2,4,128,9,0.422587513923645,0.2682214081287384
2,4,128,10,0.7490491271018982,0.13394933938980103
2,4,128,11,0.5501164793968201,0.13293924927711487
2,4,128,12,0.6393728256225586,0.3503285050392151
2,4,128,13,0.6181873679161072,0.2213401198387146
2,4,128,14,0.4908120930194855,0.17895518243312836
2,4,128,15,0.2543131113052368,0.14310488104820251
2,4,128,16,0.2652784585952759,0.15862882137298584
2,4,128,17,0.48437249660491943,0.20160888135433197
2,4,128,18,0.35127055644989014,0.2858378291130066
2,4,128,19,0.48461076617240906,0.04048540070652962
2,4,128,20,0.5662486553192139,0.08288749307394028
2,4,128,21,0.6924440860748291,0.2194250524044037
2,4,128,22,0.7592736482620239,0.13040682673454285
2,4,128,23,0.6733866930007935,0.0913194864988327
2,4,128,24,0.42570430040359497,0.26532891392707825
2,4,128,25,0.800263524055481,0.13420253992080688
2,4,128,26,0.5706554651260376,0.20695583522319794
2,4,128,27,0.33973222970962524,0.33212512731552124
2,4,128,28,0.6260442733764648,0.13841170072555542
2,4,128,29,0.8111231923103333,0.10116168856620789
2,4,128,30,0.5849607586860657,0.19552718102931976
2,4,128,31,0.3066210448741913,0.10428877919912338
2,4,128,32,0.543795645236969,0.20244815945625305
2,4,128,33,0.7850688099861145,0.16391773521900177
2,4,128,34,0.6963825821876526,0.2354147583246231
2,4,128,35,0.42613622546195984,0.2854044437408447
2,4,128,36,0.6145554184913635,0.2004469633102417
2,4,128,37,0.6435282826423645,0.1174195185303688
2,4,128,38,0.769343912601471,0.11262651532888412
2,4,128,39,0.6016666889190674,0.06637725979089737
2,4,128,40,0.7112420797348022,0.1559077352285385
2,4,128,41,0.688356339931488,0.23289693892002106
2,4,128,42,0.5701919198036194,0.23629853129386902
2,4,128,43,0.7394622564315796,0.10343615710735321
2,4,128,44,0.6424105167388916,0.2186296582221985
2,4,128,45,0.548653244972229,0.14092037081718445
2,4,128,46,0.39945125579833984,0.3498132526874542
2,4,128,47,0.5805597305297852,0.1512356847524643
2,4,128,48,0.673520028591156,0.2587539851665497
2,4,128,49,0.21825027465820312,0.15576525032520294
2,4,128,50,0.632533609867096,0.10112142562866211
2,4,128,51,0.5170633792877197,0.0402897447347641
2,4,128,52,0.7741661071777344,0.09911517798900604
2,4,128,53,0.5700873136520386,0.22770102322101593
2,4,128,54,0.7070215344429016,0.1525050848722458
2,4,128,55,0.4802776575088501,0.12116207182407379
2,4,128,56,0.6334313750267029,0.26949360966682434
2,4,128,57,0.2902314066886902,0.09123887866735458
2,4,128,58,0.4165647327899933,0.13590626418590546
2,4,128,59,0.3614085614681244,0.319521963596344
2,4,128,60,0.6370612382888794,0.1227162703871727
2,4,128,61,0.5310294032096863,0.060317352414131165
2,4,128,62,0.6544678807258606,0.36153528094291687
2,4,128,63,0.40477466583251953,0.18437980115413666
2,4,128,64,0.43266281485557556,0.24567271769046783
2,4,128,65,0.5163357257843018,0.16696646809577942
2,4,128,66,0.8201822638511658,0.10284074395895004
2,4,128,67,0.735222578048706,0.19033247232437134
2,4,128,68,0.6429895162582397,0.1719786375761032
2,4,128,69,0.4725554883480072,0.22764673829078674
2,4,128,70,0.43945813179016113,0.11368381977081299
2,4,128,71,0.7560264468193054,0.18396463990211487
2,4,128,72,0.6800198554992676,0.21118779480457306
2,4,128,73,0.5913515090942383,0.13776752352714539
2,4,128,74,0.7181693315505981,0.10066290199756622
2,4,128,75,0.22458848357200623,0.16062697768211365
2,4,128,76,0.24108874797821045,0.08414767682552338
2,4,128,77,0.6602252125740051,0.11142700910568237
2,4,128,78,0.7667483687400818,0.13364729285240173
2,4,128,79,0.6872240304946899,0.15226972103118896
2,4,128,80,0.6583872437477112,0.33557888865470886
2,4,128,81,0.5176438093185425,0.12236180901527405
2,4,128,82,0.7916380763053894,0.09958454966545105
2,4,128,83,0.7364491820335388,0.21283115446567535
2,4,128,84,0.3888968825340271,0.2596256136894226
2,4,128,85,0.7969942688941956,0.15798841416835785
2,4,128,86,0.6430752873420715,0.21186544001102448
2,4,128,87,0.6184441447257996,0.3584757447242737
2,4,128,88,0.6946200728416443,0.07409282773733139
2,4,128,89,0.2757136821746826,0.10856720060110092
2,4,128,90,0.6572213768959045,0.10087505728006363
2,4,128,91,0.4551750123500824,0.17092910408973694
2,4,128,92,0.3556675910949707,0.24283792078495026
2,4,128,93,0.43056774139404297,0.21284614503383636
2,4,128,94,0.7929529547691345,0.0953398123383522
2,4,128,95,0.835103452205658,0.09458474069833755
2,4,128,96,0.8005303740501404,0.10807079821825027
2,4,128,97,0.7116206288337708,0.16664984822273254
2,4,128,98,0.5368946194648743,0.10497646778821945
2,4,128,99,0.6883249282836914,0.2672831118106842
2,4,128,100,0.5758198499679565,0.11609233915805817
2,4,128,101,0.7052937746047974,0.1357826590538025
2,4,128,102,0.5345855355262756,0.1714819222688675
2,4,128,103,0.41490238904953003,0.3201533257961273
2,4,128,104,0.6429598927497864,0.2810387909412384
2,4,128,105,0.45580941438674927,0.2234334647655487
2,4,128,106,0.630073606967926,0.06954368948936462
2,4,128,107,0.6966702938079834,0.22853633761405945
2,4,128,108,0.7103456258773804,0.15941089391708374
2,4,128,109,0.5764538049697876,0.0921856015920639
2,4,128,110,0.3885672092437744,0.1280500888824463
2,4,128,111,0.5341601967811584,0.12828606367111206
2,4,128,112,0.7398651242256165,0.1676427721977234
2,4,128,113,0.625465989112854,0.31654858589172363
2,4,128,114,0.3770536780357361,0.2633382976055145
2,4,128,115,0.4035838842391968,0.23119309544563293
2,4,128,116,0.3708803057670593,0.25922834873199463
2,4,128,117,0.7112069129943848,0.21919596195220947
2,4,128,118,0.656514585018158,0.12393566966056824
2,4,128,119,0.7438520789146423,0.2274075150489807
2,4,128,120,0.3193330764770508,0.21726097166538239
2,4,128,121,0.3822001516819,0.3122963309288025
2,4,128,122,0.7412583231925964,0.08827272802591324
2,4,128,123,0.6921799182891846,0.08862202614545822
2,4,128,124,0.4600977599620819,0.08998223394155502
2,4,128,125,0.6449029445648193,0.2964618504047394
2,4,128,126,0.6717872023582458,0.19410426914691925
2,4,128,127,0.47955870628356934,0.19184057414531708
2,5,128,0,0.7014858722686768,0.18707631528377533
2,5,128,1,0.36658862233161926,0.2201119065284729
2,5,128,2,0.4526807367801666,0.021065328270196915
2,5,128,3,0.4806019961833954,0.0821981281042099
2,5,128,4,0.7506394982337952,0.20915795862674713
2,5,128,5,0.7248803973197937,0.19279250502586365
2,5,128,6,0.7610895037651062,0.19748921692371368
2,5,128,7,0.4492335319519043,0.10679354518651962
2,5,128,8,0.4232177138328552,0.11429280787706375
2,5,128,9,0.5247498154640198,0.033817581832408905
2,5,128,10,0.7096923589706421,0.25896143913269043
2,5,128,11,0.6447812914848328,0.0758398175239563
2,5,128,12,0.3842918276786804,0.05850888043642044
2,5,128,13,0.7116087079048157,0.2573623061180115
2,5,128,14,0.5968318581581116,0.09184089303016663
2,5,128,15,0.7682217359542847,0.15813133120536804
2,5,128,16,0.3977145850658417,0.17696793377399445
2,5,128,17,0.45964598655700684,0.10864328593015671
2,5,128,18,0.2905859351158142,0.1613350808620453
2,5,128,19,0.7460080981254578,0.2137237787246704
2,5,128,20,0.7673767805099487,0.1446685642004013
2,5,128,21,0.6452621817588806,0.20869429409503937
2,5,128,22,0.7482874393463135,0.2328025996685028
2,5,128,23,0.8000907897949219,0.1644056886434555
2,5,128,24,0.48299330472946167,0.09546157717704773
2,5,128,25,0.7012337446212769,0.13492441177368164
2,5,128,26,0.6136581897735596,0.03561968728899956
2,5,128,27,0.3947412073612213,0.06747835129499435
2,5,128,28,0.5308712124824524,0.07412159442901611
2,5,128,29,0.7101615071296692,0.168508380651474
2,5,128,30,0.3031088709831238,0.2398369312286377
2,5,128,31,0.7049469351768494,0.24087029695510864
2,5,128,32,0.7525905966758728,0.16874505579471588
2,5,128,33,0.7569246888160706,0.12801042199134827
2,5,128,34,0.5861843824386597,0.10466337949037552
2,5,128,35,0.5930679440498352,0.027368737384676933
2,5,128,36,0.3260258436203003,0.20364870131015778
2,5,128,37,0.48086243867874146,0.091846764087677
2,5,128,38,0.7600154876708984,0.20654676854610443
2,5,128,39,0.6927559971809387,0.1833190619945526
2,5,128,40,0.4795486032962799,0.044700536876916885
2,5,128,41,0.7551099061965942,0.18539120256900787
2,5,128,42,0.7025634050369263,0.22529716789722443
2,5,128,43,0.7372002005577087,0.22536255419254303
2,5,128,44,0.7258819341659546,0.2489520013332367
2,5,128,45,0.40420836210250854,0.14948338270187378
2,5,128,46,0.5096883773803711,0.0858224555850029
2,5,128,47,0.7534502744674683,0.20283925533294678
2,5,128,48,0.30144503712654114,0.1415175497531891
2,5,128,49,0.702826201915741,0.1748451143503189
2,5,128,50,0.3628964126110077,0.12451644986867905
2,5,128,51,0.6132365465164185,0.2042563557624817
2,5,128,52,0.7096880674362183,0.20763812959194183
2,5,128,53,0.43090030550956726,0.06336311250925064
2,5,128,54,0.5570002794265747,0.02495667152106762
2,5,128,55,0.6281952261924744,0.12429477274417877
2,5,128,56,0.3702167868614197,0.21536293625831604
2,5,128,57,0.325546532869339,0.12953823804855347
2,5,128,58,0.6582788228988647,0.2575328052043915
2,5,128,59,0.43896573781967163,0.04989323019981384
2,5,128,60,0.36141252517700195,0.1419554352760315
2,5,128,61,0.5992326140403748,0.0725584402680397
2,5,128,62,0.6771795153617859,0.16790838539600372
2,5,128,63,0.6747048497200012,0.11420412361621857
2,5,128,64,0.7411569356918335,0.22860191762447357
2,5,128,65,0.7138634920120239,0.24155621230602264
2,5,128,66,0.764848530292511,0.17435437440872192
2,5,128,67,0.7182785868644714,0.23045557737350464
2,5,128,68,0.49539852142333984,0.06996534019708633
2,5,128,69,0.6889543533325195,0.24499009549617767
2,5,128,70,0.6590015888214111,0.2112397700548172
2,5,128,71,0.6956061720848083,0.21910390257835388
2,5,128,72,0.5946674346923828,0.06172341853380203
2,5,128,73,0.4786449372768402,0.11160280555486679
2,5,128,74,0.7190755605697632,0.16908308863639832
2,5,128,75,0.6015471816062927,0.14398039877414703
2,5,128,76,0.3947712481021881,0.04412250220775604
2,5,128,77,0.6044938564300537,0.17099379003047943
2,5,128,78,0.745888352394104,0.2096342295408249
2,5,128,79,0.743696391582489,0.193395733833313
2,5,128,80,0.6540338397026062,0.25080785155296326
2,5,128,81,0.44424811005592346,0.1328635811805725
2,5,128,82,0.7513490915298462,0.20381298661231995
2,5,128,83,0.7207637429237366,0.2248261421918869
2,5,128,84,0.7511379718780518,0.18092675507068634
2,5,128,85,0.5097759366035461,0.059737272560596466
2,5,128,86,0.7354412078857422,0.23495739698410034
2,5,128,87,0.727213442325592,0.19342997670173645
2,5,128,88,0.688012957572937,0.13994325697422028
2,5,128,89,0.4108780324459076,0.15226750075817108
2,5,128,90,0.6949151158332825,0.11534430086612701
2,5,128,91,0.4922701120376587,0.10157954692840576
2,5,128,92,0.6993564963340759,0.21396617591381073
2,5,128,93,0.7093809843063354,0.21303939819335938
2,5,128,94,0.7658176422119141,0.12616534531116486
2,5,128,95,0.6974746584892273,0.24375665187835693
2,5,128,96,0.5581190586090088,0.05026202276349068
2,5,128,97,0.6717474460601807,0.09706522524356842
2,5,128,98,0.6826995611190796,0.24832211434841156
2,5,128,99,0.7637708783149719,0.19341124594211578
2,5,128,100,0.696178674697876,0.14669989049434662
2,5,128,101,0.7057972550392151,0.16020172834396362
2,5,128,102,0.4517225921154022,0.09558507055044174
2,5,128,103,0.5610262155532837,0.08054205030202866
2,5,128,104,0.7365003228187561,0.1881246566772461
2,5,128,105,0.3376997411251068,0.21063412725925446
2,5,128,106,0.7101612091064453,0.2280638962984085
2,5,128,107,0.7061259746551514,0.1903553307056427
2,5,128,108,0.6731404066085815,0.1722860187292099
2,5,128,109,0.4959559440612793,0.058872465044260025
2,5,128,110,0.4162185788154602,0.03547538071870804
2,5,128,111,0.6442568898200989,0.13050341606140137
2,5,128,112,0.7404284477233887,0.21560977399349213
2,5,128,113,0.6455439329147339,0.06064456328749657
2,5,128,114,0.49866926670074463,0.07651577144861221
2,5,128,115,0.27277427911758423,0.19794689118862152
2,5,128,116,0.7208782434463501,0.22276337444782257
2,5,128,117,0.7470099329948425,0.12358888983726501
2,5,128,118,0.7482433319091797,0.18475139141082764
2,5,128,119,0.7158437967300415,0.2040361613035202
2,5,128,120,0.37796127796173096,0.1726451814174652
2,5,128,121,0.6124728322029114,0.19771111011505127
2,5,128,122,0.3022996485233307,0.2327507883310318
2,5,128,123,0.6971413493156433,0.09904199093580246
2,5,128,124,0.3128957450389862,0.09689252823591232
2,5,128,125,0.3666689395904541,0.1746942549943924
2,5,128,126,0.5910350680351257,0.05138701945543289
2,5,128,127,0.6802951693534851,0.08856029808521271
3,0,32,0,0.5256837010383606,0.06600341200828552
3,0,32,1,0.3931417763233185,0.0652618408203125
3,0,32,2,0.5132825374603271,0.07510345429182053
3,0,32,3,0.523840069770813,0.10893329977989197
3,0,32,4,0.6503731608390808,0.053906217217445374
3,0,32,5,0.4958835244178772,0.07836926728487015
3,0,32,6,0.35819190740585327,0.09047781676054001
3,0,32,7,0.459512323141098,0.06983987241983414
3,0,32,8,0.41754308342933655,0.08348985016345978
3,0,32,9,0.5267820358276367,0.079447902739048
3,0,32,10,0.415402352809906,0.05220235511660576
3,0,32,11,0.5180197954177856,0.09589225798845291
3,0,32,12,0.4127401113510132,0.10498258471488953
3,0,32,13,0.6599907279014587,0.07650703191757202
3,0,32,14,0.4070625603199005,0.04904250428080559
3,0,32,15,0.5181287527084351,0.06685508042573929
3,0,32,16,0.40868237614631653,0.057733528316020966
3,0,32,17,0.5834187865257263,0.09134390205144882
3,0,32,18,0.5524039268493652,0.08637261390686035
3,0,32,19,0.5271607041358948,0.08224724233150482
3,0,32,20,0.417354941368103,0.10292141884565353
3,0,32,21,0.5375353097915649,0.09047650545835495
3,0,32,22,0.43809664249420166,0.11866609752178192
3,0,32,23,0.32062608003616333,0.08032950013875961
3,0,32,24,0.5385233759880066,0.07469400018453598
3,0,32,25,0.4315012991428375,0.040107518434524536
3,0,32,26,0.5923158526420593,0.09925723075866699
3,0,32,27,0.4083641767501831,0.10314368456602097
3,0,32,28,0.5610077381134033,0.07304872572422028
3,0,32,29,0.48352378606796265,0.07180353999137878
3,0,32,30,0.641977071762085,0.08248532563447952
3,0,32,31,0.38294610381126404,0.02825552225112915
3,1,32,0,0.5308544039726257,0.055061277002096176
3,1,32,1,0.4468090534210205,0.034610021859407425
3,1,32,2,0.5689636468887329,0.04143638163805008
3,1,32,3,0.47770223021507263,0.062256019562482834
3,1,32,4,0.4663220942020416,0.09806888550519943
3,1,32,5,0.5040753483772278,0.04285648837685585
3,1,32,6,0.5449001789093018,0.07457810640335083
3,1,32,7,0.5831255912780762,0.05762883275747299
3,1,32,8,0.6266555786132812,0.06951794028282166
3,1,32,9,0.6683983206748962,0.03291281685233116
3,1,32,10,0.3127407133579254,0.06229382008314133
3,1,32,11,0.5503015518188477,0.094815693795681
3,1,32,12,0.6443992853164673,0.05654783546924591
3,1,32,13,0.5231569409370422,0.06506991386413574
3,1,32,14,0.39824751019477844,0.08246360719203949
3,1,32,15,0.5815312266349792,0.10717037320137024
3,1,32,16,0.40830156207084656,0.04483364522457123
3,1,32,17,0.5084308385848999,0.07169289141893387
3,1,32,18,0.5669103860855103,0.0931227058172226
3,1,32,19,0.4756443500518799,0.053442105650901794
3,1,32,20,0.4111798107624054,0.06850005686283112
3,1,32,21,0.4882141649723053,0.07716655731201172
3,1,32,22,0.64616858959198,0.11543189734220505
3,1,32,23,0.5632422566413879,0.033516526222229004
3,1,32,24,0.48980948328971863,0.051006387919187546
3,1,32,25,0.49626782536506653,0.07810870558023453
3,1,32,26,0.5155380368232727,0.03286347538232803
3,1,32,27,0.6515802145004272,0.07859142124652863
3,1,32,28,0.41503533720970154,0.03390492498874664
3,1,32,29,0.4485936164855957,0.09428799152374268
3,1,32,30,0.4850442707538605,0.061377134174108505
3,1,32,31,0.4824436604976654,0.06299243867397308
3,2,64,0,0.5411286354064941,0.0780225396156311
3,2,64,1,0.5744535326957703,0.053577445447444916
3,2,64,2,0.5004866123199463,0.05131172016263008
3,2,64,3,0.4077947735786438,0.1070990189909935
3,2,64,4,0.6351394057273865,0.05515260621905327
3,2,64,5,0.5448321104049683,0.14697739481925964
3,2,64,6,0.5815784335136414,0.10527098178863525
3,2,64,7,0.48844677209854126,0.12317729741334915
3,2,64,8,0.5046753287315369,0.11504963040351868
3,2,64,9,0.4312090575695038,0.1432972103357315
3,2,64,10,0.38478150963783264,0.07156172394752502
3,2,64,11,0.5970726609230042,0.09865322709083557
3,2,64,12,0.5176695585250854,0.13174302875995636
3,2,64,13,0.39398327469825745,0.11569780856370926
3,2,64,14,0.5193286538124084,0.1202017143368721
3,2,64,15,0.5279654264450073,0.12483333051204681
3,2,64,16,0.4136747121810913,0.09259157627820969
3,2,64,17,0.40453457832336426,0.12245757132768631
3,2,64,18,0.39377936720848083,0.059094443917274475
3,2,64,19,0.5378343462944031,0.06869526207447052
3,2,64,20,0.5830961465835571,0.1518007218837738
3,2,64,21,0.48328083753585815,0.0839911624789238
3,2,64,22,0.5442641377449036,0.09104623645544052
3,2,64,23,0.6192690134048462,0.07892908155918121
3,2,64,24,0.4056752920150757,0.04967646673321724
3,2,64,25,0.5679953098297119,0.10594000667333603
3,2,64,26,0.6236537098884583,0.14147695899009705
3,2,64,27,0.53618323802948,0.11023800820112228
3,2,64,28,0.39900732040405273,0.11050555109977722
3,2,64,29,0.5094486474990845,0.07727143913507462
3,2,64,30,0.4833192229270935,0.17355942726135254
3,2,64,31,0.5101800560951233,0.06050245463848114
3,2,64,32,0.32688334584236145,0.08212216198444366
3,2,64,33,0.5851643681526184,0.13358932733535767
3,2,64,34,0.4563526213169098,0.10926982015371323
3,2,64,35,0.5455724000930786,0.06810346990823746
3,2,64,36,0.6133478879928589,0.11677732318639755
3,2,64,37,0.5388544797897339,0.15803006291389465
3,2,64,38,0.44264549016952515,0.11601673066616058
3,2,64,39,0.5763834714889526,0.0991293266415596
3,2,64,40,0.4786151349544525,0.1073879525065422
3,2,64,41,0.5220730304718018,0.15826068818569183
3,2,64,42,0.484605997800827,0.14339543879032135
3,2,64,43,0.4220851957798004,0.11082975566387177
3,2,64,44,0.5280359983444214,0.06399849057197571
3,2,64,45,0.5584136843681335,0.165547177195549
3,2,64,46,0.49629703164100647,0.15302284061908722
3,2,64,47,0.5041436553001404,0.057432420551776886
3,2,64,48,0.6057714819908142,0.10753878951072693
3,2,64,49,0.46567022800445557,0.08956289291381836
3,2,64,50,0.42516160011291504,0.09253381192684174
3,2,64,51,0.37503817677497864,0.0822446420788765
3,2,64,52,0.4974539279937744,0.10336512327194214
3,2,64,53,0.5921769738197327,0.09718810021877289
3,2,64,54,0.3315894305706024,0.11731056123971939
3,2,64,55,0.5609585642814636,0.08214712142944336
3,2,64,56,0.47037211060523987,0.07242637872695923
3,2,64,57,0.609368085861206,0.07199019938707352
3,2,64,58,0.46272987127304077,0.1417483389377594
3,2,64,59,0.5802494287490845,0.14653290808200836
3,2,64,60,0.6382739543914795,0.07294302433729172
3,2,64,61,0.45874151587486267,0.16359809041023254
3,2,64,62,0.5937684178352356,0.07113882899284363
3,2,64,63,0.49565160274505615,0.1447245478630066
3,3,64,0,0.49074068665504456,0.18497398495674133
3,3,64,1,0.45020943880081177,0.07534489780664444
3,3,64,2,0.4888596534729004,0.042167630046606064
3,3,64,3,0.5267121195793152,0.15852296352386475
3,3,64,4,0.42830151319503784,0.1994602084159851
3,3,64,5,0.5338602066040039,0.09984314441680908
3,3,64,6,0.5355175733566284,0.0846002995967865
3,3,64,7,0.41728004813194275,0.09443497657775879
3,3,64,8,0.46445631980895996,0.12532758712768555
3,3,64,9,0.4458748698234558,0.147817000746727
3,3,64,10,0.5543590784072876,0.16304785013198853
3,3,64,11,0.4157913029193878,0.07539623230695724
3,3,64,12,0.6118729114532471,0.11497651040554047
3,3,64,13,0.48650965094566345,0.14468565583229065
3,3,64,14,0.43777239322662354,0.11502046883106232
3,3,64,15,0.5593491196632385,0.09873835742473602
3,3,64,16,0.47555720806121826,0.12003350257873535
3,3,64,17,0.6199737191200256,0.1074690967798233
3,3,64,18,0.4724477231502533,0.08609865605831146
3,3,64,19,0.4776672422885895,0.11798053234815598
3,3,64,20,0.5090336203575134,0.21091283857822418
3,3,64,21,0.4605318307876587,0.06267665326595306
3,3,64,22,0.41533663868904114,0.10003798454999924
3,3,64,23,0.3617221415042877,0.10453330725431442
3,3,64,24,0.6663229465484619,0.09855994582176208
3,3,64,25,0.43179044127464294,0.0852373018860817
3,3,64,26,0.4253535568714142,0.11360989511013031
3,3,64,27,0.46919873356819153,0.19145141541957855
3,3,64,28,0.4283234179019928,0.1264803558588028
3,3,64,29,0.48418769240379333,0.18017596006393433
3,3,64,30,0.5112150311470032,0.07893852144479752
3,3,64,31,0.49405092000961304,0.1636779010295868
3,3,64,32,0.5843372344970703,0.07264511287212372
3,3,64,33,0.46070244908332825,0.20054718852043152
3,3,64,34,0.3923651874065399,0.09658479690551758
3,3,64,35,0.372205913066864,0.09567034989595413
3,3,64,36,0.40784141421318054,0.14497777819633484
3,3,64,37,0.4487978219985962,0.09068157523870468
3,3,64,38,0.43336358666419983,0.056492388248443604
3,3,64,39,0.5667234063148499,0.09856358915567398
3,3,64,40,0.42268767952919006,0.12689927220344543
3,3,64,41,0.4616782069206238,0.10632655024528503
3,3,64,42,0.5267765522003174,0.07884171605110168
3,3,64,43,0.5569474101066589,0.08213330805301666
3,3,64,44,0.5879984498023987,0.10129998624324799
3,3,64,45,0.6509689092636108,0.08151812106370926
3,3,64,46,0.44770413637161255,0.1622798591852188
3,3,64,47,0.5420688390731812,0.058186471462249756
3,3,64,48,0.5424814224243164,0.10568993538618088
3,3,64,49,0.38575828075408936,0.10668524354696274
3,3,64,50,0.4559739828109741,0.13080212473869324
3,3,64,51,0.532816469669342,0.1417960375547409
3,3,64,52,0.4809572994709015,0.16687968373298645
3,3,64,53,0.5337664484977722,0.16637027263641357
3,3,64,54,0.4551699757575989,0.10766350477933884
3,3,64,55,0.5374401211738586,0.09163101762533188
3,3,64,56,0.5283330678939819,0.11813345551490784
3,3,64,57,0.37749695777893066,0.07281128317117691
3,3,64,58,0.37481600046157837,0.05562209710478783
3,3,64,59,0.4581947326660156,0.15051047503948212
3,3,64,60,0.5383811593055725,0.08799348771572113
3,3,64,61,0.45753413438796997,0.10690589994192123
3,3,64,62,0.6376611590385437,0.11082474142313004
3,3,64,63,0.4732227921485901,0.04617318883538246
3,4,128,0,0.6164003014564514,0.29002562165260315
3,4,128,1,0.710540771484375,0.2748156785964966
3,4,128,2,0.3030255138874054,0.14992697536945343
3,4,128,3,0.7989142537117004,0.08913994580507278
3,4,128,4,0.6886762380599976,0.361177533864975
3,4,128,5,0.3667391836643219,0.3100435435771942
3,4,128,6,0.3468567430973053,0.25747767090797424
3,4,128,7,0.7384467124938965,0.17805401980876923
3,4,128,8,0.8700263500213623,0.11371410638093948
3,4,128,9,0.6511945724487305,0.2882835566997528
3,4,128,10,0.23926325142383575,0.13678494095802307
3,4,128,11,0.7806135416030884,0.20528167486190796
3,4,128,12,0.509000837802887,0.14503227174282074
3,4,128,13,0.7556073069572449,0.2573850750923157
3,4,128,14,0.6898615956306458,0.3216826915740967
3,4,128,15,0.492122620344162,0.17259222269058228
3,4,128,16,0.776995837688446,0.11015801131725311
3,4,128,17,0.6377560496330261,0.31074872612953186
3,4,128,18,0.7335254549980164,0.21849189698696136
3,4,128,19,0.4772167205810547,0.2078389823436737
3,4,128,20,0.7207584977149963,0.3502988815307617
3,4,128,21,0.32796189188957214,0.12417789548635483
3,4,128,22,0.7595808506011963,0.2839432954788208
3,4,128,23,0.4111243784427643,0.28302568197250366
3,4,128,24,0.3366384208202362,0.22604958713054657
3,4,128,25,0.7619178891181946,0.2855762243270874
3,4,128,26,0.7068202495574951,0.08907695859670639
3,4,128,27,0.6174640655517578,0.17224593460559845
3,4,128,28,0.27302151918411255,0.14496482908725739
3,4,128,29,0.5812090635299683,0.3199269473552704
3,4,128,30,0.67558354139328,0.18932461738586426
3,4,128,31,0.35378551483154297,0.36977440118789673
3,4,128,32,0.7516260147094727,0.2277730405330658
3,4,128,33,0.3822346329689026,0.32918399572372437
3,4,128,34,0.7885231971740723,0.12553992867469788
3,4,128,35,0.3064892292022705,0.1257411688566208
3,4,128,36,0.8311768770217896,0.14381709694862366
3,4,128,37,0.7592968940734863,0.2684158384799957
3,4,128,38,0.4164860248565674,0.23956318199634552
3,4,128,39,0.2670460045337677,0.29188087582588196
3,4,128,40,0.5029385685920715,0.0692124217748642
3,4,128,41,0.8831043243408203,0.1097969189286232
3,4,128,42,0.3364132344722748,0.3506874144077301
3,4,128,43,0.6538580060005188,0.0870305523276329
3,4,128,44,0.7948318719863892,0.15859411656856537
3,4,128,45,0.8215299248695374,0.11471148580312729
3,4,128,46,0.4115285277366638,0.1228264719247818
3,4,128,47,0.21195203065872192,0.09450739622116089
3,4,128,48,0.7005312442779541,0.07552561908960342
3,4,128,49,0.8146781325340271,0.1744813770055771
3,4,128,50,0.8176186084747314,0.12300685793161392
3,4,128,51,0.547722578048706,0.18255417048931122
3,4,128,52,0.8648058176040649,0.09933356940746307
3,4,128,53,0.6890113949775696,0.3337525725364685
3,4,128,54,0.839029848575592,0.1139262393116951
3,4,128,55,0.6424220204353333,0.0949016660451889
3,4,128,56,0.7336413860321045,0.22957925498485565
3,4,128,57,0.6705935597419739,0.3039718270301819
3,4,128,58,0.8462637662887573,0.10865309834480286
3,4,128,59,0.7406234741210938,0.09064928442239761
3,4,128,60,0.5028212666511536,0.04777894914150238
3,4,128,61,0.3313213586807251,0.07938658446073532
3,4,128,62,0.40038755536079407,0.20066919922828674
3,4,128,63,0.27062591910362244,0.1205674260854721
3,4,128,64,0.8327573537826538,0.11183007806539536
3,4,128,65,0.7117650508880615,0.09566105157136917
3,4,128,66,0.3417091369628906,0.27469709515571594
3,4,128,67,0.8634663820266724,0.1347736269235611
3,4,128,68,0.6077336072921753,0.3248737156391144
3,4,128,69,0.7664048671722412,0.2792045772075653
3,4,128,70,0.7047548890113831,0.26737773418426514
3,4,128,71,0.827720582485199,0.11045552045106888
3,4,128,72,0.5423449873924255,0.1544865369796753
3,4,128,73,0.3965255916118622,0.15800291299819946
3,4,128,74,0.2664717733860016,0.08510559797286987
3,4,128,75,0.715682327747345,0.3382492661476135
3,4,128,76,0.8301343321800232,0.08719675987958908
3,4,128,77,0.6764394044876099,0.31692811846733093
3,4,128,78,0.6882110834121704,0.07788214087486267
3,4,128,79,0.6969743967056274,0.33257243037223816
3,4,128,80,0.33137768507003784,0.057971857488155365
3,4,128,81,0.7529236674308777,0.06781473755836487
3,4,128,82,0.7624770402908325,0.2558959126472473
3,4,128,83,0.2857694923877716,0.2958458960056305
3,4,128,84,0.4024427831172943,0.1446763277053833
3,4,128,85,0.32104092836380005,0.37250325083732605
3,4,128,86,0.7888972759246826,0.21890659630298615
3,4,128,87,0.29490143060684204,0.20111337304115295
3,4,128,88,0.5922066569328308,0.2445421814918518
3,4,128,89,0.3637832999229431,0.18297569453716278
3,4,128,90,0.70323646068573,0.09523904323577881
3,4,128,91,0.32915666699409485,0.07614372670650482
3,4,128,92,0.5334649085998535,0.17759212851524353
3,4,128,93,0.7672523856163025,0.2522386610507965
3,4,128,94,0.4490043520927429,0.2868333160877228
3,4,128,95,0.4627574682235718,0.25687670707702637
3,4,128,96,0.5561368465423584,0.17183011770248413
3,4,128,97,0.36781591176986694,0.3138030767440796
3,4,128,98,0.3803784251213074,0.2966260015964508
3,4,128,99,0.5214875340461731,0.22749760746955872
3,4,128,100,0.34917697310447693,0.3548266291618347
3,4,128,101,0.8135934472084045,0.15245354175567627
3,4,128,102,0.7579749822616577,0.1274910420179367
3,4,128,103,0.690467894077301,0.357408344745636
3,4,128,104,0.6897156834602356,0.28734248876571655
3,4,128,105,0.49082648754119873,0.24189504981040955
3,4,128,106,0.32941102981567383,0.16726766526699066
3,4,128,107,0.45805928111076355,0.08529701828956604
3,4,128,108,0.34698766469955444,0.3365078568458557
3,4,128,109,0.19244767725467682,0.11205149441957474
3,4,128,110,0.7259229421615601,0.28791168332099915
3,4,128,111,0.6745012402534485,0.31554195284843445
3,4,128,112,0.741891086101532,0.26979535818099976
3,4,128,113,0.6178650856018066,0.06414539366960526
3,4,128,114,0.6949606537818909,0.3757513165473938
3,4,128,115,0.7083308100700378,0.29495903849601746
3,4,128,116,0.7217918038368225,0.24296845495700836
3,4,128,117,0.7486622333526611,0.3111935555934906
3,4,128,118,0.5946692824363708,0.1288229376077652
3,4,128,119,0.6480771899223328,0.08654353767633438
3,4,128,120,0.7548587918281555,0.2983911335468292
3,4,128,121,0.35690465569496155,0.07287342101335526
3,4,128,122,0.3421781659126282,0.297755628824234
3,4,128,123,0.3243211507797241,0.3095993101596832
3,4,128,124,0.6462087035179138,0.2093154937028885
3,4,128,125,0.6826380491256714,0.08302503079175949
3,4,128,126,0.7157648205757141,0.3201793432235718
3,4,128,127,0.8365789651870728,0.11057960242033005
3,5,128,0,0.48273706436157227,0.11383812129497528
3,5,128,1,0.7079983353614807,0.15751169621944427
3,5,128,2,0.711122453212738,0.07184139639139175
3,5,128,3,0.7623383402824402,0.11746327579021454
3,5,128,4,0.71259605884552,0.08847689628601074
3,5,128,5,0.6930438280105591,0.07781455665826797
3,5,128,6,0.6184538006782532,0.06539549678564072
3,5,128,7,0.5805424451828003,0.09867054969072342
3,5,128,8,0.7329341769218445,0.1176784485578537
3,5,128,9,0.653631329536438,0.08716848492622375
3,5,128,10,0.39147451519966125,0.10255368053913116
3,5,128,11,0.7212067246437073,0.12495385110378265
3,5,128,12,0.650283932685852,0.1343482881784439
3,5,128,13,0.722040593624115,0.1306876689195633
3,5,128,14,0.6866267919540405,0.13805289566516876
3,5,128,15,0.4687364399433136,0.0960405096411705
3,5,128,16,0.5425193309783936,0.03321472927927971
3,5,128,17,0.7180817127227783,0.14320266246795654
3,5,128,18,0.7055103778839111,0.14162251353263855
3,5,128,19,0.6475908756256104,0.10194393247365952
3,5,128,20,0.5439960956573486,0.06563790887594223
3,5,128,21,0.5942908525466919,0.14997723698616028
3,5,128,22,0.7068256735801697,0.11106988787651062
3,5,128,23,0.40423154830932617,0.10333670675754547
3,5,128,24,0.4468212127685547,0.08769859373569489
3,5,128,25,0.5320211052894592,0.07293574512004852
3,5,128,26,0.47234413027763367,0.11753220856189728
3,5,128,27,0.40519165992736816,0.10598205029964447
3,5,128,28,0.5225930213928223,0.14806511998176575
3,5,128,29,0.4698173403739929,0.07949712127447128
3,5,128,30,0.5023231506347656,0.06002834811806679
3,5,128,31,0.6474210023880005,0.051919229328632355
3,5,128,32,0.5780021548271179,0.10753004997968674
3,5,128,33,0.6326704621315002,0.09335596859455109
3,5,128,34,0.7185055613517761,0.12043724209070206
3,5,128,35,0.5971524715423584,0.06435742229223251
3,5,128,36,0.7004773020744324,0.1502571702003479
3,5,128,37,0.6572714447975159,0.1250562071800232
3,5,128,38,0.5335515737533569,0.09175608307123184
3,5,128,39,0.46126461029052734,0.045066338032484055
3,5,128,40,0.4533088207244873,0.09654464572668076
3,5,128,41,0.6856921911239624,0.17031773924827576
3,5,128,42,0.5243806838989258,0.0784125104546547
3,5,128,43,0.47120192646980286,0.05488230660557747
3,5,128,44,0.6578788161277771,0.06722444295883179
3,5,128,45,0.5011071562767029,0.034848347306251526
3,5,128,46,0.4301493167877197,0.03802671656012535
3,5,128,47,0.5565959215164185,0.08689773827791214
3,5,128,48,0.7261250019073486,0.09776724129915237
3,5,128,49,0.7071516513824463,0.13079307973384857
3,5,128,50,0.6149879097938538,0.12171272933483124
3,5,128,51,0.4911790192127228,0.09231080114841461
3,5,128,52,0.444409042596817,0.09076528996229172
3,5,128,53,0.6404064893722534,0.1033729836344719
3,5,128,54,0.6809322237968445,0.15622368454933167
3,5,128,55,0.5274930000305176,0.10057894140481949
3,5,128,56,0.6718050837516785,0.1471671462059021
3,5,128,57,0.6109591126441956,0.09554997831583023
3,5,128,58,0.6684916019439697,0.1040680855512619
3,5,128,59,0.5352514386177063,0.0721973180770874
3,5,128,60,0.6135777235031128,0.16109870374202728
3,5,128,61,0.5618736147880554,0.12772516906261444
3,5,128,62,0.6028491854667664,0.10792028158903122
3,5,128,63,0.6487133502960205,0.1060970202088356
3,5,128,64,0.676214873790741,0.09376400709152222
3,5,128,65,0.643860936164856,0.0507425032556057
3,5,128,66,0.7027581930160522,0.12250368297100067
3,5,128,67,0.7534021139144897,0.09071562439203262
3,5,128,68,0.537013590335846,0.052930623292922974
3,5,128,69,0.6997034549713135,0.11863011121749878
3,5,128,70,0.5676478147506714,0.07871347665786743
3,5,128,71,0.6067708730697632,0.10723650455474854
3,5,128,72,0.56251060962677,0.050258129835128784
3,5,128,73,0.503258466720581,0.06238361448049545
3,5,128,74,0.5064527988433838,0.05104107782244682
3,5,128,75,0.37586838006973267,0.11817307770252228
3,5,128,76,0.6359593272209167,0.12836690247058868
3,5,128,77,0.6985110640525818,0.129627987742424
3,5,128,78,0.648100733757019,0.13561418652534485
3,5,128,79,0.35731950402259827,0.21305344998836517
3,5,128,80,0.4494408965110779,0.04287848621606827
3,5,128,81,0.4761519134044647,0.10618539154529572
3,5,128,82,0.7302374243736267,0.12568064033985138
3,5,128,83,0.34306734800338745,0.09359662234783173
3,5,128,84,0.50307297706604,0.09176387637853622
3,5,128,85,0.4139893054962158,0.10827019065618515
3,5,128,86,0.6566575169563293,0.10730570554733276
3,5,128,87,0.6734387278556824,0.05033183470368385
3,5,128,88,0.7261537909507751,0.1259607970714569
3,5,128,89,0.6406148076057434,0.15731792151927948
3,5,128,90,0.5118786096572876,0.055400267243385315
3,5,128,91,0.5063782930374146,0.16365277767181396
3,5,128,92,0.5402291417121887,0.06526417285203934
3,5,128,93,0.6678926348686218,0.10513973236083984
3,5,128,94,0.39255401492118835,0.0976107120513916
3,5,128,95,0.6081588268280029,0.07059036195278168
3,5,128,96,0.5750246644020081,0.09645986557006836
3,5,128,97,0.7045472860336304,0.08098314702510834
3,5,128,98,0.4752925634384155,0.05896793678402901
3,5,128,99,0.6391386985778809,0.06390632688999176
3,5,128,100,0.6332311034202576,0.08573965728282928
3,5,128,101,0.6033931970596313,0.07914415746927261
3,5,128,102,0.4399716556072235,0.10176832228899002
3,5,128,103,0.5300318002700806,0.07857047021389008
3,5,128,104,0.4997498393058777,0.10437687486410141
3,5,128,105,0.47934839129447937,0.03280603513121605
3,5,128,106,0.5308398008346558,0.06098804250359535
3,5,128,107,0.4747428596019745,0.0856974720954895
3,5,128,108,0.4955647885799408,0.122592493891716
3,5,128,109,0.478998601436615,0.08938737213611603
3,5,128,110,0.5691266059875488,0.03854001313447952
3,5,128,111,0.39245977997779846,0.08343636989593506
3,5,128,112,0.6473283767700195,0.16217771172523499
3,5,128,113,0.3774358332157135,0.12329266965389252
3,5,128,114,0.577224850654602,0.14997611939907074
3,5,128,115,0.6371601223945618,0.12259557843208313
3,5,128,116,0.710978627204895,0.05833825841546059
3,5,128,117,0.6941013336181641,0.07863453030586243
3,5,128,118,0.7285329103469849,0.08659813553094864
3,5,128,119,0.5415751934051514,0.019520234316587448
3,5,128,120,0.6514301300048828,0.08006133884191513
3,5,128,121,0.5636590719223022,0.12534286081790924
3,5,128,122,0.6046128273010254,0.06281118094921112
3,5,128,123,0.5832604765892029,0.10251540690660477
3,5,128,124,0.6289111971855164,0.042686618864536285
3,5,128,125,0.5529357194900513,0.10570193082094193
3,5,128,126,0.6474428176879883,0.1280408650636673
3,5,128,127,0.5974605679512024,0.14191904664039612
4,0,32,0,0.41589486598968506,0.06488259136676788
4,0,32,1,0.6686021685600281,0.09519847482442856
4,0,32,2,0.33047643303871155,0.05540990084409714
4,0,32,3,0.56606125831604,0.15669316053390503
4,0,32,4,0.2825283706188202,0.08287932723760605
4,0,32,5,0.3909890055656433,0.062180954962968826
4,0,32,6,0.6095077395439148,0.061460476368665695
4,0,32,7,0.6111957430839539,0.11864996701478958
4,0,32,8,0.3630649149417877,0.1441648155450821
4,0,32,9,0.5231243968009949,0.07759461551904678
4,0,32,10,0.5178170204162598,0.07196573168039322
4,0,32,11,0.4808354675769806,0.07473573088645935
4,0,32,12,0.3521941602230072,0.0789542868733406
4,0,32,13,0.45977452397346497,0.02250557951629162
4,0,32,14,0.7007512450218201,0.0878504142165184
4,0,32,15,0.5821698307991028,0.09312949329614639
4,0,32,16,0.5261932015419006,0.05988488346338272
4,0,32,17,0.4415419101715088,0.07574838399887085
4,0,32,18,0.6342733502388,0.05602142587304115
4,0,32,19,0.40424463152885437,0.17305541038513184
4,0,32,20,0.3260940611362457,0.06432976573705673
4,0,32,21,0.5662468075752258,0.03273015841841698
4,0,32,22,0.45403942465782166,0.1249396950006485
4,0,32,23,0.4520779550075531,0.178829163312912
4,0,32,24,0.311079204082489,0.06065211445093155
4,0,32,25,0.50840824842453,0.07836611568927765
4,0,32,26,0.5454680323600769,0.04600399732589722
4,0,32,27,0.6252849698066711,0.09979471564292908
4,0,32,28,0.32325008511543274,0.09953399002552032
4,0,32,29,0.44667455554008484,0.0289098359644413
4,0,32,30,0.42199110984802246,0.1584402471780777
4,0,32,31,0.4600324034690857,0.1330089569091797
4,1,32,0,0.45343708992004395,0.09765364229679108
4,1,32,1,0.5336424112319946,0.0762544646859169
4,1,32,2,0.45774567127227783,0.036067210137844086
4,1,32,3,0.4770245850086212,0.06874062865972519
4,1,32,4,0.3625297248363495,0.05176583677530289
4,1,32,5,0.5610511302947998,0.07677455246448517
4,1,32,6,0.6094905734062195,0.06869339942932129
4,1,32,7,0.3715856671333313,0.08253506571054459
4,1,32,8,0.537993848323822,0.05340022221207619
4,1,32,9,0.5506249070167542,0.05878666043281555
4,1,32,10,0.5610312223434448,0.04191922768950462
4,1,32,11,0.569877564907074,0.06551990658044815
4,1,32,12,0.48541200160980225,0.08696776628494263
4,1,32,13,0.49105730652809143,0.047157060354948044
4,1,32,14,0.45757535099983215,0.03999847173690796
4,1,32,15,0.5945627689361572,0.06918787956237793
4,1,32,16,0.4952296018600464,0.032432056963443756
4,1,32,17,0.4161088168621063,0.07336005568504333
4,1,32,18,0.346562922000885,0.08563228696584702
4,1,32,19,0.44093313813209534,0.06098030507564545
4,1,32,20,0.5192835330963135,0.07748571038246155
4,1,32,21,0.5091073513031006,0.09004402160644531
4,1,32,22,0.6568338871002197,0.08560962229967117
4,1,32,23,0.49941539764404297,0.04486009478569031
4,1,32,24,0.5442259907722473,0.068784199655056
4,1,32,25,0.42794355750083923,0.03983006626367569
4,1,32,26,0.4306981861591339,0.051526933908462524
4,1,32,27,0.6512463688850403,0.03331350162625313
4,1,32,28,0.49741506576538086,0.06359594315290451
4,1,32,29,0.6216647028923035,0.04869235306978226
4,1,32,30,0.561340868473053,0.034381985664367676
4,1,32,31,0.42147380113601685,0.057429440319538116
4,2,64,0,0.6873413324356079,0.12383782863616943
4,2,64,1,0.39767247438430786,0.13311028480529785
4,2,64,2,0.5634315609931946,0.0924869254231453
4,2,64,3,0.3741798400878906,0.06869490444660187
4,2,64,4,0.468193918466568,0.117233045399189
4,2,64,5,0.49299901723861694,0.25021934509277344
4,2,64,6,0.44426119327545166,0.08458095788955688
4,2,64,7,0.2864847779273987,0.13592512905597687
4,2,64,8,0.5811499953269958,0.058349937200546265
4,2,64,9,0.39528152346611023,0.19339467585086823
4,2,64,10,0.6099953651428223,0.07601485401391983
4,2,64,11,0.5997509956359863,0.035124827176332474
4,2,64,12,0.3884115219116211,0.14597751200199127
4,2,64,13,0.649906575679779,0.13785886764526367
4,2,64,14,0.41138559579849243,0.26558586955070496
4,2,64,15,0.4169566035270691,0.20094181597232819
4,2,64,16,0.32607531547546387,0.1087075024843216
4,2,64,17,0.6543241143226624,0.16128291189670563
4,2,64,18,0.5086040496826172,0.044425297528505325
4,2,64,19,0.6019635796546936,0.10591947287321091
4,2,64,20,0.41157767176628113,0.17768076062202454
4,2,64,21,0.6871829628944397,0.13710661232471466
4,2,64,22,0.4210628867149353,0.0708448588848114
4,2,64,23,0.36650481820106506,0.13020823895931244
4,2,64,24,0.6258783936500549,0.08034782856702805
4,2,64,25,0.5769578218460083,0.10136107355356216
4,2,64,26,0.4179564118385315,0.0849805697798729
4,2,64,27,0.5479178428649902,0.07940559089183807
4,2,64,28,0.580439567565918,0.1675875037908554
4,2,64,29,0.43221768736839294,0.14635135233402252
4,2,64,30,0.4321290850639343,0.1417303830385208
4,2,64,31,0.3638846278190613,0.16675741970539093
4,2,64,32,0.7271449565887451,0.09701383858919144
4,2,64,33,0.5595020651817322,0.14044144749641418
4,2,64,34,0.5914997458457947,0.19475559890270233
4,2,64,35,0.5266641974449158,0.08144829422235489
4,2,64,36,0.4957673251628876,0.030807113274931908
4,2,64,37,0.3729114532470703,0.09825099259614944
4,2,64,38,0.512523353099823,0.20301416516304016
4,2,64,39,0.4761095643043518,0.08733776211738586
4,2,64,40,0.488022118806839,0.1517653465270996
4,2,64,41,0.6182815432548523,0.08026743680238724
4,2,64,42,0.46621233224868774,0.1620604395866394
4,2,64,43,0.5526747107505798,0.19167576730251312
4,2,64,44,0.5434048771858215,0.1542440801858902
4,2,64,45,0.4899233281612396,0.06910137832164764
4,2,64,46,0.4489020109176636,0.08831147849559784
4,2,64,47,0.7354236841201782,0.09966128319501877
4,2,64,48,0.4536987245082855,0.19442807137966156
4,2,64,49,0.3301655054092407,0.08513157069683075
4,2,64,50,0.44494909048080444,0.09765028208494186
4,2,64,51,0.6016318202018738,0.2253018021583557
4,2,64,52,0.276721715927124,0.09132198989391327
4,2,64,53,0.5323570966720581,0.04963638260960579
4,2,64,54,0.309851735830307,0.11082421988248825
4,2,64,55,0.5914994478225708,0.2866475582122803
4,2,64,56,0.5664761066436768,0.17927055060863495
4,2,64,57,0.38275277614593506,0.18384891748428345
4,2,64,58,0.6199313998222351,0.13315638899803162
4,2,64,59,0.5147587060928345,0.18463298678398132
4,2,64,60,0.4504051208496094,0.13515324890613556
4,2,64,61,0.4965651333332062,0.09293556958436966
4,2,64,62,0.46080127358436584,0.23881176114082336
4,2,64,63,0.5521045923233032,0.18029989302158356
4,3,64,0,0.4766837954521179,0.03909023106098175
4,3,64,1,0.48652276396751404,0.19412194192409515
4,3,64,2,0.6653562784194946,0.059321507811546326
4,3,64,3,0.39007332921028137,0.11330873519182205
4,3,64,4,0.5821543335914612,0.06026296690106392
4,3,64,5,0.7285871505737305,0.07700551301240921
4,3,64,6,0.4724869728088379,0.09559889137744904
4,3,64,7,0.47987666726112366,0.08464185148477554
4,3,64,8,0.6296207904815674,0.08730156719684601
4,3,64,9,0.5131872296333313,0.10426867753267288
4,3,64,10,0.552890419960022,0.07317716628313065
4,3,64,11,0.4152546226978302,0.07136083394289017
4,3,64,12,0.6492330431938171,0.20925375819206238
4,3,64,13,0.47588640451431274,0.17912657558918
4,3,64,14,0.5611468553543091,0.1734825074672699
4,3,64,15,0.38234153389930725,0.1345030963420868
4,3,64,16,0.5072233080863953,0.11851894110441208
4,3,64,17,0.6596560478210449,0.09935247153043747
4,3,64,18,0.5317329168319702,0.09122656285762787
4,3,64,19,0.6049622893333435,0.20462606847286224
4,3,64,20,0.5332127213478088,0.1005849838256836
4,3,64,21,0.4897068440914154,0.14063630998134613
4,3,64,22,0.39099395275115967,0.15008535981178284
4,3,64,23,0.5075467824935913,0.15330135822296143
4,3,64,24,0.3827980160713196,0.06836206465959549
4,3,64,25,0.3664957284927368,0.1226356104016304
4,3,64,26,0.3811170756816864,0.2229224443435669
4,3,64,27,0.44601666927337646,0.13682463765144348
4,3,64,28,0.5702885985374451,0.1295301914215088
4,3,64,29,0.5275740027427673,0.1199871078133583
4,3,64,30,0.5146059989929199,0.16589657962322235
4,3,64,31,0.5192425847053528,0.13437515497207642
4,3,64,32,0.5259680151939392,0.06420367956161499
4,3,64,33,0.4459275007247925,0.0853031575679779
4,3,64,34,0.49431106448173523,0.165570467710495
4,3,64,35,0.47569647431373596,0.11386259645223618
4,3,64,36,0.5426864624023438,0.08565150946378708
4,3,64,37,0.4263609051704407,0.21242333948612213
4,3,64,38,0.5078928470611572,0.11844418942928314
4,3,64,39,0.32029998302459717,0.14835649728775024
4,3,64,40,0.5644996166229248,0.12369010597467422
4,3,64,41,0.47680971026420593,0.03611067682504654
4,3,64,42,0.6706690192222595,0.07015430182218552
4,3,64,43,0.5298929810523987,0.11301940679550171
4,3,64,44,0.6443167328834534,0.078929103910923
4,3,64,45,0.3924424648284912,0.1087731197476387
4,3,64,46,0.3294879198074341,0.054503705352544785
4,3,64,47,0.5199483633041382,0.1797737032175064
4,3,64,48,0.29848620295524597,0.06885810941457748
4,3,64,49,0.40775007009506226,0.1355859935283661
4,3,64,50,0.4739567041397095,0.11991024017333984
4,3,64,51,0.5387465953826904,0.1258610337972641
4,3,64,52,0.6021922826766968,0.18591494858264923
4,3,64,53,0.4050561785697937,0.10329688340425491
4,3,64,54,0.7326176166534424,0.13569466769695282
4,3,64,55,0.5557830333709717,0.04290591925382614
4,3,64,56,0.3424845039844513,0.08064241707324982
4,3,64,57,0.5933106541633606,0.14728793501853943
4,3,64,58,0.6207678914070129,0.145796000957489
4,3,64,59,0.6274084448814392,0.07828444242477417
4,3,64,60,0.5579767823219299,0.08936700969934464
4,3,64,61,0.47239717841148376,0.12500442564487457
4,3,64,62,0.5261059999465942,0.07978685200214386
4,3,64,63,0.4326002597808838,0.13143973052501678
4,4,128,0,0.49082496762275696,0.13867734372615814
4,4,128,1,0.6285025477409363,0.08690173923969269
4,4,128,2,0.6879550814628601,0.23839505016803741
4,4,128,3,0.40750905871391296,0.1052953377366066
4,4,128,4,0.41161808371543884,0.12784279882907867
4,4,128,5,0.7126094102859497,0.12428198009729385
4,4,128,6,0.5914997458457947,0.1852034628391266
4,4,128,7,0.5312114953994751,0.19637590646743774
4,4,128,8,0.5414445996284485,0.1506795734167099
4,4,128,9,0.6124571561813354,0.27496451139450073
4,4,128,10,0.6785237193107605,0.2012888342142105
4,4,128,11,0.5712063908576965,0.06543973833322525
4,4,128,12,0.4240434765815735,0.20643219351768494
4,4,128,13,0.5438592433929443,0.1568341851234436
4,4,128,14,0.5046417713165283,0.049593161791563034
4,4,128,15,0.3105981945991516,0.11643435806035995
4,4,128,16,0.6023740172386169,0.2652067244052887
4,4,128,17,0.49477365612983704,0.11521471291780472
4,4,128,18,0.5769028663635254,0.09629813581705093
4,4,128,19,0.7519039511680603,0.11810864508152008
4,4,128,20,0.8007663488388062,0.1135607585310936
4,4,128,21,0.6589149832725525,0.07375571131706238
4,4,128,22,0.5788223147392273,0.10223948210477829
4,4,128,23,0.4072430729866028,0.32037466764450073
4,4,128,24,0.7620883584022522,0.1203417256474495
4,4,128,25,0.8025408983230591,0.10898708552122116
4,4,128,26,0.44824960827827454,0.23151075839996338
4,4,128,27,0.36796316504478455,0.18044577538967133
4,4,128,28,0.24637894332408905,0.09364303201436996
4,4,128,29,0.6480486392974854,0.23332016170024872
4,4,128,30,0.6176132559776306,0.06379304826259613
4,4,128,31,0.5816657543182373,0.08844511955976486
4,4,128,32,0.5529223084449768,0.17315872013568878
4,4,128,33,0.5648865103721619,0.19081173837184906
4,4,128,34,0.47044190764427185,0.09160713106393814
4,4,128,35,0.5436109304428101,0.25331106781959534
4,4,128,36,0.6276905536651611,0.2345767766237259
4,4,128,37,0.7538629174232483,0.1230778768658638
4,4,128,38,0.4925403594970703,0.06887665390968323
4,4,128,39,0.5878605246543884,0.1361859291791916
4,4,128,40,0.7669234871864319,0.11356544494628906
4,4,128,41,0.7507070899009705,0.13423243165016174
4,4,128,42,0.6476469039916992,0.23704950511455536
4,4,128,43,0.6515277624130249,0.1083637997508049
4,4,128,44,0.7413334250450134,0.10732916742563248
4,4,128,45,0.7068209648132324,0.15549249947071075
4,4,128,46,0.6326667070388794,0.1386640965938568
4,4,128,47,0.6543464064598083,0.13146133720874786
4,4,128,48,0.6770769357681274,0.09742322564125061
4,4,128,49,0.6275610327720642,0.12482762336730957
4,4,128,50,0.5206003189086914,0.22398605942726135
4,4,128,51,0.5991312265396118,0.11976243555545807
4,4,128,52,0.7601654529571533,0.13138499855995178
4,4,128,53,0.4771663248538971,0.14574378728866577
4,4,128,54,0.5098921656608582,0.06883849203586578
4,4,128,55,0.5521400570869446,0.07705212384462357
4,4,128,56,0.5864479541778564,0.1143241748213768
4,4,128,57,0.7623235583305359,0.1437458097934723
4,4,128,58,0.6577014327049255,0.15609049797058105
4,4,128,59,0.356673926115036,0.22833676636219025
4,4,128,60,0.3979789614677429,0.14586958289146423
4,4,128,61,0.7466198205947876,0.1264060139656067
4,4,128,62,0.7699856758117676,0.08793890476226807
4,4,128,63,0.4878634512424469,0.14672359824180603
4,4,128,64,0.551051139831543,0.14564737677574158
4,4,128,65,0.6486741900444031,0.2752714455127716
4,4,128,66,0.7025214433670044,0.17275620996952057
4,4,128,67,0.40999042987823486,0.11617773026227951
4,4,128,68,0.4277782440185547,0.2641845643520355
4,4,128,69,0.5226740837097168,0.06134819611907005
4,4,128,70,0.7360556721687317,0.14482086896896362
4,4,128,71,0.6901458501815796,0.08559471368789673
4,4,128,72,0.34097230434417725,0.10361562669277191
4,4,128,73,0.6083923578262329,0.07095808535814285
4,4,128,74,0.6528895497322083,0.08544930070638657
4,4,128,75,0.7702011466026306,0.10876617580652237
4,4,128,76,0.5436059832572937,0.17254677414894104
4,4,128,77,0.7317333221435547,0.11332795023918152
4,4,128,78,0.3048607110977173,0.14382587373256683
4,4,128,79,0.5894261002540588,0.2626573145389557
4,4,128,80,0.4645061492919922,0.26328492164611816
4,4,128,81,0.6918897032737732,0.07561349868774414
4,4,128,82,0.3791750371456146,0.28859803080558777
4,4,128,83,0.603782057762146,0.1687728613615036
4,4,128,84,0.48933690786361694,0.20777541399002075
4,4,128,85,0.618707001209259,0.24993561208248138
4,4,128,86,0.4642089605331421,0.14566709101200104
4,4,128,87,0.487845778465271,0.17323540151119232
4,4,128,88,0.6138021349906921,0.04363420605659485
4,4,128,89,0.5820692181587219,0.21870535612106323
4,4,128,90,0.4134218990802765,0.21508929133415222
4,4,128,91,0.40314969420433044,0.17683738470077515
4,4,128,92,0.4278128743171692,0.07756892591714859
4,4,128,93,0.7884057760238647,0.09980692714452744
4,4,128,94,0.6551269888877869,0.09368342906236649
4,4,128,95,0.343014121055603,0.06484650820493698
4,4,128,96,0.3648846447467804,0.2742619514465332
4,4,128,97,0.4764719307422638,0.18335025012493134
4,4,128,98,0.4249708950519562,0.3001249432563782
4,4,128,99,0.5083429217338562,0.16751928627490997
4,4,128,100,0.6956807971000671,0.07376609742641449
4,4,128,101,0.5144925117492676,0.1061476320028305
4,4,128,102,0.531051516532898,0.06869572401046753
4,4,128,103,0.712799608707428,0.12556932866573334
4,4,128,104,0.6711311340332031,0.31965187191963196
4,4,128,105,0.6068869233131409,0.30315348505973816
4,4,128,106,0.6143267750740051,0.05636018142104149
4,4,128,107,0.3660329580307007,0.18875077366828918
4,4,128,108,0.5799137949943542,0.14068467915058136
4,4,128,109,0.6631205081939697,0.16388316452503204
4,4,128,110,0.4741809070110321,0.2614116966724396
4,4,128,111,0.42223402857780457,0.14042000472545624
4,4,128,112,0.5832387208938599,0.16446039080619812
4,4,128,113,0.34863561391830444,0.13832548260688782
4,4,128,114,0.6379941701889038,0.23707671463489532
4,4,128,115,0.7540861368179321,0.10435676574707031
4,4,128,116,0.643738329410553,0.2789364755153656
4,4,128,117,0.41427531838417053,0.2683737576007843
4,4,128,118,0.5126112103462219,0.10556407272815704
4,4,128,119,0.5075514912605286,0.11112374067306519
4,4,128,120,0.42746201157569885,0.18758021295070648
4,4,128,121,0.3613307476043701,0.2619137167930603
4,4,128,122,0.44179168343544006,0.10005791485309601
4,4,128,123,0.5656107664108276,0.2766841650009155
4,4,128,124,0.6323716640472412,0.06786281615495682
4,4,128,125,0.6976399421691895,0.11242404580116272
4,4,128,126,0.4040061831474304,0.11729936301708221
4,4,128,127,0.5993736386299133,0.1847608983516693
4,5,128,0,0.6646003723144531,0.2339250147342682
4,5,128,1,0.7688333988189697,0.1340297907590866
4,5,128,2,0.702875554561615,0.17649833858013153
4,5,128,3,0.7318952083587646,0.10501290112733841
4,5,128,4,0.4208066165447235,0.27711349725723267
4,5,128,5,0.7781978249549866,0.12955117225646973
4,5,128,6,0.6484338641166687,0.2534298002719879
4,5,128,7,0.7081807255744934,0.06593900173902512
4,5,128,8,0.6598105430603027,0.07931635528802872
4,5,128,9,0.7445539236068726,0.08651139587163925
4,5,128,10,0.7109009623527527,0.2371862679719925
4,5,128,11,0.7003295421600342,0.13650578260421753
4,5,128,12,0.5878235697746277,0.14315862953662872
4,5,128,13,0.8013157844543457,0.08777133375406265
4,5,128,14,0.3860475420951843,0.12806043028831482
4,5,128,15,0.3066506087779999,0.13636721670627594
4,5,128,16,0.5745972394943237,0.07247862219810486
4,5,128,17,0.5098830461502075,0.06736105680465698
4,5,128,18,0.7224687933921814,0.09591908007860184
4,5,128,19,0.7278469204902649,0.07253069430589676
4,5,128,20,0.8569440841674805,0.08512061834335327
4,5,128,21,0.7276694178581238,0.1044878363609314
4,5,128,22,0.796928346157074,0.09317875653505325
4,5,128,23,0.43618714809417725,0.25161802768707275
4,5,128,24,0.5019850730895996,0.13609200716018677
4,5,128,25,0.7480026483535767,0.1364811509847641
4,5,128,26,0.43860122561454773,0.18705160915851593
4,5,128,27,0.6540669798851013,0.2872294485569
4,5,128,28,0.493866890668869,0.033123865723609924
4,5,128,29,0.715619683265686,0.21871331334114075
4,5,128,30,0.37383830547332764,0.14405028522014618
4,5,128,31,0.49951308965682983,0.1457182914018631
4,5,128,32,0.8094286918640137,0.07858628779649734
4,5,128,33,0.7942280173301697,0.09915820509195328
4,5,128,34,0.7152260541915894,0.13820278644561768
4,5,128,35,0.4697607159614563,0.04757305979728699
4,5,128,36,0.8007727861404419,0.0937211662530899
4,5,128,37,0.7280732989311218,0.1398618221282959
4,5,128,38,0.6917293071746826,0.18385781347751617
4,5,128,39,0.6154325008392334,0.06414810568094254
4,5,128,40,0.7713217735290527,0.07724619656801224
4,5,128,41,0.7127383947372437,0.20854882895946503
4,5,128,42,0.6870262026786804,0.2511354386806488
4,5,128,43,0.5755329728126526,0.14331217110157013
4,5,128,44,0.7338539361953735,0.08133585005998611
4,5,128,45,0.8314961194992065,0.12412603199481964
4,5,128,46,0.7579370737075806,0.09437129646539688
4,5,128,47,0.5457901954650879,0.18755970895290375
4,5,128,48,0.56888747215271,0.13760145008563995
4,5,128,49,0.6157349944114685,0.10357827693223953
4,5,128,50,0.43738222122192383,0.15325942635536194
4,5,128,51,0.6005264520645142,0.1868470460176468
4,5,128,52,0.6899713277816772,0.14878533780574799
4,5,128,53,0.7554838061332703,0.0811617374420166
4,5,128,54,0.6713982224464417,0.2696171998977661
4,5,128,55,0.797294020652771,0.10071387141942978
4,5,128,56,0.6130687594413757,0.08507952094078064
4,5,128,57,0.7800436615943909,0.1435343325138092
4,5,128,58,0.7541083693504333,0.1408291608095169
4,5,128,59,0.5222718119621277,0.15434210002422333
4,5,128,60,0.4372401833534241,0.1728062927722931
4,5,128,61,0.7549138069152832,0.09778422117233276
4,5,128,62,0.7956636548042297,0.12247556447982788
4,5,128,63,0.7730189561843872,0.14110583066940308
4,5,128,64,0.47114717960357666,0.12049627304077148
4,5,128,65,0.708513081073761,0.18445125222206116
4,5,128,66,0.7965900897979736,0.1651945561170578
4,5,128,67,0.5530245304107666,0.08008868247270584
4,5,128,68,0.6353315711021423,0.11662685126066208
4,5,128,69,0.6364869475364685,0.16732783615589142
4,5,128,70,0.7860571146011353,0.1319957971572876
4,5,128,71,0.6293903589248657,0.03233037516474724
4,5,128,72,0.4172837436199188,0.16019384562969208
4,5,128,73,0.5064499378204346,0.06953994929790497
4,5,128,74,0.8014302253723145,0.12133143097162247
4,5,128,75,0.8163365721702576,0.1139746680855751
4,5,128,76,0.7363048791885376,0.23892877995967865
4,5,128,77,0.6898027658462524,0.07868077605962753
4,5,128,78,0.3420749008655548,0.29656124114990234
4,5,128,79,0.3614039719104767,0.3149493932723999
4,5,128,80,0.40854719281196594,0.17599846422672272
4,5,128,81,0.7654251456260681,0.14342886209487915
4,5,128,82,0.3208693861961365,0.11653152108192444
4,5,128,83,0.7498905062675476,0.1089317724108696
4,5,128,84,0.6239961981773376,0.14435207843780518
4,5,128,85,0.8024929165840149,0.09047050029039383
4,5,128,86,0.4984046220779419,0.18631748855113983
4,5,128,87,0.6654908061027527,0.043907180428504944
4,5,128,88,0.751017153263092,0.13179196417331696
4,5,128,89,0.8206309080123901,0.12848134338855743
4,5,128,90,0.5849356055259705,0.08940988779067993
4,5,128,91,0.7010927200317383,0.07476325333118439
4,5,128,92,0.4296226501464844,0.25491729378700256
4,5,128,93,0.7917775511741638,0.13249777257442474
4,5,128,94,0.622078537940979,0.16102482378482819
4,5,128,95,0.29220911860466003,0.19380736351013184
4,5,128,96,0.4292985796928406,0.24828152358531952
4,5,128,97,0.7547788023948669,0.10505546629428864
4,5,128,98,0.40202751755714417,0.13387371599674225
4,5,128,99,0.6756058931350708,0.23904891312122345
4,5,128,100,0.6860963702201843,0.0764719620347023
4,5,128,101,0.5304354429244995,0.11048821359872818
4,5,128,102,0.7547020316123962,0.14583081007003784
4,5,128,103,0.6165919303894043,0.10181543231010437
4,5,128,104,0.8123706579208374,0.07457410544157028
4,5,128,105,0.7205432057380676,0.2190771996974945
4,5,128,106,0.5561365485191345,0.13546591997146606
4,5,128,107,0.48732835054397583,0.2044665664434433
4,5,128,108,0.8201637864112854,0.10066471993923187
4,5,128,109,0.6090577244758606,0.21412646770477295
4,5,128,110,0.7616809606552124,0.08959613740444183
4,5,128,111,0.4148053824901581,0.2746235132217407
4,5,128,112,0.386690229177475,0.07831302285194397
4,5,128,113,0.5588410496711731,0.10639747977256775
4,5,128,114,0.6803951263427734,0.2498440146446228
4,5,128,115,0.6212124228477478,0.0991777554154396
4,5,128,116,0.7820705771446228,0.16613882780075073
4,5,128,117,0.4023657739162445,0.19547203183174133
4,5,128,118,0.6697247624397278,0.11600054055452347
4,5,128,119,0.6351571083068848,0.1849157214164734
4,5,128,120,0.6989991664886475,0.07851042598485947
4,5,128,121,0.5640615820884705,0.026141365990042686
4,5,128,122,0.6943358778953552,0.08947102725505829
4,5,128,123,0.6594089865684509,0.17541176080703735
4,5,128,124,0.48748934268951416,0.1251498907804489
4,5,128,125,0.7071085572242737,0.2094147950410843
4,5,128,126,0.5703315734863281,0.10389431565999985
4,5,128,127,0.7266834378242493,0.20302778482437134
5,0,32,0,0.47429636120796204,0.036449894309043884
5,0,32,1,0.5826518535614014,0.03528439253568649
5,0,32,2,0.5838410258293152,0.04672256484627724
5,0,32,3,0.45957186818122864,0.0289327222853899
5,0,32,4,0.6386191248893738,0.0577845461666584
5,0,32,5,0.43658366799354553,0.05999337136745453
5,0,32,6,0.5365543961524963,0.05962580814957619
5,0,32,7,0.4447879195213318,0.07030660659074783
5,0,32,8,0.507699728012085,0.02408008463680744
5,0,32,9,0.5731443166732788,0.059824105352163315
5,0,32,10,0.5135582685470581,0.059318918734788895
5,0,32,11,0.48496854305267334,0.0490354523062706
5,0,32,12,0.5841244459152222,0.077855683863163
5,0,32,13,0.4346253573894501,0.03861786052584648
5,0,32,14,0.5362928509712219,0.036782752722501755
5,0,32,15,0.5565493106842041,0.042782723903656006
5,0,32,16,0.4430514872074127,0.08076736330986023
5,0,32,17,0.5593168139457703,0.05136976018548012
5,0,32,18,0.4542763829231262,0.09703294932842255
5,0,32,19,0.6183053255081177,0.057154394686222076
5,0,32,20,0.5941748023033142,0.0319632925093174
5,0,32,21,0.46415823698043823,0.0638561025261879
5,0,32,22,0.424265056848526,0.05642145127058029
5,0,32,23,0.5134681463241577,0.06266972422599792
5,0,32,24,0.5329668521881104,0.056357815861701965
5,0,32,25,0.4576435089111328,0.047148801386356354
5,0,32,26,0.4223668873310089,0.06827960908412933
5,0,32,27,0.41847673058509827,0.04628158360719681
5,0,32,28,0.39851707220077515,0.048477474600076675
5,0,32,29,0.3879600167274475,0.034332603216171265
5,0,32,30,0.45155057311058044,0.013316964730620384
5,0,32,31,0.41923242807388306,0.039995577186346054
5,1,32,0,0.5135125517845154,0.016087286174297333
5,1,32,1,0.5825013518333435,0.05168642848730087
5,1,32,2,0.5303616523742676,0.07761505246162415
5,1,32,3,0.5476632714271545,0.05685180053114891
5,1,32,4,0.435390830039978,0.047284018248319626
5,1,32,5,0.4596613645553589,0.07028624415397644
5,1,32,6,0.5273298621177673,0.062204692512750626
5,1,32,7,0.5791810154914856,0.027086088433861732
5,1,32,8,0.5850282907485962,0.04001561179757118
5,1,32,9,0.5849316120147705,0.03598380088806152
5,1,32,10,0.48856380581855774,0.08170989900827408
5,1,32,11,0.5921117663383484,0.056313466280698776
5,1,32,12,0.4338816702365875,0.03454941511154175
5,1,32,13,0.6047240495681763,0.06397736072540283
5,1,32,14,0.5265262126922607,0.043282587081193924
5,1,32,15,0.564320981502533,0.039941538125276566
5,1,32,16,0.5902760624885559,0.03604575991630554
5,1,32,17,0.503090500831604,0.0496908538043499
5,1,32,18,0.45043179392814636,0.06280355155467987
5,1,32,19,0.557502806186676,0.027047844603657722
5,1,32,20,0.588962972164154,0.07643498480319977
5,1,32,21,0.6259732246398926,0.054098065942525864
5,1,32,22,0.5136775374412537,0.02497635781764984
5,1,32,23,0.5055654048919678,0.0402626134455204
5,1,32,24,0.4741055369377136,0.031763333827257156
5,1,32,25,0.48252108693122864,0.035733211785554886
5,1,32,26,0.48548540472984314,0.03828443959355354
5,1,32,27,0.38372543454170227,0.027389157563447952
5,1,32,28,0.5366650223731995,0.06822214275598526
5,1,32,29,0.3760511875152588,0.041303493082523346
5,1,32,30,0.5467183589935303,0.0878586620092392
5,1,32,31,0.5323470234870911,0.07479576766490936
5,2,64,0,0.4530251622200012,0.10070475190877914
5,2,64,1,0.5089050531387329,0.11064373701810837
5,2,64,2,0.3884708881378174,0.09355931729078293
5,2,64,3,0.4899819493293762,0.08425355702638626
5,2,64,4,0.5487165451049805,0.02809978276491165
5,2,64,5,0.5743502378463745,0.051411181688308716
5,2,64,6,0.5941693186759949,0.023169174790382385
5,2,64,7,0.3469111919403076,0.05913775786757469
5,2,64,8,0.6686926484107971,0.08839879184961319
5,2,64,9,0.551034688949585,0.07553783059120178
5,2,64,10,0.39233243465423584,0.02263917773962021
5,2,64,11,0.46077340841293335,0.06573192775249481
5,2,64,12,0.6004782915115356,0.09969888627529144
5,2,64,13,0.549518883228302,0.10228678584098816
5,2,64,14,0.486172616481781,0.04442508891224861
5,2,64,15,0.4741353988647461,0.027500972151756287
5,2,64,16,0.5383907556533813,0.0505794882774353
5,2,64,17,0.4611796438694,0.1104503646492958
5,2,64,18,0.5785118341445923,0.030534928664565086
5,2,64,19,0.5044033527374268,0.11991430073976517
5,2,64,20,0.5443495512008667,0.08177951723337173
5,2,64,21,0.4013533890247345,0.04985573887825012
5,2,64,22,0.5670779943466187,0.026309287175536156
5,2,64,23,0.5220533013343811,0.04051266610622406
5,2,64,24,0.43241891264915466,0.0792752057313919
5,2,64,25,0.5083497166633606,0.09809359163045883
5,2,64,26,0.5799996256828308,0.07342477142810822
5,2,64,27,0.5872809290885925,0.10816305875778198
5,2,64,28,0.45850276947021484,0.06628184020519257
5,2,64,29,0.4287310242652893,0.16005149483680725
5,2,64,30,0.5138432383537292,0.04010116681456566
5,2,64,31,0.44159647822380066,0.0867324247956276
5,2,64,32,0.4958176612854004,0.10891768336296082
5,2,64,33,0.4549219608306885,0.10845837742090225
5,2,64,34,0.4693799614906311,0.09932401031255722
5,2,64,35,0.527546226978302,0.07032359391450882
5,2,64,36,0.5862139463424683,0.11518434435129166
5,2,64,37,0.4346485137939453,0.033817924559116364
5,2,64,38,0.4861832857131958,0.10998739302158356
5,2,64,39,0.5199565887451172,0.12861233949661255
5,2,64,40,0.3928159773349762,0.07077737152576447
5,2,64,41,0.4494990110397339,0.054061159491539
5,2,64,42,0.5927754044532776,0.0942956805229187
5,2,64,43,0.4686693847179413,0.054238952696323395
5,2,64,44,0.48731520771980286,0.04373038187623024
5,2,64,45,0.5054639577865601,0.042425308376550674
5,2,64,46,0.6510405540466309,0.09185637533664703
5,2,64,47,0.39197462797164917,0.034247297793626785
5,2,64,48,0.4626339077949524,0.03731268271803856
5,2,64,49,0.47121068835258484,0.08069150894880295
5,2,64,50,0.5821147561073303,0.08872564882040024
5,2,64,51,0.48805373907089233,0.06775477528572083
5,2,64,52,0.38731470704078674,0.07548157870769501
5,2,64,53,0.609910786151886,0.10103990137577057
5,2,64,54,0.45326733589172363,0.08880867809057236
5,2,64,55,0.5176327228546143,0.03176693618297577
5,2,64,56,0.5032051801681519,0.023019107058644295
5,2,64,57,0.4507279098033905,0.12612222135066986
5,2,64,58,0.636061429977417,0.037496425211429596
5,2,64,59,0.4426896274089813,0.072126604616642
5,2,64,60,0.5637060403823853,0.09382890909910202
5,2,64,61,0.530463457107544,0.03376729413866997
5,2,64,62,0.39462852478027344,0.09465973824262619
5,2,64,63,0.4518175423145294,0.05538006126880646
5,3,64,0,0.4802234470844269,0.05100629851222038
5,3,64,1,0.4538947641849518,0.060262639075517654
5,3,64,2,0.46681222319602966,0.04904225096106529
5,3,64,3,0.45185187458992004,0.059816811233758926
5,3,64,4,0.428819864988327,0.048744529485702515
5,3,64,5,0.5040664672851562,0.06670091301202774
5,3,64,6,0.47077780961990356,0.06629370898008347
5,3,64,7,0.38397619128227234,0.0752972960472107
5,3,64,8,0.651503324508667,0.06056523695588112
5,3,64,9,0.39617955684661865,0.05815501511096954
5,3,64,10,0.5376059412956238,0.05376146733760834
5,3,64,11,0.5077246427536011,0.06203608959913254
5,3,64,12,0.5210959315299988,0.06547926366329193
5,3,64,13,0.5062863826751709,0.0746544674038887
5,3,64,14,0.5126973986625671,0.04731237143278122
5,3,64,15,0.4151037633419037,0.05648452043533325
5,3,64,16,0.505324125289917,0.027323037385940552
5,3,64,17,0.4492044746875763,0.06689604371786118
5,3,64,18,0.6249860525131226,0.0690988227725029
5,3,64,19,0.38017573952674866,0.037123408168554306
5,3,64,20,0.520719051361084,0.050520893186330795
5,3,64,21,0.582148551940918,0.055511586368083954
5,3,64,22,0.3933468461036682,0.06216156855225563
5,3,64,23,0.5273701548576355,0.03843382000923157
5,3,64,24,0.5338037014007568,0.06840919703245163
5,3,64,25,0.5348830819129944,0.07469742745161057
5,3,64,26,0.3712248206138611,0.06011280417442322
5,3,64,27,0.4140430986881256,0.07620048522949219
5,3,64,28,0.40554124116897583,0.04726304113864899
5,3,64,29,0.42467284202575684,0.07938572764396667
5,3,64,30,0.4054509401321411,0.051148902624845505
5,3,64,31,0.48977893590927124,0.03135018050670624
5,3,64,32,0.5947078466415405,0.04962605610489845
5,3,64,33,0.41565123200416565,0.07369324564933777
5,3,64,34,0.48183149099349976,0.07040445506572723
5,3,64,35,0.5357526540756226,0.0320708304643631
5,3,64,36,0.5825896859169006,0.039350725710392
5,3,64,37,0.47764548659324646,0.05907808244228363
5,3,64,38,0.5196166634559631,0.05858541280031204
5,3,64,39,0.5677474141120911,0.0552959106862545
5,3,64,40,0.4839636981487274,0.03479814529418945
5,3,64,41,0.3896265923976898,0.05477079376578331
5,3,64,42,0.46049585938453674,0.03292219340801239
5,3,64,43,0.4769015908241272,0.07304073125123978
5,3,64,44,0.5463358759880066,0.030268341302871704
5,3,64,45,0.45188093185424805,0.06421300768852234
5,3,64,46,0.5025534629821777,0.052885472774505615
5,3,64,47,0.6304658651351929,0.05755209922790527
5,3,64,48,0.4889289438724518,0.059655413031578064
5,3,64,49,0.5406379699707031,0.049346674233675
5,3,64,50,0.5016599893569946,0.06086176633834839
5,3,64,51,0.43893808126449585,0.03722591698169708
5,3,64,52,0.5746613144874573,0.03527446091175079
5,3,64,53,0.6169471144676208,0.05633176490664482
5,3,64,54,0.5419750809669495,0.07382968813180923
5,3,64,55,0.4973287582397461,0.06650938838720322
5,3,64,56,0.4586522579193115,0.06111263111233711
5,3,64,57,0.6127342581748962,0.04902099445462227
5,3,64,58,0.44898340106010437,0.05008988827466965
5,3,64,59,0.6015157103538513,0.08254148811101913
5,3,64,60,0.4596157670021057,0.05351733788847923
5,3,64,61,0.551846981048584,0.08885100483894348
5,3,64,62,0.5112084150314331,0.08077717572450638
5,3,64,63,0.4072541892528534,0.06286870688199997
5,4,128,0,0.5661609172821045,0.12661918997764587
5,4,128,1,0.6431665420532227,0.04027820751070976
5,4,128,2,0.5594609975814819,0.18696141242980957
5,4,128,3,0.5504596829414368,0.1207212582230568
5,4,128,4,0.7905347347259521,0.12626881897449493
5,4,128,5,0.6819835305213928,0.16901519894599915
5,4,128,6,0.5426807999610901,0.0350654236972332
5,4,128,7,0.36961477994918823,0.10447718948125839
5,4,128,8,0.36031651496887207,0.13785415887832642
5,4,128,9,0.6740519404411316,0.18908368051052094
5,4,128,10,0.3839915096759796,0.13007104396820068
5,4,128,11,0.37515270709991455,0.13950613141059875
5,4,128,12,0.5654420852661133,0.14880338311195374
5,4,128,13,0.5250110626220703,0.08724326640367508
5,4,128,14,0.5592437386512756,0.11552518606185913
5,4,128,15,0.6230526566505432,0.15035466849803925
5,4,128,16,0.42569029331207275,0.15595263242721558
5,4,128,17,0.5538696050643921,0.061682943254709244
5,4,128,18,0.6245576739311218,0.13515704870224
5,4,128,19,0.6795661449432373,0.14080080389976501
5,4,128,20,0.4702558219432831,0.04854266345500946
5,4,128,21,0.4015306234359741,0.04439127445220947
5,4,128,22,0.6670234799385071,0.19889946281909943
5,4,128,23,0.719690203666687,0.17690907418727875
5,4,128,24,0.6944339871406555,0.189146026968956
5,4,128,25,0.32937806844711304,0.08605697005987167
5,4,128,26,0.2449050098657608,0.08292652666568756
5,4,128,27,0.6680008172988892,0.11072570085525513
5,4,128,28,0.7452031373977661,0.1416882425546646
5,4,128,29,0.4899715185165405,0.11187165975570679
5,4,128,30,0.654778242111206,0.1391504406929016
5,4,128,31,0.33677443861961365,0.201091930270195
5,4,128,32,0.39766451716423035,0.11180472373962402
5,4,128,33,0.5920704007148743,0.05636928603053093
5,4,128,34,0.6235301494598389,0.2673552632331848
5,4,128,35,0.656010091304779,0.1710079312324524
5,4,128,36,0.45896100997924805,0.15793587267398834
5,4,128,37,0.5706518292427063,0.19010722637176514
5,4,128,38,0.583571195602417,0.1467919498682022
5,4,128,39,0.6250776052474976,0.07225529104471207
5,4,128,40,0.42110392451286316,0.061570413410663605
5,4,128,41,0.6405100226402283,0.046800438314676285
5,4,128,42,0.6516597867012024,0.2230423241853714
5,4,128,43,0.6646197438240051,0.20894110202789307
5,4,128,44,0.2892667353153229,0.15349449217319489
5,4,128,45,0.6133753657341003,0.16014699637889862
5,4,128,46,0.7356314063072205,0.17134644091129303
5,4,128,47,0.6580686569213867,0.15589575469493866
5,4,128,48,0.6821714043617249,0.18103554844856262
5,4,128,49,0.3366505801677704,0.06384292989969254
5,4,128,50,0.6145071983337402,0.17198726534843445
5,4,128,51,0.46464836597442627,0.06473453342914581
5,4,128,52,0.443737268447876,0.05693964660167694
5,4,128,53,0.5774239897727966,0.0930686667561531
5,4,128,54,0.4273953139781952,0.15953126549720764
5,4,128,55,0.5739587545394897,0.10101068019866943
5,4,128,56,0.4402740001678467,0.1101033017039299
5,4,128,57,0.36774611473083496,0.08695666491985321
5,4,128,58,0.6527169346809387,0.2056681513786316
5,4,128,59,0.5055474042892456,0.12229283899068832
5,4,128,60,0.474719762802124,0.11478045582771301
5,4,128,61,0.6873738169670105,0.17609824240207672
5,4,128,62,0.5945080518722534,0.1001168042421341
5,4,128,63,0.6311938762664795,0.08393887430429459
5,4,128,64,0.7106519937515259,0.15021464228630066
5,4,128,65,0.5194485783576965,0.08716505765914917
5,4,128,66,0.6063623428344727,0.07900012284517288
5,4,128,67,0.48019108176231384,0.062240175902843475
5,4,128,68,0.7480250000953674,0.14840544760227203
5,4,128,69,0.4758076071739197,0.032687850296497345
5,4,128,70,0.2697369158267975,0.14658933877944946
5,4,128,71,0.5296003222465515,0.04790537431836128
5,4,128,72,0.5486564636230469,0.05122916400432587
5,4,128,73,0.5965597629547119,0.1471991240978241
5,4,128,74,0.48067307472229004,0.08930382132530212
5,4,128,75,0.4218144714832306,0.0863618329167366
5,4,128,76,0.5448935627937317,0.1668413132429123
5,4,128,77,0.6574774980545044,0.21950946748256683
5,4,128,78,0.5821035504341125,0.07543305307626724
5,4,128,79,0.3294672966003418,0.1148308739066124
5,4,128,80,0.3858290910720825,0.17618270218372345
5,4,128,81,0.46526527404785156,0.0611322745680809
5,4,128,82,0.3987331986427307,0.09727253764867783
5,4,128,83,0.6626810431480408,0.23178143799304962
5,4,128,84,0.3010563552379608,0.07849820703268051
5,4,128,85,0.6265556216239929,0.13482123613357544
5,4,128,86,0.4394209384918213,0.11000193655490875
5,4,128,87,0.39738136529922485,0.13275401294231415
5,4,128,88,0.5752808451652527,0.17434188723564148
5,4,128,89,0.6211886405944824,0.07861369103193283
5,4,128,90,0.6978178024291992,0.10998944193124771
5,4,128,91,0.5827740430831909,0.06389026343822479
5,4,128,92,0.6174192428588867,0.1936766356229782
5,4,128,93,0.5441227555274963,0.0225797351449728
5,4,128,94,0.7081604599952698,0.17796830832958221
5,4,128,95,0.6089335083961487,0.12109674513339996
5,4,128,96,0.4502997100353241,0.1369304209947586
5,4,128,97,0.6902965307235718,0.23090685904026031
5,4,128,98,0.7310674786567688,0.14815357327461243
5,4,128,99,0.5029051899909973,0.05373360961675644
5,4,128,100,0.6859074831008911,0.12616246938705444
5,4,128,101,0.5181475877761841,0.07235804945230484
5,4,128,102,0.48239976167678833,0.06311577558517456
5,4,128,103,0.705004096031189,0.17537899315357208
5,4,128,104,0.6851556897163391,0.1893869936466217
5,4,128,105,0.28236815333366394,0.14987820386886597
5,4,128,106,0.6497286558151245,0.13814106583595276
5,4,128,107,0.4613983631134033,0.062427494674921036
5,4,128,108,0.6416672468185425,0.14538303017616272
5,4,128,109,0.7369391918182373,0.17803636193275452
5,4,128,110,0.260636568069458,0.10226940363645554
5,4,128,111,0.4724070131778717,0.07565034180879593
5,4,128,112,0.3637717664241791,0.24709662795066833
5,4,128,113,0.5115057826042175,0.11560478806495667
5,4,128,114,0.4292028248310089,0.15279068052768707
5,4,128,115,0.44836175441741943,0.07498558610677719
5,4,128,116,0.747317910194397,0.14891977608203888
5,4,128,117,0.5050053596496582,0.09237022697925568
5,4,128,118,0.5345486402511597,0.14341101050376892
5,4,128,119,0.7087469696998596,0.14587797224521637
5,4,128,120,0.5930221676826477,0.09014858305454254
5,4,128,121,0.6342911124229431,0.058093007653951645
5,4,128,122,0.3276021182537079,0.07887692749500275
5,4,128,123,0.4385990500450134,0.08761961758136749
5,4,128,124,0.6705055236816406,0.07611668854951859
5,4,128,125,0.33833441138267517,0.06289594620466232
5,4,128,126,0.5769633650779724,0.2147352248430252
5,4,128,127,0.5940709710121155,0.2254558503627777
5,5,128,0,0.6461892127990723,0.17334488034248352
5,5,128,1,0.5895835161209106,0.11182177811861038
5,5,128,2,0.7072672247886658,0.23406453430652618
5,5,128,3,0.7099622488021851,0.19556009769439697
5,5,128,4,0.6655955910682678,0.16352003812789917
5,5,128,5,0.5334394574165344,0.02736550010740757
5,5,128,6,0.6853917837142944,0.1854405701160431
5,5,128,7,0.3888895809650421,0.11110300570726395
5,5,128,8,0.5527586340904236,0.03976554796099663
5,5,128,9,0.712314784526825,0.1785029023885727
5,5,128,10,0.7355820536613464,0.17962795495986938
5,5,128,11,0.6236867308616638,0.1567378044128418
5,5,128,12,0.6325660943984985,0.1346394270658493
5,5,128,13,0.674903154373169,0.1487700641155243
5,5,128,14,0.663032591342926,0.17621302604675293
5,5,128,15,0.6779363751411438,0.12981563806533813
5,5,128,16,0.6679130792617798,0.13368326425552368
5,5,128,17,0.5475163459777832,0.038302231580019
5,5,128,18,0.6508107781410217,0.07952693104743958
5,5,128,19,0.6121442317962646,0.12443312257528305
5,5,128,20,0.541071355342865,0.02970622107386589
5,5,128,21,0.3069915473461151,0.15488331019878387
5,5,128,22,0.2874191701412201,0.18862605094909668
5,5,128,23,0.7347452044487,0.2025802582502365
5,5,128,24,0.5932764410972595,0.043203990906476974
5,5,128,25,0.5885371565818787,0.1504991054534912
5,5,128,26,0.3028700649738312,0.1415564864873886
5,5,128,27,0.5621025562286377,0.07797912508249283
5,5,128,28,0.7334596514701843,0.19339171051979065
5,5,128,29,0.4365623891353607,0.08547493815422058
5,5,128,30,0.3565923869609833,0.20059065520763397
5,5,128,31,0.6350873708724976,0.1239565834403038
5,5,128,32,0.7064852118492126,0.1601269245147705
5,5,128,33,0.7100425958633423,0.14943544566631317
5,5,128,34,0.5698104500770569,0.01887417584657669
5,5,128,35,0.6575520634651184,0.20227588713169098
5,5,128,36,0.33919084072113037,0.14493751525878906
5,5,128,37,0.33566513657569885,0.1398221105337143
5,5,128,38,0.4432311952114105,0.039438921958208084
5,5,128,39,0.6069210171699524,0.018934639170765877
5,5,128,40,0.6275034546852112,0.1989934891462326
5,5,128,41,0.626733660697937,0.13913138210773468
5,5,128,42,0.5825339555740356,0.09353631734848022
5,5,128,43,0.6700435280799866,0.17627979815006256
5,5,128,44,0.35078805685043335,0.13415205478668213
5,5,128,45,0.4540940225124359,0.10232289135456085
5,5,128,46,0.7109612822532654,0.14710840582847595
5,5,128,47,0.45370250940322876,0.030334467068314552
5,5,128,48,0.31106358766555786,0.10064069926738739
5,5,128,49,0.47091761231422424,0.03573324903845787
5,5,128,50,0.4418410062789917,0.09846354275941849
5,5,128,51,0.5766177177429199,0.11499515920877457
5,5,128,52,0.6833015084266663,0.14729918539524078
5,5,128,53,0.49102428555488586,0.07724333554506302
5,5,128,54,0.344014436006546,0.11090070754289627
5,5,128,55,0.4024119973182678,0.05060861259698868
5,5,128,56,0.45202475786209106,0.07132815569639206
5,5,128,57,0.49306750297546387,0.10185722261667252
5,5,128,58,0.6612495183944702,0.21691502630710602
5,5,128,59,0.6752042770385742,0.18552030622959137
5,5,128,60,0.661977231502533,0.1315973997116089
5,5,128,61,0.6846156120300293,0.21285009384155273
5,5,128,62,0.6713252663612366,0.08883107453584671
5,5,128,63,0.6988422274589539,0.17819224298000336
5,5,128,64,0.6734310984611511,0.1575046181678772
5,5,128,65,0.4966184198856354,0.053416866809129715
5,5,128,66,0.445828378200531,0.05849078297615051
5,5,128,67,0.40449967980384827,0.034570906311273575
5,5,128,68,0.6746355295181274,0.12821552157402039
5,5,128,69,0.3115628957748413,0.22586622834205627
5,5,128,70,0.5677075386047363,0.05048066005110741
5,5,128,71,0.5415771007537842,0.10470329970121384
5,5,128,72,0.3496525287628174,0.15230296552181244
5,5,128,73,0.7016812562942505,0.17126518487930298
5,5,128,74,0.6640911102294922,0.23137101531028748
5,5,128,75,0.32507678866386414,0.09985926002264023
5,5,128,76,0.5623557567596436,0.040104612708091736
5,5,128,77,0.39186203479766846,0.11980293691158295
5,5,128,78,0.6478937268257141,0.11774185299873352
5,5,128,79,0.609112560749054,0.08334864675998688
5,5,128,80,0.4191240966320038,0.09865817427635193
5,5,128,81,0.5618346333503723,0.0581347830593586
5,5,128,82,0.35496222972869873,0.14055022597312927
5,5,128,83,0.5648233890533447,0.03187698498368263
5,5,128,84,0.5080526471138,0.09817526489496231
5,5,128,85,0.6372143626213074,0.10135189443826675
5,5,128,86,0.4890293478965759,0.030961669981479645
5,5,128,87,0.3293444514274597,0.1660039722919464
5,5,128,88,0.6172675490379333,0.12617158889770508
5,5,128,89,0.5865488648414612,0.03165733814239502
5,5,128,90,0.48955032229423523,0.10574107617139816
5,5,128,91,0.35389623045921326,0.11059486120939255
5,5,128,92,0.6282170414924622,0.19381316006183624
5,5,128,93,0.6817604303359985,0.1467399001121521
5,5,128,94,0.7175468802452087,0.1831144392490387
5,5,128,95,0.5471634864807129,0.07446087151765823
5,5,128,96,0.7186526656150818,0.21405886113643646
5,5,128,97,0.7322434186935425,0.1700430065393448
5,5,128,98,0.7159616351127625,0.15298280119895935
5,5,128,99,0.6344507336616516,0.14884135127067566
5,5,128,100,0.4815349280834198,0.07900042086839676
5,5,128,101,0.5002090334892273,0.04074295610189438
5,5,128,102,0.6170264482498169,0.07809639722108841
5,5,128,103,0.518641471862793,0.08432301133871078
5,5,128,104,0.6444891691207886,0.09319650381803513
5,5,128,105,0.7093416452407837,0.1700044423341751
5,5,128,106,0.6806471943855286,0.14243647456169128
5,5,128,107,0.6904288530349731,0.1656234860420227
5,5,128,108,0.6446841955184937,0.1188967227935791
5,5,128,109,0.5432415008544922,0.04154496267437935
5,5,128,110,0.26762187480926514,0.20929604768753052
5,5,128,111,0.4326874613761902,0.055410344153642654
5,5,128,112,0.7072375416755676,0.19168031215667725
5,5,128,113,0.5170798301696777,0.05176709592342377
5,5,128,114,0.6145967245101929,0.11833661794662476
5,5,128,115,0.6561216115951538,0.14272834360599518
5,5,128,116,0.5813599824905396,0.09671241790056229
5,5,128,117,0.6149484515190125,0.16729781031608582
5,5,128,118,0.411702036857605,0.052549853920936584
5,5,128,119,0.6537603139877319,0.12705685198307037
5,5,128,120,0.5338085889816284,0.07187873125076294
5,5,128,121,0.4798211455345154,0.05338073521852493
5,5,128,122,0.4246589243412018,0.07065661996603012
5,5,128,123,0.5218051075935364,0.07218064367771149
5,5,128,124,0.5609276294708252,0.0247277170419693
5,5,128,125,0.36425334215164185,0.13084571063518524
5,5,128,126,0.29895564913749695,0.1773751825094223
5,5,128,127,0.3307071328163147,0.13732503354549408
6,0,32,0,0.4084358513355255,0.08252404630184174
6,0,32,1,0.5299786329269409,0.057554636150598526
6,0,32,2,0.4224759042263031,0.06412404030561447
6,0,32,3,0.40705519914627075,0.05708187073469162
6,0,32,4,0.5388956665992737,0.08931570500135422
6,0,32,5,0.607063889503479,0.05265383794903755
6,0,32,6,0.4627783000469208,0.06735162436962128
6,0,32,7,0.5315558314323425,0.05222765728831291
6,0,32,8,0.5262474417686462,0.10239701718091965
6,0,32,9,0.4416060447692871,0.052627384662628174
6,0,32,10,0.34716174006462097,0.0570492185652256
6,0,32,11,0.4789256453514099,0.04986800625920296
6,0,32,12,0.6055785417556763,0.08695342391729355
6,0,32,13,0.5803147554397583,0.031490880995988846
6,0,32,14,0.3869125247001648,0.03138500824570656
6,0,32,15,0.5155461430549622,0.08336795121431351
6,0,32,16,0.5088196992874146,0.06517770141363144
6,0,32,17,0.40265828371047974,0.07412365078926086
6,0,32,18,0.442416787147522,0.0640103742480278
6,0,32,19,0.3877778947353363,0.03018440119922161
6,0,32,20,0.44053778052330017,0.07829156517982483
6,0,32,21,0.5407926440238953,0.10201180726289749
6,0,32,22,0.6198348999023438,0.06346482783555984
6,0,32,23,0.4581206738948822,0.04716452956199646
6,0,32,24,0.5277037024497986,0.06921079009771347
6,0,32,25,0.47430697083473206,0.028784561902284622
6,0,32,26,0.6067306399345398,0.07388421148061752
6,0,32,27,0.5925837159156799,0.05784260481595993
6,0,32,28,0.4205179214477539,0.0684468224644661
6,0,32,29,0.548385500907898,0.09059160947799683
6,0,32,30,0.5882901549339294,0.0958532765507698
6,0,32,31,0.641588032245636,0.06056804582476616
6,1,32,0,0.4107268154621124,0.061180680990219116
6,1,32,1,0.520002543926239,0.06711849570274353
6,1,32,2,0.4684602618217468,0.06159704923629761
6,1,32,3,0.6239131689071655,0.041444841772317886
6,1,32,4,0.37154775857925415,0.022206265479326248
6,1,32,5,0.6650145649909973,0.06833510100841522
6,1,32,6,0.4476601481437683,0.05161428824067116
6,1,32,7,0.5986496210098267,0.043326981365680695
6,1,32,8,0.6048162579536438,0.0622839480638504
6,1,32,9,0.5457363724708557,0.07118289172649384
6,1,32,10,0.462750643491745,0.04847095161676407
6,1,32,11,0.5182927250862122,0.07137009501457214
6,1,32,12,0.586135745048523,0.03835549205541611
6,1,32,13,0.41008466482162476,0.09246019273996353
6,1,32,14,0.5628789663314819,0.03422423452138901
6,1,32,15,0.47822967171669006,0.061614740639925
6,1,32,16,0.5125168561935425,0.04722028598189354
6,1,32,17,0.6916974782943726,0.08042751252651215
6,1,32,18,0.5771009922027588,0.06437487155199051
6,1,32,19,0.5669568181037903,0.060448553413152695
6,1,32,20,0.5220479369163513,0.09938331693410873
6,1,32,21,0.5924909710884094,0.08067243546247482
6,1,32,22,0.409836083650589,0.030088555067777634
6,1,32,23,0.42745742201805115,0.05682111531496048
6,1,32,24,0.5628612637519836,0.04480084404349327
6,1,32,25,0.5721324682235718,0.015926511958241463
6,1,32,26,0.4466671943664551,0.045965470373630524
6,1,32,27,0.5955519080162048,0.042902667075395584
6,1,32,28,0.5605002641677856,0.055839281529188156
6,1,32,29,0.47636380791664124,0.05504259839653969
6,1,32,30,0.5800155997276306,0.0636850893497467
6,1,32,31,0.5727125406265259,0.05208522453904152
6,2,64,0,0.5429108738899231,0.11358470469713211
6,2,64,1,0.502855122089386,0.13302549719810486
6,2,64,2,0.588925838470459,0.06099163368344307
6,2,64,3,0.5635650753974915,0.04875987768173218
6,2,64,4,0.49232450127601624,0.11118873953819275
6,2,64,5,0.4843679964542389,0.04500497132539749
6,2,64,6,0.5825570225715637,0.1001472994685173
6,2,64,7,0.5268554091453552,0.04367833957076073
6,2,64,8,0.582923173904419,0.09192913770675659
6,2,64,9,0.5408532619476318,0.07183165103197098
6,2,64,10,0.4732052981853485,0.14588889479637146
6,2,64,11,0.5876349210739136,0.12913645803928375
6,2,64,12,0.4602842330932617,0.07886382937431335
6,2,64,13,0.4929654598236084,0.10535424202680588
6,2,64,14,0.3921886086463928,0.08634680509567261
6,2,64,15,0.49189305305480957,0.1187674030661583
6,2,64,16,0.46390628814697266,0.09968790411949158
6,2,64,17,0.5778024196624756,0.08025940507650375
6,2,64,18,0.4922335743904114,0.08822893351316452
6,2,64,19,0.5490061640739441,0.13164667785167694
6,2,64,20,0.4041661024093628,0.12019062042236328
6,2,64,21,0.504207968711853,0.0476851761341095
6,2,64,22,0.4632241129875183,0.03396371752023697
6,2,64,23,0.5752817392349243,0.11468839645385742
6,2,64,24,0.431222528219223,0.07744459807872772
6,2,64,25,0.5663540363311768,0.11032845824956894
6,2,64,26,0.5102061629295349,0.11175952851772308
6,2,64,27,0.6421899795532227,0.07566745579242706
6,2,64,28,0.4760298728942871,0.1212918609380722
6,2,64,29,0.4960942268371582,0.08476627618074417
6,2,64,30,0.5000391602516174,0.10757144540548325
6,2,64,31,0.5800969004631042,0.09188199788331985
6,2,64,32,0.5086557865142822,0.06811805069446564
6,2,64,33,0.43396511673927307,0.1116049513220787
6,2,64,34,0.503537654876709,0.1314852088689804
6,2,64,35,0.45347675681114197,0.10850841552019119
6,2,64,36,0.5752028226852417,0.11243285983800888
6,2,64,37,0.4623349606990814,0.07026105374097824
6,2,64,38,0.502259373664856,0.04147765785455704
6,2,64,39,0.5001041293144226,0.08419614285230637
6,2,64,40,0.6029203534126282,0.09870506078004837
6,2,64,41,0.5900961756706238,0.09372217953205109
6,2,64,42,0.522203803062439,0.04535016790032387
6,2,64,43,0.48579251766204834,0.08400112390518188
6,2,64,44,0.5882424116134644,0.04326115921139717
6,2,64,45,0.5763700604438782,0.090949647128582
6,2,64,46,0.39778056740760803,0.09763891994953156
6,2,64,47,0.6313709616661072,0.07913067191839218
6,2,64,48,0.4485817551612854,0.10104095190763474
6,2,64,49,0.5159424543380737,0.12160798907279968
6,2,64,50,0.4240642189979553,0.10149335116147995
6,2,64,51,0.4373016655445099,0.043645355850458145
6,2,64,52,0.3596267104148865,0.0744028091430664
6,2,64,53,0.5527565479278564,0.10879217088222504
6,2,64,54,0.4252632260322571,0.06003348529338837
6,2,64,55,0.40641728043556213,0.09782440960407257
6,2,64,56,0.49542298913002014,0.07023891061544418
6,2,64,57,0.5512466430664062,0.12380938231945038
6,2,64,58,0.530312716960907,0.12758243083953857
6,2,64,59,0.6001837253570557,0.05068802833557129
6,2,64,60,0.37810584902763367,0.0709025040268898
6,2,64,61,0.5254026651382446,0.14236019551753998
6,2,64,62,0.565407931804657,0.12506189942359924
6,2,64,63,0.3725336194038391,0.10981522500514984
6,3,64,0,0.5041854381561279,0.05277767404913902
6,3,64,1,0.531037449836731,0.06868051737546921
6,3,64,2,0.510637104511261,0.06847579032182693
6,3,64,3,0.5489856600761414,0.03233730047941208
6,3,64,4,0.5034977197647095,0.039113156497478485
6,3,64,5,0.5050836801528931,0.03349302336573601
6,3,64,6,0.49226826429367065,0.09579537063837051
6,3,64,7,0.559083104133606,0.050485219806432724
6,3,64,8,0.5819239616394043,0.06341809034347534
6,3,64,9,0.39869338274002075,0.04352857545018196
6,3,64,10,0.5462214946746826,0.04062940925359726
6,3,64,11,0.5502848029136658,0.05514415353536606
6,3,64,12,0.5111740231513977,0.05199000984430313
6,3,64,13,0.5626789331436157,0.07791278511285782
6,3,64,14,0.6123972535133362,0.056263551115989685
6,3,64,15,0.47976788878440857,0.04505559429526329
6,3,64,16,0.6329074501991272,0.053258396685123444
6,3,64,17,0.5223689079284668,0.0570874959230423
6,3,64,18,0.45216572284698486,0.07423340529203415
6,3,64,19,0.4591977298259735,0.09880063682794571
6,3,64,20,0.3668783903121948,0.06955993920564651
6,3,64,21,0.5238075852394104,0.06053861975669861
6,3,64,22,0.5724635720252991,0.046562232077121735
6,3,64,23,0.5507304668426514,0.07542131096124649
6,3,64,24,0.5580975413322449,0.07463577389717102
6,3,64,25,0.5118035674095154,0.03171606361865997
6,3,64,26,0.5429960489273071,0.02373345196247101
6,3,64,27,0.47477808594703674,0.050162672996520996
6,3,64,28,0.4545183777809143,0.0397917740046978
6,3,64,29,0.5852029323577881,0.055303409695625305
6,3,64,30,0.5328150391578674,0.059270989149808884
6,3,64,31,0.37419435381889343,0.09111133962869644
6,3,64,32,0.4457627236843109,0.1298317164182663
6,3,64,33,0.5430521368980408,0.0667218416929245
6,3,64,34,0.5173346400260925,0.06910794973373413
6,3,64,35,0.5249961614608765,0.0472867451608181
6,3,64,36,0.40367501974105835,0.05091094970703125
6,3,64,37,0.5636215209960938,0.045009274035692215
6,3,64,38,0.4037579298019409,0.070810467004776
6,3,64,39,0.4333169758319855,0.0506560280919075
6,3,64,40,0.54759281873703,0.08097589015960693
6,3,64,41,0.5496999621391296,0.039420921355485916
6,3,64,42,0.41447481513023376,0.05281330645084381
6,3,64,43,0.4920090138912201,0.032583869993686676
6,3,64,44,0.4881248474121094,0.048103321343660355
6,3,64,45,0.34319642186164856,0.08020170032978058
6,3,64,46,0.5386776328086853,0.0847340077161789
6,3,64,47,0.46319830417633057,0.04244302958250046
6,3,64,48,0.5760159492492676,0.03982005640864372
6,3,64,49,0.5305121541023254,0.04720856621861458
6,3,64,50,0.6078537106513977,0.059322912245988846
6,3,64,51,0.5382254719734192,0.14168179035186768
6,3,64,52,0.4558378756046295,0.07240155339241028
6,3,64,53,0.608722984790802,0.04404468834400177
6,3,64,54,0.3958987891674042,0.07681011408567429
6,3,64,55,0.5618430972099304,0.07420637458562851
6,3,64,56,0.40350541472435,0.09645586460828781
6,3,64,57,0.5624032020568848,0.07883980125188828
