subject,channel,r,f1_drop_mean,f1_drop_sd
1,0,5,0.07173647421244611,0.007461159700877348
1,1,5,0.07112297731962672,0.016263435046420586
1,2,5,0.03855604675142963,0.015674543532587504
1,3,5,0.055808819323315204,0.012058953235611061
1,4,5,0.03451705432874308,0.015321883918405743
1,5,5,0.0831464417888054,0.011219252575325148
1,6,5,0.020532723449223543,0.00919132082333723
1,7,5,0.08652812584250864,0.016118461858389575
1,8,5,0.07827691498757625,0.01294203855727495
2,0,5,0.10184810451305241,0.008917891158480329
2,1,5,0.06948103579884805,0.009896185365852076
2,2,5,0.07594542010107572,0.012388551619392896
2,3,5,0.0752613986471808,0.020592059407634852
2,4,5,0.14559157416315244,0.010238046087075693
2,5,5,0.13373604767188224,0.012004092641999552
2,6,5,0.03015961238846543,0.014168367113809265
2,7,5,0.15234920723894035,0.017487387771845827
2,8,5,0.07819671794222756,0.007371519941592552
3,0,5,0.06309274200842777,0.015621216559876422
3,1,5,0.07291176866245357,0.019466935535608774
3,2,5,0.03721092965969175,0.010742228466595559
3,3,5,0.11995554301301777,0.007946780128850502
3,4,5,0.12618696647785074,0.011739374263279978
3,5,5,0.11949020948638807,0.012319440085604413
3,6,5,0.03028556823375328,0.00998562716134169
3,7,5,0.11917180058852202,0.010166304044935208
3,8,5,0.08652572033253478,0.016912527964141947
4,0,5,0.06897389850815176,0.0221526369466771
4,1,5,0.12024291183672145,0.009977150781240129
4,2,5,0.07039602005788086,0.0077247514451017
4,3,5,0.0439717388834022,0.010826986274483764
4,4,5,0.11656586292346627,0.00404821542628012
4,5,5,0.10183130463025084,0.008178478920752463
4,6,5,0.021740199702223316,0.007018295276564461
4,7,5,0.09161502546033065,0.009923313269460703
4,8,5,0.10163717133889842,0.01659783071926473
5,0,5,0.03556833727579582,0.019213269447646026
5,1,5,0.02577226952557974,0.01351205277896397
5,2,5,0.06067824003559776,0.013677108571059656
5,3,5,0.029503218260861906,0.014538704809815627
5,4,5,0.10098532342962155,0.01892516548353055
5,5,5,0.03500883860265127,0.011815132693474171
5,6,5,0.02287582795426941,0.009914160165180144
5,7,5,0.04400506524289331,0.006627180308533003
5,8,5,0.08890597272392749,0.008591000092012385
6,0,5,0.09887399693886915,0.00768772712394473
6,1,5,0.08586131319746645,0.011657697534963618
6,2,5,0.08164647231907114,0.020420949231829903
6,3,5,0.006295254090031332,0.011335950220991686
6,4,5,0.05991931958580905,0.01473006354081036
6,5,5,0.07817229448032588,0.0069429872627855905
6,6,5,0.04086553664531038,0.008144674448138206
6,7,5,0.08708923611924471,0.010357911569615066
6,8,5,0.057618741465897294,0.01757174953872141
7,0,5,0.0733859989528286,0.013191332902543384
7,1,5,0.09007005463367919,0.016091148842927883
7,2,5,0.09537397864585492,0.0071380679880468706
7,3,5,0.04431580170892677,0.008782585641542355
7,4,5,0.09865629930008321,0.0185461443944613
7,5,5,0.06800541116652484,0.022112231671213133
7,6,5,0.05653418103047527,0.012783773176721306
7,7,5,0.09589420659879962,0.007681040388726931
7,8,5,0.10283991478984997,0.021492609757696485
8,0,5,0.09981904338274401,0.014579384761287957
8,1,5,0.07134658280440606,0.013337389091200608
8,2,5,0.0779968394635171,0.01483016038397748
8,3,5,0.09081260049016046,0.013330407556596032
8,4,5,0.10206231342896335,0.008354790614971366
8,5,5,0.1752301052564293,0.018153170244205593
8,6,5,0.05494972407816345,0.013208000330899626
8,7,5,0.14592760212045724,0.00990456932756695
8,8,5,0.10812062426063421,0.0069981749756666
9,0,5,0.05197859044870099,0.011309035679897347
9,1,5,0.08772335685540385,0.014787233955537101
9,2,5,0.08032774592202059,0.010014833565292704
9,3,5,0.05502080212808802,0.007836969277085878
9,4,5,0.10645058419014675,0.012224056111661892
9,5,5,0.07091349809803074,0.010493847412327327
9,6,5,0.05175648479689639,0.0062263024090464395
9,7,5,0.11282448310779503,0.009006037938161003
9,8,5,0.07015017009450819,0.013451947184563743
10,0,5,0.07775123710564276,0.007074170611645558
10,1,5,0.05822559529275488,0.020262713883706134
10,2,5,0.10523580907531027,0.006000388528180152
10,3,5,0.1193007234421621,0.013003753822794614
10,4,5,0.1210094560844129,0.019052576188192855
10,5,5,0.13057556178119548,0.009361039798732974
10,6,5,0.041373682966835454,0.016470388563675324
10,7,5,0.09270989234450375,0.007063434031472168
10,8,5,0.0826303969930889,0.016108431777760463
11,0,5,0.07804471809291733,0.016255671951388162
11,1,5,0.10169582542528326,0.009775487178319376
11,2,5,0.08444569849420983,0.018567437843229877
11,3,5,0.09454551167998053,0.007911962229924402
11,4,5,0.108746394422503,0.008342367737353923
11,5,5,0.128887101155216,0.023219850853881417
11,6,5,0.01839885290649095,0.013277110007756937
11,7,5,0.10312496011104051,0.01616633904328944
11,8,5,0.0909430637154969,0.006871577142586169
12,0,5,0.09798504373881194,0.00978040898185495
12,1,5,0.13118655183412783,0.0145997308596842
12,2,5,0.1598115592633375,0.017121412568507712
12,3,5,0.13548701687098302,0.013695597099888006
12,4,5,0.11749686203317578,0.011863136793302772
12,5,5,0.04294463459057407,0.009402086689820002
12,6,5,0.08236902125468475,0.011027368420025158
12,7,5,0.13159058024277354,0.015652349537657505
12,8,5,0.11333800353923154,0.011958365214957424
13,0,5,0.05819784407606414,0.0067805819953195194
13,1,5,0.04381715707461116,0.007817136894861122
13,2,5,0.07574073845946121,0.011011436157284804
13,3,5,0.061500733616570005,0.00688854637990729
13,4,5,0.10222231555296815,0.0071422603646162704
13,5,5,0.11927896570693204,0.0061194796135764515
13,6,5,0.04001502989644758,0.00584238768370386
13,7,5,0.09282318668810738,0.01866443579030057
13,8,5,0.07038902530701482,0.00940145190734761
14,0,5,0.12056972657074642,0.012308302107748612
14,1,5,0.1295835322622289,0.01375595785925176
14,2,5,0.059623036394988206,0.006255981292062371
14,3,5,0.09481458086951286,0.004258521897319521
14,4,5,0.08895294833090142,0.008906403845732477
14,5,5,0.09061301241681048,0.021057705024636032
14,6,5,0.024320826478154922,0.0024793788824498597
14,7,5,0.1195688974077888,0.017321936837656978
14,8,5,0.0764141388693503,0.01489204565586944
15,0,5,0.10727607371404016,0.011458336410321127
15,1,5,0.08122428624280731,0.0051330808112355075
15,2,5,0.08723252376569032,0.01032947435680799
15,3,5,0.01921544598874676,0.007318599118149512
15,4,5,0.10766364121964996,0.015193741415780152
15,5,5,0.0725950914801619,0.010119864973708047
15,6,5,0.05944457383405921,0.014118532506657549
15,7,5,0.08139436037545063,0.013132377819671772
15,8,5,0.07102813301662188,0.011640128693564084
16,0,5,0.11025360544313745,0.010446329748124724
16,1,5,0.10960610192203753,0.007173086096719426
16,2,5,0.12319736172488963,0.012532002459649777
16,3,5,0.05588520939207311,0.009320615147834749
16,4,5,0.0917821205490051,0.011659195960007043
16,5,5,0.10558288858426926,0.010842931207998386
16,6,5,0.025828460762624107,0.008684034193591131
16,7,5,0.15733441196569617,0.021955200756602473
16,8,5,0.13606548611359856,0.01312515933536382
17,0,5,0.1109263073778181,0.005745389366041473
17,1,5,0.12105797003137002,0.007119342189641597
17,2,5,0.08745220567935415,0.007758154189881883
17,3,5,0.08793096320730179,0.007698840745173835
17,4,5,0.11449568074587377,0.011832884382173088
17,5,5,0.11317628809857272,0.009308584242726776
17,6,5,0.06247836954052273,0.01493806619865518
17,7,5,0.10962934750813144,0.012161288522719473
17,8,5,0.11736990031609831,0.014824434180394369
18,0,5,0.09578646966686374,0.016004819841396963
18,1,5,0.051387886798938465,0.009289082057034255
18,2,5,0.09442240927541132,0.003649130284947682
18,3,5,0.13173379671218832,0.014838772725341148
18,4,5,0.11114647105894497,0.001950945020093678
18,5,5,0.1712414264734236,0.005219040283488757
18,6,5,0.048444566929864694,0.009557197151057571
18,7,5,0.1396098522230118,0.012581127757278862
18,8,5,0.05908289331801284,0.007038969372288869
19,0,5,0.06862054423316362,0.013851799930062414
19,1,5,0.09799779639734126,0.004481480740414775
19,2,5,0.08491421414580717,0.012923798635549079
19,3,5,0.08196868125581273,0.005097045704487089
19,4,5,0.08085104382005179,0.007729862209402517
19,5,5,0.09015407310098693,0.015269937339683896
19,6,5,0.04736878770131277,0.009060772591779712
19,7,5,0.1367250875074202,0.00532337403299533
19,8,5,0.08925128436939714,0.0071937531850745995
20,0,5,0.03952235555297703,0.009460526966742442
20,1,5,0.08430600724335362,0.013237162114694728
20,2,5,0.1064516425638724,0.009135164131553276
20,3,5,0.04291826336495317,0.013474944835898726
20,4,5,0.09147262525191328,0.01622078267562943
20,5,5,0.12477609033523304,0.0132750937503157
20,6,5,0.03099221127545957,0.009675612221725164
20,7,5,0.06997321650815305,0.01671267992886831
20,8,5,0.10631061775575254,0.013640541711178452
21,0,5,0.08660566904449876,0.010011018839969339
21,1,5,0.051951266051451464,0.018662354312446464
21,2,5,0.031369767303342865,0.012432766569486787
21,3,5,0.04501600765655185,0.01803484542121785
21,4,5,0.09572968483180182,0.008633964904983341
21,5,5,0.11943309261245769,0.009047459165724988
21,6,5,0.03374399811349031,0.011194831919988242
21,7,5,0.07295219716778949,0.011190496088627322
21,8,5,0.09079408919901275,0.013708801301705015
22,0,5,0.07211249638959379,0.011915402299249875
22,1,5,0.03148437153223908,0.0032289050518456083
22,2,5,0.03768425769834609,0.017771176433919712
22,3,5,0.06491506872374578,0.011026929381167484
22,4,5,0.11118573876692044,0.008153235906513186
22,5,5,0.10705226244635584,0.007545276234542375
22,6,5,0.019289399160468547,0.010981967470557335
22,7,5,0.12753655820356438,0.009914939299323402
22,8,5,0.1031747297873018,0.006986864361716448
23,0,5,0.14394813696827843,0.012067904696764456
23,1,5,0.11268275859465912,0.0118113472533798
23,2,5,0.08571518942241411,0.009911062668457662
23,3,5,0.039067150651175477,0.013360521860462864
23,4,5,0.12481235224336348,0.011428250902334333
23,5,5,0.1405663939624802,0.010864266863618719
23,6,5,0.07371441371443702,0.006156340124023773
23,7,5,0.11615562487743598,0.017319122691221635
23,8,5,0.0995860225282524,0.007873546760613448
24,0,5,0.09304249729723642,0.019559819132941834
24,1,5,0.054710673648887334,0.013556725309600025
24,2,5,0.13956537379274236,0.023192012557927976
24,3,5,0.07722936630667318,0.01104744564576726
24,4,5,0.10244603346724153,0.01621631679697069
24,5,5,0.12291089920174154,0.017167877592669
24,6,5,0.052622854402429954,0.0030437558076421415
24,7,5,0.12527358393674304,0.009322541339002009
24,8,5,0.111921732129702,0.010644780651573678
25,0,5,0.09731152041325504,0.01345247179401384
25,1,5,0.09314022752053072,0.003950730738352109
25,2,5,0.11370103860059691,0.008719686649879163
25,3,5,0.06590626245451936,0.010753912115511802
25,4,5,0.16196158516838466,0.014021572623081591
25,5,5,0.06288445816070995,0.013588685056410898
25,6,5,0.026635964221749985,0.011248404466900733
25,7,5,0.10244572437598717,0.009680720330359894
25,8,5,0.09544593257606653,0.004386168340923674
26,0,5,0.04844860720645008,0.011340593058934994
26,1,5,0.06897018361409697,0.006589046649489867
26,2,5,0.10362736643281215,0.006750175977352952
26,3,5,0.06086988766287353,0.005976700051373998
26,4,5,0.09903903117567552,0.013323598238415007
26,5,5,0.1030038277344421,0.008954412219641583
26,6,5,0.03134623635674725,0.007123854724285679
26,7,5,0.14104120223072314,0.018987446288367682
26,8,5,0.09622715475791388,0.010930118817452508
27,0,5,0.07608834990539255,0.009394783089975723
27,1,5,0.04916898805989538,0.013060479081483261
27,2,5,0.07679878957167226,0.006847125892138591
27,3,5,0.08426560115622195,0.009107563479481162
27,4,5,0.11683719174445902,0.014014528731772532
27,5,5,0.16745636584506643,0.0119933954395502
27,6,5,0.020800222409817427,0.011868862997864776
27,7,5,0.08890394382575943,0.007344950846732105
27,8,5,0.03275535534377383,0.012451611764023242
28,0,5,0.06971604373731603,0.0110822308317444
28,1,5,0.05647348957676519,0.011011845796398715
28,2,5,0.059782500739857046,0.009058006831531722
28,3,5,0.09983743974505144,0.011242107797052165
28,4,5,0.1396530061235298,0.017115998271447528
28,5,5,0.23005672001192773,0.009647500418896327
28,6,5,0.041145014239501586,0.012765480335873833
28,7,5,0.09268338816591473,0.009526817833450192
28,8,5,0.12434044194864366,0.012471285575356794
29,0,5,0.09478780942344427,0.01416004264634504
29,1,5,0.05249775613171541,0.018964561826278585
29,2,5,0.04257723519199428,0.006942061131134145
29,3,5,0.03703089452963395,0.006747136203429921
29,4,5,0.10777921426747916,0.0056724002363857835
29,5,5,0.14171041941165333,0.009800594057179514
29,6,5,0.04871736643291076,0.008727279276776738
29,7,5,0.1274229905918189,0.009304484808677533
29,8,5,0.1349866125284438,0.00620327024451847
30,0,5,0.05304145833487217,0.01858784546914271
30,1,5,0.06581445607599683,0.014945608096018897
30,2,5,0.06975478273462994,0.022189032246808998
30,3,5,0.0477268692461507,0.010889244506984181
30,4,5,0.07824198232131643,0.007670531919186442
30,5,5,0.12979710621353857,0.00994631116530025
30,6,5,0.05096485145301479,0.010655419786497705
30,7,5,0.15421802425983386,0.009149375029414434
30,8,5,0.10301882460187821,0.02519498326442128
31,0,5,0.05927135315174026,0.015995384441741298
31,1,5,0.08790560858620781,0.009548368838266695
31,2,5,0.07513311866853074,0.004345322029598223
31,3,5,0.07539029918205509,0.011944314495580663
31,4,5,0.13677489970333467,0.010105424721435783
31,5,5,0.1142734925694211,0.016099959486573535
31,6,5,0.042337373156112926,0.010417143179583107
31,7,5,0.0910436279642125,0.021524478569364364
31,8,5,0.14578645469302057,0.018596064983956835
32,0,5,0.09167278478900702,0.012620738397874918
32,1,5,0.06811876773750754,0.007716422250471276
32,2,5,0.10939789864042278,0.015144964137987561
32,3,5,0.029556572281171388,0.009382916230985907
32,4,5,0.1861136152501585,0.01701451284994733
32,5,5,0.12161783382903044,0.006758991117269988
32,6,5,0.053403932092546305,0.011603061190300606
32,7,5,0.11040730228998194,0.019827428807603947
32,8,5,0.06982730435407052,0.010409531489140497
33,0,5,0.11530628261765005,0.014445160075831595
33,1,5,0.08271559087068876,0.016475734316667302
33,2,5,0.06190503902693052,0.005119228071797784
33,3,5,0.042625370087959566,0.007860039333851765
33,4,5,0.08042282977293627,0.016513375360757674
33,5,5,0.12110628117986841,0.011011618444254254
33,6,5,0.07930147780354742,0.011442410924642429
33,7,5,0.07763000843914976,0.014709783180175465
33,8,5,0.09597648510258638,0.01650838902215167
34,0,5,0.1211146114891305,0.009570277752911319
34,1,5,0.0858416045269151,0.01674288914333654
34,2,5,0.051686895295550525,0.01550227991437804
34,3,5,0.061622788518434723,0.006866905846413264
34,4,5,0.12743658083791493,0.01625536049584054
34,5,5,0.11199575716018177,0.007143002995669162
34,6,5,0.043618469316399434,0.010828416427488824
34,7,5,0.13579324722376945,0.014010983497042554
34,8,5,0.08168091415298984,0.009789489538806992
35,0,5,0.06454885376934874,0.006178817742684206
35,1,5,0.029018440849885963,0.008615347323548492
35,2,5,0.0575048249339533,0.006524124323853438
35,3,5,0.03228771084377487,0.014597129859370665
35,4,5,0.04830966165673032,0.005779823996919403
35,5,5,0.12243910558275073,0.00517929474822455
35,6,5,0.014170799217998131,0.010469384978106922
35,7,5,0.07668536544423069,0.007293286278698541
35,8,5,0.04771268911458104,0.006454179181805919
36,0,5,0.00749945235127627,0.00865928762489899
36,1,5,0.034273028311133616,0.006590263330007385
36,2,5,0.0032185811735139236,0.008670602276315598
36,3,5,0.05060046826018607,0.010067385446664844
36,4,5,0.10838907009729841,0.006794403678445945
36,5,5,0.08968871631239302,0.018430488138039793
36,6,5,0.02070323270794523,0.007388892228787826
36,7,5,0.09422468744396388,0.00468503788348819
36,8,5,0.04922429549338012,0.006123143094926595
37,0,5,0.04508484260645442,0.012102134605132191
37,1,5,0.04997036083578301,0.022662714921906104
37,2,5,0.09515207690057462,0.0073481267727738475
37,3,5,0.031197053248395213,0.010287586214745133
37,4,5,0.1265124659225659,0.010917315914366192
37,5,5,0.13286358179209382,0.008570789872033534
37,6,5,0.044310751936378234,0.009952492871751933
37,7,5,0.10514978318723181,0.010633127734864804
37,8,5,0.05154784610966869,0.012740101670234948
38,0,5,0.09126080656925972,0.019383887572704078
38,1,5,0.061379605812303416,0.02007513197977168
38,2,5,0.07066400688921223,0.016718893957704067
38,3,5,0.07302278129396647,0.003062599617013504
38,4,5,0.10519419409721242,0.011501372266079776
38,5,5,0.10446637568021706,0.016186679253725238
38,6,5,0.07577827560849773,0.007065935325854396
38,7,5,0.09508261490938522,0.008587293492157831
38,8,5,0.05585090707732534,0.009176615988692282
39,0,5,0.05825120773840362,0.012718066445981993
39,1,5,0.05498725503139403,0.019203125993639474
39,2,5,0.07329658409567008,0.013657251532030531
39,3,5,0.08549836091040383,0.01861331971980114
39,4,5,0.10074619442359427,0.011532301537182073
39,5,5,0.2250004131080466,0.017251425612607774
39,6,5,0.0364157794289854,0.007545398110759364
39,7,5,0.12518252778193759,0.011439644847959146
39,8,5,0.03200321303983859,0.011415806651936047
40,0,5,0.10412778833502043,0.006438320628280923
40,1,5,0.09296149835585585,0.009906838337515525
40,2,5,0.021912216929625174,0.017103478429602043
40,3,5,0.0256770402274072,0.008859641174776858
40,4,5,0.10440355238152481,0.021652587808929726
40,5,5,0.14791790849223888,0.015797548801826943
40,6,5,0.08634074423448301,0.007415459298819979
40,7,5,0.1163308731631656,0.007633798144884049
40,8,5,0.05913570929378318,0.013780897270245937
