subject,channel,alpha,f1,drop_pp
1,0,1.0,0.576212319352363,0.0
1,0,0.75,0.5787412192223254,-0.2528899869962409
1,0,0.5,0.558647987872336,1.7564331480026896
1,0,0.25,0.5500310983939548,2.6181220958408136
1,0,0.0,0.5258309326290221,5.03813867233408
1,1,1.0,0.576212319352363,0.0
1,1,0.75,0.5689688876986124,0.7243431653750521
1,1,0.5,0.5380646924112811,3.814762694108187
1,1,0.25,0.5302089192378906,4.600340011447235
1,1,0.0,0.492138876423871,8.407344292849196
1,2,1.0,0.576212319352363,0.0
1,2,0.75,0.5709891062468214,0.5223213105541524
1,2,0.5,0.5412302987713594,3.4982020581003526
1,2,0.25,0.4828860614698643,9.332625788249866
1,2,0.0,0.41948384104594216,15.672847830642079
1,3,1.0,0.576212319352363,0.0
1,3,0.75,0.5733766506927477,0.28356686596152647
1,3,0.5,0.5483767584568144,2.7835560895548506
1,3,0.25,0.5428220282716532,3.339029108070979
1,3,0.0,0.5063736931527443,6.983862619961867
1,4,1.0,0.576212319352363,0.0
1,4,0.75,0.5726744809623294,0.3537838390033521
1,4,0.5,0.5535683102041131,2.264400914824982
1,4,0.25,0.5309876893133713,4.522463003899169
1,4,0.0,0.48206632674976996,9.4145992602593
1,5,1.0,0.576212319352363,0.0
1,5,0.75,0.5534358618258484,2.277645752651458
1,5,0.5,0.5366859307452896,3.952638860707336
1,5,0.25,0.46895485625918,10.725746309318296
1,5,0.0,0.41431876268839407,16.18935566639689
1,6,1.0,0.576212319352363,0.0
1,6,0.75,0.5887458846493646,-1.253356529700167
1,6,0.5,0.5963590473938181,-2.014672804145512
1,6,0.25,0.5902993672513381,-1.4087047898975191
1,6,0.0,0.5852914779496431,-0.9079158597280146
1,7,1.0,0.576212319352363,0.0
1,7,0.75,0.5748462750173498,0.13660443350131946
1,7,0.5,0.5658036569388881,1.0408662413474823
1,7,0.25,0.5380212631576338,3.819105619472918
1,7,0.0,0.5095195790926341,6.669274025972882
1,8,1.0,0.576212319352363,0.0
1,8,0.75,0.5637953076558238,1.2417011696539193
1,8,0.5,0.536345123893762,3.9867195458600957
1,8,0.25,0.49888179184768433,7.733052750467861
1,8,0.0,0.4580663194026996,11.814599994966335
2,0,1.0,0.7951095356555473,0.0
2,0,0.75,0.7839893840941365,1.1120151561410774
2,0,0.5,0.788970184705927,0.613935094962037
2,0,0.25,0.7653245393553938,2.978499630015352
2,0,0.0,0.7153187101802538,7.979082547529348
2,1,1.0,0.7951095356555473,0.0
2,1,0.75,0.7427803258886121,5.2329209766935225
2,1,0.5,0.7321692439844981,6.29402916710492
2,1,0.25,0.6803738535097021,11.473568214584517
2,1,0.0,0.67338762132042,12.172191433512737
2,2,1.0,0.7951095356555473,0.0
2,2,0.75,0.7994694079879489,-0.43598723324015376
2,2,0.5,0.7806870331522671,1.4422502503280255
2,2,0.25,0.7168195158656101,7.8290019789937215
2,2,0.0,0.6176470307849398,17.746250487060756
2,3,1.0,0.7951095356555473,0.0
2,3,0.75,0.7955543151698332,-0.04447795142858979
2,3,0.5,0.781466926413991,1.3642609241556358
2,3,0.25,0.7675750597905125,2.753447586503477
2,3,0.0,0.7135978192148242,8.151171644072308
2,4,1.0,0.7951095356555473,0.0
2,4,0.75,0.8010525628815777,-0.5943027226030351
2,4,0.5,0.7741532121303113,2.095632352523602
2,4,0.25,0.7510269064020464,4.408262925350092
2,4,0.0,0.7290419221117219,6.60676135438254
2,5,1.0,0.7951095356555473,0.0
2,5,0.75,0.8073322448087698,-1.2222709153222433
2,5,0.5,0.7693779892097328,2.5731546445814546
2,5,0.25,0.7658632273923022,2.9246308263245147
2,5,0.0,0.7420842967656694,5.302523888987787
2,6,1.0,0.7951095356555473,0.0
2,6,0.75,0.79291711765818,0.21924179973673574
2,6,0.5,0.7696388613194522,2.5470674336095067
2,6,0.25,0.7516637684719264,4.344576718362092
2,6,0.0,0.7288875957374694,6.62219399180779
2,7,1.0,0.7951095356555473,0.0
2,7,0.75,0.7797883594295307,1.5321176226016586
2,7,0.5,0.7434984744764322,5.1611061179115065
2,7,0.25,0.6589296230167083,13.6179912638839
2,7,0.0,0.6125078755748716,18.260166008067568
2,8,1.0,0.7951095356555473,0.0
2,8,0.75,0.7964600937894056,-0.1350558133858315
2,8,0.5,0.7853830709811516,0.9726464674395752
2,8,0.25,0.7728525729672056,2.2256962688341764
2,8,0.0,0.7464744539382347,4.863508171731256
3,0,1.0,0.8770903352171363,0.0
3,0,0.75,0.8580813770148759,1.900895820226045
3,0,0.5,0.8395007039547397,3.758963126239656
3,0,0.25,0.6937637676621097,18.33265675550266
3,0,0.0,0.643889689116666,23.32006461004703
3,1,1.0,0.8770903352171363,0.0
3,1,0.75,0.860612399348454,1.6477935868682292
3,1,0.5,0.8389727732948876,3.811756192224869
3,1,0.25,0.8074791189798203,6.961121623731604
3,1,0.0,0.7367595947125507,14.033074050458561
3,2,1.0,0.8770903352171363,0.0
3,2,0.75,0.8617065807704617,1.5383754446674613
3,2,0.5,0.8438751398692509,3.321519534788542
3,2,0.25,0.8428225392515178,3.4267795965618464
3,2,0.0,0.8270131603846843,5.0077174832452
3,3,1.0,0.8770903352171363,0.0
3,3,0.75,0.7996246284304322,7.746570678670405
3,3,0.5,0.657088522455498,22.000181276163833
3,3,0.25,0.5993386781454431,27.775165707169325
3,3,0.0,0.5435761294449744,33.351420577216196
3,4,1.0,0.8770903352171363,0.0
3,4,0.75,0.8706311694918105,0.6459165725325788
3,4,0.5,0.8458718986289171,3.121843658821921
3,4,0.25,0.7995649708777898,7.752536433934654
3,4,0.0,0.7525088558418407,12.458147937529562
3,5,1.0,0.8770903352171363,0.0
3,5,0.75,0.8563818964028916,2.0708438814244667
3,5,0.5,0.8278981073432853,4.919222787385102
3,5,0.25,0.7692612835544517,10.782905166268463
3,5,0.0,0.6800557253078412,19.70346099092951
3,6,1.0,0.8770903352171363,0.0
3,6,0.75,0.8754711774682081,0.16191577489281794
3,6,0.5,0.8729402423931065,0.4150092824029783
3,6,0.25,0.8534853687568924,2.3604966460243904
3,6,0.0,0.8302651501327658,4.682518508437051
3,7,1.0,0.8770903352171363,0.0
3,7,0.75,0.8562275113020673,2.0862823915068995
3,7,0.5,0.8150674568794487,6.202287833768761
3,7,0.25,0.7555365356610118,12.155379955612455
3,7,0.0,0.6937124620328299,18.337787318430642
3,8,1.0,0.8770903352171363,0.0
3,8,0.75,0.8811671251371824,-0.407678992004612
3,8,0.5,0.8714764746267554,0.5613860590380937
3,8,0.25,0.8342851959361393,4.280513928099705
3,8,0.0,0.7575962031072152,11.94941321099211
4,0,1.0,0.7949977445767492,0.0
4,0,0.75,0.7580468829930976,3.6950861583651573
4,0,0.5,0.7619248775142722,3.307286706247703
4,0,0.25,0.725328947368421,6.96687972083282
4,0,0.0,0.6949438626076918,10.00538819690574
4,1,1.0,0.7949977445767492,0.0
4,1,0.75,0.7802511301034923,1.474661447325687
4,1,0.5,0.769910758847078,2.5086985729671163
4,1,0.25,0.7397142323712782,5.528351220547101
4,1,0.0,0.6763160826441186,11.868166193263063
4,2,1.0,0.7949977445767492,0.0
4,2,0.75,0.789834390787901,0.5163353788848246
4,2,0.5,0.773924961732981,2.1072782843768234
4,2,0.25,0.7552152964801491,3.9782448096600143
4,2,0.0,0.7259488199565889,6.904892462016033
4,3,1.0,0.7949977445767492,0.0
4,3,0.75,0.785058790670533,0.9938953906216241
4,3,0.5,0.7625190058201025,3.2478738756646752
4,3,0.25,0.7288551895503657,6.614255502638356
4,3,0.0,0.7215729381536568,7.342480642309246
4,4,1.0,0.7949977445767492,0.0
4,4,0.75,0.7604973151457262,3.450042943102305
4,4,0.5,0.7531736331081903,4.182411146855891
4,4,0.25,0.7204225584787551,7.457518609799408
4,4,0.0,0.6985330405110257,9.64647040657235
4,5,1.0,0.7949977445767492,0.0
4,5,0.75,0.7992627695479902,-0.4265024971241038
4,5,0.5,0.7943044922481098,0.0693252328639371
4,5,0.25,0.7521086203754328,4.288912420131641
4,5,0.0,0.7171608007245545,7.783694385219475
4,6,1.0,0.7949977445767492,0.0
4,6,0.75,0.798814152314935,-0.3816407738185812
4,6,0.5,0.7870952211322497,0.7902523444499487
4,6,0.25,0.7621197420394519,3.2878002537297335
4,6,0.0,0.7462043554241089,4.8793389152640305
4,7,1.0,0.7949977445767492,0.0
4,7,0.75,0.7982807906227883,-0.32830460460391286
4,7,0.5,0.7458318200574483,4.916592451930091
4,7,0.25,0.7093282475599219,8.566949701682736
4,7,0.0,0.6833002914781554,11.16974530985938
4,8,1.0,0.7949977445767492,0.0
4,8,0.75,0.7750136639922355,1.998408058451373
4,8,0.5,0.7627182763673048,3.2279468209444384
4,8,0.25,0.7477513178968996,4.724642667984957
4,8,0.0,0.692856444876262,10.214129970048724
5,0,1.0,0.5524977491551536,0.0
5,0,0.75,0.5386750836132895,1.3822665541864065
5,0,0.5,0.5484821394577062,0.40156096974474087
5,0,0.25,0.560356131823276,-0.7858382668122443
5,0,0.0,0.5473219719217222,0.5175777233431433
5,1,1.0,0.5524977491551536,0.0
5,1,0.75,0.5420620436565982,1.0435705498555436
5,1,0.5,0.5406916755676167,1.1806073587536936
5,1,0.25,0.5324129221145432,2.008482704061043
5,1,0.0,0.5083123254383788,4.41854237167748
5,2,1.0,0.5524977491551536,0.0
5,2,0.75,0.5449490151703569,0.7548733984796718
5,2,0.5,0.5449240856587731,0.7573663496380445
5,2,0.25,0.5275403622919392,2.495738686321436
5,2,0.0,0.4957739105211837,5.67238386339699
5,3,1.0,0.5524977491551536,0.0
5,3,0.75,0.5635685835685076,-1.1070834413353992
5,3,0.5,0.5870472993818271,-3.4549550226673498
5,3,0.25,0.5940711189678023,-4.157336981264869
5,3,0.0,0.5715486433554002,-1.9050894200246637
5,4,1.0,0.5524977491551536,0.0
5,4,0.75,0.5371343761539981,1.5363373001155534
5,4,0.5,0.5356521239474289,1.6845625207724702
5,4,0.25,0.5381185894972488,1.4379159657904816
5,4,0.0,0.5257723148508364,2.6725434304317175
5,5,1.0,0.5524977491551536,0.0
5,5,0.75,0.5411412534456893,1.1356495709464287
5,5,0.5,0.5155000200425116,3.6997729112641986
5,5,0.25,0.48452948214392044,6.796826701123315
5,5,0.0,0.47135954319079243,8.113820596436117
5,6,1.0,0.5524977491551536,0.0
5,6,0.75,0.5506870029351666,0.18107462199870028
5,6,0.5,0.5561046918123735,-0.3606942657219947
5,6,0.25,0.5654392316303254,-1.2941482475171795
5,6,0.0,0.5688976348396638,-1.639988568451023
5,7,1.0,0.5524977491551536,0.0
5,7,0.75,0.568657546908956,-1.6159797753802385
5,7,0.5,0.5466692518298435,0.58284973253101
5,7,0.25,0.513280757870756,3.9216991284397595
5,7,0.0,0.5016077568053969,5.088999234975667
5,8,1.0,0.5524977491551536,0.0
5,8,0.75,0.5468274622409176,0.5670286914235989
5,8,0.5,0.5296684549403923,2.282929421476132
5,8,0.25,0.4959965249784525,5.6501224176701115
5,8,0.0,0.4642266460637696,8.827110309138398
6,0,1.0,0.6755765017739466,0.0
6,0,0.75,0.6765089788174662,-0.09324770435196195
6,0,0.5,0.6627552030565848,1.2821298717361818
6,0,0.25,0.6386087586737079,3.696774310023865
6,0,0.0,0.5836324556774347,9.194404609651185
6,1,1.0,0.6755765017739466,0.0
6,1,0.75,0.6550307728725293,2.054572890141726
6,1,0.5,0.6649878173709862,1.0588684402960347
6,1,0.25,0.6252516074462647,5.032489432768184
6,1,0.0,0.5852501632457965,9.032633852815009
6,2,1.0,0.6755765017739466,0.0
6,2,0.75,0.6813691445310037,-0.5792642757057154
6,2,0.5,0.667407548617446,0.8168953156500569
6,2,0.25,0.6148031808886979,6.077332088524868
6,2,0.0,0.5256907439307102,14.988575784323633
6,3,1.0,0.6755765017739466,0.0
6,3,0.75,0.6841665202631146,-0.8590018489168072
6,3,0.5,0.6865313253305428,-1.0954823556596271
6,3,0.25,0.593079576487004,8.249692528694252
6,3,0.0,0.5650614277550429,11.05150740189037
6,4,1.0,0.6755765017739466,0.0
6,4,0.75,0.6708053499227582,0.4771151851188371
6,4,0.5,0.6484958326387307,2.7080669135215896
6,4,0.25,0.6116617035700881,6.3914798203858485
6,4,0.0,0.5856089520779302,8.99675496960164
6,5,1.0,0.6755765017739466,0.0
6,5,0.75,0.6688750114166768,0.6701490357269746
6,5,0.5,0.6560622409153105,1.9514260858636057
6,5,0.25,0.5526242987241001,12.295220304984644
6,5,0.0,0.4000163762311185,27.556012554282805
6,6,1.0,0.6755765017739466,0.0
6,6,0.75,0.6860650319703492,-1.0488530196402612
6,6,0.5,0.6827810117879124,-0.7204510013965826
6,6,0.25,0.6576098304987046,1.7966671275241985
6,6,0.0,0.625488135202767,5.008836657117954
6,7,1.0,0.6755765017739466,0.0
6,7,0.75,0.6571968215627635,1.837968021118308
6,7,0.5,0.6346731160281446,4.0903385745801994
6,7,0.25,0.555336271535303,12.02402302386436
6,7,0.0,0.47721414916909227,19.83623526048543
6,8,1.0,0.6755765017739466,0.0
6,8,0.75,0.6693130736348492,0.6263428139097416
6,8,0.5,0.6579789013050399,1.7597600468906682
6,8,0.25,0.6375528884159096,3.8023613358036945
6,8,0.0,0.5844789014453237,9.10976003286229
7,0,1.0,0.7410860177404295,0.0
7,0,0.75,0.7369416178904824,0.4144399849947078
7,0,0.5,0.6104304684966719,13.065554924375755
7,0,0.25,0.5761776223340405,16.490839540638902
7,0,0.0,0.5538215670349382,18.726445070549126
7,1,1.0,0.7410860177404295,0.0
7,1,0.75,0.7177336045169508,2.3352413223478696
7,1,0.5,0.6761894387058933,6.489657903453616
7,1,0.25,0.6381568724118648,10.292914532856468
7,1,0.0,0.5863593503136783,15.472666742675123
7,2,1.0,0.7410860177404295,0.0
7,2,0.75,0.7600517193161278,-1.8965701575698324
7,2,0.5,0.7475532092449437,-0.6467191504514247
7,2,0.25,0.6951741922962371,4.591182544419237
7,2,0.0,0.6429171144796415,9.816890326078799
7,3,1.0,0.7410860177404295,0.0
7,3,0.75,0.741166664830787,-0.008064709035748852
7,3,0.5,0.6070503171981664,13.40357005422631
7,3,0.25,0.5590867695019829,18.19992482384466
7,3,0.0,0.5545305432342804,18.655547450614907
7,4,1.0,0.7410860177404295,0.0
7,4,0.75,0.7397670294729118,0.131898826751764
7,4,0.5,0.712796285906208,2.8289731834221454
7,4,0.25,0.6906238110941705,5.0462206646259
7,4,0.0,0.6692471898959986,7.183882784443085
7,5,1.0,0.7410860177404295,0.0
7,5,0.75,0.7753314862276284,-3.4245468487198893
7,5,0.5,0.7619554756157209,-2.0869457875291375
7,5,0.25,0.7245578393663918,1.6528178374037639
7,5,0.0,0.6219527940282573,11.913322371217216
7,6,1.0,0.7410860177404295,0.0
7,6,0.75,0.7343967680224004,0.6689249718029089
7,6,0.5,0.7305133611135248,1.0572656626904653
7,6,0.25,0.7225591794217153,1.8526838318714156
7,6,0.0,0.7057582121282829,3.5327805612146546
7,7,1.0,0.7410860177404295,0.0
7,7,0.75,0.7382358977713209,0.28501199691085555
7,7,0.5,0.7219377946830946,1.9148223057334879
7,7,0.25,0.5952289495042988,14.585706823613066
7,7,0.0,0.5566096659247461,18.447635181568334
7,8,1.0,0.7410860177404295,0.0
7,8,0.75,0.7316346801346801,0.9451337605749344
7,8,0.5,0.7038521316264945,3.7233886113934966
7,8,0.25,0.6618721561417898,7.921386159863964
7,8,0.0,0.6287234090674312,11.23626086729983
8,0,1.0,0.7509932786076748,0.0
8,0,0.75,0.7826644663112573,-3.167118770358246
8,0,0.5,0.7686178406344872,-1.7624562026812396
8,0,0.25,0.7333351379062839,1.7658140701390934
8,0,0.0,0.5950255541315448,15.596772447613006
8,1,1.0,0.7509932786076748,0.0
8,1,0.75,0.7615063613144628,-1.0513082706787968
8,1,0.5,0.7860769853572688,-3.5083706749593935
8,1,0.25,0.7541681682318275,-0.3174889624152688
8,1,0.0,0.7239837915949824,2.7009487012692457
8,2,1.0,0.7509932786076748,0.0
8,2,0.75,0.778892718771901,-2.7899440164226186
8,2,0.5,0.7859434055354804,-3.4950126927805525
8,2,0.25,0.8009959731953313,-5.000269458765649
8,2,0.0,0.779285883632705,-2.829260502503017
8,3,1.0,0.7509932786076748,0.0
8,3,0.75,0.7579204671479982,-0.692718854032337
8,3,0.5,0.7531207487620395,-0.21274701543646524
8,3,0.25,0.727562319789441,2.343095881823387
8,3,0.0,0.6803328793469903,7.066039926068457
8,4,1.0,0.7509932786076748,0.0
8,4,0.75,0.7292667453992802,2.1726533208394683
8,4,0.5,0.711412866770867,3.9580411836807827
8,4,0.25,0.6742940199335549,7.6699258674119974
8,4,0.0,0.6655230408732048,8.547023773447005
8,5,1.0,0.7509932786076748,0.0
8,5,0.75,0.740235383988413,1.0757894619261799
8,5,0.5,0.7050708257821866,4.592245282548824
8,5,0.25,0.6641248905518553,8.686838805581953
8,5,0.0,0.6465506904379574,10.444258816971741
8,6,1.0,0.7509932786076748,0.0
8,6,0.75,0.7766032623707999,-2.5609983763125066
8,6,0.5,0.7492362351000224,0.17570435076524893
8,6,0.25,0.7521568006894921,-0.11635220818172476
8,6,0.0,0.7517521983955657,-0.07589197878908882
8,7,1.0,0.7509932786076748,0.0
8,7,0.75,0.7687329945784052,-1.7739715970730319
8,7,0.5,0.751778569842461,-0.07852912347862118
8,7,0.25,0.7133637214549352,3.7629557152739634
8,7,0.0,0.6663575736128853,8.463570499478957
8,8,1.0,0.7509932786076748,0.0
8,8,0.75,0.7300898672278258,2.090341137984908
8,8,0.5,0.7091605633501344,4.18327152575404
8,8,0.25,0.6767525591846454,7.4240719423029455
8,8,0.0,0.6349962297677574,11.599704883991746
9,0,1.0,0.8026550098450649,0.0
9,0,0.75,0.7957024781549921,0.6952531690072816
9,0,0.5,0.760012672143122,4.264233770194292
9,0,0.25,0.7284946628461209,7.416034699894403
9,0,0.0,0.7375070588323932,6.514795101267168
9,1,1.0,0.8026550098450649,0.0
9,1,0.75,0.780193225969678,2.2461783875386887
9,1,0.5,0.7761066522600006,2.654835758506424
9,1,0.25,0.7340131887108243,6.8641821134240555
9,1,0.0,0.6916364086919129,11.101860115315198
9,2,1.0,0.8026550098450649,0.0
9,2,0.75,0.7941205746283513,0.8534435216713598
9,2,0.5,0.7764166873387037,2.6238322506361156
9,2,0.25,0.7470553965191074,5.559961332595753
9,2,0.0,0.7171603735681504,8.549463627691445
9,3,1.0,0.8026550098450649,0.0
9,3,0.75,0.8014240100209282,0.12309998241366582
9,3,0.5,0.7821730384139456,2.0481971431119295
9,3,0.25,0.7521727734896889,5.048223635537596
9,3,0.0,0.7289827737960518,7.367223604901307
9,4,1.0,0.8026550098450649,0.0
9,4,0.75,0.789184842451393,1.3470167393671906
9,4,0.5,0.7712001576532157,3.145485219184918
9,4,0.25,0.7404574117756493,6.2197598069415605
9,4,0.0,0.6580059727240178,14.464903712104704
9,5,1.0,0.8026550098450649,0.0
9,5,0.75,0.7892224801553548,1.3432529689710093
9,5,0.5,0.7795204783913586,2.3134531453706253
9,5,0.25,0.7650391726209917,3.7615837224073134
9,5,0.0,0.7189937419681507,8.36612678769142
9,6,1.0,0.8026550098450649,0.0
9,6,0.75,0.7941992934686111,0.8455716376453815
9,6,0.5,0.7823940852497622,2.026092459530271
9,6,0.25,0.7698759014317449,3.277910841331999
9,6,0.0,0.75142763892846,5.12273709166049
9,7,1.0,0.8026550098450649,0.0
9,7,0.75,0.7943626353116835,0.8292374533381386
9,7,0.5,0.7832018147993622,1.9453195045702643
9,7,0.25,0.7470162803794758,5.563872946558912
9,7,0.0,0.6955066101527132,10.714839969235168
9,8,1.0,0.8026550098450649,0.0
9,8,0.75,0.8019534835985579,0.07015262465069894
9,8,0.5,0.7699169239628216,3.273808588224325
9,8,0.25,0.7369906848864859,6.5664324958578995
9,8,0.0,0.6556403611561668,14.701464868889813
10,0,1.0,0.7400820104052559,0.0
10,0,0.75,0.7243650503454425,1.5716960059813379
10,0,0.5,0.709639013454687,3.0442996950568846
10,0,0.25,0.6491937410415671,9.088826936368877
10,0,0.0,0.5522209869846082,18.78610234206477
10,1,1.0,0.7400820104052559,0.0
10,1,0.75,0.749708790006918,-0.9626779601662139
10,1,0.5,0.7215514226659682,1.853058773928773
10,1,0.25,0.6786224748567057,6.145953554855021
10,1,0.0,0.6357891281736491,10.429288223160682
10,2,1.0,0.7400820104052559,0.0
10,2,0.75,0.7307597000057494,0.9322310399506484
10,2,0.5,0.7132359665063,2.684604389895595
10,2,0.25,0.6879902435872586,5.2091766817997325
10,2,0.0,0.6569856772182942,8.309633318696175
10,3,1.0,0.7400820104052559,0.0
10,3,0.75,0.7258921913306384,1.4189819074617471
10,3,0.5,0.7046539340986161,3.54280763066398
10,3,0.25,0.6759999963941354,6.408201401112046
10,3,0.0,0.5790514974956966,16.10305129095593
10,4,1.0,0.7400820104052559,0.0
10,4,0.75,0.741545768431442,-0.1463758026186146
10,4,0.5,0.7141062512266576,2.597575917859829
10,4,0.25,0.7116872608263454,2.8394749578910528
10,4,0.0,0.6919679896052663,4.811402079998961
10,5,1.0,0.7400820104052559,0.0
10,5,0.75,0.7229412065261374,1.7140803879118538
10,5,0.5,0.6638391952716928,7.624281513356312
10,5,0.25,0.6515858315961096,8.849617880914629
10,5,0.0,0.6566268398742573,8.34551705309986
10,6,1.0,0.7400820104052559,0.0
10,6,0.75,0.7354986022749181,0.45834081303377516
10,6,0.5,0.7328479339013046,0.7234076503951248
10,6,0.25,0.7179960618838187,2.2085948521437193
10,6,0.0,0.6943263916090002,4.5755618796255675
10,7,1.0,0.7400820104052559,0.0
10,7,0.75,0.7257800982136402,1.4301912191615695
10,7,0.5,0.6723010653290026,6.778094507625331
10,7,0.25,0.6058141265970413,13.426788380821463
10,7,0.0,0.5229909536742726,21.70910567309833
10,8,1.0,0.7400820104052559,0.0
10,8,0.75,0.7196759256278482,2.0406084777407685
10,8,0.5,0.6968289756103596,4.325303479489628
10,8,0.25,0.6617687685839717,7.8313241821284185
10,8,0.0,0.6363254179608594,10.37565924443965
11,0,1.0,0.8787952278502184,0.0
11,0,0.75,0.8456825228065553,3.3112705043663038
11,0,0.5,0.814776416863038,6.401881098718032
11,0,0.25,0.769151678181,10.96435496692183
11,0,0.0,0.7613967358577503,11.73984919924681
11,1,1.0,0.8787952278502184,0.0
11,1,0.75,0.8689163578003304,0.9878870049887967
11,1,0.5,0.8321299665279986,4.666526132221971
11,1,0.25,0.7981073741925261,8.068785365769227
11,1,0.0,0.7363827534196651,14.241247443055327
11,2,1.0,0.8787952278502184,0.0
11,2,0.75,0.8712532562116797,0.7541971638538647
11,2,0.5,0.8502551869754029,2.854004087481543
11,2,0.25,0.8339448463122544,4.485038153796395
11,2,0.0,0.8090392567772012,6.975597107301712
11,3,1.0,0.8787952278502184,0.0
11,3,0.75,0.876055701610253,0.27395262399653175
11,3,0.5,0.8513132127046313,2.7482015145587013
11,3,0.25,0.8077874429273031,7.100778492291527
11,3,0.0,0.7260590944862654,15.273613336395297
11,4,1.0,0.8787952278502184,0.0
11,4,0.75,0.8782493216631901,0.054590618702821114
11,4,0.5,0.8578428729479541,2.0952354902264214
11,4,0.25,0.8401151664427526,3.8680061407465716
11,4,0.0,0.755835843373494,12.29593844767244
11,5,1.0,0.8787952278502184,0.0
11,5,0.75,0.8796373148841117,-0.0842087033893324
11,5,0.5,0.8255341837837453,5.326104406647303
11,5,0.25,0.769581667049938,10.921356080028033
11,5,0.0,0.7465135773854832,13.228165046473517
11,6,1.0,0.8787952278502184,0.0
11,6,0.75,0.8845597828320184,-0.5764554981800063
11,6,0.5,0.8597688241782635,1.902640367195485
11,6,0.25,0.8085351403863805,7.026008746383782
11,6,0.0,0.7431537699585904,13.564145789162795
11,7,1.0,0.8787952278502184,0.0
11,7,0.75,0.8716536357289961,0.7141592121222229
11,7,0.5,0.8316891365023259,4.710609134789245
11,7,0.25,0.7347437367975653,14.405149105265302
11,7,0.0,0.6548540167975099,22.394121105270848
11,8,1.0,0.8787952278502184,0.0
11,8,0.75,0.8615374839808658,1.7257743869352526
11,8,0.5,0.8241971947825236,5.459803306769473
11,8,0.25,0.8049770115258437,7.381821632437468
11,8,0.0,0.7584446851199063,12.035054273031209
12,0,1.0,0.8368808717175695,0.0
12,0,0.75,0.8468104062243624,-0.9929534506792903
12,0,0.5,0.8348242632193542,0.20566084982153177
12,0,0.25,0.8206713592491869,1.6209512468382647
12,0,0.0,0.800705577456289,3.617529426128052
12,1,1.0,0.8368808717175695,0.0
12,1,0.75,0.8273829664741533,0.9497905243416205
12,1,0.5,0.8086802351714204,2.8200636546149127
12,1,0.25,0.7658730158730159,7.100785584455361
12,1,0.0,0.7039879721172411,13.289289960032846
12,2,1.0,0.8368808717175695,0.0
12,2,0.75,0.8465826337220911,-0.9701762004521552
12,2,0.5,0.8193810780279126,1.7499793689656928
12,2,0.25,0.7907170787454468,4.616379297212269
12,2,0.0,0.7377181079434499,9.91627637741196
12,3,1.0,0.8368808717175695,0.0
12,3,0.75,0.8399115249360476,-0.3030653218478063
12,3,0.5,0.826579927743521,1.030094397404857
12,3,0.25,0.8241675489141546,1.2713322803414973
12,3,0.0,0.7826064300033682,5.427444171420137
12,4,1.0,0.8368808717175695,0.0
12,4,0.75,0.8144274492016725,2.2453422515896992
12,4,0.5,0.7863386665654756,5.054220515209396
12,4,0.25,0.7349175372365198,10.196333448104976
12,4,0.0,0.669618218198162,16.72626535194075
12,5,1.0,0.8368808717175695,0.0
12,5,0.75,0.8339147781239544,0.29660935936151045
12,5,0.5,0.8205911607731395,1.6289710944429991
12,5,0.25,0.7889929862003395,4.788788551723
12,5,0.0,0.7240323163746483,11.284855534292127
12,6,1.0,0.8368808717175695,0.0
12,6,0.75,0.8449897547338154,-0.8108883016245905
12,6,0.5,0.8406568450154757,-0.3775973297906132
12,6,0.25,0.8374351827319768,-0.05543110144072827
12,6,0.0,0.8263539903532887,1.0526881364280816
12,7,1.0,0.8368808717175695,0.0
12,7,0.75,0.8436977254337676,-0.6816853716198112
12,7,0.5,0.8253565596643391,1.1524312053230457
12,7,0.25,0.8011406545768397,3.5740217140729835
12,7,0.0,0.7772536101993467,5.9627261518222845
12,8,1.0,0.8368808717175695,0.0
12,8,0.75,0.8340375584662449,0.2843313251324586
12,8,0.5,0.8069406665795479,2.9940205138021647
12,8,0.25,0.7745018346881898,6.237903702937975
12,8,0.0,0.7277266775009917,10.915419421657779
13,0,1.0,0.8602188991115622,0.0
13,0,0.75,0.8734043034991628,-1.318540438760052
13,0,0.5,0.8404886145539132,1.9730284557649025
13,0,0.25,0.8189950888202204,4.122381029134181
13,0,0.0,0.7883127948908139,7.190610422074839
13,1,1.0,0.8602188991115622,0.0
13,1,0.75,0.8539409919349805,0.6277907176581721
13,1,0.5,0.8055610824288985,5.465781668266379
13,1,0.25,0.7666477437126107,9.357115539895155
13,1,0.0,0.7254408723942908,13.477802671727146
13,2,1.0,0.8602188991115622,0.0
13,2,0.75,0.858074729521224,0.21441695903382518
13,2,0.5,0.8420178905793418,1.8201008532220397
13,2,0.25,0.814336882642636,4.58820164689262
13,2,0.0,0.7645112671833914,9.57076319281709
13,3,1.0,0.8602188991115622,0.0
13,3,0.75,0.8589129393563787,0.130595975518355
13,3,0.5,0.8316389896487681,2.8579909462794095
13,3,0.25,0.7941850126393754,6.603388647218688
13,3,0.0,0.7781622550481417,8.20566440634205
13,4,1.0,0.8602188991115622,0.0
13,4,0.75,0.8690539854013641,-0.8835086289801897
13,4,0.5,0.8679165243112396,-0.7697625199677316
13,4,0.25,0.7924200981894514,6.779880092211088
13,4,0.0,0.7749844333763382,8.523446573522408
13,5,1.0,0.8602188991115622,0.0
13,5,0.75,0.8577567520406536,0.2462147070908638
13,5,0.5,0.8333402023769232,2.687869673463905
13,5,0.25,0.7672886672970772,9.2930231814485
13,5,0.0,0.6347522311582459,22.54666679533164
13,6,1.0,0.8602188991115622,0.0
13,6,0.75,0.8636794006868144,-0.34605015752521284
13,6,0.5,0.8584641938673176,0.1754705244244592
13,6,0.25,0.8512061708700945,0.9012728241467705
13,6,0.0,0.8391505835982657,2.1068315513296576
13,7,1.0,0.8602188991115622,0.0
13,7,0.75,0.879749799809006,-1.9530900697443787
13,7,0.5,0.8707464364755175,-1.0527537363955286
13,7,0.25,0.8476324277879219,1.2586471323640325
13,7,0.0,0.8139631876154281,4.625571149613417
13,8,1.0,0.8602188991115622,0.0
13,8,0.75,0.887574058225465,-2.735515911390274
13,8,0.5,0.9045557657917208,-4.4336866680158575
13,8,0.25,0.9022125639772698,-4.199366486570755
13,8,0.0,0.880488950711682,-2.0270051600119743
14,0,1.0,0.8114333718898796,0.0
14,0,0.75,0.8141020504158301,-0.266867852595043
14,0,0.5,0.8105658166637699,0.08675552261097064
14,0,0.25,0.7879488766009806,2.3484495288899065
14,0,0.0,0.7603892956732659,5.104407621661378
14,1,1.0,0.8114333718898796,0.0
14,1,0.75,0.8082465936485377,0.31867782413419476
14,1,0.5,0.7989601471619627,1.2473224727916898
14,1,0.25,0.7868509127122877,2.458245917759194
14,1,0.0,0.7673189963875413,4.411437550233832
14,2,1.0,0.8114333718898796,0.0
14,2,0.75,0.7970765239600273,1.4356847929852368
14,2,0.5,0.7587061488730665,5.272722301681309
14,2,0.25,0.7033488251462461,10.808454674363354
14,2,0.0,0.6563546390801696,15.507873280971008
14,3,1.0,0.8114333718898796,0.0
14,3,0.75,0.8009278699795959,1.0505501910283765
14,3,0.5,0.7690011305289933,4.24322413608863
14,3,0.25,0.7660173967323156,4.5415975157564015
14,3,0.0,0.7246409117877366,8.679246010214303
14,4,1.0,0.8114333718898796,0.0
14,4,0.75,0.8322131556404085,-2.0779783750528913
14,4,0.5,0.8208229984940116,-0.9389626604132006
14,4,0.25,0.7810944818501171,3.0338890039762534
14,4,0.0,0.6714636977022691,13.996967418761052
14,5,1.0,0.8114333718898796,0.0
14,5,0.75,0.8161022853539863,-0.46689134641066943
14,5,0.5,0.7823811189557031,2.905225293417657
14,5,0.25,0.7389606184166353,7.247275347324433
14,5,0.0,0.6882760687607349,12.315730312914475
14,6,1.0,0.8114333718898796,0.0
14,6,0.75,0.8202694114804232,-0.8836039590543576
14,6,0.5,0.8191296664465408,-0.769629455666121
14,6,0.25,0.8214155708282537,-0.9982198938374043
14,6,0.0,0.8125098133224404,-0.1076441432560804
14,7,1.0,0.8114333718898796,0.0
14,7,0.75,0.7928878690478237,1.8545502842055916
14,7,0.5,0.7852055740649692,2.622779782491047
14,7,0.25,0.7597115575244755,5.172181436540413
14,7,0.0,0.7295918367346939,8.184153515518577
14,8,1.0,0.8114333718898796,0.0
14,8,0.75,0.8192439373634064,-0.7810565473526765
14,8,0.5,0.8150319936751556,-0.3598621785275924
14,8,0.25,0.8115391334447004,-0.010576155482078242
14,8,0.0,0.7721295455095495,3.9303826380330142
15,0,1.0,0.9017147579291832,0.0
15,0,0.75,0.9051401213235483,-0.3425363394365055
15,0,0.5,0.9037393820159582,-0.2024624086774951
15,0,0.25,0.8763440179937969,2.53707399353863
15,0,0.0,0.8402779222430252,6.143683568615799
15,1,1.0,0.9017147579291832,0.0
15,1,0.75,0.8937144727724832,0.8000285156700038
15,1,0.5,0.8523841297866175,4.933062814256573
15,1,0.25,0.8112326495453508,9.048210838383241
15,1,0.0,0.7843455890835455,11.736916884563776
15,2,1.0,0.9017147579291832,0.0
15,2,0.75,0.8906154748106561,1.1099283118527148
15,2,0.5,0.876744582997889,2.4970174931294165
15,2,0.25,0.8568612959105733,4.485346201860995
15,2,0.0,0.8146741644666741,8.704059346250915
15,3,1.0,0.9017147579291832,0.0
15,3,0.75,0.8972429059142283,0.44718520149549246
15,3,0.5,0.8727390369306207,2.8975720998562493
15,3,0.25,0.8262031370047849,7.551162092439833
15,3,0.0,0.7975118669327463,10.420289099643687
15,4,1.0,0.9017147579291832,0.0
15,4,0.75,0.8936017170761101,0.8113040853073072
15,4,0.5,0.892478416305048,0.9236341624135225
15,4,0.25,0.8458187834451321,5.589597448405115
15,4,0.0,0.8160746728606582,8.564008506852506
15,5,1.0,0.9017147579291832,0.0
15,5,0.75,0.8832864966926677,1.842826123651553
15,5,0.5,0.8440835719173582,5.763118601182504
15,5,0.25,0.7703396130249409,13.137514490424229
15,5,0.0,0.6898532096518674,21.186154827731585
15,6,1.0,0.9017147579291832,0.0
15,6,0.75,0.889621607170301,1.2093150758882176
15,6,0.5,0.8761691424586918,2.554561547049139
15,6,0.25,0.850048943074171,5.16658148550122
15,6,0.0,0.8289150105939036,7.279974733527961
15,7,1.0,0.9017147579291832,0.0
15,7,0.75,0.8905375907137123,1.1177167215470907
15,7,0.5,0.857578471201573,4.413628672761016
15,7,0.25,0.8312047388372623,7.05100190919209
15,7,0.0,0.8208303451359901,8.088441279319314
15,8,1.0,0.9017147579291832,0.0
15,8,0.75,0.9099682006125419,-0.8253442683358703
15,8,0.5,0.9028034989553679,-0.10887410261847252
15,8,0.25,0.8810922286332492,2.0622529295934
15,8,0.0,0.8305678174487688,7.114694048041437
16,0,1.0,0.8544197176105711,0.0
16,0,0.75,0.8604858661092534,-0.6066148498682256
16,0,0.5,0.8306425540612672,2.3777163549303926
16,0,0.25,0.7889923907745264,6.542732683604468
16,0,0.0,0.7433449699172068,11.107474769336434
16,1,1.0,0.8544197176105711,0.0
16,1,0.75,0.858737901995407,-0.4318184384835888
16,1,0.5,0.845982958341079,0.8436759269492167
16,1,0.25,0.7872722147722568,6.714750283831428
16,1,0.0,0.7327600748313735,12.16596427791976
16,2,1.0,0.8544197176105711,0.0
16,2,0.75,0.8525224091913558,0.18973084192153156
16,2,0.5,0.8453134853108435,0.9106232299727623
16,2,0.25,0.8013112245658964,5.310849304467469
16,2,0.0,0.7603650427595441,9.405467485102703
16,3,1.0,0.8544197176105711,0.0
16,3,0.75,0.8519992138117476,0.24205037988235256
16,3,0.5,0.8477864327021293,0.6633284908441839
16,3,0.25,0.8117935043199438,4.262621329062732
16,3,0.0,0.7728192914824098,8.160042612816131
16,4,1.0,0.8544197176105711,0.0
16,4,0.75,0.8335883332928165,2.0831384317754664
16,4,0.5,0.7859612307631614,6.845848684740973
16,4,0.25,0.7116060181083705,14.281369950220057
16,4,0.0,0.69530169575943,15.91180218511411
16,5,1.0,0.8544197176105711,0.0
16,5,0.75,0.793903391115055,6.051632649551609
16,5,0.5,0.7025666543592678,15.185306325130332
16,5,0.25,0.6443297023583604,21.009001525221073
16,5,0.0,0.6216071498669615,23.28125677436096
16,6,1.0,0.8544197176105711,0.0
16,6,0.75,0.8555424248771477,-0.11227072665765947
16,6,0.5,0.8567529330674076,-0.23332154568365127
16,6,0.25,0.8431033508880782,1.131636672249292
16,6,0.0,0.8358364943279987,1.8583223282572447
16,7,1.0,0.8544197176105711,0.0
16,7,0.75,0.8454927317905123,0.8926985820058797
16,7,0.5,0.8129843991092195,4.143531850135163
16,7,0.25,0.7755372271123782,7.888249049819295
16,7,0.0,0.7240367078365579,13.038300977401319
16,8,1.0,0.8544197176105711,0.0
16,8,0.75,0.8469046265079434,0.7515091102627713
16,8,0.5,0.827840563210793,2.6579154399778093
16,8,0.25,0.7889833517419946,6.543636586857648
16,8,0.0,0.7550610682935068,9.935864931706428
17,0,1.0,0.7971479454385437,0.0
17,0,0.75,0.7718471361444107,2.530080929413303
17,0,0.5,0.7417458043612208,5.540214107732289
17,0,0.25,0.6810041823740545,11.614376306448925
17,0,0.0,0.5500412219465398,24.71067234920039
17,1,1.0,0.7971479454385437,0.0
17,1,0.75,0.8028398665057452,-0.5691921067201511
17,1,0.5,0.7790441886435515,1.810375679499221
17,1,0.25,0.7423464910854523,5.480145435309147
17,1,0.0,0.6875366638816909,10.961128155685284
17,2,1.0,0.7971479454385437,0.0
17,2,0.75,0.8160567314057194,-1.8908785967175712
17,2,0.5,0.8040283866019493,-0.6880441163405582
17,2,0.25,0.7960274575994947,0.11204878390490558
17,2,0.0,0.7571882686298687,3.995967680867507
17,3,1.0,0.7971479454385437,0.0
17,3,0.75,0.787426605079468,0.9721340359075681
17,3,0.5,0.7696482714438811,2.7499673994662577
17,3,0.25,0.7588391207295637,3.8308824708980005
17,3,0.0,0.6332247561392728,16.392318929927097
17,4,1.0,0.7971479454385437,0.0
17,4,0.75,0.8010304262292592,-0.38824807907155146
17,4,0.5,0.7939660575949913,0.31818878435524445
17,4,0.25,0.7859546276244229,1.1193317814120807
17,4,0.0,0.7501588875361562,4.69890579023875
17,5,1.0,0.7971479454385437,0.0
17,5,0.75,0.7760474286553907,2.1100516783153056
17,5,0.5,0.73871620073979,5.843174469875367
17,5,0.25,0.6820286404094538,11.511930502908996
17,5,0.0,0.5954756212539887,20.167232418455505
17,6,1.0,0.7971479454385437,0.0
17,6,0.75,0.8175196535490652,-2.037170811052147
17,6,0.5,0.8184875977057124,-2.133965226716872
17,6,0.25,0.8172745852596442,-2.0126639821100523
17,6,0.0,0.7981560975600882,-0.10081521215444811
17,7,1.0,0.7971479454385437,0.0
17,7,0.75,0.7971540011557373,-0.0006055717193587107
17,7,0.5,0.7927168907245715,0.44310547139722045
17,7,0.25,0.776189864023123,2.095808141542077
17,7,0.0,0.7403841362696862,5.676380916885748
17,8,1.0,0.7971479454385437,0.0
17,8,0.75,0.7779074335817956,1.9240511856748133
17,8,0.5,0.7398940938611009,5.725385157744278
17,8,0.25,0.6800412225952999,11.710672284324385
17,8,0.0,0.6632389598657717,13.390898557277197
18,0,1.0,0.7641823724077893,0.0
18,0,0.75,0.7255940464911328,3.8588325916656507
18,0,0.5,0.6968886754860321,6.729369692175724
18,0,0.25,0.6718798488274149,9.230252358037438
18,0,0.0,0.6391609324573388,12.502143995045046
18,1,1.0,0.7641823724077893,0.0
18,1,0.75,0.752835269638529,1.134710276926032
18,1,0.5,0.728060218611404,3.612215379638528
18,1,0.25,0.7213168989236517,4.286547348413761
18,1,0.0,0.7033369393159878,6.084543309180146
18,2,1.0,0.7641823724077893,0.0
18,2,0.75,0.7627724905088021,0.14098818989871642
18,2,0.5,0.7512491796891021,1.2933192718687203
18,2,0.25,0.7314697213112995,3.2712651096489798
18,2,0.0,0.6824079644483222,8.177440795946712
18,3,1.0,0.7641823724077893,0.0
18,3,0.75,0.7396766536559531,2.450571875183616
18,3,0.5,0.7252219840846545,3.8960388323134754
18,3,0.25,0.7034525409520439,6.07298314557454
18,3,0.0,0.6458370595124613,11.834531289532801
18,4,1.0,0.7641823724077893,0.0
18,4,0.75,0.7451809710237687,1.9001401384020622
18,4,0.5,0.729437967807792,3.474440459999728
18,4,0.25,0.714158580666221,5.002379174156834
18,4,0.0,0.6798670063856512,8.431536602213807
18,5,1.0,0.7641823724077893,0.0
18,5,0.75,0.766133294742606,-0.19509223348167515
18,5,0.5,0.7457664492911849,1.841592311660445
18,5,0.25,0.6639727837008637,10.020958870692564
18,5,0.0,0.5720316951885704,19.215067721921887
18,6,1.0,0.7641823724077893,0.0
18,6,0.75,0.7663253191816097,-0.2142946773820431
18,6,0.5,0.7861207254435467,-2.193835303575742
18,6,0.25,0.7836634896128942,-1.9481117205104925
18,6,0.0,0.7749733686699739,-1.0790996262184605
18,7,1.0,0.7641823724077893,0.0
18,7,0.75,0.7408694501391618,2.3312922268627467
18,7,0.5,0.7212535168099586,4.292885559783066
18,7,0.25,0.6873365435506255,7.6845828857163845
18,7,0.0,0.6817751469361168,8.240722547167245
18,8,1.0,0.7641823724077893,0.0
18,8,0.75,0.7452256225732967,1.895674983449258
18,8,0.5,0.7182858852936826,4.589648711410666
18,8,0.25,0.684678935014383,7.950343739340626
18,8,0.0,0.6541993795959433,10.998299281184599
19,0,1.0,0.835189494545073,0.0
19,0,0.75,0.8199686444924081,1.5220850052664825
19,0,0.5,0.7993181407634928,3.587135378158013
19,0,0.25,0.788868865943676,4.632062860139696
19,0,0.0,0.7662856686258681,6.890382591920485
19,1,1.0,0.835189494545073,0.0
19,1,0.75,0.8242973838569218,1.0892110688151213
19,1,0.5,0.8182258570588999,1.6963637486173022
19,1,0.25,0.7753989920292403,5.979050251583262
19,1,0.0,0.7501364504558028,8.505304408927017
19,2,1.0,0.835189494545073,0.0
19,2,0.75,0.8181567676617041,1.7032726883368876
19,2,0.5,0.7961214673994661,3.9068027145606865
19,2,0.25,0.7742008937973468,6.098860074772617
19,2,0.0,0.740901633815372,9.428786072970096
19,3,1.0,0.835189494545073,0.0
19,3,0.75,0.8253539746643195,0.9835519880753485
19,3,0.5,0.802999662959218,3.2189831585854978
19,3,0.25,0.7834256021756021,5.176389236947088
19,3,0.0,0.746322034449358,8.8867460095715
19,4,1.0,0.835189494545073,0.0
19,4,0.75,0.8150276999729291,2.0161794572143843
19,4,0.5,0.7959085779920182,3.9280916553054768
19,4,0.25,0.7539098718068438,8.12796227382292
19,4,0.0,0.696871811368328,13.831768317674499
19,5,1.0,0.835189494545073,0.0
19,5,0.75,0.8112131299879451,2.3976364557127816
19,5,0.5,0.7872663475518282,4.792314699324473
19,5,0.25,0.7097624973520522,12.542699719302075
19,5,0.0,0.6678658937756208,16.73236007694522
19,6,1.0,0.835189494545073,0.0
19,6,0.75,0.8360681993580411,-0.08787048129681452
19,6,0.5,0.834863214862879,0.03262796821940084
19,6,0.25,0.8291749236289203,0.6014570916152651
19,6,0.0,0.8190922319266907,1.609726261838229
19,7,1.0,0.835189494545073,0.0
19,7,0.75,0.8363117602650769,-0.11222657200039565
19,7,0.5,0.8204988960225992,1.4690598522473786
19,7,0.25,0.8015302237154697,3.3659270829603294
19,7,0.0,0.7614875139362258,7.370198060884714
19,8,1.0,0.835189494545073,0.0
19,8,0.75,0.8269962377047019,0.8193256840371088
19,8,0.5,0.8368482975493385,-0.16588030042655744
19,8,0.25,0.810629299541748,2.456019500332496
19,8,0.0,0.7716494353494867,6.354005919558626
20,0,1.0,0.7806689804522176,0.0
20,0,0.75,0.7706726355035051,0.9996344948712488
20,0,0.5,0.7814920787272612,-0.08230982750436766
20,0,0.25,0.7443839915169779,3.628498893523968
20,0,0.0,0.7107214372282612,6.994754322395636
20,1,1.0,0.7806689804522176,0.0
20,1,0.75,0.7626374139842739,1.8031566467943683
20,1,0.5,0.7136423313842668,6.702664906795075
20,1,0.25,0.6825875271176065,9.808145333461106
20,1,0.0,0.6562965378787572,12.437244257346036
20,2,1.0,0.7806689804522176,0.0
20,2,0.75,0.7783775253841668,0.22914550680507295
20,2,0.5,0.7611087848932677,1.9560195558949833
20,2,0.25,0.7577865356231192,2.2882444829098403
20,2,0.0,0.7073430793028698,7.332590114934778
20,3,1.0,0.7806689804522176,0.0
20,3,0.75,0.7679123227611473,1.2756657691070261
20,3,0.5,0.7459613018900044,3.470767856221313
20,3,0.25,0.7258415524775559,5.482742797466167
20,3,0.0,0.7346662663301905,4.600271412202705
20,4,1.0,0.7806689804522176,0.0
20,4,0.75,0.7898996096864662,-0.9230629234248666
20,4,0.5,0.779547862396776,0.11211180554415723
20,4,0.25,0.7516729440589377,2.8996036393279856
20,4,0.0,0.6909396796752396,8.972930077697793
20,5,1.0,0.7806689804522176,0.0
20,5,0.75,0.7960600381125886,-1.5391057660371077
20,5,0.5,0.807759918412688,-2.7090937960470463
20,5,0.25,0.7767667151445466,0.39022653076709046
20,5,0.0,0.6945772136226549,8.609176682956265
20,6,1.0,0.7806689804522176,0.0
20,6,0.75,0.7384051270124183,4.2263853439799215
20,6,0.5,0.7318012486379833,4.88677318142342
20,6,0.25,0.7308280721283664,4.984090832385113
20,6,0.0,0.7243814912672645,5.628748918495308
20,7,1.0,0.7806689804522176,0.0
20,7,0.75,0.7365827436383545,4.408623681386303
20,7,0.5,0.7270843706688854,5.358460978333213
20,7,0.25,0.7041901127874338,7.647886766478374
20,7,0.0,0.6688585015005173,11.181047895170027
20,8,1.0,0.7806689804522176,0.0
20,8,0.75,0.7763256793860157,0.43433010662018434
20,8,0.5,0.7791266513811551,0.15423290710624427
20,8,0.25,0.7643266425837608,1.6342337868456736
20,8,0.0,0.7118085644154337,6.886041603678383
21,0,1.0,0.8067340979445033,0.0
21,0,0.75,0.7813875516839697,2.5346546260533676
21,0,0.5,0.7169985791998674,8.973551874463592
21,0,0.25,0.6026856885974179,20.404840934708545
21,0,0.0,0.5676898454405218,23.904425250398155
21,1,1.0,0.8067340979445033,0.0
21,1,0.75,0.8089560188352649,-0.2221920890761564
21,1,0.5,0.786474057955654,2.02600399888494
21,1,0.25,0.7807915412673011,2.5942556677202244
21,1,0.0,0.7640808865872805,4.265321135722289
21,2,1.0,0.8067340979445033,0.0
21,2,0.75,0.7936292681323738,1.310482981212957
21,2,0.5,0.7882054439919344,1.8528653952568974
21,2,0.25,0.7816323982086404,2.510169973586296
21,2,0.0,0.7686395751060765,3.8094522838426847
21,3,1.0,0.8067340979445033,0.0
21,3,0.75,0.786554067038198,2.018003090630538
21,3,0.5,0.7552455243077367,5.148857363676662
21,3,0.25,0.6226025994681452,18.41314984763581
21,3,0.0,0.5772492748076785,22.948482313682483
21,4,1.0,0.8067340979445033,0.0
21,4,0.75,0.8156703677639638,-0.8936269819460496
21,4,0.5,0.8125950929775977,-0.5860995033094341
21,4,0.25,0.8090296669241296,-0.2295568979626239
21,4,0.0,0.7807416761298498,2.5992421814653555
21,5,1.0,0.8067340979445033,0.0
21,5,0.75,0.7952076728681323,1.1526425076371027
21,5,0.5,0.7924833578182268,1.4250740126276584
21,5,0.25,0.7531004274089701,5.3633670535533255
21,5,0.0,0.6115470688771069,19.518702906739648
21,6,1.0,0.8067340979445033,0.0
21,6,0.75,0.8159971306960772,-0.9263032751573808
21,6,0.5,0.8055663243941397,0.11677735503636821
21,6,0.25,0.819989489472916,-1.3255391528412708
21,6,0.0,0.8100133322559793,-0.32792343114759204
21,7,1.0,0.8067340979445033,0.0
21,7,0.75,0.8059576717922816,0.0776426152221732
21,7,0.5,0.7945549857530901,1.217911219141321
21,7,0.25,0.7666724139551857,4.006168398931765
21,7,0.0,0.7474292714275548,5.930482651694858
21,8,1.0,0.8067340979445033,0.0
21,8,0.75,0.7885841893263458,1.8149908618157573
21,8,0.5,0.786957375356675,1.9776722587828366
21,8,0.25,0.7499689147072797,5.676518323722368
21,8,0.0,0.7114850616711659,9.524903627333748
22,0,1.0,0.7600765481678096,0.0
22,0,0.75,0.7334902023967094,2.6586345771100195
22,0,0.5,0.6869194701420258,7.315707802578375
22,0,0.25,0.6016739862616554,15.84025619061542
22,0,0.0,0.5662231668793611,19.385338128844843
22,1,1.0,0.7600765481678096,0.0
22,1,0.75,0.7625142973079371,-0.24377491401275098
22,1,0.5,0.7541660627672255,0.5910485400584031
22,1,0.25,0.7314584001747529,2.861814799305662
22,1,0.0,0.680077171150074,7.999937701773552
22,2,1.0,0.7600765481678096,0.0
22,2,0.75,0.7560379252448635,0.40386229229461
22,2,0.5,0.7393711714554232,2.070537671238637
22,2,0.25,0.7190193463541346,4.1057201813675
22,2,0.0,0.6653712255645404,9.470532260326914
22,3,1.0,0.7600765481678096,0.0
22,3,0.75,0.744183944874273,1.589260329353659
22,3,0.5,0.7313968622483475,2.8679685919462017
22,3,0.25,0.6787396038430602,8.133694432474936
22,3,0.0,0.6059314464618676,15.414510170594198
22,4,1.0,0.7600765481678096,0.0
22,4,0.75,0.7354904206518212,2.458612751598832
22,4,0.5,0.7078730519465579,5.220349622125164
22,4,0.25,0.6807944064909595,7.92821416768501
22,4,0.0,0.6489942607652117,11.108228740259785
22,5,1.0,0.7600765481678096,0.0
22,5,0.75,0.733956351437781,2.612019673002852
22,5,0.5,0.690861061129653,6.921548703815661
22,5,0.25,0.6493865017476188,11.069004642019076
22,5,0.0,0.5993173394927701,16.075920867503946
22,6,1.0,0.7600765481678096,0.0
22,6,0.75,0.7478641393726939,1.2212408795115648
22,6,0.5,0.7238566970727804,3.621985109502912
22,6,0.25,0.7161946778711484,4.388187029666113
22,6,0.0,0.7051496828126642,5.492686535514535
22,7,1.0,0.7600765481678096,0.0
22,7,0.75,0.741269669238855,1.8806878928954607
22,7,0.5,0.7009810157785779,5.909553238923171
22,7,0.25,0.6517975062469997,10.827904192080984
22,7,0.0,0.5723590123868895,18.77175357809201
22,8,1.0,0.7600765481678096,0.0
22,8,0.75,0.7361093242798709,2.3967223887938705
22,8,0.5,0.7222457194043301,3.783082876347943
22,8,0.25,0.7006802264684986,5.939632169931097
22,8,0.0,0.6418912413616853,11.818530680612426
23,0,1.0,0.808677004993982,0.0
23,0,0.75,0.8001680073023518,0.850899769163016
23,0,0.5,0.7415440067142101,6.713299827977193
23,0,0.25,0.6570099369603163,15.16670680336657
23,0,0.0,0.6186457277444714,19.003127724951064
23,1,1.0,0.808677004993982,0.0
23,1,0.75,0.8083895355911728,0.028746940280921507
23,1,0.5,0.8082063896017886,0.04706153921933964
23,1,0.25,0.7747928028834138,3.3884202110568196
23,1,0.0,0.7534074289026834,5.526957609129857
23,2,1.0,0.808677004993982,0.0
23,2,0.75,0.8039941851174983,0.4682819876483668
23,2,0.5,0.8051808380004413,0.3496166993540717
23,2,0.25,0.7785628825840643,3.011412240991773
23,2,0.0,0.7260324248703103,8.264458012367172
23,3,1.0,0.808677004993982,0.0
23,3,0.75,0.8117995582316594,-0.31225532376774057
23,3,0.5,0.7340657265705758,7.46112784234062
23,3,0.25,0.7064134246235951,10.226358037038686
23,3,0.0,0.6873882051947489,12.128879979923312
23,4,1.0,0.808677004993982,0.0
23,4,0.75,0.8091713086083171,-0.049430361433511205
23,4,0.5,0.8023936479555199,0.6283357038462056
23,4,0.25,0.7565651366639653,5.211186833001669
23,4,0.0,0.7199596609536237,8.871734404035825
23,5,1.0,0.808677004993982,0.0
23,5,0.75,0.7946075104037355,1.4069494590246534
23,5,0.5,0.7234241341885104,8.525287080547162
23,5,0.25,0.6586888342326965,14.998817076128546
23,5,0.0,0.6122245984732241,19.645240652075792
23,6,1.0,0.808677004993982,0.0
23,6,0.75,0.8033791387579152,0.5297866236066762
23,6,0.5,0.7963314350337249,1.2345569960257041
23,6,0.25,0.7765286529446473,3.214835204933464
23,6,0.0,0.7683722986160755,4.030470637790651
23,7,1.0,0.808677004993982,0.0
23,7,0.75,0.8207433093262345,-1.206630433225253
23,7,0.5,0.8023116493574258,0.6365355636556158
23,7,0.25,0.7659446270004433,4.273237799353868
23,7,0.0,0.7351911395165707,7.348586547741132
23,8,1.0,0.808677004993982,0.0
23,8,0.75,0.7953117557472181,1.3365249246763855
23,8,0.5,0.7811656627524407,2.751134224154128
23,8,0.25,0.7523509406610305,5.632606433295151
23,8,0.0,0.7025653269921246,10.61116780018574
24,0,1.0,0.6842423763276497,0.0
24,0,0.75,0.6515943230318111,3.264805329583864
24,0,0.5,0.6280053753533603,5.623700097428941
24,0,0.25,0.61056183194492,7.368054438272975
24,0,0.0,0.5977603856281642,8.648199069948548
24,1,1.0,0.6842423763276497,0.0
24,1,0.75,0.683591792747041,0.06505835806087656
24,1,0.5,0.6749618605469285,0.9280515780721199
24,1,0.25,0.6607002770770459,2.35420992506038
24,1,0.0,0.6252832773016759,5.895909902597385
24,2,1.0,0.6842423763276497,0.0
24,2,0.75,0.7038293975901919,-1.9587021262542192
24,2,0.5,0.70247519929117,-1.8232822963520245
24,2,0.25,0.6602008128412894,2.404156348636033
24,2,0.0,0.606014619414974,7.822775691267569
24,3,1.0,0.6842423763276497,0.0
24,3,0.75,0.725555931488556,-4.131355516090629
24,3,0.5,0.7260434331638255,-4.180105683617574
24,3,0.25,0.7447504679211059,-6.050809159345616
24,3,0.0,0.7465620975948002,-6.231972126715046
24,4,1.0,0.6842423763276497,0.0
24,4,0.75,0.7033454040390228,-1.9103027711373066
24,4,0.5,0.6887073660314437,-0.44649897037939423
24,4,0.25,0.6161855977763439,6.805677855130588
24,4,0.0,0.5355557867238372,14.868658960381254
24,5,1.0,0.6842423763276497,0.0
24,5,0.75,0.597575327862368,8.666704846528173
24,5,0.5,0.5045914813885483,17.965089493910146
24,5,0.25,0.3971161430013903,28.71262333262594
24,5,0.0,0.3354677362837827,34.8774640043867
24,6,1.0,0.6842423763276497,0.0
24,6,0.75,0.6736024837180528,1.0639892609596968
24,6,0.5,0.6571017317620009,2.7140644565648797
24,6,0.25,0.6361111423578023,4.813123396984742
24,6,0.0,0.6024689532999589,8.177342302769086
24,7,1.0,0.6842423763276497,0.0
24,7,0.75,0.6917133344635322,-0.74709581358825
24,7,0.5,0.6424855862835457,4.175679004410404
24,7,0.25,0.5849880525686977,9.925432375895205
24,7,0.0,0.5175501350476913,16.66922412799584
24,8,1.0,0.6842423763276497,0.0
24,8,0.75,0.6735576381852979,1.0684738142351824
24,8,0.5,0.6600473440015151,2.4195032326134625
24,8,0.25,0.6608328250938748,2.3409551233774972
24,8,0.0,0.6661165721939203,1.812580413372944
25,0,1.0,0.7681133418431293,0.0
25,0,0.75,0.7372902739920335,3.0823067851095787
25,0,0.5,0.7338139368694125,3.429940497371675
25,0,0.25,0.715493467182452,5.26198746606773
25,0,0.0,0.6940104470922627,7.410289475086662
25,1,1.0,0.7681133418431293,0.0
25,1,0.75,0.7653512736154395,0.27620682276897623
25,1,0.5,0.7491434151594699,1.8969926683659377
25,1,0.25,0.7232078942413828,4.490544760174653
25,1,0.0,0.6677956007386883,10.031774110444102
25,2,1.0,0.7681133418431293,0.0
25,2,0.75,0.7570654403716948,1.104790147143453
25,2,0.5,0.7504920141717955,1.7621327671333842
25,2,0.25,0.730763964746098,3.7349377097031344
25,2,0.0,0.6751655072860538,9.294783455707545
25,3,1.0,0.7681133418431293,0.0
25,3,0.75,0.7647995841809457,0.33137576621835585
25,3,0.5,0.7451966059701959,2.2916735872933414
25,3,0.25,0.7136084255246131,5.450491631851618
25,3,0.0,0.6883999878544637,7.971335398866564
25,4,1.0,0.7681133418431293,0.0
25,4,0.75,0.7401280347074549,2.7985307135674375
25,4,0.5,0.7219530733290076,4.616026851412169
25,4,0.25,0.6291647147726506,13.894862707047873
25,4,0.0,0.58305894973209,18.505439211103926
25,5,1.0,0.7681133418431293,0.0
25,5,0.75,0.7386262542722815,2.9487087570847836
25,5,0.5,0.6805112573240286,8.760208451910067
25,5,0.25,0.6336681913070853,13.4445150536044
25,5,0.0,0.5657397097839929,20.23736320591364
25,6,1.0,0.7681133418431293,0.0
25,6,0.75,0.7651211617149586,0.2992180128170707
25,6,0.5,0.7713748936107826,-0.32615517676533035
25,6,0.25,0.7653564354483138,0.2756906394815517
25,6,0.0,0.7470426236225611,2.1070718220568163
25,7,1.0,0.7681133418431293,0.0
25,7,0.75,0.757419376864527,1.069396497860231
25,7,0.5,0.7361868079190736,3.1926533924055644
25,7,0.25,0.6824245582097028,8.568878363342646
25,7,0.0,0.6248701680619689,14.324317378116035
25,8,1.0,0.7681133418431293,0.0
25,8,0.75,0.753300903347065,1.4812438496064284
25,8,0.5,0.7692375479670173,-0.11242061238879719
25,8,0.25,0.765119785859903,0.2993555983226259
25,8,0.0,0.7379635983421939,3.0149743500935355
26,0,1.0,0.6756627031205448,0.0
26,0,0.75,0.6790694243991483,-0.34067212786035306
26,0,0.5,0.6791992097572805,-0.353650663673577
26,0,0.25,0.662504009818442,1.315869330210273
26,0,0.0,0.6048740654168793,7.07886377036655
26,1,1.0,0.6756627031205448,0.0
26,1,0.75,0.6996234505849891,-2.396074746444432
26,1,0.5,0.690439510432407,-1.4776807311862261
26,1,0.25,0.6793761598687222,-0.37134567481774683
26,1,0.0,0.635308455922072,4.03542471984728
26,2,1.0,0.6756627031205448,0.0
26,2,0.75,0.6589259308622475,1.6736772258297283
26,2,0.5,0.6112082643522806,6.445443876826418
26,2,0.25,0.5661411427539357,10.95215603666091
26,2,0.0,0.533485495985496,14.217720713504878
26,3,1.0,0.6756627031205448,0.0
26,3,0.75,0.677304731697442,-0.16420285768972143
26,3,0.5,0.6818299751151327,-0.6167271994587886
26,3,0.25,0.6764477454053707,-0.07850422848258987
26,3,0.0,0.6777746828396102,-0.21119797190654044
26,4,1.0,0.6756627031205448,0.0
26,4,0.75,0.6554617244584877,2.0200978662057056
26,4,0.5,0.6382622656201691,3.7400437500375694
26,4,0.25,0.6010179450223333,7.464475809821147
26,4,0.0,0.5772356069080573,9.842709621248746
26,5,1.0,0.6756627031205448,0.0
26,5,0.75,0.6258342781489269,4.982842497161788
26,5,0.5,0.5794309582116088,9.623174490893593
26,5,0.25,0.5731463551305417,10.251634799000309
26,5,0.0,0.5377360989257591,13.792660419478564
26,6,1.0,0.6756627031205448,0.0
26,6,0.75,0.684502345514874,-0.8839642394329217
26,6,0.5,0.6874176147648392,-1.175491164429443
26,6,0.25,0.6900037115669224,-1.4341008446377645
26,6,0.0,0.6864922093225848,-1.082950620204004
26,7,1.0,0.6756627031205448,0.0
26,7,0.75,0.7062490079807758,-3.058630486023106
26,7,0.5,0.7322541880342606,-5.65914849137158
26,7,0.25,0.7081440642882576,-3.248136116771283
26,7,0.0,0.6763585872818695,-0.06958841613247113
26,8,1.0,0.6756627031205448,0.0
26,8,0.75,0.6788060077868374,-0.31433046662926456
26,8,0.5,0.6683262310585243,0.7336472062020483
26,8,0.25,0.6389345907468748,3.672811237367002
26,8,0.0,0.609909119162201,6.575358395834375
27,0,1.0,0.8419556656791249,0.0
27,0,0.75,0.8484032718120905,-0.6447606132965578
27,0,0.5,0.8355337123638693,0.6421953315255635
27,0,0.25,0.8086480920857887,3.330757359333625
27,0,0.0,0.7652457730821889,7.670989259693606
27,1,1.0,0.8419556656791249,0.0
27,1,0.75,0.847669256722768,-0.5713591043643107
27,1,0.5,0.7945999154838549,4.735575019527005
27,1,0.25,0.7745498035687984,6.740586211032651
27,1,0.0,0.780308208852673,6.16474568264519
27,2,1.0,0.8419556656791249,0.0
27,2,0.75,0.8219537655776123,2.0001900101512593
27,2,0.5,0.8165733946616038,2.5382271017521107
27,2,0.25,0.8036689996306662,3.828666604845876
27,2,0.0,0.7898328552483951,5.212281043072986
27,3,1.0,0.8419556656791249,0.0
27,3,0.75,0.8284595656831788,1.3496099995946143
27,3,0.5,0.8075127039838066,3.4442961695318353
27,3,0.25,0.6449417718824404,19.701389379668456
27,3,0.0,0.5978772689299006,24.40783967492244
27,4,1.0,0.8419556656791249,0.0
27,4,0.75,0.8419821262922749,-0.002646061314992565
27,4,0.5,0.8469133774980293,-0.49577118189043645
27,4,0.25,0.8415671609177725,0.03885047613524373
27,4,0.0,0.8149795032207876,2.697616245833734
27,5,1.0,0.8419556656791249,0.0
27,5,0.75,0.7702728893332121,7.168277634591281
27,5,0.5,0.7094932180825424,13.246244759658254
27,5,0.25,0.6377169073677422,20.42387583113827
27,5,0.0,0.5677224305026042,27.423323517652076
27,6,1.0,0.8419556656791249,0.0
27,6,0.75,0.8451921106681517,-0.32364449890267544
27,6,0.5,0.8284819093643835,1.3473756314741459
27,6,0.25,0.8228768821610816,1.9078783518043374
27,6,0.0,0.8116340122552381,3.032165342388682
27,7,1.0,0.8419556656791249,0.0
27,7,0.75,0.8609961560881025,-1.9040490408977595
27,7,0.5,0.863264377602613,-2.1308711923488044
27,7,0.25,0.8334185881161913,0.8537077562933648
27,7,0.0,0.7860252811779955,5.5930384501129415
27,8,1.0,0.8419556656791249,0.0
27,8,0.75,0.854048199702931,-1.2092534023806056
27,8,0.5,0.8562268888043765,-1.427122312525153
27,8,0.25,0.8350139464856217,0.6941719193503282
27,8,0.0,0.7259674990190216,11.598816666010336
28,0,1.0,0.7718713907265167,0.0
28,0,0.75,0.792304600128284,-2.0433209401767294
28,0,0.5,0.8087735507909622,-3.6902160064445577
28,0,0.25,0.812567631429467,-4.06962407029503
28,0,0.0,0.7765794927971267,-0.47081020706100096
28,1,1.0,0.7718713907265167,0.0
28,1,0.75,0.7847760469436,-1.2904656217083366
28,1,0.5,0.7833777590722035,-1.1506368345686857
28,1,0.25,0.7322829319450612,3.958845878145545
28,1,0.0,0.694682992403644,7.718839832287272
28,2,1.0,0.7718713907265167,0.0
28,2,0.75,0.7830845776030791,-1.1213186876562475
28,2,0.5,0.782276500137062,-1.0405109410545288
28,2,0.25,0.7594078726055145,1.2463518121002215
28,2,0.0,0.7037807569593774,6.809063376713931
28,3,1.0,0.7718713907265167,0.0
28,3,0.75,0.7882196655003142,-1.6348274773797522
28,3,0.5,0.7772618731855907,-0.5390482459074031
28,3,0.25,0.7640850592588213,0.7786331467695362
28,3,0.0,0.7218153556504452,5.005603507607148
28,4,1.0,0.7718713907265167,0.0
28,4,0.75,0.7458117738003638,2.6059616926152884
28,4,0.5,0.7283452357659188,4.352615496059786
28,4,0.25,0.7057374346757183,6.613395605079841
28,4,0.0,0.6894971554056453,8.23742353208714
28,5,1.0,0.7718713907265167,0.0
28,5,0.75,0.7672262403513925,0.4645150375124141
28,5,0.5,0.7591761983368106,1.2695192389706067
28,5,0.25,0.7459478203225112,2.5923570404005503
28,5,0.0,0.7516702484394182,2.020114228709846
28,6,1.0,0.7718713907265167,0.0
28,6,0.75,0.7690384908771513,0.2832899849365411
28,6,0.5,0.7661944130288707,0.5676977697645968
28,6,0.25,0.754787253942586,1.7084136783930726
28,6,0.0,0.7471074751153886,2.476391561112812
28,7,1.0,0.7718713907265167,0.0
28,7,0.75,0.7712102239232285,0.06611668032882045
28,7,0.5,0.7575165914377394,1.4354799288777254
28,7,0.25,0.7262063253008291,4.56650654256876
28,7,0.0,0.6839146720575732,8.79567186689435
28,8,1.0,0.7718713907265167,0.0
28,8,0.75,0.7854925533205408,-1.3621162594024128
28,8,0.5,0.7996829941684689,-2.7811603441952215
28,8,0.25,0.7607806955726172,1.1090695153899488
28,8,0.0,0.6981250308256012,7.37463599009155
29,0,1.0,0.8074868869088336,0.0
29,0,0.75,0.7994534254379718,0.8033461470861814
29,0,0.5,0.7731239110994619,3.4362975809371754
29,0,0.25,0.695541933312954,11.194495359587965
29,0,0.0,0.5090947844458241,29.83921024630095
29,1,1.0,0.8074868869088336,0.0
29,1,0.75,0.795209684797315,1.2277202111518615
29,1,0.5,0.775130187339709,3.235669956912468
29,1,0.25,0.7568371986089639,5.064968829986971
29,1,0.0,0.7435701399927361,6.39167469160975
29,2,1.0,0.8074868869088336,0.0
29,2,0.75,0.8016696878431151,0.5817199065718537
29,2,0.5,0.808720574812168,-0.12336879033343351
29,2,0.25,0.7898010009265727,1.7685885982260952
29,2,0.0,0.7635863158997047,4.390057100912892
29,3,1.0,0.8074868869088336,0.0
29,3,0.75,0.811113257077023,-0.3626370168189341
29,3,0.5,0.7974139649504426,1.0072921958391046
29,3,0.25,0.7840598168681449,2.342707004068878
29,3,0.0,0.7657758367430237,4.17110501658099
29,4,1.0,0.8074868869088336,0.0
29,4,0.75,0.7802978966930327,2.71889902158009
29,4,0.5,0.7459383457624919,6.154854114634178
29,4,0.25,0.7112553569141092,9.62315299947244
29,4,0.0,0.6770387061273879,13.044818078144571
29,5,1.0,0.8074868869088336,0.0
29,5,0.75,0.8111401148491617,-0.36532279403280743
29,5,0.5,0.7979979286989708,0.9488958209862841
29,5,0.25,0.7493632075345871,5.812367937424656
29,5,0.0,0.7002384839802577,10.724840292857596
29,6,1.0,0.8074868869088336,0.0
29,6,0.75,0.796882311279867,1.0604575628966662
29,6,0.5,0.7938431947450246,1.3643692163809007
29,6,0.25,0.7774520942084135,3.0034792700420088
29,6,0.0,0.7393994583689496,6.808742853988403
29,7,1.0,0.8074868869088336,0.0
29,7,0.75,0.8006594851686818,0.6827401740151839
29,7,0.5,0.7883265781438857,1.9160308764947898
29,7,0.25,0.7395963253465541,6.789056156227957
29,7,0.0,0.698285649677349,10.920123723148468
29,8,1.0,0.8074868869088336,0.0
29,8,0.75,0.8098724252671703,-0.23855383583366585
29,8,0.5,0.7813631036291512,2.6123783279682455
29,8,0.25,0.7534070838028281,5.407980310600557
29,8,0.0,0.7275402731720422,7.994661373679146
30,0,1.0,0.7366637061232002,0.0
30,0,0.75,0.7476009434191865,-1.093723729598628
30,0,0.5,0.7714026563064775,-3.473895018327733
30,0,0.25,0.7905847622904001,-5.392105616719989
30,0,0.0,0.7412800529422611,-0.4616346819060868
30,1,1.0,0.7366637061232002,0.0
30,1,0.75,0.7419757333382087,-0.5312027215008452
30,1,0.5,0.7388495859930312,-0.21858798698309867
30,1,0.25,0.7143865137415547,2.2277192381645494
30,1,0.0,0.6851420689070091,5.152163721619107
30,2,1.0,0.7366637061232002,0.0
30,2,0.75,0.7528721088219397,-1.6208402698739466
30,2,0.5,0.7510425015669374,-1.4378795443737213
30,2,0.25,0.729437410311603,0.7226295811597172
30,2,0.0,0.5999515340903453,13.67121720328549
30,3,1.0,0.7366637061232002,0.0
30,3,0.75,0.7385544637857375,-0.18907576625373235
30,3,0.5,0.7186049226260343,1.8058783497165942
30,3,0.25,0.7108924917213795,2.577121440182073
30,3,0.0,0.6854320504190349,5.123165570416532
30,4,1.0,0.7366637061232002,0.0
30,4,0.75,0.7478957595689725,-1.1232053445772272
30,4,0.5,0.7481191847210941,-1.1455478597893864
30,4,0.25,0.731786241316579,0.48774648066212123
30,4,0.0,0.7051740153049381,3.148969081826214
30,5,1.0,0.7366637061232002,0.0
30,5,0.75,0.7864569385661797,-4.979323244297951
30,5,0.5,0.7903640473452659,-5.370034122206569
30,5,0.25,0.781007038296279,-4.434333217307884
30,5,0.0,0.7036322623299809,3.3031443793219317
30,6,1.0,0.7366637061232002,0.0
30,6,0.75,0.7653761654860428,-2.8712459362842613
30,6,0.5,0.7644652352326085,-2.780152910940825
30,6,0.25,0.7514068102618969,-1.4743104138696728
30,6,0.0,0.7611916760043107,-2.45279698811105
30,7,1.0,0.7366637061232002,0.0
30,7,0.75,0.7521596505299013,-1.54959444067011
30,7,0.5,0.7509011183662129,-1.423741224301267
30,7,0.25,0.7421962453620449,-0.5532539238844669
30,7,0.0,0.7245113387781614,1.2152367345038773
30,8,1.0,0.7366637061232002,0.0
30,8,0.75,0.7357182875021343,0.09454186210658966
30,8,0.5,0.7374678650494686,-0.08041589262683946
30,8,0.25,0.7451725918732526,-0.8508885750052375
30,8,0.0,0.7475242225033862,-1.0860516380186036
31,0,1.0,0.7125573788053111,0.0
31,0,0.75,0.7094399751610051,0.3117403644306016
31,0,0.5,0.6856731918476197,2.688418695769146
31,0,0.25,0.6754936051345831,3.7063773670727995
31,0,0.0,0.6791718504704076,3.338552833490349
31,1,1.0,0.7125573788053111,0.0
31,1,0.75,0.7138776820748469,-0.13203032695358052
31,1,0.5,0.6903570861627489,2.220029264256218
31,1,0.25,0.6697273795465872,4.282999925872389
31,1,0.0,0.6473859320767604,6.517144672855069
31,2,1.0,0.7125573788053111,0.0
31,2,0.75,0.704472808823789,0.8084569981522072
31,2,0.5,0.668433479807458,4.412389899785307
31,2,0.25,0.620314631194713,9.224274761059814
31,2,0.0,0.5718806801348209,14.067669867049027
31,3,1.0,0.7125573788053111,0.0
31,3,0.75,0.7198437336406921,-0.7286354835380981
31,3,0.5,0.7124089504290025,0.014842837630857364
31,3,0.25,0.6861961094228266,2.636126938248451
31,3,0.0,0.6561866270386104,5.63707517667007
31,4,1.0,0.7125573788053111,0.0
31,4,0.75,0.73839237900561,-2.583500020029883
31,4,0.5,0.7395938981526917,-2.7036519347380605
31,4,0.25,0.7189664707850751,-0.6409091979764026
31,4,0.0,0.6777223168174332,3.483506198787789
31,5,1.0,0.7125573788053111,0.0
31,5,0.75,0.7013677724546925,1.1189606350618608
31,5,0.5,0.684768595006555,2.7788783798756156
31,5,0.25,0.6672588829850237,4.529849582028744
31,5,0.0,0.627700245754846,8.485713305046517
31,6,1.0,0.7125573788053111,0.0
31,6,0.75,0.7137689384590017,-0.12115596536905748
31,6,0.5,0.712602508493733,-0.0045129688421852165
31,6,0.25,0.7113520217315789,0.12053570737322605
31,6,0.0,0.6942118200256093,1.8345558779701787
31,7,1.0,0.7125573788053111,0.0
31,7,0.75,0.6981565750971273,1.4400803708183862
31,7,0.5,0.6758569510184029,3.6700427786908185
31,7,0.25,0.6160308138789822,9.652656492632893
31,7,0.0,0.5605544953005008,15.200288350481028
31,8,1.0,0.7125573788053111,0.0
31,8,0.75,0.7055208719729427,0.703650683236845
31,8,0.5,0.6728125651652591,3.9744813640052
31,8,0.25,0.6113982892611782,10.115908954413289
31,8,0.0,0.611067991829777,10.148938697553412
32,0,1.0,0.7374596660049871,0.0
32,0,0.75,0.719225012052003,1.8234653952984181
32,0,0.5,0.7028381092801821,3.4621556724805047
32,0,0.25,0.6960722170749587,4.138744893002844
32,0,0.0,0.6899374277153341,4.752223828965308
32,1,1.0,0.7374596660049871,0.0
32,1,0.75,0.7288945191679259,0.8565146837061222
32,1,0.5,0.7228975858474573,1.45620801575298
32,1,0.25,0.6837780911468139,5.368157485817326
32,1,0.0,0.656262691582441,8.119697442254614
32,2,1.0,0.7374596660049871,0.0
32,2,0.75,0.7468955815204226,-0.9435915515435433
32,2,0.5,0.7698186881961621,-3.2359022191174924
32,2,0.25,0.7738747811328457,-3.6415115127858555
32,2,0.0,0.7467459946050172,-0.9286328600030092
32,3,1.0,0.7374596660049871,0.0
32,3,0.75,0.7338280142829355,0.36316517220515987
32,3,0.5,0.7322430553399365,0.5216610665050636
32,3,0.25,0.7183605071846229,1.9099158820364281
32,3,0.0,0.7094667863115773,2.79928796934098
32,4,1.0,0.7374596660049871,0.0
32,4,0.75,0.7277008784800357,0.9758787524951407
32,4,0.5,0.7062372741583316,3.122239184665554
32,4,0.25,0.6779030307579534,5.95566352470337
32,4,0.0,0.6443768786526682,9.30827873523189
32,5,1.0,0.7374596660049871,0.0
32,5,0.75,0.7230974550096485,1.4362210995338631
32,5,0.5,0.700647390577477,3.681227542751009
32,5,0.25,0.5403386815886816,19.712098441630555
32,5,0.0,0.35776594826132035,37.96937177436668
32,6,1.0,0.7374596660049871,0.0
32,6,0.75,0.7275005936343241,0.9959072370663069
32,6,0.5,0.7230747371412334,1.4384928863753754
32,6,0.25,0.690662725613335,4.679694039165216
32,6,0.0,0.6524989098248138,8.49607561801733
32,7,1.0,0.7374596660049871,0.0
32,7,0.75,0.7440557238461094,-0.6596057841122271
32,7,0.5,0.6926091332484869,4.485053275650019
32,7,0.25,0.6390522958457742,9.840737015921297
32,7,0.0,0.5945431282366501,14.291653776833702
32,8,1.0,0.7374596660049871,0.0
32,8,0.75,0.7307067860504872,0.6752879954499913
32,8,0.5,0.6938302350298176,4.362943097516958
32,8,0.25,0.6740126191527148,6.3447046852272315
32,8,0.0,0.6298674089424231,10.759225706256403
33,0,1.0,0.8417583966229251,0.0
33,0,0.75,0.8639864332950951,-2.2228036672169993
33,0,0.5,0.8340714804440295,0.7686916178895609
33,0,0.25,0.8022627867586786,3.9495609864246495
33,0,0.0,0.7547331984557768,8.702519816714826
33,1,1.0,0.8417583966229251,0.0
33,1,0.75,0.8508855292793435,-0.9127132656418402
33,1,0.5,0.8181712700282489,2.358712659467621
33,1,0.25,0.749513589370048,9.224480725287709
33,1,0.0,0.7154998190656703,12.625857755725479
33,2,1.0,0.8417583966229251,0.0
33,2,0.75,0.8534354699491988,-1.1677073326273768
33,2,0.5,0.8332131902484522,0.8545206374472869
33,2,0.25,0.8049331042252137,3.6825292397711373
33,2,0.0,0.7464430951579776,9.531530146494749
33,3,1.0,0.8417583966229251,0.0
33,3,0.75,0.8630155653162805,-2.1257168693355477
33,3,0.5,0.8694860901180603,-2.7727693495135264
33,3,0.25,0.8487811834183515,-0.702278679542645
33,3,0.0,0.812780750304434,2.897764631849109
33,4,1.0,0.8417583966229251,0.0
33,4,0.75,0.8586877739316928,-1.6929377308767757
33,4,0.5,0.8645400253834482,-2.2781628760523143
33,4,0.25,0.864429961951029,-2.267156532810388
33,4,0.0,0.8342985434376944,0.745985318523068
33,5,1.0,0.8417583966229251,0.0
33,5,0.75,0.8673262201242885,-2.556782350136344
33,5,0.5,0.8101669413560892,3.159145526683582
33,5,0.25,0.7586043179440105,8.315407867891455
33,5,0.0,0.6729818194038377,16.877657721908733
33,6,1.0,0.8417583966229251,0.0
33,6,0.75,0.8582646950433019,-1.6506298420376875
33,6,0.5,0.8379138752604922,0.3844521362432851
33,6,0.25,0.8425397179068861,-0.07813212839610228
33,6,0.0,0.8175891589983061,2.4169237624618978
33,7,1.0,0.8417583966229251,0.0
33,7,0.75,0.841038766293704,0.0719630329221066
33,7,0.5,0.8233805618798772,1.8377834743047883
33,7,0.25,0.7759286252934958,6.582977132942924
33,7,0.0,0.7082515720171344,13.350682460579065
33,8,1.0,0.8417583966229251,0.0
33,8,0.75,0.8716234103812341,-2.986501375830908
33,8,0.5,0.8807752776000857,-3.9016880977160606
33,8,0.25,0.8516340262036719,-0.9875629580746836
33,8,0.0,0.7960439146486755,4.571448197424955
34,0,1.0,0.880026858764266,0.0
34,0,0.75,0.8765670809769328,0.3459777787333196
34,0,0.5,0.8608552933974255,1.9171565366840504
34,0,0.25,0.8242638610749369,5.576299768932913
34,0,0.0,0.7598556610186403,12.017119774562568
34,1,1.0,0.880026858764266,0.0
34,1,0.75,0.8661460292224368,1.3880829541829232
34,1,0.5,0.8568856856387619,2.314117312550412
34,1,0.25,0.8334450505281065,4.658180823615954
34,1,0.0,0.8094958260846112,7.0531032679654775
34,2,1.0,0.880026858764266,0.0
34,2,0.75,0.8560299553160473,2.39969034482187
34,2,0.5,0.8383415537104062,4.168530505385981
34,2,0.25,0.7959916131059467,8.403524565831933
34,2,0.0,0.7495327846551039,13.049407410916213
34,3,1.0,0.880026858764266,0.0
34,3,0.75,0.8799741143545452,0.0052744409720806296
34,3,0.5,0.8704603886067235,0.9566470157542528
34,3,0.25,0.8491159708762461,3.091088788801988
34,3,0.0,0.8281855844032615,5.18412743610045
34,4,1.0,0.880026858764266,0.0
34,4,0.75,0.8714988842461554,0.8527974518110604
34,4,0.5,0.8580591506022305,2.1967708162035526
34,4,0.25,0.8307506059732411,4.927625279102488
34,4,0.0,0.7879823471248139,9.204451163945215
34,5,1.0,0.880026858764266,0.0
34,5,0.75,0.8700654982580018,0.9961360506264172
34,5,0.5,0.8709660158676364,0.9060842896629562
34,5,0.25,0.8668146128280632,1.3212245936202849
34,5,0.0,0.8274139898931019,5.2612868871164125
34,6,1.0,0.880026858764266,0.0
34,6,0.75,0.8774196697320493,0.26071890322166835
34,6,0.5,0.858577166366606,2.1449692397660036
34,6,0.25,0.8439429006853673,3.608395807889875
34,6,0.0,0.8075941554987034,7.243270326556262
34,7,1.0,0.880026858764266,0.0
34,7,0.75,0.885000544349955,-0.4973685585689003
34,7,0.5,0.858068041086909,2.1958817677356968
34,7,0.25,0.813819858709423,6.620700005484304
34,7,0.0,0.7313994438349545,14.862741492931153
34,8,1.0,0.880026858764266,0.0
34,8,0.75,0.8798164399348752,0.021041882939076828
34,8,0.5,0.8695850314132273,1.0441827351038713
34,8,0.25,0.8550857264842691,2.4941132279996947
34,8,0.0,0.811714655661192,6.831220310307396
35,0,1.0,0.6844620943632597,0.0
35,0,0.75,0.6819304240652463,0.25316702980133776
35,0,0.5,0.6775173373259049,0.6944757037354754
35,0,0.25,0.6255891632015573,5.887293116170234
35,0,0.0,0.579365836917395,10.50962574458647
35,1,1.0,0.6844620943632597,0.0
35,1,0.75,0.6671991395987091,1.726295476455053
35,1,0.5,0.6645316197802601,1.9930474582999569
35,1,0.25,0.661270431501273,2.3191662861986706
35,1,0.0,0.6410270129521293,4.343508141113039
35,2,1.0,0.6844620943632597,0.0
35,2,0.75,0.6766679338822541,0.7794160481005563
35,2,0.5,0.6739675331395646,1.0494561223695076
35,2,0.25,0.6694600361794959,1.5002058183763767
35,2,0.0,0.6537164705248634,3.0745623838396297
35,3,1.0,0.6844620943632597,0.0
35,3,0.75,0.6761406067980462,0.8321487565213448
35,3,0.5,0.654641127796669,2.982096656659061
35,3,0.25,0.6461540066968304,3.8308087666429236
35,3,0.0,0.6364455093787307,4.801658498452898
35,4,1.0,0.6844620943632597,0.0
35,4,0.75,0.684549244737332,-0.008715037407236448
35,4,0.5,0.687943923704262,-0.3481829341002385
35,4,0.25,0.6868487384934754,-0.23866441302157204
35,4,0.0,0.6600120119323628,2.445008243089686
35,5,1.0,0.6844620943632597,0.0
35,5,0.75,0.6904082163552093,-0.594612199194966
35,5,0.5,0.6903190804369934,-0.585698607373375
35,5,0.25,0.6921979679020583,-0.7735873538798677
35,5,0.0,0.6556989738617034,2.876312050155627
35,6,1.0,0.6844620943632597,0.0
35,6,0.75,0.6847234735401054,-0.026137917684576628
35,6,0.5,0.6892480100699975,-0.4785915706737809
35,6,0.25,0.6927038662858414,-0.8241771922581687
35,6,0.0,0.6903135793427331,-0.5851484979473409
35,7,1.0,0.6844620943632597,0.0
35,7,0.75,0.6863913029255581,-0.192920856229839
35,7,0.5,0.6836358426441692,0.08262517190904539
35,7,0.25,0.6757662822490408,0.8695812114218882
35,7,0.0,0.6647138405880846,1.9748253775175084
35,8,1.0,0.6844620943632597,0.0
35,8,0.75,0.6759113421111411,0.8550752252118543
35,8,0.5,0.6800284027879608,0.4433691575298826
35,8,0.25,0.6538105528069933,3.065154155626637
35,8,0.0,0.5964036066969974,8.805848766626223
36,0,1.0,0.6764884322403497,0.0
36,0,0.75,0.6730879448553615,0.34004873849882156
36,0,0.5,0.6698429229842217,0.6645509256128057
36,0,0.25,0.6596959310380747,1.6792501202275045
36,0,0.0,0.647823627778126,2.8664804462223747
36,1,1.0,0.6764884322403497,0.0
36,1,0.75,0.6812560177246662,-0.4767585484316439
36,1,0.5,0.651697853711452,2.4790578528897766
36,1,0.25,0.6182430644664869,5.82453677738628
36,1,0.0,0.5821999252691936,9.42885069711561
36,2,1.0,0.6764884322403497,0.0
36,2,0.75,0.683813154178075,-0.7324721937725265
36,2,0.5,0.6797554771884172,-0.326704494806751
36,2,0.25,0.6662378591599833,1.0250573080366365
36,2,0.0,0.623032374525962,5.345605771438766
36,3,1.0,0.6764884322403497,0.0
36,3,0.75,0.6707520894918875,0.5736342748462242
36,3,0.5,0.657621364446429,1.8867067793920667
36,3,0.25,0.6422002635046113,3.4288168735738367
36,3,0.0,0.6273353644083476,4.915306783200213
36,4,1.0,0.6764884322403497,0.0
36,4,0.75,0.6900715086613195,-1.3583076420969786
36,4,0.5,0.6769749495782789,-0.048651733792914875
36,4,0.25,0.6601776608614291,1.6310771378920563
36,4,0.0,0.6441579221801039,3.2330510060245787
36,5,1.0,0.6764884322403497,0.0
36,5,0.75,0.6862794125881919,-0.9790980347842204
36,5,0.5,0.6817073844030366,-0.5218952162686863
36,5,0.25,0.679900075815411,-0.3411643575061296
36,5,0.0,0.6296573831954799,4.683104904486979
36,6,1.0,0.6764884322403497,0.0
36,6,0.75,0.67033861570138,0.6149816538969732
36,6,0.5,0.6625128345912008,1.3975597649148908
36,6,0.25,0.6519092908481221,2.457914139222761
36,6,0.0,0.6342133845767567,4.227504766359303
36,7,1.0,0.6764884322403497,0.0
36,7,0.75,0.6525927828011162,2.38956494392335
36,7,0.5,0.6420414763736549,3.4446955866694773
36,7,0.25,0.5908812360381543,8.560719620219537
36,7,0.0,0.538153123711954,13.833530852839571
36,8,1.0,0.6764884322403497,0.0
36,8,0.75,0.657302910211112,1.9185522029237734
36,8,0.5,0.6377153621145584,3.8773070125791342
36,8,0.25,0.611247176201803,6.524125603854669
36,8,0.0,0.5847496075467663,9.173882469358341
37,0,1.0,0.8554295866502439,0.0
37,0,0.75,0.8526328711324785,0.27967155177653913
37,0,0.5,0.8259688852066648,2.946070144357915
37,0,0.25,0.7742944809377009,8.1135105712543
37,0,0.0,0.7122089773314978,14.322060931874613
37,1,1.0,0.8554295866502439,0.0
37,1,0.75,0.8556741812695261,-0.024459461928216797
37,1,0.5,0.8340517633122874,2.137782333795657
37,1,0.25,0.7909828731388834,6.444671351136055
37,1,0.0,0.7432358800127016,11.219370663754235
37,2,1.0,0.8554295866502439,0.0
37,2,0.75,0.8569607843137255,-0.15311976634815316
37,2,0.5,0.8496395308400497,0.5790055810194206
37,2,0.25,0.8307683093685277,2.4661277281716187
37,2,0.0,0.7833900516319559,7.203953501828808
37,3,1.0,0.8554295866502439,0.0
37,3,0.75,0.8543810446314427,0.1048542018801224
37,3,0.5,0.8450062638456051,1.0423322804638868
37,3,0.25,0.8309500605249109,2.4479526125332995
37,3,0.0,0.8036433554066329,5.178623124361104
37,4,1.0,0.8554295866502439,0.0
37,4,0.75,0.8673843862772094,-1.195479962696544
37,4,0.5,0.8830428196958001,-2.7613233045556185
37,4,0.25,0.8651998045714564,-0.9770217921212465
37,4,0.0,0.8043008409902334,5.112874566001057
37,5,1.0,0.8554295866502439,0.0
37,5,0.75,0.8627079453263097,-0.7278358676065744
37,5,0.5,0.872260721280715,-1.6831134630471034
37,5,0.25,0.857988634496084,-0.25590478458400456
37,5,0.0,0.8030530184774394,5.237656817280456
37,6,1.0,0.8554295866502439,0.0
37,6,0.75,0.849525955746613,0.5903630903630885
37,6,0.5,0.84183457672323,1.3595009927013901
37,6,0.25,0.8168269554740416,3.860263117620233
37,6,0.0,0.8060286592036876,4.940092744655633
37,7,1.0,0.8554295866502439,0.0
37,7,0.75,0.8400863404737116,1.5343246176532377
37,7,0.5,0.7570916796951339,9.833790695511002
37,7,0.25,0.7201632155828712,13.526637106737272
37,7,0.0,0.7208471105190428,13.458247613120111
37,8,1.0,0.8554295866502439,0.0
37,8,0.75,0.8454178559537064,1.001173069653749
37,8,0.5,0.8350884579486963,2.0341128701547584
37,8,0.25,0.8030724123413073,5.2357174308936605
37,8,0.0,0.8004992140705558,5.493037257968814
38,0,1.0,0.817645743643451,0.0
38,0,0.75,0.8070000158150081,1.0645727828442864
38,0,0.5,0.7804595931715944,3.7186150471856583
38,0,0.25,0.768758076067328,4.888766757612295
38,0,0.0,0.7500225986304393,6.762314501301169
38,1,1.0,0.817645743643451,0.0
38,1,0.75,0.8031483890157113,1.4497354627739711
38,1,0.5,0.7929154383840655,2.4730305259385466
38,1,0.25,0.7680656925767388,4.958005106671215
38,1,0.0,0.7385358331752849,7.910991046816607
38,2,1.0,0.817645743643451,0.0
38,2,0.75,0.8036765643360543,1.3969179307396717
38,2,0.5,0.7925879484999314,2.505779514351958
38,2,0.25,0.7643456385064388,5.330010513701222
38,2,0.0,0.7486139577782333,6.903178586521774
38,3,1.0,0.817645743643451,0.0
38,3,0.75,0.8296738012537187,-1.2028057610267706
38,3,0.5,0.8522257227046925,-3.457997906124155
38,3,0.25,0.8219346717838004,-0.4288928140349424
38,3,0.0,0.8078432429160103,0.980250072744071
38,4,1.0,0.817645743643451,0.0
38,4,0.75,0.8166084915223119,0.10372521211391428
38,4,0.5,0.778608789122199,3.9036954521252
38,4,0.25,0.7315993359158826,8.604640772756845
38,4,0.0,0.6037207629200324,21.39249807234186
38,5,1.0,0.817645743643451,0.0
38,5,0.75,0.8215552824078325,-0.3909538764381493
38,5,0.5,0.8130623184678987,0.4583425175552325
38,5,0.25,0.7660694459423185,5.157629770113248
38,5,0.0,0.6488178914976012,16.882785214584985
38,6,1.0,0.817645743643451,0.0
38,6,0.75,0.8257878353496917,-0.8142091706240695
38,6,0.5,0.8156395377736374,0.20062058698135932
38,6,0.25,0.8112533966091315,0.6392347034319457
38,6,0.0,0.8131117720903993,0.45339715530516855
38,7,1.0,0.817645743643451,0.0
38,7,0.75,0.8076830595833456,0.9962684060105365
38,7,0.5,0.7945158084679123,2.312993517553874
38,7,0.25,0.780043034659146,3.7602708984304956
38,7,0.0,0.7086516233439809,10.899412029947008
38,8,1.0,0.817645743643451,0.0
38,8,0.75,0.8164569590542505,0.11887845892004645
38,8,0.5,0.8082299031035969,0.9415840539854115
38,8,0.25,0.7912927923038724,2.63529513395786
38,8,0.0,0.7872844016689151,3.0361341974535883
39,0,1.0,0.7494214187736421,0.0
39,0,0.75,0.7301771877419597,1.924423103168238
39,0,0.5,0.7156807974383445,3.374062133529765
39,0,0.25,0.6618695594036766,8.755185936996545
39,0,0.0,0.6066050557167426,14.281636305689949
39,1,1.0,0.7494214187736421,0.0
39,1,0.75,0.7388504626198954,1.0570956153746702
39,1,0.5,0.7211176882765404,2.8303730497101665
39,1,0.25,0.736244356598859,1.3177062174783094
39,1,0.0,0.6966049594291231,5.281645934451895
39,2,1.0,0.7494214187736421,0.0
39,2,0.75,0.758128406619786,-0.8706987846143877
39,2,0.5,0.7596586406075186,-1.0237221833876542
39,2,0.25,0.7527012508715996,-0.3279832097957458
39,2,0.0,0.7289837488586928,2.043766991494933
39,3,1.0,0.7494214187736421,0.0
39,3,0.75,0.7389066695328943,1.05147492407478
39,3,0.5,0.7170457413095308,3.2375677464111297
39,3,0.25,0.6638427591305245,8.557865964311762
39,3,0.0,0.6189939090500713,13.042750972357076
39,4,1.0,0.7494214187736421,0.0
39,4,0.75,0.7439656079045219,0.545581086912017
39,4,0.5,0.7323641819635415,1.7057236810100629
39,4,0.25,0.6900075237035942,5.941389507004791
39,4,0.0,0.675849526025515,7.357189274812715
39,5,1.0,0.7494214187736421,0.0
39,5,0.75,0.7331043986344762,1.6317020139165916
39,5,0.5,0.7196950325160272,2.9726386257614923
39,5,0.25,0.6319883580468272,11.743306072681492
39,5,0.0,0.6195901901817231,12.983122859191898
39,6,1.0,0.7494214187736421,0.0
39,6,0.75,0.7501660159788766,-0.0744597205234454
39,6,0.5,0.7448739272918985,0.4547491481743604
39,6,0.25,0.7472419402543625,0.21794785192795763
39,6,0.0,0.7527919814763272,-0.3370562702685098
39,7,1.0,0.7494214187736421,0.0
39,7,0.75,0.7631222402510607,-1.3700821477418579
39,7,0.5,0.7463434987764856,0.3077919997156453
39,7,0.25,0.7013412247302621,4.808019404338005
39,7,0.0,0.6592823626653722,9.013905610826988
39,8,1.0,0.7494214187736421,0.0
39,8,0.75,0.7687745796160514,-1.9353160842409345
39,8,0.5,0.7862561723082979,-3.6834753534655817
39,8,0.25,0.7636532926194295,-1.423187384578739
39,8,0.0,0.7710251071347696,-2.160368836112747
40,0,1.0,0.7405411707360512,0.0
40,0,0.75,0.7433348673586364,-0.2793696622585218
40,0,0.5,0.7240592266683348,1.6481944067716414
40,0,0.25,0.6821955753500173,5.83455953860339
40,0,0.0,0.6559549378181839,8.458623291786726
40,1,1.0,0.7405411707360512,0.0
40,1,0.75,0.7495337372865751,-0.8992566550523939
40,1,0.5,0.737048575797443,0.34925949386082067
40,1,0.25,0.7190889962122832,2.145217452376802
40,1,0.0,0.7041798503631489,3.6361320372902295
40,2,1.0,0.7405411707360512,0.0
40,2,0.75,0.748027459978208,-0.7486289242156774
40,2,0.5,0.7601070441009387,-1.9565873364887465
40,2,0.25,0.7540204109608698,-1.3479240224818612
40,2,0.0,0.7464118506234376,-0.5870679887386432
40,3,1.0,0.7405411707360512,0.0
40,3,0.75,0.7546310137909253,-1.4089843054874152
40,3,0.5,0.7382846211973826,0.22565495386686063
40,3,0.25,0.7200871846518523,2.0453986084198905
40,3,0.0,0.6773560573647954,6.318511337125576
40,4,1.0,0.7405411707360512,0.0
40,4,0.75,0.7457632839673191,-0.5222113231267866
40,4,0.5,0.7346339804489507,0.5907190287100517
40,4,0.25,0.7242363541478435,1.6304816588207705
40,4,0.0,0.7148878833076626,2.565328742838857
40,5,1.0,0.7405411707360512,0.0
40,5,0.75,0.7463767408941363,-0.5835570158085113
40,5,0.5,0.7486284582827426,-0.8087287546691413
40,5,0.25,0.7406329899094375,-0.00918191733862983
40,5,0.0,0.6752497646061248,6.529140612992634
40,6,1.0,0.7405411707360512,0.0
40,6,0.75,0.7513881449580257,-1.084697422197456
40,6,0.5,0.7470777629233512,-0.6536592187299961
40,6,0.25,0.7192295890951382,2.1311581640912958
40,6,0.0,0.6895466706784597,5.099450005759154
40,7,1.0,0.7405411707360512,0.0
40,7,0.75,0.7318462689260538,0.8694901809997435
40,7,0.5,0.7117493936879811,2.879177704807012
40,7,0.25,0.6423285238543693,9.821264688168185
40,7,0.0,0.5676945020590991,17.284666867695208
40,8,1.0,0.7405411707360512,0.0
40,8,0.75,0.7386262473212684,0.1914923414782832
40,8,0.5,0.7187249197753393,2.1816250960711936
40,8,0.25,0.6803822500570668,6.015892067898443
40,8,0.0,0.6044041507744855,13.613701996156568
