subject,channel,f1_full,f1_occluded,drop_pp
1,0,0.576212319352363,0.5258309326290221,5.03813867233408
1,1,0.576212319352363,0.492138876423871,8.407344292849196
1,2,0.576212319352363,0.41948384104594216,15.672847830642079
1,3,0.576212319352363,0.5063736931527443,6.983862619961867
1,4,0.576212319352363,0.48206632674976996,9.4145992602593
1,5,0.576212319352363,0.41431876268839407,16.18935566639689
1,6,0.576212319352363,0.5852914779496431,-0.9079158597280146
1,7,0.576212319352363,0.5095195790926341,6.669274025972882
1,8,0.576212319352363,0.4580663194026996,11.814599994966335
2,0,0.7951095356555473,0.7153187101802538,7.979082547529348
2,1,0.7951095356555473,0.67338762132042,12.172191433512737
2,2,0.7951095356555473,0.6176470307849398,17.746250487060756
2,3,0.7951095356555473,0.7135978192148242,8.151171644072308
2,4,0.7951095356555473,0.7290419221117219,6.60676135438254
2,5,0.7951095356555473,0.7420842967656694,5.302523888987787
2,6,0.7951095356555473,0.7288875957374694,6.62219399180779
2,7,0.7951095356555473,0.6125078755748716,18.260166008067568
2,8,0.7951095356555473,0.7464744539382347,4.863508171731256
3,0,0.8770903352171363,0.643889689116666,23.32006461004703
3,1,0.8770903352171363,0.7367595947125507,14.033074050458561
3,2,0.8770903352171363,0.8270131603846843,5.0077174832452
3,3,0.8770903352171363,0.5435761294449744,33.351420577216196
3,4,0.8770903352171363,0.7525088558418407,12.458147937529562
3,5,0.8770903352171363,0.6800557253078412,19.70346099092951
3,6,0.8770903352171363,0.8302651501327658,4.682518508437051
3,7,0.8770903352171363,0.6937124620328299,18.337787318430642
3,8,0.8770903352171363,0.7575962031072152,11.94941321099211
4,0,0.7949977445767492,0.6949438626076918,10.00538819690574
4,1,0.7949977445767492,0.6763160826441186,11.868166193263063
4,2,0.7949977445767492,0.7259488199565889,6.904892462016033
4,3,0.7949977445767492,0.7215729381536568,7.342480642309246
4,4,0.7949977445767492,0.6985330405110257,9.64647040657235
4,5,0.7949977445767492,0.7171608007245545,7.783694385219475
4,6,0.7949977445767492,0.7462043554241089,4.8793389152640305
4,7,0.7949977445767492,0.6833002914781554,11.16974530985938
4,8,0.7949977445767492,0.692856444876262,10.214129970048724
5,0,0.5524977491551536,0.5473219719217222,0.5175777233431433
5,1,0.5524977491551536,0.5083123254383788,4.41854237167748
5,2,0.5524977491551536,0.4957739105211837,5.67238386339699
5,3,0.5524977491551536,0.5715486433554002,-1.9050894200246637
5,4,0.5524977491551536,0.5257723148508364,2.6725434304317175
5,5,0.5524977491551536,0.47135954319079243,8.113820596436117
5,6,0.5524977491551536,0.5688976348396638,-1.639988568451023
5,7,0.5524977491551536,0.5016077568053969,5.088999234975667
5,8,0.5524977491551536,0.4642266460637696,8.827110309138398
6,0,0.6755765017739466,0.5836324556774347,9.194404609651185
6,1,0.6755765017739466,0.5852501632457965,9.032633852815009
6,2,0.6755765017739466,0.5256907439307102,14.988575784323633
6,3,0.6755765017739466,0.5650614277550429,11.05150740189037
6,4,0.6755765017739466,0.5856089520779302,8.99675496960164
6,5,0.6755765017739466,0.4000163762311185,27.556012554282805
6,6,0.6755765017739466,0.625488135202767,5.008836657117954
6,7,0.6755765017739466,0.47721414916909227,19.83623526048543
6,8,0.6755765017739466,0.5844789014453237,9.10976003286229
7,0,0.7410860177404295,0.5538215670349382,18.726445070549126
7,1,0.7410860177404295,0.5863593503136783,15.472666742675123
7,2,0.7410860177404295,0.6429171144796415,9.816890326078799
7,3,0.7410860177404295,0.5545305432342804,18.655547450614907
7,4,0.7410860177404295,0.6692471898959986,7.183882784443085
7,5,0.7410860177404295,0.6219527940282573,11.913322371217216
7,6,0.7410860177404295,0.7057582121282829,3.5327805612146546
7,7,0.7410860177404295,0.5566096659247461,18.447635181568334
7,8,0.7410860177404295,0.6287234090674312,11.23626086729983
8,0,0.7509932786076748,0.5950255541315448,15.596772447613006
8,1,0.7509932786076748,0.7239837915949824,2.7009487012692457
8,2,0.7509932786076748,0.779285883632705,-2.829260502503017
8,3,0.7509932786076748,0.6803328793469903,7.066039926068457
8,4,0.7509932786076748,0.6655230408732048,8.547023773447005
8,5,0.7509932786076748,0.6465506904379574,10.444258816971741
8,6,0.7509932786076748,0.7517521983955657,-0.07589197878908882
8,7,0.7509932786076748,0.6663575736128853,8.463570499478957
8,8,0.7509932786076748,0.6349962297677574,11.599704883991746
9,0,0.8026550098450649,0.7375070588323932,6.514795101267168
9,1,0.8026550098450649,0.6916364086919129,11.101860115315198
9,2,0.8026550098450649,0.7171603735681504,8.549463627691445
9,3,0.8026550098450649,0.7289827737960518,7.367223604901307
9,4,0.8026550098450649,0.6580059727240178,14.464903712104704
9,5,0.8026550098450649,0.7189937419681507,8.36612678769142
9,6,0.8026550098450649,0.75142763892846,5.12273709166049
9,7,0.8026550098450649,0.6955066101527132,10.714839969235168
9,8,0.8026550098450649,0.6556403611561668,14.701464868889813
10,0,0.7400820104052559,0.5522209869846082,18.78610234206477
10,1,0.7400820104052559,0.6357891281736491,10.429288223160682
10,2,0.7400820104052559,0.6569856772182942,8.309633318696175
10,3,0.7400820104052559,0.5790514974956966,16.10305129095593
10,4,0.7400820104052559,0.6919679896052663,4.811402079998961
10,5,0.7400820104052559,0.6566268398742573,8.34551705309986
10,6,0.7400820104052559,0.6943263916090002,4.5755618796255675
10,7,0.7400820104052559,0.5229909536742726,21.70910567309833
10,8,0.7400820104052559,0.6363254179608594,10.37565924443965
11,0,0.8787952278502184,0.7613967358577503,11.73984919924681
11,1,0.8787952278502184,0.7363827534196651,14.241247443055327
11,2,0.8787952278502184,0.8090392567772012,6.975597107301712
11,3,0.8787952278502184,0.7260590944862654,15.273613336395297
11,4,0.8787952278502184,0.755835843373494,12.29593844767244
11,5,0.8787952278502184,0.7465135773854832,13.228165046473517
11,6,0.8787952278502184,0.7431537699585904,13.564145789162795
11,7,0.8787952278502184,0.6548540167975099,22.394121105270848
11,8,0.8787952278502184,0.7584446851199063,12.035054273031209
12,0,0.8368808717175695,0.800705577456289,3.617529426128052
12,1,0.8368808717175695,0.7039879721172411,13.289289960032846
12,2,0.8368808717175695,0.7377181079434499,9.91627637741196
12,3,0.8368808717175695,0.7826064300033682,5.427444171420137
12,4,0.8368808717175695,0.669618218198162,16.72626535194075
12,5,0.8368808717175695,0.7240323163746483,11.284855534292127
12,6,0.8368808717175695,0.8263539903532887,1.0526881364280816
12,7,0.8368808717175695,0.7772536101993467,5.9627261518222845
12,8,0.8368808717175695,0.7277266775009917,10.915419421657779
13,0,0.8602188991115622,0.7883127948908139,7.190610422074839
13,1,0.8602188991115622,0.7254408723942908,13.477802671727146
13,2,0.8602188991115622,0.7645112671833914,9.57076319281709
13,3,0.8602188991115622,0.7781622550481417,8.20566440634205
13,4,0.8602188991115622,0.7749844333763382,8.523446573522408
13,5,0.8602188991115622,0.6347522311582459,22.54666679533164
13,6,0.8602188991115622,0.8391505835982657,2.1068315513296576
13,7,0.8602188991115622,0.8139631876154281,4.625571149613417
13,8,0.8602188991115622,0.880488950711682,-2.0270051600119743
14,0,0.8114333718898796,0.7603892956732659,5.104407621661378
14,1,0.8114333718898796,0.7673189963875413,4.411437550233832
14,2,0.8114333718898796,0.6563546390801696,15.507873280971008
14,3,0.8114333718898796,0.7246409117877366,8.679246010214303
14,4,0.8114333718898796,0.6714636977022691,13.996967418761052
14,5,0.8114333718898796,0.6882760687607349,12.315730312914475
14,6,0.8114333718898796,0.8125098133224404,-0.1076441432560804
14,7,0.8114333718898796,0.7295918367346939,8.184153515518577
14,8,0.8114333718898796,0.7721295455095495,3.9303826380330142
15,0,0.9017147579291832,0.8402779222430252,6.143683568615799
15,1,0.9017147579291832,0.7843455890835455,11.736916884563776
15,2,0.9017147579291832,0.8146741644666741,8.704059346250915
15,3,0.9017147579291832,0.7975118669327463,10.420289099643687
15,4,0.9017147579291832,0.8160746728606582,8.564008506852506
15,5,0.9017147579291832,0.6898532096518674,21.186154827731585
15,6,0.9017147579291832,0.8289150105939036,7.279974733527961
15,7,0.9017147579291832,0.8208303451359901,8.088441279319314
15,8,0.9017147579291832,0.8305678174487688,7.114694048041437
16,0,0.8544197176105711,0.7433449699172068,11.107474769336434
16,1,0.8544197176105711,0.7327600748313735,12.16596427791976
16,2,0.8544197176105711,0.7603650427595441,9.405467485102703
16,3,0.8544197176105711,0.7728192914824098,8.160042612816131
16,4,0.8544197176105711,0.69530169575943,15.91180218511411
16,5,0.8544197176105711,0.6216071498669615,23.28125677436096
16,6,0.8544197176105711,0.8358364943279987,1.8583223282572447
16,7,0.8544197176105711,0.7240367078365579,13.038300977401319
16,8,0.8544197176105711,0.7550610682935068,9.935864931706428
17,0,0.7971479454385437,0.5500412219465398,24.71067234920039
17,1,0.7971479454385437,0.6875366638816909,10.961128155685284
17,2,0.7971479454385437,0.7571882686298687,3.995967680867507
17,3,0.7971479454385437,0.6332247561392728,16.392318929927097
17,4,0.7971479454385437,0.7501588875361562,4.69890579023875
17,5,0.7971479454385437,0.5954756212539887,20.167232418455505
17,6,0.7971479454385437,0.7981560975600882,-0.10081521215444811
17,7,0.7971479454385437,0.7403841362696862,5.676380916885748
17,8,0.7971479454385437,0.6632389598657717,13.390898557277197
18,0,0.7641823724077893,0.6391609324573388,12.502143995045046
18,1,0.7641823724077893,0.7033369393159878,6.084543309180146
18,2,0.7641823724077893,0.6824079644483222,8.177440795946712
18,3,0.7641823724077893,0.6458370595124613,11.834531289532801
18,4,0.7641823724077893,0.6798670063856512,8.431536602213807
18,5,0.7641823724077893,0.5720316951885704,19.215067721921887
18,6,0.7641823724077893,0.7749733686699739,-1.0790996262184605
18,7,0.7641823724077893,0.6817751469361168,8.240722547167245
18,8,0.7641823724077893,0.6541993795959433,10.998299281184599
19,0,0.835189494545073,0.7662856686258681,6.890382591920485
19,1,0.835189494545073,0.7501364504558028,8.505304408927017
19,2,0.835189494545073,0.740901633815372,9.428786072970096
19,3,0.835189494545073,0.746322034449358,8.8867460095715
19,4,0.835189494545073,0.696871811368328,13.831768317674499
19,5,0.835189494545073,0.6678658937756208,16.73236007694522
19,6,0.835189494545073,0.8190922319266907,1.609726261838229
19,7,0.835189494545073,0.7614875139362258,7.370198060884714
19,8,0.835189494545073,0.7716494353494867,6.354005919558626
20,0,0.7806689804522176,0.7107214372282612,6.994754322395636
20,1,0.7806689804522176,0.6562965378787572,12.437244257346036
20,2,0.7806689804522176,0.7073430793028698,7.332590114934778
20,3,0.7806689804522176,0.7346662663301905,4.600271412202705
20,4,0.7806689804522176,0.6909396796752396,8.972930077697793
20,5,0.7806689804522176,0.6945772136226549,8.609176682956265
20,6,0.7806689804522176,0.7243814912672645,5.628748918495308
20,7,0.7806689804522176,0.6688585015005173,11.181047895170027
20,8,0.7806689804522176,0.7118085644154337,6.886041603678383
21,0,0.8067340979445033,0.5676898454405218,23.904425250398155
21,1,0.8067340979445033,0.7640808865872805,4.265321135722289
21,2,0.8067340979445033,0.7686395751060765,3.8094522838426847
21,3,0.8067340979445033,0.5772492748076785,22.948482313682483
21,4,0.8067340979445033,0.7807416761298498,2.5992421814653555
21,5,0.8067340979445033,0.6115470688771069,19.518702906739648
21,6,0.8067340979445033,0.8100133322559793,-0.32792343114759204
21,7,0.8067340979445033,0.7474292714275548,5.930482651694858
21,8,0.8067340979445033,0.7114850616711659,9.524903627333748
22,0,0.7600765481678096,0.5662231668793611,19.385338128844843
22,1,0.7600765481678096,0.680077171150074,7.999937701773552
22,2,0.7600765481678096,0.6653712255645404,9.470532260326914
22,3,0.7600765481678096,0.6059314464618676,15.414510170594198
22,4,0.7600765481678096,0.6489942607652117,11.108228740259785
22,5,0.7600765481678096,0.5993173394927701,16.075920867503946
22,6,0.7600765481678096,0.7051496828126642,5.492686535514535
22,7,0.7600765481678096,0.5723590123868895,18.77175357809201
22,8,0.7600765481678096,0.6418912413616853,11.818530680612426
23,0,0.808677004993982,0.6186457277444714,19.003127724951064
23,1,0.808677004993982,0.7534074289026834,5.526957609129857
23,2,0.808677004993982,0.7260324248703103,8.264458012367172
23,3,0.808677004993982,0.6873882051947489,12.128879979923312
23,4,0.808677004993982,0.7199596609536237,8.871734404035825
23,5,0.808677004993982,0.6122245984732241,19.645240652075792
23,6,0.808677004993982,0.7683722986160755,4.030470637790651
23,7,0.808677004993982,0.7351911395165707,7.348586547741132
23,8,0.808677004993982,0.7025653269921246,10.61116780018574
24,0,0.6842423763276497,0.5977603856281642,8.648199069948548
24,1,0.6842423763276497,0.6252832773016759,5.895909902597385
24,2,0.6842423763276497,0.606014619414974,7.822775691267569
24,3,0.6842423763276497,0.7465620975948002,-6.231972126715046
24,4,0.6842423763276497,0.5355557867238372,14.868658960381254
24,5,0.6842423763276497,0.3354677362837827,34.8774640043867
24,6,0.6842423763276497,0.6024689532999589,8.177342302769086
24,7,0.6842423763276497,0.5175501350476913,16.66922412799584
24,8,0.6842423763276497,0.6661165721939203,1.812580413372944
25,0,0.7681133418431293,0.6940104470922627,7.410289475086662
25,1,0.7681133418431293,0.6677956007386883,10.031774110444102
25,2,0.7681133418431293,0.6751655072860538,9.294783455707545
25,3,0.7681133418431293,0.6883999878544637,7.971335398866564
25,4,0.7681133418431293,0.58305894973209,18.505439211103926
25,5,0.7681133418431293,0.5657397097839929,20.23736320591364
25,6,0.7681133418431293,0.7470426236225611,2.1070718220568163
25,7,0.7681133418431293,0.6248701680619689,14.324317378116035
25,8,0.7681133418431293,0.7379635983421939,3.0149743500935355
26,0,0.6756627031205448,0.6048740654168793,7.07886377036655
26,1,0.6756627031205448,0.635308455922072,4.03542471984728
26,2,0.6756627031205448,0.533485495985496,14.217720713504878
26,3,0.6756627031205448,0.6777746828396102,-0.21119797190654044
26,4,0.6756627031205448,0.5772356069080573,9.842709621248746
26,5,0.6756627031205448,0.5377360989257591,13.792660419478564
26,6,0.6756627031205448,0.6864922093225848,-1.082950620204004
26,7,0.6756627031205448,0.6763585872818695,-0.06958841613247113
26,8,0.6756627031205448,0.609909119162201,6.575358395834375
27,0,0.8419556656791249,0.7652457730821889,7.670989259693606
27,1,0.8419556656791249,0.780308208852673,6.16474568264519
27,2,0.8419556656791249,0.7898328552483951,5.212281043072986
27,3,0.8419556656791249,0.5978772689299006,24.40783967492244
27,4,0.8419556656791249,0.8149795032207876,2.697616245833734
27,5,0.8419556656791249,0.5677224305026042,27.423323517652076
27,6,0.8419556656791249,0.8116340122552381,3.032165342388682
27,7,0.8419556656791249,0.7860252811779955,5.5930384501129415
27,8,0.8419556656791249,0.7259674990190216,11.598816666010336
28,0,0.7718713907265167,0.7765794927971267,-0.47081020706100096
28,1,0.7718713907265167,0.694682992403644,7.718839832287272
28,2,0.7718713907265167,0.7037807569593774,6.809063376713931
28,3,0.7718713907265167,0.7218153556504452,5.005603507607148
28,4,0.7718713907265167,0.6894971554056453,8.23742353208714
28,5,0.7718713907265167,0.7516702484394182,2.020114228709846
28,6,0.7718713907265167,0.7471074751153886,2.476391561112812
28,7,0.7718713907265167,0.6839146720575732,8.79567186689435
28,8,0.7718713907265167,0.6981250308256012,7.37463599009155
29,0,0.8074868869088336,0.5090947844458241,29.83921024630095
29,1,0.8074868869088336,0.7435701399927361,6.39167469160975
29,2,0.8074868869088336,0.7635863158997047,4.390057100912892
29,3,0.8074868869088336,0.7657758367430237,4.17110501658099
29,4,0.8074868869088336,0.6770387061273879,13.044818078144571
29,5,0.8074868869088336,0.7002384839802577,10.724840292857596
29,6,0.8074868869088336,0.7393994583689496,6.808742853988403
29,7,0.8074868869088336,0.698285649677349,10.920123723148468
29,8,0.8074868869088336,0.7275402731720422,7.994661373679146
30,0,0.7366637061232002,0.7412800529422611,-0.4616346819060868
30,1,0.7366637061232002,0.6851420689070091,5.152163721619107
30,2,0.7366637061232002,0.5999515340903453,13.67121720328549
30,3,0.7366637061232002,0.6854320504190349,5.123165570416532
30,4,0.7366637061232002,0.7051740153049381,3.148969081826214
30,5,0.7366637061232002,0.7036322623299809,3.3031443793219317
30,6,0.7366637061232002,0.7611916760043107,-2.45279698811105
30,7,0.7366637061232002,0.7245113387781614,1.2152367345038773
30,8,0.7366637061232002,0.7475242225033862,-1.0860516380186036
31,0,0.7125573788053111,0.6791718504704076,3.338552833490349
31,1,0.7125573788053111,0.6473859320767604,6.517144672855069
31,2,0.7125573788053111,0.5718806801348209,14.067669867049027
31,3,0.7125573788053111,0.6561866270386104,5.63707517667007
31,4,0.7125573788053111,0.6777223168174332,3.483506198787789
31,5,0.7125573788053111,0.627700245754846,8.485713305046517
31,6,0.7125573788053111,0.6942118200256093,1.8345558779701787
31,7,0.7125573788053111,0.5605544953005008,15.200288350481028
31,8,0.7125573788053111,0.611067991829777,10.148938697553412
32,0,0.7374596660049871,0.6899374277153341,4.752223828965308
32,1,0.7374596660049871,0.656262691582441,8.119697442254614
32,2,0.7374596660049871,0.7467459946050172,-0.9286328600030092
32,3,0.7374596660049871,0.7094667863115773,2.79928796934098
32,4,0.7374596660049871,0.6443768786526682,9.30827873523189
32,5,0.7374596660049871,0.35776594826132035,37.96937177436668
32,6,0.7374596660049871,0.6524989098248138,8.49607561801733
32,7,0.7374596660049871,0.5945431282366501,14.291653776833702
32,8,0.7374596660049871,0.6298674089424231,10.759225706256403
33,0,0.8417583966229251,0.7547331984557768,8.702519816714826
33,1,0.8417583966229251,0.7154998190656703,12.625857755725479
33,2,0.8417583966229251,0.7464430951579776,9.531530146494749
33,3,0.8417583966229251,0.812780750304434,2.897764631849109
33,4,0.8417583966229251,0.8342985434376944,0.745985318523068
33,5,0.8417583966229251,0.6729818194038377,16.877657721908733
33,6,0.8417583966229251,0.8175891589983061,2.4169237624618978
33,7,0.8417583966229251,0.7082515720171344,13.350682460579065
33,8,0.8417583966229251,0.7960439146486755,4.571448197424955
34,0,0.880026858764266,0.7598556610186403,12.017119774562568
34,1,0.880026858764266,0.8094958260846112,7.0531032679654775
34,2,0.880026858764266,0.7495327846551039,13.049407410916213
34,3,0.880026858764266,0.8281855844032615,5.18412743610045
34,4,0.880026858764266,0.7879823471248139,9.204451163945215
34,5,0.880026858764266,0.8274139898931019,5.2612868871164125
34,6,0.880026858764266,0.8075941554987034,7.243270326556262
34,7,0.880026858764266,0.7313994438349545,14.862741492931153
34,8,0.880026858764266,0.811714655661192,6.831220310307396
35,0,0.6844620943632597,0.579365836917395,10.50962574458647
35,1,0.6844620943632597,0.6410270129521293,4.343508141113039
35,2,0.6844620943632597,0.6537164705248634,3.0745623838396297
35,3,0.6844620943632597,0.6364455093787307,4.801658498452898
35,4,0.6844620943632597,0.6600120119323628,2.445008243089686
35,5,0.6844620943632597,0.6556989738617034,2.876312050155627
35,6,0.6844620943632597,0.6903135793427331,-0.5851484979473409
35,7,0.6844620943632597,0.6647138405880846,1.9748253775175084
35,8,0.6844620943632597,0.5964036066969974,8.805848766626223
36,0,0.6764884322403497,0.647823627778126,2.8664804462223747
36,1,0.6764884322403497,0.5821999252691936,9.42885069711561
36,2,0.6764884322403497,0.623032374525962,5.345605771438766
36,3,0.6764884322403497,0.6273353644083476,4.915306783200213
36,4,0.6764884322403497,0.6441579221801039,3.2330510060245787
36,5,0.6764884322403497,0.6296573831954799,4.683104904486979
36,6,0.6764884322403497,0.6342133845767567,4.227504766359303
36,7,0.6764884322403497,0.538153123711954,13.833530852839571
36,8,0.6764884322403497,0.5847496075467663,9.173882469358341
37,0,0.8554295866502439,0.7122089773314978,14.322060931874613
37,1,0.8554295866502439,0.7432358800127016,11.219370663754235
37,2,0.8554295866502439,0.7833900516319559,7.203953501828808
37,3,0.8554295866502439,0.8036433554066329,5.178623124361104
37,4,0.8554295866502439,0.8043008409902334,5.112874566001057
37,5,0.8554295866502439,0.8030530184774394,5.237656817280456
37,6,0.8554295866502439,0.8060286592036876,4.940092744655633
37,7,0.8554295866502439,0.7208471105190428,13.458247613120111
37,8,0.8554295866502439,0.8004992140705558,5.493037257968814
38,0,0.817645743643451,0.7500225986304393,6.762314501301169
38,1,0.817645743643451,0.7385358331752849,7.910991046816607
38,2,0.817645743643451,0.7486139577782333,6.903178586521774
38,3,0.817645743643451,0.8078432429160103,0.980250072744071
38,4,0.817645743643451,0.6037207629200324,21.39249807234186
38,5,0.817645743643451,0.6488178914976012,16.882785214584985
38,6,0.817645743643451,0.8131117720903993,0.45339715530516855
38,7,0.817645743643451,0.7086516233439809,10.899412029947008
38,8,0.817645743643451,0.7872844016689151,3.0361341974535883
39,0,0.7494214187736421,0.6066050557167426,14.281636305689949
39,1,0.7494214187736421,0.6966049594291231,5.281645934451895
39,2,0.7494214187736421,0.7289837488586928,2.043766991494933
39,3,0.7494214187736421,0.6189939090500713,13.042750972357076
39,4,0.7494214187736421,0.675849526025515,7.357189274812715
39,5,0.7494214187736421,0.6195901901817231,12.983122859191898
39,6,0.7494214187736421,0.7527919814763272,-0.3370562702685098
39,7,0.7494214187736421,0.6592823626653722,9.013905610826988
39,8,0.7494214187736421,0.7710251071347696,-2.160368836112747
40,0,0.7405411707360512,0.6559549378181839,8.458623291786726
40,1,0.7405411707360512,0.7041798503631489,3.6361320372902295
40,2,0.7405411707360512,0.7464118506234376,-0.5870679887386432
40,3,0.7405411707360512,0.6773560573647954,6.318511337125576
40,4,0.7405411707360512,0.7148878833076626,2.565328742838857
40,5,0.7405411707360512,0.6752497646061248,6.529140612992634
40,6,0.7405411707360512,0.6895466706784597,5.099450005759154
40,7,0.7405411707360512,0.5676945020590991,17.284666867695208
40,8,0.7405411707360512,0.6044041507744855,13.613701996156568
