subject,member,macro_f1,f1_DNS,f1_STDUP,f1_UPS,f1_WAK,crit_err
1,SVM,0.5794510375679751,0.6382978723404256,0.5984251968503937,0.581081081081081,0.5,0.09166666666666666
1,RESNET_SE,0.6039265018397553,0.6431718061674009,0.6307692307692307,0.6204379562043796,0.5213270142180095,0.2
1,soft,0.6299980446785389,0.6727272727272727,0.6268656716417911,0.644927536231884,0.5754716981132075,0.15833333333333333
1,hard,0.6039265018397553,0.6431718061674009,0.6307692307692307,0.6204379562043796,0.5213270142180095,0.2
2,SVM,0.8342684676182944,0.6950354609929078,0.9230769230769231,0.8042328042328042,0.9147286821705426,0.03896103896103896
2,RESNET_SE,0.8751650080839695,0.7733333333333333,0.967032967032967,0.8172043010752689,0.943089430894309,0.012987012987012988
2,soft,0.8993055813454157,0.7945205479452054,0.9565217391304348,0.8540540540540541,0.9921259842519685,0.0
2,hard,0.8751650080839695,0.7733333333333333,0.967032967032967,0.8172043010752689,0.943089430894309,0.012987012987012988
3,SVM,0.7906000828835212,0.7373737373737373,0.8869565217391304,0.8205128205128205,0.7175572519083969,0.12389380530973451
3,RESNET_SE,0.8763225066458815,0.8105263157894737,0.9026548672566371,0.9387755102040817,0.8533333333333334,0.168141592920354
3,soft,0.8841070223526658,0.8247422680412371,0.9272727272727272,0.9387755102040817,0.8456375838926175,0.168141592920354
3,hard,0.8763225066458815,0.8105263157894737,0.9026548672566371,0.9387755102040817,0.8533333333333334,0.168141592920354
4,SVM,0.7273713786776153,0.656084656084656,0.6436781609195402,0.8695652173913043,0.7401574803149606,0.06329113924050633
4,RESNET_SE,0.8563031033906255,0.8202247191011236,0.7789473684210526,0.9206349206349206,0.9054054054054054,0.06329113924050633
4,soft,0.8479403980556055,0.7936507936507936,0.7956989247311828,0.9387755102040817,0.8636363636363636,0.02531645569620253
4,hard,0.8563031033906255,0.8202247191011236,0.7789473684210526,0.9206349206349206,0.9054054054054054,0.06329113924050633
5,SVM,0.6963128551982177,0.6192170818505338,0.8543689320388349,0.6790123456790124,0.6326530612244898,0.16233766233766234
5,RESNET_SE,0.6912558261226648,0.6953405017921147,0.7857142857142857,0.7205882352941176,0.5633802816901409,0.17532467532467533
5,soft,0.7549485929743731,0.7272727272727273,0.8925619834710744,0.7432432432432432,0.6567164179104478,0.14285714285714285
5,hard,0.6912558261226648,0.6953405017921147,0.7857142857142857,0.7205882352941176,0.5633802816901409,0.17532467532467533
6,SVM,0.7359359290934961,0.6010928961748634,0.8842105263157894,0.7622377622377622,0.6962025316455697,0.09574468085106383
6,RESNET_SE,0.8107850180302005,0.7222222222222222,0.8541666666666666,0.8161764705882353,0.8505747126436781,0.0851063829787234
6,soft,0.8139914468579164,0.72,0.9072164948453608,0.8100358422939068,0.8187134502923976,0.07446808510638298
6,hard,0.8107850180302005,0.7222222222222222,0.8541666666666666,0.8161764705882353,0.8505747126436781,0.0851063829787234
7,SVM,0.737159950111196,0.7031963470319634,0.7704918032786885,0.8034188034188035,0.6715328467153284,0.0380952380952381
7,RESNET_SE,0.733836127293697,0.7314814814814815,0.8321167883211679,0.7818181818181819,0.5899280575539568,0.01904761904761905
7,soft,0.7641623738695983,0.7706422018348624,0.8217054263565892,0.8225108225108225,0.6417910447761194,0.009523809523809525
7,hard,0.733836127293697,0.7314814814814815,0.8321167883211679,0.7818181818181819,0.5899280575539568,0.01904761904761905
8,SVM,0.746790657491226,0.6335403726708074,0.9782608695652174,0.784452296819788,0.5909090909090909,0.12790697674418605
8,RESNET_SE,0.8158767148859599,0.7951807228915663,0.9032258064516129,0.84251968503937,0.7225806451612903,0.10465116279069768
8,soft,0.8304856094972392,0.7701863354037267,0.9473684210526315,0.8646616541353384,0.7397260273972602,0.10465116279069768
8,hard,0.8158767148859599,0.7951807228915663,0.9032258064516129,0.84251968503937,0.7225806451612903,0.10465116279069768
9,SVM,0.6805307596119047,0.6666666666666666,0.5753424657534246,0.7591836734693878,0.7209302325581395,0.136
9,RESNET_SE,0.845022531790909,0.8266666666666667,0.8979591836734694,0.8349514563106796,0.8205128205128205,0.112
9,soft,0.8499986131336246,0.8363636363636363,0.8842105263157894,0.8533333333333334,0.8260869565217391,0.096
9,hard,0.845022531790909,0.8266666666666667,0.8979591836734694,0.8349514563106796,0.8205128205128205,0.112
10,SVM,0.7154139711723981,0.6853932584269663,0.9318181818181818,0.7333333333333333,0.5111111111111111,0.02631578947368421
10,RESNET_SE,0.7232078016889165,0.7578947368421053,0.6835443037974683,0.7975460122699386,0.6538461538461539,0.0
10,soft,0.7728044257776208,0.7978723404255319,0.8235294117647058,0.8098159509202454,0.66,0.0
10,hard,0.7232078016889165,0.7578947368421053,0.6835443037974683,0.7975460122699386,0.6538461538461539,0.0
11,SVM,0.8727157351683897,0.8944099378881988,0.8941176470588236,0.8066298342541437,0.8957055214723927,0.012987012987012988
11,RESNET_SE,0.8965862759592181,0.84472049689441,0.9156626506024096,0.9265536723163842,0.8994082840236687,0.06493506493506493
11,soft,0.9186735525152346,0.9202453987730062,0.9176470588235294,0.9090909090909091,0.927710843373494,0.012987012987012988
11,hard,0.8965862759592181,0.84472049689441,0.9156626506024096,0.9265536723163842,0.8994082840236687,0.06493506493506493
12,SVM,0.8093201481447957,0.7142857142857143,0.822429906542056,0.8361581920903954,0.864406779661017,0.07792207792207792
12,RESNET_SE,0.8931014647920834,0.9115646258503401,0.8867924528301887,0.8780487804878049,0.896,0.05194805194805195
12,soft,0.8849171327739794,0.8689655172413793,0.8598130841121495,0.8928571428571429,0.9180327868852459,0.05194805194805195
12,hard,0.8931014647920834,0.9115646258503401,0.8867924528301887,0.8780487804878049,0.896,0.05194805194805195
13,SVM,0.8808300176834659,0.8362068965517241,0.9230769230769231,0.9134615384615384,0.8505747126436781,0.08108108108108109
13,RESNET_SE,0.8953336145378047,0.8908296943231441,0.9174311926605505,0.9107981220657277,0.8622754491017964,0.018018018018018018
13,soft,0.9411091433834463,0.933920704845815,0.9433962264150944,0.9622641509433962,0.9248554913294798,0.02702702702702703
13,hard,0.8953336145378047,0.8908296943231441,0.9174311926605505,0.9107981220657277,0.8622754491017964,0.018018018018018018
14,SVM,0.8005932119473621,0.7729083665338645,0.8627450980392157,0.7985074626865671,0.7682119205298014,0.12030075187969924
14,RESNET_SE,0.7742529398471505,0.7747747747747747,0.8925619834710744,0.7709923664122137,0.6586826347305389,0.15037593984962405
14,soft,0.8316951842220849,0.8050847457627118,0.9391304347826087,0.8235294117647058,0.7590361445783133,0.14285714285714285
14,hard,0.7742529398471505,0.7747747747747747,0.8925619834710744,0.7709923664122137,0.6586826347305389,0.15037593984962405
15,SVM,0.8163275706284578,0.7928994082840237,0.8571428571428571,0.8022598870056498,0.8130081300813008,0.07228915662650602
15,RESNET_SE,0.8606547114166948,0.8837209302325582,0.8192771084337349,0.8470588235294118,0.8925619834710744,0.024096385542168676
15,soft,0.9030492803667304,0.9418604651162791,0.8571428571428571,0.8875739644970414,0.9256198347107438,0.012048192771084338
15,hard,0.8606547114166948,0.8837209302325582,0.8192771084337349,0.8470588235294118,0.8925619834710744,0.024096385542168676
16,SVM,0.7927960304953812,0.7628865979381443,0.8,0.7685185185185185,0.8397790055248618,0.10989010989010989
16,RESNET_SE,0.8419116640547494,0.9180327868852459,0.8181818181818182,0.8050847457627118,0.8263473053892215,0.03296703296703297
16,soft,0.8765613665982461,0.9130434782608695,0.8545454545454545,0.832579185520362,0.9060773480662984,0.04395604395604396
16,hard,0.8419116640547494,0.9180327868852459,0.8181818181818182,0.8050847457627118,0.8263473053892215,0.03296703296703297
17,SVM,0.8231548374008715,0.7772511848341233,0.9642857142857143,0.7846153846153846,0.7664670658682635,0.0761904761904762
17,RESNET_SE,0.8075038800162683,0.7677725118483413,0.8837209302325582,0.8036529680365296,0.774869109947644,0.10476190476190476
17,soft,0.85699946368857,0.8207547169811321,0.957983193277311,0.8340425531914893,0.8152173913043478,0.08571428571428572
17,hard,0.8075038800162683,0.7677725118483413,0.8837209302325582,0.8036529680365296,0.774869109947644,0.10476190476190476
18,SVM,0.7981976763640787,0.6742857142857143,0.9702970297029703,0.841025641025641,0.7071823204419889,0.3023255813953488
18,RESNET_SE,0.911515204612454,0.9058823529411765,0.9345794392523364,0.892018779342723,0.9135802469135802,0.03488372093023256
18,soft,0.9164938058445701,0.9024390243902439,0.9523809523809523,0.9339622641509434,0.8771929824561403,0.11627906976744186
18,hard,0.911515204612454,0.9058823529411765,0.9345794392523364,0.892018779342723,0.9135802469135802,0.03488372093023256
19,SVM,0.7679494937217267,0.8073394495412844,0.8035714285714286,0.7983870967741935,0.6625,0.09345794392523364
19,RESNET_SE,0.8649340525874682,0.8613861386138614,0.9166666666666666,0.8699186991869918,0.8117647058823529,0.08411214953271028
19,soft,0.8776208672306947,0.8955223880597015,0.896551724137931,0.888,0.8304093567251462,0.07476635514018691
19,hard,0.8649340525874682,0.8613861386138614,0.9166666666666666,0.8699186991869918,0.8117647058823529,0.08411214953271028
20,SVM,0.8280807082684554,0.75,0.9545454545454546,0.8309178743961353,0.7768595041322314,0.03529411764705882
20,RESNET_SE,0.8701981580049576,0.8481675392670157,0.967741935483871,0.9441624365482234,0.7207207207207207,0.011764705882352941
20,soft,0.9069543083179447,0.8888888888888888,0.989010989010989,0.94,0.8099173553719008,0.011764705882352941
20,hard,0.8701981580049576,0.8481675392670157,0.967741935483871,0.9441624365482234,0.7207207207207207,0.011764705882352941
21,SVM,0.7812884448130866,0.7414634146341463,0.935064935064935,0.7319587628865979,0.7166666666666667,0.020833333333333332
21,RESNET_SE,0.8843865507367534,0.8421052631578947,0.963855421686747,0.8426966292134831,0.8888888888888888,0.020833333333333332
21,soft,0.8566422957517398,0.8169014084507042,0.9620253164556962,0.8156424581005587,0.832,0.010416666666666666
21,hard,0.8843865507367534,0.8421052631578947,0.963855421686747,0.8426966292134831,0.8888888888888888,0.020833333333333332
22,SVM,0.7650409360589601,0.6859504132231405,0.8909090909090909,0.7375415282392026,0.7457627118644068,0.09523809523809523
22,RESNET_SE,0.7826111508191362,0.7638888888888888,0.9401709401709402,0.6497890295358649,0.776595744680851,0.05555555555555555
22,soft,0.816837432502842,0.7890625,0.9310344827586207,0.7472527472527473,0.8,0.047619047619047616
22,hard,0.7826111508191362,0.7638888888888888,0.9401709401709402,0.6497890295358649,0.776595744680851,0.05555555555555555
23,SVM,0.7360154448509236,0.7062937062937062,0.8539325842696629,0.7527675276752768,0.6310679611650486,0.16666666666666666
23,RESNET_SE,0.8379942975372339,0.8785714285714286,0.9347826086956522,0.7404580152671756,0.7981651376146789,0.006944444444444444
23,soft,0.8464818598519153,0.8493150684931506,0.9247311827956989,0.8,0.8118811881188119,0.020833333333333332
23,hard,0.8379942975372339,0.8785714285714286,0.9347826086956522,0.7404580152671756,0.7981651376146789,0.006944444444444444
24,SVM,0.7417451295328605,0.7419354838709677,0.6097560975609756,0.7411167512690355,0.8741721854304636,0.0641025641025641
24,RESNET_SE,0.848634133689312,0.8414634146341463,0.8672566371681416,0.8737864077669902,0.8120300751879699,0.0641025641025641
24,soft,0.8641336940444578,0.8390804597701149,0.8653846153846154,0.8743718592964824,0.8776978417266187,0.038461538461538464
24,hard,0.848634133689312,0.8414634146341463,0.8672566371681416,0.8737864077669902,0.8120300751879699,0.0641025641025641
25,SVM,0.7902529161254739,0.7134502923976608,0.8604651162790697,0.8469387755102041,0.7401574803149606,0.13953488372093023
25,RESNET_SE,0.8618275232357107,0.9017341040462428,0.8,0.8295454545454546,0.916030534351145,0.046511627906976744
25,soft,0.8890919828306398,0.896551724137931,0.8444444444444444,0.8947368421052632,0.9206349206349206,0.03488372093023256
25,hard,0.8618275232357107,0.9017341040462428,0.8,0.8295454545454546,0.916030534351145,0.046511627906976744
26,SVM,0.711586806784787,0.6232876712328768,0.8759124087591241,0.7027027027027027,0.6444444444444445,0.2158273381294964
26,RESNET_SE,0.8066984126984127,0.7619047619047619,0.9444444444444444,0.776,0.7444444444444445,0.11510791366906475
26,soft,0.7903333382567902,0.7308970099667774,0.920863309352518,0.768,0.7415730337078652,0.16546762589928057
26,hard,0.8066984126984127,0.7619047619047619,0.9444444444444444,0.776,0.7444444444444445,0.11510791366906475
27,SVM,0.8448406757667074,0.774869109947644,0.9555555555555556,0.8341232227488151,0.8148148148148148,0.010752688172043012
27,RESNET_SE,0.8942720615055819,0.8681318681318682,0.9247311827956989,0.882051282051282,0.9021739130434783,0.03225806451612903
27,soft,0.8930673895124972,0.8524590163934426,0.9347826086956522,0.88,0.9050279329608939,0.021505376344086023
27,hard,0.8942720615055819,0.8681318681318682,0.9247311827956989,0.882051282051282,0.9021739130434783,0.03225806451612903
28,SVM,0.7821263294157765,0.7791164658634538,0.8205128205128205,0.8360655737704918,0.6928104575163399,0.0625
28,RESNET_SE,0.8200806771863219,0.8810572687224669,0.8888888888888888,0.8130081300813008,0.6973684210526315,0.008928571428571428
28,soft,0.8785019990004997,0.9224137931034483,0.9782608695652174,0.88,0.7333333333333333,0.026785714285714284
28,hard,0.8200806771863219,0.8810572687224669,0.8888888888888888,0.8130081300813008,0.6973684210526315,0.008928571428571428
29,SVM,0.8217697078831532,0.7755102040816326,0.95,0.8549019607843137,0.7066666666666667,0.05660377358490566
29,RESNET_SE,0.8775836113262601,0.8355555555555556,0.9516129032258065,0.9182879377431906,0.8048780487804879,0.0660377358490566
29,soft,0.8762921438736191,0.8311688311688312,0.9752066115702479,0.918918918918919,0.779874213836478,0.0660377358490566
29,hard,0.8775836113262601,0.8355555555555556,0.9516129032258065,0.9182879377431906,0.8048780487804879,0.0660377358490566
30,SVM,0.8002804262215493,0.7717391304347826,0.8837209302325582,0.8586387434554974,0.6870229007633588,0.14285714285714285
30,RESNET_SE,0.9142811042912462,0.8727272727272727,0.9318181818181818,0.9261083743842364,0.9264705882352942,0.054945054945054944
30,soft,0.8982305104136362,0.8685714285714285,0.9111111111111111,0.9326424870466321,0.8805970149253731,0.06593406593406594
30,hard,0.9142811042912462,0.8727272727272727,0.9318181818181818,0.9261083743842364,0.9264705882352942,0.054945054945054944
31,SVM,0.6899581432205819,0.5660377358490566,0.8888888888888888,0.6263345195729537,0.6785714285714286,0.06382978723404255
31,RESNET_SE,0.7644814868585685,0.6824644549763034,0.9504950495049505,0.7449664429530202,0.68,0.09574468085106383
31,soft,0.7758926581146455,0.6826923076923077,0.9504950495049505,0.7386759581881533,0.7317073170731707,0.07446808510638298
31,hard,0.7644814868585685,0.6824644549763034,0.9504950495049505,0.7449664429530202,0.68,0.09574468085106383
32,SVM,0.7682389047224412,0.714975845410628,0.9259259259259259,0.7364016736401674,0.6956521739130435,0.125
32,RESNET_SE,0.7788384222845365,0.7553648068669528,0.9391304347826087,0.7488584474885844,0.672,0.08928571428571429
32,soft,0.8278714303442071,0.7777777777777778,0.9473684210526315,0.8017241379310345,0.7846153846153846,0.08035714285714286
32,hard,0.7788384222845365,0.7553648068669528,0.9391304347826087,0.7488584474885844,0.672,0.08928571428571429
33,SVM,0.805586111161334,0.848780487804878,0.9122807017543859,0.7288888888888889,0.7323943661971831,0.010526315789473684
33,RESNET_SE,0.9006721881168511,0.8857142857142857,0.9454545454545454,0.8504672897196262,0.9210526315789473,0.010526315789473684
33,soft,0.9061939751508337,0.8942307692307693,0.9636363636363636,0.867579908675799,0.8993288590604027,0.010526315789473684
33,hard,0.9006721881168511,0.8857142857142857,0.9454545454545454,0.8504672897196262,0.9210526315789473,0.010526315789473684
34,SVM,0.84504352609655,0.8691099476439791,0.8157894736842105,0.8631578947368421,0.8321167883211679,0.06593406593406594
34,RESNET_SE,0.8038275505634809,0.8953488372093024,0.7560975609756098,0.7853403141361257,0.7785234899328859,0.12087912087912088
34,soft,0.8506490805046613,0.9050279329608939,0.8,0.8404255319148937,0.8571428571428571,0.08791208791208792
34,hard,0.8038275505634809,0.8953488372093024,0.7560975609756098,0.7853403141361257,0.7785234899328859,0.12087912087912088
35,SVM,0.6629757549375076,0.5667752442996743,0.6857142857142857,0.6903225806451613,0.7090909090909091,0.17801047120418848
35,RESNET_SE,0.6664352082160465,0.6012658227848101,0.7155963302752294,0.7394366197183099,0.6094420600858369,0.2879581151832461
35,soft,0.6922806139519715,0.5806451612903226,0.7090909090909091,0.7651006711409396,0.7142857142857143,0.2198952879581152
35,hard,0.6664352082160465,0.6012658227848101,0.7155963302752294,0.7394366197183099,0.6094420600858369,0.2879581151832461
36,SVM,0.6954212085360771,0.5975103734439834,0.865979381443299,0.5929203539823009,0.7252747252747253,0.1276595744680851
36,RESNET_SE,0.7623199328294754,0.6818181818181818,0.8571428571428571,0.7124463519313304,0.7978723404255319,0.11702127659574468
36,soft,0.7252140248938004,0.6406926406926406,0.8737864077669902,0.6046511627906976,0.7817258883248731,0.14893617021276595
36,hard,0.7623199328294754,0.6818181818181818,0.8571428571428571,0.7124463519313304,0.7978723404255319,0.11702127659574468
37,SVM,0.8307714839091317,0.7885714285714286,0.9387755102040817,0.7634408602150538,0.8322981366459627,0.07228915662650602
37,RESNET_SE,0.8644904394745109,0.8837209302325582,0.9615384615384616,0.8181818181818182,0.7945205479452054,0.024096385542168676
37,soft,0.8618901551059535,0.8705882352941177,0.9514563106796117,0.8121827411167513,0.8133333333333334,0.04819277108433735
37,hard,0.8644904394745109,0.8837209302325582,0.9615384615384616,0.8181818181818182,0.7945205479452054,0.024096385542168676
38,SVM,0.7720925645593404,0.7956989247311828,0.7368421052631579,0.7701149425287356,0.7857142857142857,0.023255813953488372
38,RESNET_SE,0.7816368912259324,0.797979797979798,0.7837837837837838,0.6986301369863014,0.8461538461538461,0.046511627906976744
38,soft,0.8348209611595835,0.8663101604278075,0.7894736842105263,0.7875,0.896,0.023255813953488372
38,hard,0.7816368912259324,0.797979797979798,0.7837837837837838,0.6986301369863014,0.8461538461538461,0.046511627906976744
39,SVM,0.7221471419362184,0.8042328042328042,0.8037383177570093,0.7301587301587301,0.5504587155963303,0.07954545454545454
39,RESNET_SE,0.8150755130909122,0.8505747126436781,0.8813559322033898,0.782608695652174,0.7457627118644068,0.125
39,soft,0.8281008862496526,0.8813559322033898,0.8793103448275862,0.806282722513089,0.7454545454545455,0.06818181818181818
39,hard,0.8150755130909122,0.8505747126436781,0.8813559322033898,0.782608695652174,0.7457627118644068,0.125
40,SVM,0.7186654137753594,0.7831325301204819,0.6206896551724138,0.7422680412371134,0.7285714285714285,0.0875
40,RESNET_SE,0.8004998326961763,0.8125,0.8787878787878788,0.7738693467336684,0.7368421052631579,0.05
40,soft,0.8610936288463454,0.8588957055214724,0.8923076923076924,0.8586387434554974,0.8345323741007195,0.05
40,hard,0.8004998326961763,0.8125,0.8787878787878788,0.7738693467336684,0.7368421052631579,0.05
