subject,channel,f1_full,f1_occluded,drop_pp
1,0,0.6587443932796999,0.6581441345511287,0.0600258728571168
1,1,0.6587443932796999,0.6391453927673348,1.9599000512365072
1,2,0.6587443932796999,0.61285506044988,4.588933282981989
1,3,0.6587443932796999,0.6520095696378886,0.6734823641811327
1,4,0.6587443932796999,0.70286941557278,-4.4125022293080125
1,5,0.6587443932796999,0.6249488542888472,3.3795538990852747
1,6,0.6587443932796999,0.6275522618199292,3.1192131459770733
1,7,0.6587443932796999,0.5580263940253066,10.07179992543933
1,8,0.6587443932796999,0.601251134547905,5.749325873179489
2,0,0.8852923928191966,0.897503773436656,-1.221138061745941
2,1,0.8852923928191966,0.7809463069435116,10.434608587568494
2,2,0.8852923928191966,0.78460052830941,10.069186450978663
2,3,0.8852923928191966,0.8239574909444505,6.13349018747461
2,4,0.8852923928191966,0.8449858990005608,4.030649381863583
2,5,0.8852923928191966,0.8240339738497707,6.125841896942585
2,6,0.8852923928191966,0.8565456315943849,2.874676122481168
2,7,0.8852923928191966,0.7970788285510448,8.821356426815175
2,8,0.8852923928191966,0.8100089269405873,7.5283465878609235
3,0,0.9174906695016416,0.9130810977662769,0.44095717353647146
3,1,0.9174906695016416,0.8730785011902387,4.441216831140293
3,2,0.9174906695016416,0.861501883619539,5.598878588210255
3,3,0.9174906695016416,0.7903019615784312,12.718870792321034
3,4,0.9174906695016416,0.914146640595922,0.33440289057196093
3,5,0.9174906695016416,0.8938588459691986,2.3631823532442975
3,6,0.9174906695016416,0.9115401283905509,0.5950541111090724
3,7,0.9174906695016416,0.8368210508640828,8.066961863755884
3,8,0.9174906695016416,0.9256178499874381,-0.8127180485796526
4,0,0.8689677376744099,0.8617737513175102,0.7193986356899718
4,1,0.8689677376744099,0.8161712094972537,5.279652817715618
4,2,0.8689677376744099,0.811062353059617,5.790538461479288
4,3,0.8689677376744099,0.8140030667822227,5.496467089218726
4,4,0.8689677376744099,0.8534398160278005,1.5527921646609433
4,5,0.8689677376744099,0.8211596068447446,4.780813082966528
4,6,0.8689677376744099,0.8539565540200635,1.5011183654346394
4,7,0.8689677376744099,0.8019976894971216,6.6970048177288355
4,8,0.8689677376744099,0.8278652631079815,4.1102474566428455
5,0,0.6892461030670944,0.662682857932641,2.6563245134453406
5,1,0.6892461030670944,0.6888935585015347,0.03525445655597759
5,2,0.6892461030670944,0.6928901306554741,-0.36440275883796724
5,3,0.6892461030670944,0.701790444710107,-1.2544341643012547
5,4,0.6892461030670944,0.6056011212145924,8.364498185250202
5,5,0.6892461030670944,0.6411593664031925,4.808673666390195
5,6,0.6892461030670944,0.6791668544913327,1.0079248575761701
5,7,0.6892461030670944,0.6555355063894561,3.3710596677638316
5,8,0.6892461030670944,0.6252137104498362,6.403239261725824
6,0,0.8015378560833106,0.794058679748626,0.7479176334684645
6,1,0.8015378560833106,0.7683080137079645,3.3229842375346097
6,2,0.8015378560833106,0.8294071767360471,-2.7869320652736507
6,3,0.8015378560833106,0.8374989609549978,-3.5961104871687133
6,4,0.8015378560833106,0.77115397812791,3.038387795540065
6,5,0.8015378560833106,0.7589169080233442,4.262094805996641
6,6,0.8015378560833106,0.7721221831877999,2.9415672895510725
6,7,0.8015378560833106,0.7075974283889659,9.394042769434474
6,8,0.8015378560833106,0.7586782820809643,4.28595740023463
7,0,0.8127380945648746,0.7815144638669382,3.122363069793632
7,1,0.8127380945648746,0.7768025752155048,3.593551934936978
7,2,0.8127380945648746,0.7778609567871188,3.4877137777755807
7,3,0.8127380945648746,0.8235203842600725,-1.07822896951979
7,4,0.8127380945648746,0.7695049178563158,4.323317670855875
7,5,0.8127380945648746,0.802762010979648,0.9976083585226503
7,6,0.8127380945648746,0.764174153843036,4.856394072183856
7,7,0.8127380945648746,0.718975963886976,9.376213067789852
7,8,0.8127380945648746,0.7368292595087524,7.5908835056122115
8,0,0.8756047369123188,0.8697161172161172,0.588861969620158
8,1,0.8756047369123188,0.8871398619246598,-1.1535125012340997
8,2,0.8756047369123188,0.8652762675486607,1.0328469363658055
8,3,0.8756047369123188,0.8507604694818034,2.4844267430515377
8,4,0.8756047369123188,0.8098485410276289,6.575619588468983
8,5,0.8756047369123188,0.7870436897769877,8.856104713533108
8,6,0.8756047369123188,0.8628052094966611,1.2799527415657708
8,7,0.8756047369123188,0.8027920232029164,7.281271370940234
8,8,0.8756047369123188,0.7841421794954537,9.146255741686504
9,0,0.8617573323768772,0.8255705604418453,3.6186771935031947
9,1,0.8617573323768772,0.7812404412467349,8.051689113014238
9,2,0.8617573323768772,0.8307980997473334,3.095923262954381
9,3,0.8617573323768772,0.8342925270236246,2.7464805353252686
9,4,0.8617573323768772,0.8295982614661102,3.2159070910767085
9,5,0.8617573323768772,0.834224904669803,2.7532427707074203
9,6,0.8617573323768772,0.8506697989812882,1.1087533395588989
9,7,0.8617573323768772,0.77191642498297,8.984090739390727
9,8,0.8617573323768772,0.8009968618374615,6.0760470539415685
10,0,0.8042656497251333,0.7660722415331139,3.819340819201933
10,1,0.8042656497251333,0.7839288286391262,2.0336821086007095
10,2,0.8042656497251333,0.8002570652944461,0.400858443068719
10,3,0.8042656497251333,0.7993740137462838,0.4891635978849451
10,4,0.8042656497251333,0.756954756954757,4.731089277037626
10,5,0.8042656497251333,0.756357016058906,4.790863366622721
10,6,0.8042656497251333,0.8070636162539302,-0.2797966528796936
10,7,0.8042656497251333,0.7721625802226524,3.2103069502480874
10,8,0.8042656497251333,0.7607327625878001,4.353288713733317
11,0,0.9354528853847562,0.8994398003018693,3.601308508288692
11,1,0.9354528853847562,0.8863558087079357,4.909707667682051
11,2,0.9354528853847562,0.8654083652338451,7.004452015091111
11,3,0.9354528853847562,0.8889306029698454,4.652228241491086
11,4,0.9354528853847562,0.9074200299220139,2.8032855462742368
11,5,0.9354528853847562,0.9079513795522229,2.75015058325333
11,6,0.9354528853847562,0.9056386014697986,2.981428391495766
11,7,0.9354528853847562,0.9077931909372874,2.765969444746885
11,8,0.9354528853847562,0.884508547008547,5.094433837620926
12,0,0.9055179771285676,0.8880839706191527,1.7434006509414957
12,1,0.9055179771285676,0.8470632644662198,5.845471266234781
12,2,0.9055179771285676,0.8602242542296147,4.529372289895295
12,3,0.9055179771285676,0.8514681516793009,5.404982544926673
12,4,0.9055179771285676,0.8769565232756491,2.856145385291853
12,5,0.9055179771285676,0.861113338465157,4.4404638663410605
12,6,0.9055179771285676,0.8968897996074174,0.8628177521150193
12,7,0.9055179771285676,0.8594274296965018,4.6090547432065865
12,8,0.9055179771285676,0.850135985838937,5.538199128963061
13,0,0.9421588379123157,0.90131948951421,4.083934839810565
13,1,0.9421588379123157,0.9142409970025629,2.79178409097528
13,2,0.9421588379123157,0.8726955192786896,6.946331863362609
13,3,0.9421588379123157,0.9052089057636581,3.6949932148657605
13,4,0.9421588379123157,0.8851306819126918,5.702815599962385
13,5,0.9421588379123157,0.8909699416669361,5.1188896245379585
13,6,0.9421588379123157,0.9155010683290907,2.6657769583224966
13,7,0.9421588379123157,0.8972463435403365,4.4912494371979195
13,8,0.9421588379123157,0.9091297434357076,3.3029094476608067
14,0,0.8600518764456215,0.8196950826096925,4.035679383592905
14,1,0.8600518764456215,0.841829499714513,1.8222376731108492
14,2,0.8600518764456215,0.8339029233261128,2.614895311950871
14,3,0.8600518764456215,0.7508595705143271,10.919230593129448
14,4,0.8600518764456215,0.8613865800186052,-0.13347035729837087
14,5,0.8600518764456215,0.8702926200569561,-1.0240743611334535
14,6,0.8600518764456215,0.8470731369371866,1.2978739508434978
14,7,0.8600518764456215,0.7977414198002434,6.231045664537815
14,8,0.8600518764456215,0.7958991867444003,6.415268970122123
15,0,0.9101206114714712,0.8866332363911211,2.3487375080350037
15,1,0.9101206114714712,0.893254890889162,1.6865720582309174
15,2,0.9101206114714712,0.8574006388871702,5.271997258430094
15,3,0.9101206114714712,0.878841917083826,3.127869438764519
15,4,0.9101206114714712,0.8819649355933747,2.815567587809642
15,5,0.9101206114714712,0.846280155014429,6.384045645704218
15,6,0.9101206114714712,0.897752024607127,1.2368586864344167
15,7,0.9101206114714712,0.8614094041085478,4.871120736292333
15,8,0.9101206114714712,0.903648182561734,0.6472428909737205
16,0,0.8261333311330815,0.7692567819099012,5.68765492231803
16,1,0.8261333311330815,0.7948061862961855,3.1327144836896026
16,2,0.8261333311330815,0.7802514820530406,4.58818490800409
16,3,0.8261333311330815,0.8528242070702421,-2.6690875937160574
16,4,0.8261333311330815,0.759482304917654,6.665102621542751
16,5,0.8261333311330815,0.7774631829070346,4.867014822604688
16,6,0.8261333311330815,0.8202144672746426,0.5918863858438872
16,7,0.8261333311330815,0.7933642251710751,3.276910596200644
16,8,0.8261333311330815,0.7937696571427119,3.2363673990369657
17,0,0.8733303588691087,0.8362232957987492,3.710706307035949
17,1,0.8733303588691087,0.8654783040153963,0.7852054853712431
17,2,0.8733303588691087,0.8468306168185058,2.6499742050602904
17,3,0.8733303588691087,0.8419076057049986,3.142275316411014
17,4,0.8733303588691087,0.87487731833856,-0.154695946945127
17,5,0.8733303588691087,0.8086298895124383,6.47004693566704
17,6,0.8733303588691087,0.8543097048681382,1.9020654000970527
17,7,0.8733303588691087,0.7767683036963607,9.656205517274795
17,8,0.8733303588691087,0.7826362232595286,9.069413560958006
18,0,0.8902100754892929,0.8467743852102353,4.343569027905758
18,1,0.8902100754892929,0.8614178448262162,2.879223066307668
18,2,0.8902100754892929,0.8664445556470746,2.376551984221831
18,3,0.8902100754892929,0.766391981436896,12.381809405239686
18,4,0.8902100754892929,0.8402271104912933,4.9982964997999595
18,5,0.8902100754892929,0.8302513276197487,5.995874786954413
18,6,0.8902100754892929,0.9090270258524497,-1.8816950363156781
18,7,0.8902100754892929,0.7820659270269604,10.814414846233245
18,8,0.8902100754892929,0.8087890064656261,8.142106902366674
19,0,0.8833722556673305,0.8735905566162894,0.9781699051041093
19,1,0.8833722556673305,0.8601282575781348,2.324399808919564
19,2,0.8833722556673305,0.8615985582267944,2.1773697440536033
19,3,0.8833722556673305,0.8031544170702951,8.021783859703536
19,4,0.8833722556673305,0.8241186090219668,5.92536466453637
19,5,0.8833722556673305,0.8244019281633699,5.8970327503960585
19,6,0.8833722556673305,0.8700501790820034,1.3322076585327025
19,7,0.8833722556673305,0.8182610900490866,6.511116561824382
19,8,0.8833722556673305,0.8085190449926576,7.485321067467288
20,0,0.813726848875899,0.7869499731443572,2.677687573154175
20,1,0.813726848875899,0.7694570203587974,4.426982851710159
20,2,0.813726848875899,0.7783412273039397,3.5385621571959236
20,3,0.813726848875899,0.8220756747149709,-0.8348825839071927
20,4,0.813726848875899,0.8254551983334951,-1.1728349457596154
20,5,0.813726848875899,0.8230209608620026,-0.9294111986103637
20,6,0.813726848875899,0.7983794257963904,1.5347423079508538
20,7,0.813726848875899,0.7582926155493515,5.543423332654751
20,8,0.813726848875899,0.7457706938419194,6.795615503397956
21,0,0.8488766777952484,0.7984630533436082,5.0413624451640215
21,1,0.8488766777952484,0.8544837898872574,-0.5607112092008926
21,2,0.8488766777952484,0.7852873545926244,6.358932320262401
21,3,0.8488766777952484,0.7662276233740974,8.2649054421151
21,4,0.8488766777952484,0.8504006976706365,-0.1524019875388083
21,5,0.8488766777952484,0.8281619950771444,2.071468271810406
21,6,0.8488766777952484,0.8371841895863648,1.169248820888369
21,7,0.8488766777952484,0.7919606451335766,5.6916032661671885
21,8,0.8488766777952484,0.809929076794037,3.894760100121142
22,0,0.818946083767311,0.798529702716583,2.041638105072807
22,1,0.818946083767311,0.8142815370863211,0.4664546680989923
22,2,0.818946083767311,0.7969348103761158,2.201127339119524
22,3,0.818946083767311,0.7744327642332831,4.451331953402793
22,4,0.818946083767311,0.7874616820280934,3.1484401739217627
22,5,0.818946083767311,0.7709416522744034,4.800443149290768
22,6,0.818946083767311,0.7905800279930311,2.8366055774279975
22,7,0.818946083767311,0.706492556527184,11.245352724012703
22,8,0.818946083767311,0.7594756222202121,5.94704615470989
23,0,0.8302785949000695,0.7816450677891684,4.863352711090108
23,1,0.8302785949000695,0.8213077094332897,0.8970885466779821
23,2,0.8302785949000695,0.8347065264495787,-0.44279315495091565
23,3,0.8302785949000695,0.8164445547834136,1.38340401166559
23,4,0.8302785949000695,0.7895823999333781,4.069619496669141
23,5,0.8302785949000695,0.8024105335310892,2.7868061368980346
23,6,0.8302785949000695,0.8084879991988407,2.1790595701228765
23,7,0.8302785949000695,0.7909159634615577,3.936263143851182
23,8,0.8302785949000695,0.7868980967946088,4.3380498105460745
24,0,0.8054181520278418,0.7743913723415841,3.1026779686257777
24,1,0.8054181520278418,0.7893887478839221,1.6029404143919734
24,2,0.8054181520278418,0.7620013086196709,4.341684340817098
24,3,0.8054181520278418,0.7970784246548146,0.8339727373027239
24,4,0.8054181520278418,0.7066614298557246,9.87567221721173
24,5,0.8054181520278418,0.7279637285627807,7.745442346506115
24,6,0.8054181520278418,0.7540335477118368,5.1384604316005
24,7,0.8054181520278418,0.7289618120535994,7.645633997424239
24,8,0.8054181520278418,0.7722821705961029,3.3135981431738903
25,0,0.9143583938756266,0.8931029802173887,2.125541365823791
25,1,0.9143583938756266,0.8976122559764836,1.674613789914292
25,2,0.9143583938756266,0.8857086097543194,2.8649784121307142
25,3,0.9143583938756266,0.8790090069770709,3.5349386898555712
25,4,0.9143583938756266,0.8237019667441019,9.065642713152467
25,5,0.9143583938756266,0.8717504956729094,4.260789820271715
25,6,0.9143583938756266,0.9091367878296029,0.5221606046023619
25,7,0.9143583938756266,0.8450955258647566,6.9262868010870005
25,8,0.9143583938756266,0.8792901640517203,3.5068229823906227
26,0,0.7983684969835007,0.7735682145218371,2.4800282461663548
26,1,0.7983684969835007,0.7926857314932507,0.568276549024993
26,2,0.7983684969835007,0.7493313300372124,4.903716694628823
26,3,0.7983684969835007,0.7264455735016014,7.1922923481899215
26,4,0.7983684969835007,0.7550784464447475,4.329005053875312
26,5,0.7983684969835007,0.7779274152638295,2.0441081719671184
26,6,0.7983684969835007,0.8071628890016258,-0.8794392018125152
26,7,0.7983684969835007,0.7478800947887425,5.048840219475814
26,8,0.7983684969835007,0.7295612247842478,6.880727219925287
27,0,0.8570413586718607,0.8606568972052902,-0.3615538533429441
27,1,0.8570413586718607,0.8482652850881222,0.8776073583738553
27,2,0.8570413586718607,0.7968134051133996,6.022795355846111
27,3,0.8570413586718607,0.8018176498549251,5.522370881693561
27,4,0.8570413586718607,0.8304622129605713,2.6579145711289387
27,5,0.8570413586718607,0.8189021939852601,3.8139164686600613
27,6,0.8570413586718607,0.8363190430569151,2.072231561494564
27,7,0.8570413586718607,0.8433026323270225,1.3738726344838192
27,8,0.8570413586718607,0.8325815543025219,2.445980436933881
28,0,0.8341960671722033,0.7919164240136106,4.227964315859268
28,1,0.8341960671722033,0.8264940559812627,0.7702011190940605
28,2,0.8341960671722033,0.8170119586057036,1.7184108566499656
28,3,0.8341960671722033,0.7434730812490195,9.072298592318385
28,4,0.8341960671722033,0.7446447219915557,8.955134518064757
28,5,0.8341960671722033,0.7252463422235447,10.894972494865861
28,6,0.8341960671722033,0.842037821960184,-0.7841754787980659
28,7,0.8341960671722033,0.7815019459187567,5.2694121253446635
28,8,0.8341960671722033,0.7816247755438271,5.2571291628376144
29,0,0.8006780106266801,0.7397632808307624,6.091472979591773
29,1,0.8006780106266801,0.7963388558346469,0.4339154792033173
29,2,0.8006780106266801,0.784205006890375,1.6473003736305114
29,3,0.8006780106266801,0.7869918570303789,1.368615359630121
29,4,0.8006780106266801,0.7206630554021394,8.001495522454071
29,5,0.8006780106266801,0.7236770726163372,7.700093801034291
29,6,0.8006780106266801,0.8035019814192693,-0.28239707925892255
29,7,0.8006780106266801,0.7813499698676292,1.9328040759050924
29,8,0.8006780106266801,0.6691794868100839,13.14985238165962
30,0,0.8807850752475216,0.8843248200639332,-0.35397448164116163
30,1,0.8807850752475216,0.860549794300611,2.0235280946910628
30,2,0.8807850752475216,0.8691056409563181,1.1679434291203439
30,3,0.8807850752475216,0.8179900063286495,6.27950689188721
30,4,0.8807850752475216,0.8617238851034211,1.906119014410046
30,5,0.8807850752475216,0.8325266991850802,4.825837606244143
30,6,0.8807850752475216,0.8682157131576701,1.2569362089851488
30,7,0.8807850752475216,0.7637387578998542,11.704631734766735
30,8,0.8807850752475216,0.8497063119412602,3.107876330626136
31,0,0.7978319839171624,0.7593643700790174,3.846761383814501
31,1,0.7978319839171624,0.7797944491123601,1.8037534804802302
31,2,0.7978319839171624,0.7463045191242865,5.152746479287584
31,3,0.7978319839171624,0.7651113578019842,3.272062611517812
31,4,0.7978319839171624,0.7679117952720199,2.9920188645142454
31,5,0.7978319839171624,0.7821584699185444,1.5673513998617938
31,6,0.7978319839171624,0.769595296644985,2.823668727217732
31,7,0.7978319839171624,0.698923531136914,9.890845278024841
31,8,0.7978319839171624,0.7448486481296195,5.2983335787542885
32,0,0.8799881534394809,0.8123450542518311,6.764309918764977
32,1,0.8799881534394809,0.8542496688279122,2.573848461156869
32,2,0.8799881534394809,0.8358613427571828,4.412681068229807
32,3,0.8799881534394809,0.8269949732140112,5.299318022546973
32,4,0.8799881534394809,0.848986032677181,3.100212076229991
32,5,0.8799881534394809,0.8607275218819026,1.926063155757829
32,6,0.8799881534394809,0.8671699870130684,1.2818166426412536
32,7,0.8799881534394809,0.7839788064907491,9.600934694873175
32,8,0.8799881534394809,0.8384621901587208,4.152596328076008
33,0,0.9020884642006688,0.8752207328177586,2.686773138291021
33,1,0.9020884642006688,0.896130556512063,0.5957907688605824
33,2,0.9020884642006688,0.8347683200384205,6.73201441622483
33,3,0.9020884642006688,0.8940540535410088,0.8034410659660041
33,4,0.9020884642006688,0.8744393838819139,2.7649080318754904
33,5,0.9020884642006688,0.8686154143909779,3.3473049809690902
33,6,0.9020884642006688,0.858788127219555,4.33003369811138
33,7,0.9020884642006688,0.8193093700695534,8.277909413111539
33,8,0.9020884642006688,0.8630309512619765,3.9057512938692307
34,0,0.8930480035565223,0.8513202392173678,4.172776433915448
34,1,0.8930480035565223,0.8812041078822779,1.1843895674244376
34,2,0.8930480035565223,0.8983345071790344,-0.5286503622512151
34,3,0.8930480035565223,0.8481758849694174,4.487211858710483
34,4,0.8930480035565223,0.8595133200303379,3.3534683526184383
34,5,0.8930480035565223,0.8740682954310154,1.8979708125506867
34,6,0.8930480035565223,0.8817197703602089,1.1328233196313375
34,7,0.8930480035565223,0.8247848190431288,6.826318451339342
34,8,0.8930480035565223,0.8414295644251624,5.161843913135988
35,0,0.7413436889596714,0.6765852994955035,6.47583894641679
35,1,0.7413436889596714,0.7349443348788518,0.6399354080819597
35,2,0.7413436889596714,0.6969800306729859,4.436365828668554
35,3,0.7413436889596714,0.6790839260959163,6.225976286375512
35,4,0.7413436889596714,0.7292272863919715,1.2116402567699858
35,5,0.7413436889596714,0.7277640957855427,1.3579593174128712
35,6,0.7413436889596714,0.7339331739943123,0.741051496535905
35,7,0.7413436889596714,0.6792284286105731,6.211526034909831
35,8,0.7413436889596714,0.7020210014182812,3.9322687541390233
36,0,0.819652666811973,0.7796835442804231,3.996912253154994
36,1,0.819652666811973,0.7477445697849936,7.190809702697942
36,2,0.819652666811973,0.775028785867356,4.4623880944617
36,3,0.819652666811973,0.7478421920203132,7.181047479165981
36,4,0.819652666811973,0.7941206715966336,2.5531995215339442
36,5,0.819652666811973,0.8286752514866007,-0.9022584674627687
36,6,0.819652666811973,0.7874265050347607,3.222616177721227
36,7,0.819652666811973,0.709561275268752,11.009139154322101
36,8,0.819652666811973,0.6586574662625495,16.099520054942353
37,0,0.8897568579151858,0.8234840798754264,6.6272778039759395
37,1,0.8897568579151858,0.8457376981893237,4.401915972586212
37,2,0.8897568579151858,0.8119845017933537,7.777235612183208
37,3,0.8897568579151858,0.8665260422350759,2.3230815680109873
37,4,0.8897568579151858,0.888080905566638,0.16759523485477823
37,5,0.8897568579151858,0.8636074130703986,2.6149444844787206
37,6,0.8897568579151858,0.8488037046784207,4.095315323676507
37,7,0.8897568579151858,0.8282361274897152,6.152073042547057
37,8,0.8897568579151858,0.8024675663743631,8.728929154082266
38,0,0.8781549072451323,0.7982521982544986,7.990270899063379
38,1,0.8781549072451323,0.8450388023632964,3.3116104881835917
38,2,0.8781549072451323,0.8156159171024198,6.2538990142712585
38,3,0.8781549072451323,0.8558589522594622,2.2295954985670163
38,4,0.8781549072451323,0.8385853169827417,3.9569590262390597
38,5,0.8781549072451323,0.8369230771690137,4.123183007611864
38,6,0.8781549072451323,0.8511379126298758,2.701699461525653
38,7,0.8781549072451323,0.7894258725055829,8.87290347395494
38,8,0.8781549072451323,0.81973955507325,5.841535217188232
39,0,0.8224652423788386,0.7668002401042602,5.566500227457838
39,1,0.8224652423788386,0.7536539918693119,6.881125050952663
39,2,0.8224652423788386,0.7646280033876542,5.783723899118431
39,3,0.8224652423788386,0.7071661991475058,11.529904323133277
39,4,0.8224652423788386,0.7418691211169454,8.05961212618932
39,5,0.8224652423788386,0.8264303169000426,-0.3965074521204093
39,6,0.8224652423788386,0.7885505255539308,3.3914716824907765
39,7,0.8224652423788386,0.7447450007080856,7.772024167075298
39,8,0.8224652423788386,0.7861303556719783,3.6334886706860248
40,0,0.8497545147450383,0.7700050048055835,7.974950993945473
40,1,0.8497545147450383,0.7825396337220575,6.721488102298078
40,2,0.8497545147450383,0.8679888947491777,-1.823438000413946
40,3,0.8497545147450383,0.8545721224258434,-0.48176076808050805
40,4,0.8497545147450383,0.8168076940714838,3.2946820673554478
40,5,0.8497545147450383,0.8333203339597202,1.6434180785318109
40,6,0.8497545147450383,0.8261033696713999,2.3651145073638413
40,7,0.8497545147450383,0.7500378764784461,9.971663826659217
40,8,0.8497545147450383,0.8160279537866709,3.3726560958367346
