subject,channel,r,f1_drop_mean,f1_drop_sd
1,0,5,0.08702626429243657,0.015068720274514067
1,1,5,0.060113605493789635,0.008675060378684717
1,2,5,0.10674148520396265,0.009852276036890636
1,3,5,0.033623586130210215,0.012143589083251721
1,4,5,0.002409961645877301,0.008472092573582505
1,5,5,0.08507979498984237,0.012645197704741037
1,6,5,0.05047308831387265,0.005666108104765567
1,7,5,0.14155504385138046,0.006748195714995207
1,8,5,0.09092659565058288,0.011274470650866304
2,0,5,0.0997350953813333,0.00817173885469971
2,1,5,0.14176719610193358,0.02034651473127326
2,2,5,0.15521906745498168,0.013101254629818095
2,3,5,0.09091245899566673,0.017972694157401665
2,4,5,0.15295236615571678,0.010409624245215679
2,5,5,0.17864213826853517,0.011504390636502807
2,6,5,0.06775290377811619,0.02081523358584209
2,7,5,0.18109125386637245,0.012771676330708139
2,8,5,0.14197783189878427,0.024190545275231106
3,0,5,0.09284138625379279,0.008036681761536052
3,1,5,0.11389589638062218,0.006642498808298106
3,2,5,0.17162240095764414,0.008966726071453837
3,3,5,0.11963280380151638,0.01745939486778307
3,4,5,0.12054174198990024,0.0016102655539644796
3,5,5,0.0678044095515814,0.007338198378632847
3,6,5,0.021319243383842546,0.00889006236093783
3,7,5,0.1481340093026082,0.008287865074805065
3,8,5,0.09207299232020949,0.014308610000761187
4,0,5,0.11783511506551589,0.01139158797759514
4,1,5,0.07432553274645701,0.019136387466592287
4,2,5,0.07772111040444188,0.008296154141099138
4,3,5,0.08016368321134781,0.01082457540805653
4,4,5,0.0764934465709844,0.024227709373260572
4,5,5,0.07960299404962508,0.016372269296530618
4,6,5,0.03603012492259483,0.004194927317083093
4,7,5,0.1122274994875128,0.017799364552027068
4,8,5,0.10593353138801127,0.012248197543837599
5,0,5,0.06783486587926646,0.016708154909896272
5,1,5,0.06653346373034648,0.012929345756817394
5,2,5,0.06335048989578554,0.013446602879407176
5,3,5,0.033496454688845344,0.015730644977271294
5,4,5,0.10287968807623984,0.014708730845807432
5,5,5,0.08387089149634237,0.00540378008724725
5,6,5,0.031003097761756714,0.009214637041683791
5,7,5,0.07365626124199236,0.010155776121061095
5,8,5,0.12070728784450484,0.006022339233300406
6,0,5,0.10430654105242551,0.009439971996703113
6,1,5,0.10639189602358703,0.006064693320523754
6,2,5,0.09298074955292926,0.014132567240168538
6,3,5,0.031880164306590394,0.00822693726268261
6,4,5,0.09506342096443705,0.01346754014942743
6,5,5,0.07214293669493892,0.015068006685511256
6,6,5,0.07336889752284008,0.011930776003036107
6,7,5,0.109196615390006,0.005986105941864174
6,8,5,0.127096722277645,0.015859979720200416
7,0,5,0.08801629008571987,0.0024433283517668364
7,1,5,0.10021054689300044,0.020679094569888867
7,2,5,0.09910261685208857,0.013908942590415854
7,3,5,0.03461116282855634,0.014290861620498025
7,4,5,0.07916171251045487,0.011100868656659638
7,5,5,0.07607117892115516,0.0036054707390294994
7,6,5,0.05640793796425285,0.007153543586322141
7,7,5,0.15666419924848776,0.015403190937256478
7,8,5,0.17301444657527995,0.015521098151622578
8,0,5,0.11645130333194635,0.02357701013434519
8,1,5,0.07897397642210804,0.010793714819502415
8,2,5,0.09159685857430504,0.015037372901986154
8,3,5,0.07792638605245142,0.008396820028071855
8,4,5,0.12225283011424648,0.021608175403737943
8,5,5,0.11800655723508295,0.009795110691571147
8,6,5,0.04385689230120473,0.018709232193593186
8,7,5,0.1546890119859598,0.015682279582080405
8,8,5,0.17382992998427882,0.015980124029729995
9,0,5,0.127230964137711,0.020495210129220256
9,1,5,0.14312752854233657,0.003869319315526661
9,2,5,0.13351272075076087,0.009769212157296692
9,3,5,0.07714027772548271,0.016223340843975042
9,4,5,0.09858590385898758,0.006502764759121699
9,5,5,0.10468075110148478,0.010089180333015998
9,6,5,0.044324893491582265,0.009917978889405278
9,7,5,0.16680418261435542,0.009660928874686139
9,8,5,0.1253429296331666,0.014712193907495227
10,0,5,0.11237737197724249,0.02893650147799897
10,1,5,0.033081498498433136,0.013266084597221927
10,2,5,0.10584349627232803,0.015091444038751097
10,3,5,0.06618170892622319,0.019013215659546816
10,4,5,0.09686611022682179,0.006868830826586173
10,5,5,0.09926385542896368,0.01165456892352346
10,6,5,0.02864378657288156,0.010014472980967646
10,7,5,0.09523005225254773,0.01415679828247467
10,8,5,0.1257264163843236,0.012542928295789473
11,0,5,0.1030097794445671,0.012122019320661242
11,1,5,0.1106172701126514,0.010161251363338121
11,2,5,0.13730338265772285,0.015009439404974895
11,3,5,0.09179149944702551,0.013245889212356088
11,4,5,0.14105288286329593,0.01388268772361123
11,5,5,0.07057986049803915,0.008642020231987249
11,6,5,0.04410491889477395,0.011650056057402826
11,7,5,0.16807564665697458,0.017104880822783327
11,8,5,0.12725770802173456,0.00934025020467872
12,0,5,0.07858642922492762,0.00723405767602636
12,1,5,0.10653288083358839,0.00700942958194658
12,2,5,0.10156873720969442,0.01875257864868081
12,3,5,0.09838678960665659,0.00660003108679858
12,4,5,0.10010351308950927,0.006247272068339618
12,5,5,0.10030082066595003,0.010781440487878104
12,6,5,0.03321122220500938,0.006696898539289965
12,7,5,0.14065196391545115,0.013156468531823055
12,8,5,0.09329101574070228,0.005797362988813295
13,0,5,0.1189687751504491,0.019092048023630077
13,1,5,0.09153651619238043,0.009587550772368083
13,2,5,0.12698653978027888,0.012269759066921957
13,3,5,0.08467097060521515,0.020700669888950973
13,4,5,0.10655270397533012,0.013097333115475217
13,5,5,0.11663026624200082,0.01402627526864525
13,6,5,0.053291329556555286,0.004181989144532513
13,7,5,0.13735067286330585,0.008957322751709412
13,8,5,0.11232763436634549,0.007283575761879941
14,0,5,0.0944281555872331,0.014163328040107935
14,1,5,0.08297395126697363,0.0074694305548519205
14,2,5,0.09342459101459606,0.006597637059339068
14,3,5,0.11705868647224735,0.01570320270960884
14,4,5,0.1667877032802247,0.00954771128899986
14,5,5,0.11412257248943725,0.0067427652607168105
14,6,5,0.026311983460019416,0.007066991550874786
14,7,5,0.1297880327803142,0.011671072461819818
14,8,5,0.12047604424559843,0.015049184623178304
15,0,5,0.10125063355025903,0.01646023226640444
15,1,5,0.08279214372977625,0.011720257097721962
15,2,5,0.1332154559064313,0.008008304551972323
15,3,5,0.034248221123031185,0.01603779784998837
15,4,5,0.05206373687320045,0.005511073449960081
15,5,5,0.06945893261956804,0.009333068834254537
15,6,5,0.06272197149118688,0.016012548944046308
15,7,5,0.10426227116221105,0.007259195747977204
15,8,5,0.12075422143308093,0.02636617935286405
16,0,5,0.13022347497660045,0.008318451714830347
16,1,5,0.09648802545065956,0.0042033288560967864
16,2,5,0.11373483728884667,0.008535676402149509
16,3,5,0.043414030257301686,0.007134781941966093
16,4,5,0.10731016292725422,0.011407629905083741
16,5,5,0.13012735971189582,0.010298676938883033
16,6,5,0.024292398994041342,0.008192022833610414
16,7,5,0.14915201479223877,0.010464777363992725
16,8,5,0.14384410780407172,0.019143985742308547
17,0,5,0.16920239830202657,0.015254353314106066
17,1,5,0.07795795128216935,0.01555957624864296
17,2,5,0.10236900262316831,0.016918865495605645
17,3,5,0.08975710329398974,0.01030790826532208
17,4,5,0.07331854620925496,0.010547019038008454
17,5,5,0.10247258906195693,0.010042114884988122
17,6,5,0.061782570202135026,0.012816278121189024
17,7,5,0.1291393366185215,0.010728327395331333
17,8,5,0.16043155900484968,0.008095184201270618
18,0,5,0.07746221273715859,0.013051020001612535
18,1,5,0.057798368458065894,0.007551281442875265
18,2,5,0.0893443176452147,0.009565588600376639
18,3,5,0.16225168914447596,0.010314025121256312
18,4,5,0.07621429923805811,0.010073145568917141
18,5,5,0.16978528544435623,0.009574212110449917
18,6,5,0.033454017762056185,0.005936765317939704
18,7,5,0.16427140873387094,0.01718349392431054
18,8,5,0.11792190155615634,0.01227526837903834
19,0,5,0.08168139425545558,0.00769775501915074
19,1,5,0.08084690792154618,0.005819233964795601
19,2,5,0.07551720465898352,0.013881210421952629
19,3,5,0.08777805161003449,0.012237606698879584
19,4,5,0.08253566617936511,0.014054046082973028
19,5,5,0.08312674956006594,0.007213663732981732
19,6,5,0.04053198218146279,0.0077133318160208745
19,7,5,0.16257248124202686,0.016543594403324167
19,8,5,0.13037515733660038,0.017201853314496127
20,0,5,0.10451568366655486,0.015801509321534835
20,1,5,0.10051953611962557,0.01207460228196123
20,2,5,0.0808293848493167,0.0109459164095138
20,3,5,0.022973088054525203,0.009090657808609754
20,4,5,0.0759543073203964,0.015225785171305206
20,5,5,0.08792988400305997,0.010056341901956764
20,6,5,0.034386411615112,0.01380408245968357
20,7,5,0.10964543699834647,0.012319274876632997
20,8,5,0.14286757605441391,0.020755077464954568
21,0,5,0.09224529723008304,0.02371875548367096
21,1,5,0.05812844242443116,0.020698719927007947
21,2,5,0.1065886963421088,0.007471268410622996
21,3,5,0.08640187126501753,0.00905598764534339
21,4,5,0.0351266831124464,0.0037354437984985695
21,5,5,0.15500999268906226,0.018551308398052132
21,6,5,0.05243064194333465,0.0070986181029358405
21,7,5,0.12791382801074322,0.008723599474963652
21,8,5,0.1097296959967812,0.00672853332992324
22,0,5,0.1016578085600018,0.02354536460136659
22,1,5,0.07828120763647872,0.006296425498251752
22,2,5,0.10956204761305877,0.011347100568031133
22,3,5,0.06854369325151481,0.015341472311985098
22,4,5,0.10269117760465452,0.011273212287867686
22,5,5,0.09705135887749465,0.0036956372264094774
22,6,5,0.05403113570826246,0.006849028962728926
22,7,5,0.16405153232824496,0.019519468524434584
22,8,5,0.12493935399446007,0.014264419146021544
23,0,5,0.12489759991328742,0.009100417051652158
23,1,5,0.09270244560460425,0.017241541005675376
23,2,5,0.11526525937805499,0.009962874377073548
23,3,5,0.07653384638298244,0.010540960851272207
23,4,5,0.10377241692835333,0.007755647290769212
23,5,5,0.08481619794820287,0.017457396932689804
23,6,5,0.06404521842976858,0.012265769709193401
23,7,5,0.12513454850660993,0.011772435740676365
23,8,5,0.1136073301911181,0.011152057642605058
24,0,5,0.06934683435679431,0.012599063643552169
24,1,5,0.06336019184243502,0.016319653300283333
24,2,5,0.13814246348195466,0.019080392619867714
24,3,5,0.06931744929736369,0.017118861583818385
24,4,5,0.1976943470654865,0.014515204436988506
24,5,5,0.12547691641850017,0.009054289326324938
24,6,5,0.060939166616609454,0.008351254423553587
24,7,5,0.15326706417206884,0.009732694352521913
24,8,5,0.11165513532076979,0.014731308804259963
25,0,5,0.10084119104296903,0.009215510357103643
25,1,5,0.10201759794018941,0.003457332416471262
25,2,5,0.09773162887322698,0.00953481003116952
25,3,5,0.09634663949306681,0.013614456207556379
25,4,5,0.15148136333482012,0.011588377525389014
25,5,5,0.1144428341707567,0.004974791395489642
25,6,5,0.029067062841812753,0.0022889846712676742
25,7,5,0.12514756555370568,0.009408593195021532
25,8,5,0.09252904153290217,0.00825554404735275
26,0,5,0.11388609172049824,0.012123462761841657
26,1,5,0.08428479908905047,0.004155351637125718
26,2,5,0.09825356741589006,0.014971540406294488
26,3,5,0.0731202365679259,0.010156425345157049
26,4,5,0.1149646491556815,0.014396024374150475
26,5,5,0.06653743578483542,0.008592131916182792
26,6,5,0.03035500609259103,0.006650291060773617
26,7,5,0.16221708429140186,0.012114567066906732
26,8,5,0.14320413191941364,0.00977313255533144
27,0,5,0.052751931007206584,0.014510607852271562
27,1,5,0.05445080698500493,0.01451890347514557
27,2,5,0.1384538872037105,0.01036009633815135
27,3,5,0.07109565971566345,0.0037318691037511622
27,4,5,0.1587936394707417,0.0065086601304955825
27,5,5,0.17093994234195792,0.013151804359442083
27,6,5,0.03319107009396327,0.016043764757103788
27,7,5,0.10086740210691494,0.007938053763997198
27,8,5,0.073066752104802,0.019737725798580578
28,0,5,0.10386272790425055,0.010232198327083426
28,1,5,0.04070582359530948,0.019688787416831072
28,2,5,0.07760493677900533,0.015912941763388117
28,3,5,0.11041791620916705,0.012854132126469178
28,4,5,0.16211529576820688,0.01922803745439119
28,5,5,0.15541292074902247,0.01284601756446754
28,6,5,0.02500430077539677,0.009240719088285354
28,7,5,0.09339293882495477,0.011250488481692049
28,8,5,0.12884842518878567,0.0060381898865430605
29,0,5,0.10267249481027296,0.00994265428242119
29,1,5,0.06056740629909043,0.009981380038067315
29,2,5,0.10487899818583427,0.009113042820424473
29,3,5,0.038080068780053766,0.011306354345092582
29,4,5,0.12099609985434182,0.010044820863336242
29,5,5,0.1667189787885728,0.019677884728672282
29,6,5,0.018639313980360516,0.010071562852663259
29,7,5,0.09322194635360422,0.0067703936587277195
29,8,5,0.19079311391969345,0.008237057034251328
30,0,5,0.06624914925404066,0.02508375461892732
30,1,5,0.04537722328788159,0.006061703420330173
30,2,5,0.09943008481415934,0.007200128498436414
30,3,5,0.08210294910147287,0.012014598129507241
30,4,5,0.039887377351285426,0.004540820661222839
30,5,5,0.09980986648537875,0.018945933793438386
30,6,5,0.04290065948988353,0.0075992571033761044
30,7,5,0.18869667612991195,0.00643107322675181
30,8,5,0.12852212270155766,0.013056828507158755
31,0,5,0.09127318647747218,0.004592438515342363
31,1,5,0.09252298783270574,0.009525995595663582
31,2,5,0.12335344438141696,0.010200015880547472
31,3,5,0.04734216226979841,0.006811769046498509
31,4,5,0.11128746648282217,0.00982810802686674
31,5,5,0.0742841859417778,0.01592304139127124
31,6,5,0.040456454692815294,0.010883224273820354
31,7,5,0.1334584397610412,0.018578752030582107
31,8,5,0.1294778303991741,0.020251672859673622
32,0,5,0.1388514705538253,0.008510243350767603
32,1,5,0.07810873013560718,0.013766847681489
32,2,5,0.14306728676212316,0.013471558623839563
32,3,5,0.05820055561505224,0.010367522651296666
32,4,5,0.18307141187292314,0.017968534131883436
32,5,5,0.109044956507463,0.015571601130371296
32,6,5,0.061418338477251554,0.011613518273974747
32,7,5,0.13991082435509666,0.009404576680115097
32,8,5,0.14644914792606137,0.013890580560768305
33,0,5,0.085425750532242,0.016946912220593954
33,1,5,0.07621361419198706,0.025155277577516018
33,2,5,0.08322233574725643,0.00893969514693539
33,3,5,0.05206177954235356,0.014457354772363366
33,4,5,0.060906744639127375,0.006951013872381334
33,5,5,0.03979292672292465,0.006235365621983757
33,6,5,0.07806044625927977,0.004431119658016323
33,7,5,0.1479399127481113,0.011721573112197221
33,8,5,0.11955882201955922,0.019650415797018976
34,0,5,0.10673383027433425,0.008744649100685434
34,1,5,0.06906494331328754,0.014499740886665228
34,2,5,0.06870104006409603,0.01966959854815595
34,3,5,0.09068020944966464,0.008317499577947304
34,4,5,0.06755208810745791,0.007207075146799257
34,5,5,0.060676572983569696,0.011908767040837433
34,6,5,0.0359511736709923,0.005713555256576063
34,7,5,0.14693702270654793,0.016457714866556897
34,8,5,0.12106572874200691,0.027047114425626972
35,0,5,0.1101538709446332,0.018834640017614358
35,1,5,0.05621848821358011,0.01054662742637816
35,2,5,0.11121232042782263,0.012909741688945719
35,3,5,0.061365864122693826,0.013112772309665802
35,4,5,0.07704742348386069,0.011043604528200362
35,5,5,0.10115836663318836,0.003195199901857896
35,6,5,0.027174445488127863,0.006623102565322404
35,7,5,0.1025541696823957,0.013281838960058074
35,8,5,0.10967037994613746,0.00973968030848736
36,0,5,0.07455209768453268,0.02573040346268586
36,1,5,0.08819082761017516,0.013452186778916055
36,2,5,0.13414093152755008,0.008143722607801718
36,3,5,0.10403297064888535,0.01545057781379061
36,4,5,0.1000530063075143,0.013273264223113267
36,5,5,0.05505816903484029,0.018578045765158698
36,6,5,0.05211149478725248,0.005090307952378533
36,7,5,0.14703087831572842,0.023075365783208245
36,8,5,0.18296576440578585,0.011134308432358752
37,0,5,0.11591078472266995,0.015434773283029248
37,1,5,0.09641322667211541,0.009510702467455192
37,2,5,0.13961481964672762,0.011867238857109807
37,3,5,0.05553312739941774,0.01731448464806313
37,4,5,0.16952456598126836,0.013457323484932749
37,5,5,0.1273112009567809,0.010640222591357515
37,6,5,0.059278475015344737,0.011459956236604637
37,7,5,0.14007151924847958,0.014240805183904071
37,8,5,0.15808527627026386,0.017953132162829157
38,0,5,0.10158439262832546,0.011346930362647696
38,1,5,0.09878337912438262,0.00969208195059197
38,2,5,0.17007165103911823,0.01704098665536988
38,3,5,0.06315565561138103,0.016014262912639056
38,4,5,0.1770228493882273,0.014649270937209927
38,5,5,0.17388045982630068,0.011704996147865916
38,6,5,0.0556830367321189,0.015218669063480406
38,7,5,0.15675159675910907,0.01591328115174548
38,8,5,0.12910649085635922,0.0183209453874251
39,0,5,0.09540387014981407,0.007986299793371171
39,1,5,0.062481912617214544,0.01488944923465829
39,2,5,0.11829038564839836,0.0185305127834246
39,3,5,0.07531259325341162,0.005565482836189717
39,4,5,0.13836332096989928,0.014969832387467805
39,5,5,0.15640352272567093,0.01100860664539894
39,6,5,0.048056782200925977,0.005896520872615034
39,7,5,0.14832576406372283,0.0047882785932053026
39,8,5,0.12233817024121782,0.0076051981777348985
40,0,5,0.10658925223850224,0.021757377872632613
40,1,5,0.10359665532160962,0.015144740612982929
40,2,5,0.04665433646036672,0.008791121180263126
40,3,5,0.03301924412270696,0.015559084040760226
40,4,5,0.08375631181255556,0.016759984916521416
40,5,5,0.039545986344083905,0.014548804915674703
40,6,5,0.07467915660035873,0.016428647691041038
40,7,5,0.17841098863145524,0.013771621084021014
40,8,5,0.11666173860806055,0.017454997612726727
