subject,channel,alpha,f1,drop_pp
1,0,1.0,0.7480804305409983,0.0
1,0,0.75,0.7398261875783634,0.8254242962634883
1,0,0.5,0.7234182890133792,2.466214152761903
1,0,0.25,0.7283059887678318,1.9774441773166451
1,0,0.0,0.7549642442256108,-0.688381368461255
1,1,1.0,0.7480804305409983,0.0
1,1,0.75,0.749940580349955,-0.1860149808956768
1,1,0.5,0.7515644240479824,-0.348399350698414
1,1,0.25,0.7473080585381986,0.07723720027996706
1,1,0.0,0.7427509110844878,0.5329519456510501
1,2,1.0,0.7480804305409983,0.0
1,2,0.75,0.7593820299486546,-1.1301599407656293
1,2,0.5,0.7531784558483587,-0.5098025307360476
1,2,0.25,0.7524610838058653,-0.43806532648670293
1,2,0.0,0.7408147586646694,0.7265671876328872
1,3,1.0,0.7480804305409983,0.0
1,3,0.75,0.7320049223316812,1.6075508209317024
1,3,0.5,0.7055698669942263,4.251056354677196
1,3,0.25,0.6952024513929776,5.287797914802061
1,3,0.0,0.6805959820927909,6.7484448448207335
1,4,1.0,0.7480804305409983,0.0
1,4,0.75,0.7525746458173488,-0.44942152763505216
1,4,0.5,0.755854450209289,-0.7774019668290721
1,4,0.25,0.7494997140913171,-0.14192835503188395
1,4,0.0,0.7270610952252894,2.1019335315708876
1,5,1.0,0.7480804305409983,0.0
1,5,0.75,0.7133757933550661,3.4704637185932197
1,5,0.5,0.6940791707772543,5.400125976374392
1,5,0.25,0.6731365085521076,7.4943921988890665
1,5,0.0,0.6564014567532844,9.167897378771384
1,6,1.0,0.7480804305409983,0.0
1,6,0.75,0.7487759880716182,-0.06955575306198947
1,6,0.5,0.7392121481316972,0.8868282409301043
1,6,0.25,0.7305155547996834,1.7564875741314823
1,6,0.0,0.7214357024782052,2.6644728062793055
1,7,1.0,0.7480804305409983,0.0
1,7,0.75,0.7394344704144337,0.86459601265646
1,7,0.5,0.7291104302368407,1.897000030415752
1,7,0.25,0.6988746628093752,4.920576773162311
1,7,0.0,0.6615030772242798,8.657735331671844
1,8,1.0,0.7480804305409983,0.0
1,8,0.75,0.7442376782199042,0.38427523210941006
1,8,0.5,0.7417502588325303,0.6330171708467947
1,8,0.25,0.747488859186413,0.05915713545853185
1,8,0.0,0.7148998815019744,3.31805490390239
2,0,1.0,0.8997908304596077,0.0
2,0,0.75,0.8887432509235579,1.1047579536049845
2,0,0.5,0.8764262180211132,2.3364612438494525
2,0,0.25,0.864660822269518,3.513000819008971
2,0,0.0,0.8236326521111248,7.615817834848293
2,1,1.0,0.8997908304596077,0.0
2,1,0.75,0.8920706371191136,0.7720193340494119
2,1,0.5,0.8625231821722226,3.7267648287385158
2,1,0.25,0.845864898989899,5.39259314697087
2,1,0.0,0.8537897253523004,4.600110510730737
2,2,1.0,0.8997908304596077,0.0
2,2,0.75,0.8931426310136243,0.6648199445983383
2,2,0.5,0.8931881237347888,0.6602706724818885
2,2,0.25,0.8958189975912408,0.3971832868366887
2,2,0.0,0.9005083393006326,-0.07175088410248387
2,3,1.0,0.8997908304596077,0.0
2,3,0.75,0.8920174456297518,0.77733848298559
2,3,0.5,0.9131936289330276,-1.3402798473419852
2,3,0.25,0.8841462087116598,1.5644621747947896
2,3,0.0,0.8603450457577614,3.9445784701846343
2,4,1.0,0.8997908304596077,0.0
2,4,0.75,0.8917827250078214,0.8008105451786318
2,4,0.5,0.8805639247342392,1.922690572536856
2,4,0.25,0.8750011503111116,2.478968014849614
2,4,0.0,0.8596330342052934,4.015779625431437
2,5,1.0,0.8997908304596077,0.0
2,5,0.75,0.8944623496831986,0.5328480776409128
2,5,0.5,0.8944623496831986,0.5328480776409128
2,5,0.25,0.8786537191626488,2.1137111296958944
2,5,0.0,0.8759402064524554,2.385062400715232
2,6,1.0,0.8997908304596077,0.0
2,6,0.75,0.8997908304596077,0.0
2,6,0.5,0.8757818381987357,2.4008992260872053
2,6,0.25,0.8510903997277746,4.870043073183316
2,6,0.0,0.8486355011909087,5.1155329268699035
2,7,1.0,0.8997908304596077,0.0
2,7,0.75,0.8737224064856038,2.6068423974003885
2,7,0.5,0.8425860950185206,5.720473544108717
2,7,0.25,0.8214253636277793,7.836546683182844
2,7,0.0,0.8161767801362309,8.361405032337688
2,8,1.0,0.8997908304596077,0.0
2,8,0.75,0.8973337950138504,0.24570354457573718
2,8,0.5,0.8921065214119909,0.7684309047616855
2,8,0.25,0.8997814986193687,0.0009331840238990807
2,8,0.0,0.9050189823158029,-0.5228151856195185
3,0,1.0,0.9277120798459502,0.0
3,0,0.75,0.9277120798459502,0.0
3,0,0.5,0.9459282797877662,-1.8216199941816003
3,0,0.25,0.9459282797877662,-1.8216199941816003
3,0,0.0,0.9459282797877662,-1.8216199941816003
3,1,1.0,0.9277120798459502,0.0
3,1,0.75,0.9220986802727047,0.561339957324547
3,1,0.5,0.9233269859886042,0.43850938573459786
3,1,0.25,0.9165329296262714,1.1179150219678746
3,1,0.0,0.9077838761756198,1.9928203670330324
3,2,1.0,0.9277120798459502,0.0
3,2,0.75,0.9220986802727047,0.561339957324547
3,2,0.5,0.9232571122125229,0.44549676334272315
3,2,0.25,0.9177839766872623,0.9928103158687862
3,2,0.0,0.9203312499058505,0.7380829940099698
3,3,1.0,0.9277120798459502,0.0
3,3,0.75,0.9172963336098929,1.0415746236057233
3,3,0.5,0.9117305829634597,1.598149688249051
3,3,0.25,0.9105181863802554,1.7193893465694776
3,3,0.0,0.880319533278026,4.739254656792413
3,4,1.0,0.9277120798459502,0.0
3,4,0.75,0.9250562890268773,0.26557908190728563
3,4,0.5,0.9346515462410125,-0.6939466395062377
3,4,0.25,0.9469031613134549,-1.91910814675047
3,4,0.0,0.953525641025641,-2.5813561179690803
3,5,1.0,0.9277120798459502,0.0
3,5,0.75,0.9373678241118175,-0.965574426586735
3,5,0.5,0.9442527342117505,-1.6540654365800322
3,5,0.25,0.9388407375326306,-1.1128657686680477
3,5,0.0,0.9439739675300676,-1.6261887684117404
3,6,1.0,0.9277120798459502,0.0
3,6,0.75,0.9277120798459502,0.0
3,6,0.5,0.9277120798459502,0.0
3,6,0.25,0.9220986802727047,0.561339957324547
3,6,0.0,0.9220986802727047,0.561339957324547
3,7,1.0,0.9277120798459502,0.0
3,7,0.75,0.9277120798459502,0.0
3,7,0.5,0.9288278581883233,-0.1115778342373086
3,7,0.25,0.9125427402613262,1.5169339584623964
3,7,0.0,0.9011798736353016,2.6532206210648557
3,8,1.0,0.9277120798459502,0.0
3,8,0.75,0.9277120798459502,0.0
3,8,0.5,0.9191029441899512,0.8609135655998967
3,8,0.25,0.9247571249605082,0.29549548854419516
3,8,0.0,0.9181218895117134,0.9590190334236803
4,0,1.0,0.9516350625483811,0.0
4,0,0.75,0.9467923944517094,0.4842668096671776
4,0,0.5,0.9387922879894501,1.2842774558931014
4,0,0.25,0.9395476561836855,1.208740636469563
4,0,0.0,0.9418699630872239,0.9765099461157223
4,1,1.0,0.9516350625483811,0.0
4,1,0.75,0.9452724486020823,0.636261394629889
4,1,0.5,0.9397142286988456,1.1920833849535573
4,1,0.25,0.9386955266955268,1.2939535852854345
4,1,0.0,0.9300437350006315,2.1591327547749617
4,2,1.0,0.9516350625483811,0.0
4,2,0.75,0.9452724486020823,0.636261394629889
4,2,0.5,0.9425120793455044,0.9122983202876744
4,2,0.25,0.9425120793455044,0.9122983202876744
4,2,0.0,0.9397863481435935,1.184871440478763
4,3,1.0,0.9516350625483811,0.0
4,3,0.75,0.9406281875636993,1.1006874984681891
4,3,0.5,0.9392804786688207,1.2354583879560455
4,3,0.25,0.916333606613377,3.530145593500411
4,3,0.0,0.9150685485543046,3.656651399407651
4,4,1.0,0.9516350625483811,0.0
4,4,0.75,0.9402899536806846,1.1345108867696574
4,4,0.5,0.9303038233062046,2.1331239242176503
4,4,0.25,0.9380944708985237,1.3540591649857436
4,4,0.0,0.9223931983964249,2.9241864151956287
4,5,1.0,0.9516350625483811,0.0
4,5,0.75,0.9425120793455044,0.9122983202876744
4,5,0.5,0.9425120793455044,0.9122983202876744
4,5,0.25,0.9397863481435935,1.184871440478763
4,5,0.0,0.9379770177018036,1.365804484657751
4,6,1.0,0.9516350625483811,0.0
4,6,0.75,0.9343703415786903,1.7264720969690894
4,6,0.5,0.9294013752849561,2.2233687263425006
4,6,0.25,0.9230482961992579,2.858676634912327
4,6,0.0,0.9294433928341237,2.2191669714257456
4,7,1.0,0.9516350625483811,0.0
4,7,0.75,0.9325798866132012,1.9055175935179913
4,7,0.5,0.9389762332655317,1.2658829282849449
4,7,0.25,0.9276236459594894,2.401141658889172
4,7,0.0,0.9124010473754719,3.9234015172909253
4,8,1.0,0.9516350625483811,0.0
4,8,0.75,0.9532089565385903,-0.15738939902091298
4,8,0.5,0.9725703338705048,-2.0935271322123694
4,8,0.25,0.9610100057624811,-0.9374943214099929
4,8,0.0,0.9537709139292252,-0.2135851380844045
5,0,1.0,0.6825283587380362,0.0
5,0,0.75,0.6864649893292619,-0.39366305912257316
5,0,0.5,0.6777594784697204,0.47688802683157894
5,0,0.25,0.6810555189410437,0.1472839796992531
5,0,0.0,0.675428049181019,0.7100309557017237
5,1,1.0,0.6825283587380362,0.0
5,1,0.75,0.6958744717013399,-1.334611296330368
5,1,0.5,0.7109756099673802,-2.8447251229343995
5,1,0.25,0.7126673293248059,-3.013897058676973
5,1,0.0,0.7163628186865366,-3.383445994850043
5,2,1.0,0.6825283587380362,0.0
5,2,0.75,0.6892721302567093,-0.6743771518673114
5,2,0.5,0.6797516845196567,0.277667421837946
5,2,0.25,0.6856010569445699,-0.3072698206533664
5,2,0.0,0.6892918380212478,-0.6763479283211637
5,3,1.0,0.6825283587380362,0.0
5,3,0.75,0.7099928954299709,-2.7464536691934716
5,3,0.5,0.715964569360044,-3.3436210622007856
5,3,0.25,0.7322711468923409,-4.974278815430466
5,3,0.0,0.7380941615216983,-5.556580278366208
5,4,1.0,0.6825283587380362,0.0
5,4,0.75,0.6646411201651032,1.788723857293295
5,4,0.5,0.6470104622284311,3.551789650960513
5,4,0.25,0.6388636819593243,4.366467677871189
5,4,0.0,0.6395804108290397,4.2947947908996476
5,5,1.0,0.6825283587380362,0.0
5,5,0.75,0.6628866111649926,1.96417475730436
5,5,0.5,0.6433961850942654,3.913217364377075
5,5,0.25,0.6279946168966282,5.453374184140802
5,5,0.0,0.6254606220157348,5.7067736722301365
5,6,1.0,0.6825283587380362,0.0
5,6,0.75,0.6899208318563158,-0.7392473118279619
5,6,0.5,0.6915461363952435,-0.9017777657207349
5,6,0.25,0.6837668928112879,-0.12385340732516958
5,6,0.0,0.6770472582972582,0.5481100440777986
5,7,1.0,0.6825283587380362,0.0
5,7,0.75,0.7069971026686822,-2.446874393064602
5,7,0.5,0.6939912257323808,-1.1462866994344623
5,7,0.25,0.6937037327502643,-1.1175374012228123
5,7,0.0,0.6668066850579998,1.5721673680036408
5,8,1.0,0.6825283587380362,0.0
5,8,0.75,0.6929417009753016,-1.0413342237265422
5,8,0.5,0.6922605902728495,-0.9732231534813285
5,8,0.25,0.6677804233158142,1.474793542222197
5,8,0.0,0.6480368895183912,3.4491469219644966
6,0,1.0,0.8189333641554424,0.0
6,0,0.75,0.8220345289099076,-0.3101164754465202
6,0,0.5,0.8263687558333815,-0.7435391677939163
6,0,0.25,0.8225649840666011,-0.3631619911158679
6,0,0.0,0.8092185698475565,0.971479430788591
6,1,1.0,0.8189333641554424,0.0
6,1,0.75,0.8177129879257539,0.12203762296885134
6,1,0.5,0.8231285831285832,-0.4195218973140791
6,1,0.25,0.8130918577379558,0.5841506417486597
6,1,0.0,0.809813466063466,0.9119898091976331
6,2,1.0,0.8189333641554424,0.0
6,2,0.75,0.8372280107603552,-1.8294646604912868
6,2,0.5,0.8324623737838404,-1.352900962839798
6,2,0.25,0.8424316635825035,-2.3498299427061164
6,2,0.0,0.8552948785613496,-3.636151440590718
6,3,1.0,0.8189333641554424,0.0
6,3,0.75,0.8243746622319581,-0.5441298076515722
6,3,0.5,0.8296798373618698,-1.074647320642741
6,3,0.25,0.8429084000289686,-2.397503587352623
6,3,0.0,0.8476828885470215,-2.8749524391579073
6,4,1.0,0.8189333641554424,0.0
6,4,0.75,0.8010740146589037,1.7859349496538668
6,4,0.5,0.7873487652557419,3.1584598899700445
6,4,0.25,0.7762952240575132,4.263814009792921
6,4,0.0,0.7862842226101177,3.2649141545324722
6,5,1.0,0.8189333641554424,0.0
6,5,0.75,0.8198765653915459,-0.09432012361034747
6,5,0.5,0.8152323317791295,0.3701032376312918
6,5,0.25,0.815972656861211,0.29607072942313684
6,5,0.0,0.8291172841808907,-1.0183920025448323
6,6,1.0,0.8189333641554424,0.0
6,6,0.75,0.8130541704803353,0.5879193675107031
6,6,0.5,0.8238987313248962,-0.4965367169453838
6,6,0.25,0.8196729230475026,-0.07395588920602325
6,6,0.0,0.8316289927175715,-1.2695628562129135
6,7,1.0,0.8189333641554424,0.0
6,7,0.75,0.794170835388337,2.4762528767105385
6,7,0.5,0.7634674089857133,5.546595516972907
6,7,0.25,0.7307643906481115,8.816897350733088
6,7,0.0,0.6876375418934464,13.129582226199599
6,8,1.0,0.8189333641554424,0.0
6,8,0.75,0.819635164589072,-0.07018004336296624
6,8,0.5,0.8176678954865229,0.12654686689195227
6,8,0.25,0.7997318858713887,1.920147828405372
6,8,0.0,0.7943601210775622,2.4573243077880225
7,0,1.0,0.8521489861692049,0.0
7,0,0.75,0.8566093203085798,-0.4460334139374966
7,0,0.5,0.852368001805035,-0.021901563583015538
7,0,0.25,0.8298775836867862,2.2271402482418656
7,0,0.0,0.8128589121272047,3.9290074042000134
7,1,1.0,0.8521489861692049,0.0
7,1,0.75,0.8450090400099008,0.7139946159304023
7,1,0.5,0.8434791483529211,0.8669837816283721
7,1,0.25,0.8269435910564943,2.5205395112710582
7,1,0.0,0.8040331707084227,4.811581546078214
7,2,1.0,0.8521489861692049,0.0
7,2,0.75,0.8424859190988223,0.9663067070382558
7,2,0.5,0.8330404787741278,1.910850739507708
7,2,0.25,0.8276860432164573,2.4462942952747535
7,2,0.0,0.782788881412021,6.9360104757183905
7,3,1.0,0.8521489861692049,0.0
7,3,0.75,0.8590329327206315,-0.6883946551426656
7,3,0.5,0.8389144715837215,1.3234514585483415
7,3,0.25,0.8397034650783246,1.2445521090880263
7,3,0.0,0.8401347884954765,1.2014197673728355
7,4,1.0,0.8521489861692049,0.0
7,4,0.75,0.8498367895545316,0.23121966146733008
7,4,0.5,0.832208117589645,1.99408685795599
7,4,0.25,0.8168915256720134,3.5257460497191473
7,4,0.0,0.8038902408396238,4.825874532958108
7,5,1.0,0.8521489861692049,0.0
7,5,0.75,0.8603886977163728,-0.823971154716796
7,5,0.5,0.8380379747900611,1.4111011379143723
7,5,0.25,0.84197913794688,1.0169848222324918
7,5,0.0,0.852077902597429,0.007108357177587621
7,6,1.0,0.8521489861692049,0.0
7,6,0.75,0.8443376010781671,0.7811385091037737
7,6,0.5,0.7407375897027901,11.141139646641474
7,6,0.25,0.7372923319184563,11.485665425074853
7,6,0.0,0.717023376197829,13.51256099713759
7,7,1.0,0.8521489861692049,0.0
7,7,0.75,0.851341542845557,0.0807443323647905
7,7,0.5,0.8337673964657328,1.8381589703472034
7,7,0.25,0.8352945366811241,1.6854449488080792
7,7,0.0,0.7983724313511548,5.377655481805011
7,8,1.0,0.8521489861692049,0.0
7,8,0.75,0.8571892068922017,-0.5040220722996813
7,8,0.5,0.8557037037037036,-0.35547175344987636
7,8,0.25,0.8378341029690392,1.4314883200165718
7,8,0.0,0.8281379011188449,2.401108505035998
8,0,1.0,0.882468001693431,0.0
8,0,0.75,0.8903535831350401,-0.7885581441609113
8,0,0.5,0.8825583570303585,-0.009035533692747233
8,0,0.25,0.8962468202801054,-1.3778818586674402
8,0,0.0,0.880332148826817,0.21358528666139964
8,1,1.0,0.882468001693431,0.0
8,1,0.75,0.8981498388829215,-1.5681837189490566
8,1,0.5,0.8904605065667058,-0.7992504873274853
8,1,0.25,0.885657191276454,-0.31891895830230554
8,1,0.0,0.876891209027902,0.5576792665529018
8,2,1.0,0.882468001693431,0.0
8,2,0.75,0.9019047619047619,-1.9436760211330895
8,2,0.5,0.9062749304652421,-2.380692877181112
8,2,0.25,0.9019292263649008,-1.9461224671469823
8,2,0.0,0.8938173280078724,-1.134932631444141
8,3,1.0,0.882468001693431,0.0
8,3,0.75,0.8808029001074115,0.16651015860195129
8,3,0.5,0.876509945348144,0.5958056345287011
8,3,0.25,0.8744557823129252,0.8012219380505781
8,3,0.0,0.8676046669738071,1.4863334719623866
8,4,1.0,0.882468001693431,0.0
8,4,0.75,0.8735217870932156,0.8946214600215385
8,4,0.5,0.8494220953331135,3.3045906360317456
8,4,0.25,0.8314822429502022,5.098575874322875
8,4,0.0,0.851056237669567,3.141176402386403
8,5,1.0,0.882468001693431,0.0
8,5,0.75,0.869417056708596,1.3050944984834945
8,5,0.5,0.8764098545596729,0.6058147133758074
8,5,0.25,0.8814367803124048,0.10312213810261817
8,5,0.0,0.8561319018434842,2.633609984994678
8,6,1.0,0.882468001693431,0.0
8,6,0.75,0.8934348794885427,-1.096687779511174
8,6,0.5,0.8936821505819342,-1.121414888850325
8,6,0.25,0.8876691729323308,-0.5201171238899849
8,6,0.0,0.8843358395989974,-0.18678379055664385
8,7,1.0,0.882468001693431,0.0
8,7,0.75,0.8930749716197843,-1.060696992635335
8,7,0.5,0.8803156565656566,0.2152345127774402
8,7,0.25,0.8867979495180198,-0.43299478245888423
8,7,0.0,0.8430184722319554,3.944952946147562
8,8,1.0,0.882468001693431,0.0
8,8,0.75,0.8882709750566894,-0.5802973363258412
8,8,0.5,0.8753559780076414,0.7112023685789559
8,8,0.25,0.8886943455605428,-0.622634386711185
8,8,0.0,0.8788013905391132,0.3666611154317767
9,0,1.0,0.8739998952846262,0.0
9,0,0.75,0.8665729757106311,0.7426919573995105
9,0,0.5,0.8727634590673513,0.12364362172748722
9,0,0.25,0.8657020357739782,0.8297859510647987
9,0,0.0,0.859394894321365,1.4605000963261228
9,1,1.0,0.8739998952846262,0.0
9,1,0.75,0.8668290376947425,0.7170857589883672
9,1,0.5,0.8668518518518519,0.7148043432774309
9,1,0.25,0.8557911850009765,1.8208710283649676
9,1,0.0,0.8390650058065586,3.4934889478067555
9,2,1.0,0.8739998952846262,0.0
9,2,0.75,0.8758347077148616,-0.18348124302354218
9,2,0.5,0.8926244683574778,-1.8624573072851591
9,2,0.25,0.8779623995906161,-0.3962504305989878
9,2,0.0,0.8482563121826382,2.574358310198799
9,3,1.0,0.8739998952846262,0.0
9,3,0.75,0.863937814977231,1.0062080307395194
9,3,0.5,0.8622358722358722,1.1764023048754013
9,3,0.25,0.8488515182080071,2.51483770766191
9,3,0.0,0.8427149704559809,3.128492482864531
9,4,1.0,0.8739998952846262,0.0
9,4,0.75,0.8741138424616157,-0.011394717698953727
9,4,0.5,0.8693482506386281,0.46516446459980987
9,4,0.25,0.8760223962738097,-0.2022500989183551
9,4,0.0,0.8909033710877564,-1.690347580313023
9,5,1.0,0.8739998952846262,0.0
9,5,0.75,0.8695124495607809,0.4487445723845296
9,5,0.5,0.8607348756327452,1.3265019651880983
9,5,0.25,0.8607226900266133,1.3277205258012903
9,5,0.0,0.8515800209170347,2.241987436759152
9,6,1.0,0.8739998952846262,0.0
9,6,0.75,0.8720706837211692,0.1929211563456934
9,6,0.5,0.8622817172535313,1.1718178031094872
9,6,0.25,0.8653522742379491,0.8647621046677045
9,6,0.0,0.8683004797135233,0.5699415571102873
9,7,1.0,0.8739998952846262,0.0
9,7,0.75,0.8715105521105859,0.24893431740402594
9,7,0.5,0.8354309176168347,3.8568977667791438
9,7,0.25,0.8063930659067939,6.7606829377832245
9,7,0.0,0.8296399564830101,4.435993880161604
9,8,1.0,0.8739998952846262,0.0
9,8,0.75,0.8765016229906235,-0.25017277059973253
9,8,0.5,0.8890257841376341,-1.502588885300793
9,8,0.25,0.8840539277286923,-1.0054032444066108
9,8,0.0,0.865317214665129,0.8682680619497174
10,0,1.0,0.7928373876459818,0.0
10,0,0.75,0.8016875415650632,-0.8850153919081394
10,0,0.5,0.7996741986337362,-0.683681098775446
10,0,0.25,0.817981663526567,-2.514427588058521
10,0,0.0,0.8048359690904683,-1.1998581444486511
10,1,1.0,0.7928373876459818,0.0
10,1,0.75,0.7882028634245368,0.46345242214449467
10,1,0.5,0.7828059861515981,1.003140149438364
10,1,0.25,0.7828500700874119,0.9987317558569853
10,1,0.0,0.7987181286392232,-0.5880740993241429
10,2,1.0,0.7928373876459818,0.0
10,2,0.75,0.786941046057757,0.5896341588224718
10,2,0.5,0.7982833489549699,-0.5445961308988112
10,2,0.25,0.7758636478464064,1.6973739799575394
10,2,0.0,0.7766238224952049,1.6213565150776876
10,3,1.0,0.7928373876459818,0.0
10,3,0.75,0.7955062228837444,-0.26688352377626234
10,3,0.5,0.8036371314769373,-1.07997438309555
10,3,0.25,0.8004727884304527,-0.7635400784470892
10,3,0.0,0.7884284892804306,0.44088983655511393
10,4,1.0,0.7928373876459818,0.0
10,4,0.75,0.8012901990213093,-0.8452811375327496
10,4,0.5,0.7896608690989858,0.31765185469959656
10,4,0.25,0.7976044607102449,-0.4767073064263161
10,4,0.0,0.7960257269351382,-0.31883392891564055
10,5,1.0,0.7928373876459818,0.0
10,5,0.75,0.7824701614175298,1.0367226228451987
10,5,0.5,0.7861402038821393,0.6697183763842429
10,5,0.25,0.7858914996614725,0.6945887984509236
10,5,0.0,0.7957244008714597,-0.2887013225477908
10,6,1.0,0.7928373876459818,0.0
10,6,0.75,0.7973589631095787,-0.4521575463596883
10,6,0.5,0.7955062228837446,-0.26688352377628455
10,6,0.25,0.8222873864507217,-2.9449998804739974
10,6,0.0,0.8312312485288607,-3.8393860882878883
10,7,1.0,0.7928373876459818,0.0
10,7,0.75,0.7842010683727365,0.8636319273245263
10,7,0.5,0.7862330734820846,0.6604314163897174
10,7,0.25,0.7609256448851824,3.1911742760799333
10,7,0.0,0.7790687880283256,1.3768599617656196
10,8,1.0,0.7928373876459818,0.0
10,8,0.75,0.806249492843444,-1.3412105197462276
10,8,0.5,0.8098529175481349,-1.701552990215316
10,8,0.25,0.8049967694814315,-1.2159381835449734
10,8,0.0,0.7907883192999146,0.20490683460672177
11,0,1.0,0.9276899966775479,0.0
11,0,0.75,0.9386160714285713,-1.0926074751023362
11,0,0.5,0.9243805470477059,0.3309449629842032
11,0,0.25,0.9188007180067851,0.8889278670762835
11,0,0.0,0.9131834340561678,1.450656262138017
11,1,1.0,0.9276899966775479,0.0
11,1,0.75,0.9366134202675048,-0.8923423589956903
11,1,0.5,0.9278897160808182,-0.019971940327023763
11,1,0.25,0.9330980494141514,-0.5408052736603497
11,1,0.0,0.9294977808429982,-0.18077841654502436
11,2,1.0,0.9276899966775479,0.0
11,2,0.75,0.9278897160808182,-0.019971940327023763
11,2,0.5,0.9197058036118697,0.7984193065678213
11,2,0.25,0.8922505052709712,3.543949140657676
11,2,0.0,0.8896427491841405,3.8047247493407377
11,3,1.0,0.9276899966775479,0.0
11,3,0.75,0.9272501872846125,0.043980939293541965
11,3,0.5,0.9166678804537054,1.1022116223842526
11,3,0.25,0.9219870293898755,0.5702967287672389
11,3,0.0,0.9139746055415972,1.3715391135950772
11,4,1.0,0.9276899966775479,0.0
11,4,0.75,0.9278754758981449,-0.018547922059697353
11,4,0.5,0.9024168070017314,2.5273189675816488
11,4,0.25,0.8841508234499473,4.35391732276006
11,4,0.0,0.8828642155990126,4.48257810785353
11,5,1.0,0.9276899966775479,0.0
11,5,0.75,0.9183407207886244,0.9349275888923536
11,5,0.5,0.9048873821854765,2.280261449207144
11,5,0.25,0.9016633024849504,2.602669419259751
11,5,0.0,0.906149895972088,2.1540100705459975
11,6,1.0,0.9276899966775479,0.0
11,6,0.75,0.9302370054847392,-0.25470088071912755
11,6,0.5,0.9334026512802626,-0.571265460271464
11,6,0.25,0.9334026512802626,-0.571265460271464
11,6,0.0,0.9334026512802626,-0.571265460271464
11,7,1.0,0.9276899966775479,0.0
11,7,0.75,0.9408891142663962,-1.3199117588848286
11,7,0.5,0.9442106474910649,-1.6520650813516946
11,7,0.25,0.9382247195841787,-1.0534722906630822
11,7,0.0,0.9297036698162314,-0.20136731386835027
11,8,1.0,0.9276899966775479,0.0
11,8,0.75,0.9221871124331448,0.550288424440315
11,8,0.5,0.9198229835228765,0.7867013154671421
11,8,0.25,0.9147209322325421,1.2969064445005785
11,8,0.0,0.9197528598807694,0.7937136796778543
12,0,1.0,0.9064240819665074,0.0
12,0,0.75,0.9253675613137423,-1.8943479347234948
12,0,0.5,0.918560448691317,-1.2136366724809666
12,0,0.25,0.9142673721228786,-0.7843290156371197
12,0,0.0,0.9078947947854148,-0.1470712818907427
12,1,1.0,0.9064240819665074,0.0
12,1,0.75,0.8906585062016903,1.5765575764817075
12,1,0.5,0.8990095183598871,0.7414563606620295
12,1,0.25,0.8923067708681938,1.41173110983136
12,1,0.0,0.8940794127103204,1.2344669256186935
12,2,1.0,0.9064240819665074,0.0
12,2,0.75,0.8913268536034401,1.509722836306726
12,2,0.5,0.8938324146863046,1.2591667280202778
12,2,0.25,0.8897714959909464,1.6652585975560963
12,2,0.0,0.8802269912731002,2.6197090693407143
12,3,1.0,0.9064240819665074,0.0
12,3,0.75,0.9116309102096507,-0.5206828243143335
12,3,0.5,0.9149299845438869,-0.8505902577379487
12,3,0.25,0.9038893824939132,0.2534699472594215
12,3,0.0,0.9033464751191147,0.30776068473926665
12,4,1.0,0.9064240819665074,0.0
12,4,0.75,0.8914511587714093,1.497292319509802
12,4,0.5,0.8941134207105872,1.2310661255920174
12,4,0.25,0.9040174686039745,0.24066133625328945
12,4,0.0,0.9106872453104702,-0.4263163343962817
12,5,1.0,0.9064240819665074,0.0
12,5,0.75,0.9011525368114515,0.5271545155055901
12,5,0.5,0.9045749687451703,0.1849113221337073
12,5,0.25,0.9103544326517177,-0.39303506852103043
12,5,0.0,0.9162588415490767,-0.9834759582569297
12,6,1.0,0.9064240819665074,0.0
12,6,0.75,0.8990844203997708,0.7339661566736599
12,6,0.5,0.8925561029009306,1.3867979065576796
12,6,0.25,0.8858365623372982,2.058751962920913
12,6,0.0,0.8796760317130592,2.6748050253448175
12,7,1.0,0.9064240819665074,0.0
12,7,0.75,0.9108333149926536,-0.4409233026146264
12,7,0.5,0.9308759253368728,-2.4451843370365434
12,7,0.25,0.9277482256590721,-2.1324143692564745
12,7,0.0,0.9336038042065418,-2.71797222400344
12,8,1.0,0.9064240819665074,0.0
12,8,0.75,0.9264391178394542,-2.001503587294684
12,8,0.5,0.9265973909283044,-2.017330896179703
12,8,0.25,0.93019761929537,-2.377353732886267
12,8,0.0,0.93019761929537,-2.377353732886267
13,0,1.0,0.9595354853479854,0.0
13,0,0.75,0.9571066091191445,0.2428876228840915
13,0,0.5,0.9571066091191445,0.2428876228840915
13,0,0.25,0.9533584139308049,0.6177071417180491
13,0,0.0,0.9453199325258461,1.4215552822139266
13,1,1.0,0.9595354853479854,0.0
13,1,0.75,0.9513336073375445,0.8201878010440922
13,1,0.5,0.9453338556629234,1.4201629685062
13,1,0.25,0.9456046649305382,1.3930820417447198
13,1,0.0,0.943139208764703,1.6396276583282354
13,2,1.0,0.9595354853479854,0.0
13,2,0.75,0.9595354853479854,0.0
13,2,0.5,0.9536079415944896,0.5927543753495801
13,2,0.25,0.9563554706253455,0.31800147226398456
13,2,0.0,0.9402793233006104,1.9256162047375014
13,3,1.0,0.9595354853479854,0.0
13,3,0.75,0.9551759004884004,0.4359584859584986
13,3,0.5,0.9615132034367593,-0.19777180887738943
13,3,0.25,0.9725912939293594,-1.3055808581374007
13,3,0.0,0.9588233319063568,0.07121534416285602
13,4,1.0,0.9595354853479854,0.0
13,4,0.75,0.9568255474294616,0.2709937918523808
13,4,0.5,0.9378083117038865,2.172717364409893
13,4,0.25,0.9381514675861596,2.1384017761825747
13,4,0.0,0.9420704675013006,1.746501784668475
13,5,1.0,0.9595354853479854,0.0
13,5,0.75,0.9580254034784123,0.15100818695731322
13,5,0.5,0.955172555991503,0.43629293564824145
13,5,0.25,0.9550200454083022,0.45154399396831746
13,5,0.0,0.9647216730827499,-0.5186187734764536
13,6,1.0,0.9595354853479854,0.0
13,6,0.75,0.9634049996015488,-0.3869514253563411
13,6,0.5,0.960695061683025,-0.11595763350396027
13,6,0.25,0.9584870701425225,0.10484152054628382
13,6,0.0,0.9546135308974282,0.4921954450557209
13,7,1.0,0.9595354853479854,0.0
13,7,0.75,0.9595354853479854,0.0
13,7,0.5,0.9437441250563994,1.579136029158601
13,7,0.25,0.9437441250563994,1.579136029158601
13,7,0.0,0.9524600603161916,0.7075425031793814
13,8,1.0,0.9595354853479854,0.0
13,8,0.75,0.9579251158725087,0.16103694754766584
13,8,0.5,0.9630174582127934,-0.3481972864808003
13,8,0.25,0.9555804284930671,0.39550568549182596
13,8,0.0,0.9644531614511659,-0.49176761031805016
14,0,1.0,0.8211218368743339,0.0
14,0,0.75,0.8211218368743339,0.0
14,0,0.5,0.8279078802683673,-0.6786043394033325
14,0,0.25,0.823371091576701,-0.22492547023670317
14,0,0.0,0.815253513208582,0.5868323665751962
14,1,1.0,0.8211218368743339,0.0
14,1,0.75,0.8324163625430203,-1.1294525668686384
14,1,0.5,0.8369466076428415,-1.5824770768507523
14,1,0.25,0.8259365291107954,-0.4814692236461471
14,1,0.0,0.8241928758389209,-0.3071038964586936
14,2,1.0,0.8211218368743339,0.0
14,2,0.75,0.8297256300722541,-0.8603793197920151
14,2,0.5,0.8277592979785571,-0.6637461104223141
14,2,0.25,0.8277592979785571,-0.6637461104223141
14,2,0.0,0.8280488941474163,-0.6927057273082404
14,3,1.0,0.8211218368743339,0.0
14,3,0.75,0.8185361190675237,0.25857178068102726
14,3,0.5,0.7972740975346655,2.384773933966844
14,3,0.25,0.776811911652876,4.430992522145793
14,3,0.0,0.7287670527670528,9.235478410728115
14,4,1.0,0.8211218368743339,0.0
14,4,0.75,0.8192711205430547,0.18507163312792008
14,4,0.5,0.8343580223823288,-1.323618550799488
14,4,0.25,0.8312923276897909,-1.0170490815456956
14,4,0.0,0.8482777435917159,-2.7155906717381995
14,5,1.0,0.8211218368743339,0.0
14,5,0.75,0.838784956085996,-1.7663119211662082
14,5,0.5,0.8418196132119828,-2.069777633764891
14,5,0.25,0.8440739247816769,-2.2952087907342933
14,5,0.0,0.8362763682277563,-1.5154531353422374
14,6,1.0,0.8211218368743339,0.0
14,6,0.75,0.8211218368743339,0.0
14,6,0.5,0.8245611060419237,-0.34392691675897424
14,6,0.25,0.8147726413384825,0.6349195535851448
14,6,0.0,0.8170897196949272,0.4032117179406769
14,7,1.0,0.8211218368743339,0.0
14,7,0.75,0.8126461824095309,0.8475654464803029
14,7,0.5,0.7901457677717072,3.0976069102626735
14,7,0.25,0.7920713057988035,2.905053107553046
14,7,0.0,0.7921383614492286,2.8983475425105376
14,8,1.0,0.8211218368743339,0.0
14,8,0.75,0.8332537357757049,-1.2131898901371008
14,8,0.5,0.8317997226108758,-1.0677885736541826
14,8,0.25,0.819577502386154,0.15443344881799215
14,8,0.0,0.7921543778801843,2.8967458994149653
15,0,1.0,0.9341671133762812,0.0
15,0,0.75,0.9217577629342335,1.2409350442047717
15,0,0.5,0.9281079539618439,0.6059159414437354
15,0,0.25,0.9296942708707414,0.4472842505539809
15,0,0.0,0.9321286175377688,0.20384958385124552
15,1,1.0,0.9341671133762812,0.0
15,1,0.75,0.9392594470676423,-0.5092333691361084
15,1,0.5,0.9301113873740856,0.40557260021956143
15,1,0.25,0.9164501745415388,1.7716938834742457
15,1,0.0,0.9100748831662473,2.4092230210033927
15,2,1.0,0.9341671133762812,0.0
15,2,0.75,0.9287803506838241,0.5386762692457081
15,2,0.5,0.9326623908296943,0.15047225465869563
15,2,0.25,0.934699783160728,-0.05326697844467709
15,2,0.0,0.9203832554906571,1.3783857885624085
15,3,1.0,0.9341671133762812,0.0
15,3,0.75,0.9250052460487114,0.916186732756985
15,3,0.5,0.919871977038279,1.4295136338002168
15,3,0.25,0.932903186078574,0.12639272977071903
15,3,0.0,0.9364195298952224,-0.22524165189411471
15,4,1.0,0.9341671133762812,0.0
15,4,0.75,0.9240063482785532,1.0160765097728008
15,4,0.5,0.9036741635995151,3.0492949776766087
15,4,0.25,0.8857414239866401,4.842568938964109
15,4,0.0,0.9073700708923501,2.679704248393111
15,5,1.0,0.9341671133762812,0.0
15,5,0.75,0.915923203531216,1.8243909845065187
15,5,0.5,0.9071374893037913,2.7029624072489877
15,5,0.25,0.9049902365950401,2.9176876781241146
15,5,0.0,0.8985900787191149,3.557703465716633
15,6,1.0,0.9341671133762812,0.0
15,6,0.75,0.9392594470676423,-0.5092333691361084
15,6,0.5,0.9420884724138792,-0.7921359037597941
15,6,0.25,0.9409833577237381,-0.6816244347456868
15,6,0.0,0.9377154559012716,-0.35483425249903666
15,7,1.0,0.9341671133762812,0.0
15,7,0.75,0.9237313679866145,1.043574538966674
15,7,0.5,0.9019649893435159,3.2202124032765345
15,7,0.25,0.8759675653227164,5.8199548053564865
15,7,0.0,0.8798494584888716,5.431765488740958
15,8,1.0,0.9341671133762812,0.0
15,8,0.75,0.9370926092473407,-0.29254958710595025
15,8,0.5,0.9449361137629432,-1.0769000386661953
15,8,0.25,0.9514509136888619,-1.72838003125807
15,8,0.0,0.9512803880317906,-1.711327465550938
16,0,1.0,0.8939259605342714,0.0
16,0,0.75,0.8877426780834872,0.6183282450784255
16,0,0.5,0.8881916838387119,0.5734276695559481
16,0,0.25,0.8888790791496641,0.5046881384607294
16,0,0.0,0.880673756221917,1.325220431235441
16,1,1.0,0.8939259605342714,0.0
16,1,0.75,0.8919779021911064,0.19480583431650267
16,1,0.5,0.8807387033682013,1.3187257166070165
16,1,0.25,0.8830583684150642,1.0867592119207181
16,1,0.0,0.8913033400411499,0.26226204931215635
16,2,1.0,0.8939259605342714,0.0
16,2,0.75,0.8871675164657313,0.6758444068540093
16,2,0.5,0.8871675164657313,0.6758444068540093
16,2,0.25,0.8895972102785349,0.43287502557365354
16,2,0.0,0.8906969202291244,0.3229040305147035
16,3,1.0,0.8939259605342714,0.0
16,3,0.75,0.8964026809521684,-0.2476720417896927
16,3,0.5,0.8975168244955565,-0.3590863961285051
16,3,0.25,0.8920121139800157,0.19138465542557492
16,3,0.0,0.8845999670415688,0.9325993492702578
16,4,1.0,0.8939259605342714,0.0
16,4,0.75,0.876753663335314,1.717229719895741
16,4,0.5,0.870032403053131,2.3893557481140415
16,4,0.25,0.861818952881232,3.210700765303942
16,4,0.0,0.85881640758759,3.510955294668139
16,5,1.0,0.8939259605342714,0.0
16,5,0.75,0.8833997425302087,1.0526218004062726
16,5,0.5,0.8627478255577151,3.1178134976556304
16,5,0.25,0.8620834966827197,3.184246385155176
16,5,0.0,0.8569593442803658,3.6966616253905626
16,6,1.0,0.8939259605342714,0.0
16,6,0.75,0.8969607346545165,-0.30347741202451095
16,6,0.5,0.9018769400188626,-0.7950979484591225
16,6,0.25,0.9013188863165145,-0.7392925782243043
16,6,0.0,0.9013486475741518,-0.742268703988036
16,7,1.0,0.8939259605342714,0.0
16,7,0.75,0.8840203352915217,0.9905625242749738
16,7,0.5,0.880439501601017,1.3486458933254397
16,7,0.25,0.8752251222493274,1.8700838284944066
16,7,0.0,0.8567997523385361,3.712620819573531
16,8,1.0,0.8939259605342714,0.0
16,8,0.75,0.9012984762984763,-0.7372515764204834
16,8,0.5,0.8946454695943971,-0.07195090601256338
16,8,0.25,0.8848238832551588,0.9102077279112608
16,8,0.0,0.8552651838413515,3.8660776692919896
17,0,1.0,0.8684378200227894,0.0
17,0,0.75,0.8828987573930343,-1.4460937370244897
17,0,0.5,0.8943271078607211,-2.5889287837931763
17,0,0.25,0.8877414512004408,-1.9303631177651437
17,0,0.0,0.9035092817779625,-3.507146175517317
17,1,1.0,0.8684378200227894,0.0
17,1,0.75,0.8726781077867558,-0.4240287763966455
17,1,0.5,0.8900264978398242,-2.1588677817034885
17,1,0.25,0.8812717753754243,-1.2833955352634985
17,1,0.0,0.8877546841438707,-1.9316864121081356
17,2,1.0,0.8684378200227894,0.0
17,2,0.75,0.8649252156498459,0.35126043729434286
17,2,0.5,0.8616139573717001,0.6823862651089252
17,2,0.25,0.8440844963262466,2.435332369654275
17,2,0.0,0.8451830006049607,2.32548194178287
17,3,1.0,0.8684378200227894,0.0
17,3,0.75,0.8614138576779027,0.702396234488667
17,3,0.5,0.8672319348997901,0.12058851229992396
17,3,0.25,0.8506137905433907,1.782402947939865
17,3,0.0,0.8478090648469938,2.0628755175795543
17,4,1.0,0.8684378200227894,0.0
17,4,0.75,0.867532053364956,0.09057666578333734
17,4,0.5,0.8758730311837417,-0.743521116095236
17,4,0.25,0.8746339864032975,-0.6196166380508128
17,4,0.0,0.8755380036630037,-0.7100183640214364
17,5,1.0,0.8684378200227894,0.0
17,5,0.75,0.8716096193506997,-0.31717993279103407
17,5,0.5,0.8709054663685694,-0.24676463457800057
17,5,0.25,0.8598965172722315,0.8541302750557866
17,5,0.0,0.8576412522372383,1.0796567785551048
17,6,1.0,0.8684378200227894,0.0
17,6,0.75,0.8815600409842721,-1.3122220961482745
17,6,0.5,0.8700594971641391,-0.16216771413497533
17,6,0.25,0.8519610959711807,1.6476724051608604
17,6,0.0,0.8603517252646999,0.8086094758089413
17,7,1.0,0.8684378200227894,0.0
17,7,0.75,0.8817462134819788,-1.3308393459189438
17,7,0.5,0.8703819933782561,-0.1944173355466705
17,7,0.25,0.8666462076454767,0.17916123773126236
17,7,0.0,0.8418556186936148,2.658220132917455
17,8,1.0,0.8684378200227894,0.0
17,8,0.75,0.8778823610047553,-0.9444540981965899
17,8,0.5,0.8646876158694845,0.3750204153304848
17,8,0.25,0.8649975024975025,0.344031752528684
17,8,0.0,0.8560702757520985,1.2367544270690867
18,0,1.0,0.8898747648747649,0.0
18,0,0.75,0.8839239265609129,0.5950838313852014
18,0,0.5,0.8860282819552483,0.3846482919516614
18,0,0.25,0.8787863950907429,1.1088369784022056
18,0,0.0,0.8749103451814032,1.4964419693361708
18,1,1.0,0.8898747648747649,0.0
18,1,0.75,0.8895139704922314,0.0360794382533558
18,1,0.5,0.8982675718633168,-0.8392806988551937
18,1,0.25,0.9106100665883275,-2.0735301713562637
18,1,0.0,0.9217211776994386,-3.184641282467371
18,2,1.0,0.8898747648747649,0.0
18,2,0.75,0.9071849106631715,-1.7310145788406617
18,2,0.5,0.9172861452273217,-2.7411380352556747
18,2,0.25,0.911450395525738,-2.157563065097312
18,2,0.0,0.905534763489309,-1.5659998614544035
18,3,1.0,0.8898747648747649,0.0
18,3,0.75,0.8911448436521427,-0.12700787773778366
18,3,0.5,0.8718420853383785,1.8032679536386431
18,3,0.25,0.8446897493485133,4.518501552625165
18,3,0.0,0.8107115677321156,7.9163197142649295
18,4,1.0,0.8898747648747649,0.0
18,4,0.75,0.8951059776137176,-0.5231212738952662
18,4,0.5,0.89844758416187,-0.8572819287105071
18,4,0.25,0.884957480790814,0.4917284083950868
18,4,0.0,0.8620024519220639,2.7872312952700984
18,5,1.0,0.8898747648747649,0.0
18,5,0.75,0.8949602436444541,-0.5085478769689233
18,5,0.5,0.902597152032818,-1.2722387158053072
18,5,0.25,0.9055354244340938,-1.5660659559328938
18,5,0.0,0.8892010310981939,0.06737337765709839
18,6,1.0,0.8898747648747649,0.0
18,6,0.75,0.9063277077982961,-1.6452942923531166
18,6,0.5,0.9031289374221746,-1.3254172547409682
18,6,0.25,0.9042119423892655,-1.4337177514500588
18,6,0.0,0.9151269505257119,-2.5252185650947
18,7,1.0,0.8898747648747649,0.0
18,7,0.75,0.8711639266497164,1.8710838225048487
18,7,0.5,0.8525931946984578,3.7281570176307066
18,7,0.25,0.8393328572168733,5.054190765789157
18,7,0.0,0.8548359206535332,3.5038844221231713
18,8,1.0,0.8898747648747649,0.0
18,8,0.75,0.8895139704922314,0.0360794382533558
18,8,0.5,0.8941631723889788,-0.4288407514213888
18,8,0.25,0.8936916115945553,-0.38168467197904343
18,8,0.0,0.8629720473898556,2.6902717484909355
19,0,1.0,0.9073394197606005,0.0
19,0,0.75,0.9115636741323717,-0.4224254371771208
19,0,0.5,0.8938688701189149,1.3470549641685592
19,0,0.25,0.8829152029891117,2.442421677148876
19,0,0.0,0.8870656175265393,2.0273802234061167
19,1,1.0,0.9073394197606005,0.0
19,1,0.75,0.9058259764449355,0.15134433156650529
19,1,0.5,0.8941400560224089,1.3199363738191638
19,1,0.25,0.8835259357744021,2.3813483986198425
19,1,0.0,0.8765506615772085,3.0788758183391995
19,2,1.0,0.9073394197606005,0.0
19,2,0.75,0.9073394197606005,0.0
19,2,0.5,0.8983565879181862,0.8982831842414329
19,2,0.25,0.8787089250515783,2.8630494709022236
19,2,0.0,0.8873732254195487,1.9966194341051846
19,3,1.0,0.9073394197606005,0.0
19,3,0.75,0.9033440649248883,0.3995354835712228
19,3,0.5,0.8997533712647282,0.75860484958723
19,3,0.25,0.8928199521366289,1.4519467623971605
19,3,0.0,0.8613068125418536,4.603260721874691
19,4,1.0,0.9073394197606005,0.0
19,4,0.75,0.913392184402455,-0.6052764641854447
19,4,0.5,0.9125228122997436,-0.5183392539143128
19,4,0.25,0.9026399406896815,0.4699479070919055
19,4,0.0,0.8958147920700974,1.1524627690503109
19,5,1.0,0.9073394197606005,0.0
19,5,0.75,0.9075713444598217,-0.023192469922117542
19,5,0.5,0.8947731736798369,1.2566246080763621
19,5,0.25,0.8808559626036208,2.648345715697975
19,5,0.0,0.8698256530372895,3.751376672331097
19,6,1.0,0.9073394197606005,0.0
19,6,0.75,0.9342755764273224,-2.693615666672189
19,6,0.5,0.9367442476741958,-2.9404827913595333
19,6,0.25,0.9350058845503073,-2.76664647897068
19,6,0.0,0.9352811361391107,-2.7941716378510173
19,7,1.0,0.9073394197606005,0.0
19,7,0.75,0.9030608616366537,0.42785581239468407
19,7,0.5,0.8948290598290598,1.2510359931540704
19,7,0.25,0.8895288508458035,1.7810568914797043
19,7,0.0,0.8876617707415987,1.967764901900182
19,8,1.0,0.9073394197606005,0.0
19,8,0.75,0.9013316402255495,0.600777953505105
19,8,0.5,0.87737794541607,2.996147434453056
19,8,0.25,0.8554962034810342,5.184321627956634
19,8,0.0,0.8548227672291914,5.251665253140914
20,0,1.0,0.8789484348393923,0.0
20,0,0.75,0.8774817777050476,0.14666571343446844
20,0,0.5,0.8622033094655168,1.6745125373875513
20,0,0.25,0.8436632117882118,3.5285223051180536
20,0,0.0,0.8291371045512612,4.981133028813112
20,1,1.0,0.8789484348393923,0.0
20,1,0.75,0.8740511133603239,0.4897321479068406
20,1,0.5,0.8604427450059979,1.85056898333944
20,1,0.25,0.8602661592287542,1.8682275610638177
20,1,0.0,0.8575918838206581,2.1356551018734238
20,2,1.0,0.8789484348393923,0.0
20,2,0.75,0.8632436512599556,1.570478357943672
20,2,0.5,0.8396417098540111,3.9306724985381236
20,2,0.25,0.8396417098540111,3.9306724985381236
20,2,0.0,0.8064840032209661,7.2464431618426195
20,3,1.0,0.8789484348393923,0.0
20,3,0.75,0.8789484348393923,0.0
20,3,0.5,0.8746549345571516,0.42935002822407364
20,3,0.25,0.8652428066078702,1.3705628231522105
20,3,0.0,0.8661883917104947,1.276004312889767
20,4,1.0,0.8789484348393923,0.0
20,4,0.75,0.8796633839901722,-0.07149491507798533
20,4,0.5,0.8764643367755394,0.24840980638529686
20,4,0.25,0.8743301587235022,0.4618276115890163
20,4,0.0,0.8816089546478042,-0.26605198084118653
20,5,1.0,0.8789484348393923,0.0
20,5,0.75,0.8712656726551022,0.7682762184290093
20,5,0.5,0.877480843655009,0.14675911843833322
20,5,0.25,0.8829182223276738,-0.3969787488281473
20,5,0.0,0.8776269887843485,0.13214460550438067
20,6,1.0,0.8789484348393923,0.0
20,6,0.75,0.8734397635572447,0.5508671282147604
20,6,0.5,0.8658448597831128,1.310357505627957
20,6,0.25,0.8668067678878781,1.2141666951514196
20,6,0.0,0.8532434747701174,2.570496006927492
20,7,1.0,0.8789484348393923,0.0
20,7,0.75,0.8836204125539809,-0.46719777145886043
20,7,0.5,0.8851572039072038,-0.6208769067811426
20,7,0.25,0.8656056646579569,1.3342770181435482
20,7,0.0,0.8385668276972624,4.0381607142129905
20,8,1.0,0.8789484348393923,0.0
20,8,0.75,0.8795787856337911,-0.06303507943987707
20,8,0.5,0.8697037413070021,0.9244693532390214
20,8,0.25,0.8499355107135427,2.901292412584966
20,8,0.0,0.8370219877927304,4.192644704666193
21,0,1.0,0.9334540038096658,0.0
21,0,0.75,0.920028539717774,1.3425464091891826
21,0,0.5,0.9154971988795518,1.7956804930113979
21,0,0.25,0.9025303384918892,3.092366531777657
21,0,0.0,0.8940377675495461,3.9416236260119697
21,1,1.0,0.9334540038096658,0.0
21,1,0.75,0.9334540038096658,0.0
21,1,0.5,0.9255664740129721,0.7887529796693715
21,1,0.25,0.9168671390615718,1.658686474809401
21,1,0.0,0.9124097128674199,2.1044290942245913
21,2,1.0,0.9334540038096658,0.0
21,2,0.75,0.9407281716499171,-0.7274167840251256
21,2,0.5,0.9451990753836309,-1.1745071573965093
21,2,0.25,0.9270349172825386,0.6419086527127194
21,2,0.0,0.915957867052986,1.7496136756679825
21,3,1.0,0.9334540038096658,0.0
21,3,0.75,0.9112389571213101,2.221504668835572
21,3,0.5,0.8935486763875511,3.9905327422114723
21,3,0.25,0.8802545314000422,5.319947240962364
21,3,0.0,0.8694289143797349,6.402508942993091
21,4,1.0,0.9334540038096658,0.0
21,4,0.75,0.9316361038342462,0.18178999754195901
21,4,0.5,0.922531932531425,1.0922071278240852
21,4,0.25,0.922531932531425,1.0922071278240852
21,4,0.0,0.9154346826882037,1.8019321121462095
21,5,1.0,0.9334540038096658,0.0
21,5,0.75,0.9317817701801511,0.1672233629514741
21,5,0.5,0.9185618644368809,1.4892139372784885
21,5,0.25,0.9371031746031746,-0.36491707935087936
21,5,0.0,0.9324929971988796,0.09610066107862414
21,6,1.0,0.9334540038096658,0.0
21,6,0.75,0.940670731928676,-0.7216728119010196
21,6,0.5,0.936143140896662,-0.26891370869961406
21,6,0.25,0.936143140896662,-0.26891370869961406
21,6,0.0,0.927168781922303,0.6285221887362802
21,7,1.0,0.9334540038096658,0.0
21,7,0.75,0.9198875055425858,1.3566498267080007
21,7,0.5,0.912795938391406,2.0658065418259763
21,7,0.25,0.912795938391406,2.0658065418259763
21,7,0.0,0.9067234478141011,2.673055599556473
21,8,1.0,0.9334540038096658,0.0
21,8,0.75,0.9154971988795518,1.7956804930113979
21,8,0.5,0.9111098779134296,2.2344125896236244
21,8,0.25,0.9040054159428148,2.9448587866851006
21,8,0.0,0.8846201049589797,4.8833898850686115
22,0,1.0,0.7927243772641663,0.0
22,0,0.75,0.7681939214453923,2.4530455818774
22,0,0.5,0.7674729096898908,2.5251467574275543
22,0,0.25,0.7523016965591849,4.042268070498145
22,0,0.0,0.7503876422633291,4.233673500083723
22,1,1.0,0.7927243772641663,0.0
22,1,0.75,0.7962949603205043,-0.35705830563379504
22,1,0.5,0.7917512973757432,0.09730798884231007
22,1,0.25,0.7975297103481817,-0.48053330840153174
22,1,0.0,0.7831475634974505,0.9576813766715819
22,2,1.0,0.7927243772641663,0.0
22,2,0.75,0.7932871131757109,-0.056273591154454294
22,2,0.5,0.8049635547088291,-1.223917744466274
22,2,0.25,0.806564719653982,-1.3840342389815685
22,2,0.0,0.7951506826506827,-0.24263053865163364
22,3,1.0,0.7927243772641663,0.0
22,3,0.75,0.789656972892,0.3067404372166349
22,3,0.5,0.7820383755154897,1.0686001748676621
22,3,0.25,0.7836106173996585,0.9113759864507798
22,3,0.0,0.76043300418326,3.229137308090635
22,4,1.0,0.7927243772641663,0.0
22,4,0.75,0.7846493869698432,0.8074990294323126
22,4,0.5,0.7763109905967049,1.6413386667461394
22,4,0.25,0.7639716553782085,2.875272188595779
22,4,0.0,0.7588458528077926,3.3878524456373738
22,5,1.0,0.7927243772641663,0.0
22,5,0.75,0.7864155771764467,0.6308800087719613
22,5,0.5,0.7799413009283936,1.2783076335772692
22,5,0.25,0.7824066169590621,1.0317760305104229
22,5,0.0,0.7751504354154098,1.7573941848756491
22,6,1.0,0.7927243772641663,0.0
22,6,0.75,0.7930806260551857,-0.03562487910193646
22,6,0.5,0.7813176610072149,1.1406716256951444
22,6,0.25,0.7877170519127524,0.5007325351413905
22,6,0.0,0.781637631468878,1.1086745795288344
22,7,1.0,0.7927243772641663,0.0
22,7,0.75,0.7901638798852718,0.2560497378894522
22,7,0.5,0.7726521559972164,2.0072221266949963
22,7,0.25,0.7631246885899352,2.959968867423113
22,7,0.0,0.7528879583809162,3.983641888325018
22,8,1.0,0.7927243772641663,0.0
22,8,0.75,0.805528566242852,-1.2804188978685627
22,8,0.5,0.7934762269632374,-0.07518496990710499
22,8,0.25,0.7839393632927119,0.8785013971454481
22,8,0.0,0.7537833592521093,3.894101801205707
23,0,1.0,0.8539240819888992,0.0
23,0,0.75,0.8481737015992599,0.5750380389639376
23,0,0.5,0.834180363854988,1.9743718133911292
23,0,0.25,0.8313222361889467,2.2601845799952502
23,0,0.0,0.8354011246662942,1.8522957322605005
23,1,1.0,0.8539240819888992,0.0
23,1,0.75,0.8608775579295234,-0.6953475940624121
23,1,0.5,0.8606289053166155,-0.6704823327716269
23,1,0.25,0.8673396662078716,-1.3415584218972376
23,1,0.0,0.8650276919763928,-1.1103609987493601
23,2,1.0,0.8539240819888992,0.0
23,2,0.75,0.8506346083046887,0.3289473684210509
23,2,0.5,0.8427394599585882,1.1184622030311009
23,2,0.25,0.8380279034494108,1.5896178539488437
23,2,0.0,0.8382504759276969,1.5673606061202383
23,3,1.0,0.8539240819888992,0.0
23,3,0.75,0.8528525334184307,0.1071548570468539
23,3,0.5,0.834356391005886,1.9567690983013253
23,3,0.25,0.8425699617641242,1.1354120224775
23,3,0.0,0.8248314959030033,2.9092586085895933
23,4,1.0,0.8539240819888992,0.0
23,4,0.75,0.8501705927132925,0.3753489275606703
23,4,0.5,0.8393071619056841,1.4616920083215135
23,4,0.25,0.8279443928601402,2.597968912875903
23,4,0.0,0.8368381141860048,1.7085967802894397
23,5,1.0,0.8539240819888992,0.0
23,5,0.75,0.842094615797126,1.1829466191773275
23,5,0.5,0.840532879818594,1.3391202170305205
23,5,0.25,0.8349226679829562,1.9001414005943018
23,5,0.0,0.8487774179818711,0.5146664007028123
23,6,1.0,0.8539240819888992,0.0
23,6,0.75,0.8432041122058908,1.0719969783008487
23,6,0.5,0.8387653322587539,1.5158749730145304
23,6,0.25,0.8393347706879398,1.4589311300959418
23,6,0.0,0.8351955144279781,1.8728567560921117
23,7,1.0,0.8539240819888992,0.0
23,7,0.75,0.8458351880187324,0.8088893970166877
23,7,0.5,0.8260420359193246,2.7882046069574673
23,7,0.25,0.8234639607783172,3.046012121058206
23,7,0.0,0.8191128484484256,3.4811233540473663
23,8,1.0,0.8539240819888992,0.0
23,8,0.75,0.8502345860072857,0.36894959816135
23,8,0.5,0.8439136088309895,1.0010473157909705
23,8,0.25,0.8421601621464497,1.176391984244951
23,8,0.0,0.8374563463262605,1.6467735662638705
24,0,1.0,0.8291510336835713,0.0
24,0,0.75,0.8467455651306929,-1.759453144712153
24,0,0.5,0.8532137147775982,-2.406268109402687
24,0,0.25,0.8507259168297581,-2.157488314618672
24,0,0.0,0.8451693199825525,-1.6018286298981166
24,1,1.0,0.8291510336835713,0.0
24,1,0.75,0.8394629350511704,-1.0311901367599074
24,1,0.5,0.8448247878979335,-1.5673754214362123
24,1,0.25,0.8434819215439683,-1.4330887860396935
24,1,0.0,0.8302687249857061,-0.11176913021347934
24,2,1.0,0.8291510336835713,0.0
24,2,0.75,0.8289533995416347,0.01976341419366312
24,2,0.5,0.8206400323523872,0.8511001331184098
24,2,0.25,0.8079308938218417,2.122013986172966
24,2,0.0,0.7924272548548656,3.67237788287057
24,3,1.0,0.8291510336835713,0.0
24,3,0.75,0.8281147703432193,0.1036263340352006
24,3,0.5,0.8334825776239349,-0.43315439403635025
24,3,0.25,0.8423746230598266,-1.322358937625523
24,3,0.0,0.8309646201300402,-0.18135864464688956
24,4,1.0,0.8291510336835713,0.0
24,4,0.75,0.8415544637780128,-1.2403430094441448
24,4,0.5,0.810683141977361,1.8467891706210326
24,4,0.25,0.77376639104318,5.538464264039133
24,4,0.0,0.7840366666023643,4.5114367081207085
24,5,1.0,0.8291510336835713,0.0
24,5,0.75,0.8415402188896477,-1.2389185206076347
24,5,0.5,0.8196768075866918,0.9474226096879534
24,5,0.25,0.80289016872818,2.626086495539137
24,5,0.0,0.8070669693026558,2.208406438091559
24,6,1.0,0.8291510336835713,0.0
24,6,0.75,0.8264402469863382,0.2710786697233125
24,6,0.5,0.8318974986661645,-0.2746464982593122
24,6,0.25,0.8267089364755229,0.24420972080484438
24,6,0.0,0.8203491389451949,0.8801894738376448
24,7,1.0,0.8291510336835713,0.0
24,7,0.75,0.8350262664444312,-0.5875232760859883
24,7,0.5,0.8433974347066926,-1.4246401023121247
24,7,0.25,0.8263016890366306,0.28493446469407546
24,7,0.0,0.8205371375704867,0.8613896113084607
24,8,1.0,0.8291510336835713,0.0
24,8,0.75,0.8277107999745081,0.144023370906321
24,8,0.5,0.8303901821408511,-0.12391484572797928
24,8,0.25,0.8074959740177953,2.1655059665776077
24,8,0.0,0.7820274864656449,4.712354721792645
25,0,1.0,0.9297603543372506,0.0
25,0,0.75,0.9402430663648329,-1.048271202758233
25,0,0.5,0.9372128362505401,-0.745248191328951
25,0,0.25,0.9280435063856334,0.17168479516171953
25,0,0.0,0.9345708879573393,-0.4810533620088764
25,1,1.0,0.9297603543372506,0.0
25,1,0.75,0.9428064952463546,-1.3046140909104054
25,1,0.5,0.9388048566200673,-0.9044502282816724
25,1,0.25,0.9317622487591528,-0.20018944219022394
25,1,0.0,0.9282315077711769,0.15288465660736605
25,2,1.0,0.9297603543372506,0.0
25,2,0.75,0.9429579221537514,-1.3197567816500833
25,2,0.5,0.9323092746995747,-0.2548920362324125
25,2,0.25,0.9326261484561156,-0.2865794118865006
25,2,0.0,0.9326261484561156,-0.2865794118865006
25,3,1.0,0.9297603543372506,0.0
25,3,0.75,0.9297603543372506,0.0
25,3,0.5,0.9256381986017198,0.41221557355307636
25,3,0.25,0.908162732289997,2.1597622047253573
25,3,0.0,0.8861128476586149,4.364750667863571
25,4,1.0,0.9297603543372506,0.0
25,4,0.75,0.9132368537339814,1.6523500603269126
25,4,0.5,0.8989329740560852,3.0827380281165384
25,4,0.25,0.8846361053745306,4.512424896271994
25,4,0.0,0.8915110312489729,3.8249323088277665
25,5,1.0,0.9297603543372506,0.0
25,5,0.75,0.915672396370184,1.4087957967066522
25,5,0.5,0.913808789305917,1.5951565031333548
25,5,0.25,0.9012670425814084,2.8493311755842132
25,5,0.0,0.8968123574815621,3.29479968556885
25,6,1.0,0.9297603543372506,0.0
25,6,0.75,0.9320118708999858,-0.22515165627352562
25,6,0.5,0.9255998317994816,0.4160522537768996
25,6,0.25,0.9257396043332532,0.40207500039973754
25,6,0.0,0.9313315003539276,-0.1571146016677072
25,7,1.0,0.9297603543372506,0.0
25,7,0.75,0.9246454445586558,0.5114909778594745
25,7,0.5,0.918058438765035,1.170191557221556
25,7,0.25,0.8747817320061753,5.497862233107531
25,7,0.0,0.8747817320061753,5.497862233107531
25,8,1.0,0.9297603543372506,0.0
25,8,0.75,0.9373314697033723,-0.7571115366121761
25,8,0.5,0.9513332140359947,-2.157285969874412
25,8,0.25,0.9514113480821265,-2.165099374487589
25,8,0.0,0.9513622434798972,-2.16018891426466
26,0,1.0,0.755119673041966,0.0
26,0,0.75,0.7506748249107703,0.4444848131195722
26,0,0.5,0.7573997086309205,-0.228003558895451
26,0,0.25,0.7576209948379224,-0.25013217959564127
26,0,0.0,0.7519580349225629,0.3161638119403176
26,1,1.0,0.755119673041966,0.0
26,1,0.75,0.7430256248201587,1.2094048221807374
26,1,0.5,0.7463559008509064,0.8763772191059616
26,1,0.25,0.7673853869406919,-1.2265713898725883
26,1,0.0,0.7614271994285134,-0.6307526386547413
26,2,1.0,0.755119673041966,0.0
26,2,0.75,0.7557478783879873,-0.062820534602126
26,2,0.5,0.7501287380637975,0.4990934978168493
26,2,0.25,0.7461752238151835,0.8944449226782503
26,2,0.0,0.7412835906807018,1.3836082361264213
26,3,1.0,0.755119673041966,0.0
26,3,0.75,0.768025403212834,-1.2905730170867935
26,3,0.5,0.768025403212834,-1.2905730170867935
26,3,0.25,0.7616854779914297,-0.6565804949463683
26,3,0.0,0.7543953196377529,0.07243534042131738
26,4,1.0,0.755119673041966,0.0
26,4,0.75,0.7534534250793339,0.16662479626321502
26,4,0.5,0.7498770965876229,0.5242576454343117
26,4,0.25,0.7543502486916479,0.07694243503181264
26,4,0.0,0.7461756424621271,0.8944030579838946
26,5,1.0,0.755119673041966,0.0
26,5,0.75,0.7651783384231203,-1.0058665381154297
26,5,0.5,0.7694010254995286,-1.4281352457562568
26,5,0.25,0.7669734112310109,-1.1853738189044893
26,5,0.0,0.7603775521164567,-0.5257879074490712
26,6,1.0,0.755119673041966,0.0
26,6,0.75,0.7678140368669585,-1.269436382499245
26,6,0.5,0.7858783773539264,-3.075870431196037
26,6,0.25,0.772159798447909,-1.7040125405943018
26,6,0.0,0.7705652501717133,-1.5445577129747257
26,7,1.0,0.755119673041966,0.0
26,7,0.75,0.7686163314135113,-1.3496658371545234
26,7,0.5,0.7691356875400814,-1.4016014498115403
26,7,0.25,0.7603286480469882,-0.5208975005022154
26,7,0.0,0.7647652782404744,-0.9645605198508322
26,8,1.0,0.755119673041966,0.0
26,8,0.75,0.7482800032484578,0.6839669793508252
26,8,0.5,0.7345151331123023,2.060453992966371
26,8,0.25,0.7380562969154154,1.7063376126550622
26,8,0.0,0.7348501301254694,2.026954291649663
27,0,1.0,0.81439532334673,0.0
27,0,0.75,0.8375325157933853,-2.313719244665524
27,0,0.5,0.8700399447822129,-5.564462143548288
27,0,0.25,0.8704681063171629,-5.607278297043283
27,0,0.0,0.8755311355311355,-6.113581218440545
27,1,1.0,0.81439532334673,0.0
27,1,0.75,0.8220506832727902,-0.7655359926060146
27,1,0.5,0.8315647121386478,-1.7169388791917761
27,1,0.25,0.8239967532610758,-0.960142991434576
27,1,0.0,0.8241242459651493,-0.9728922618419289
27,2,1.0,0.81439532334673,0.0
27,2,0.75,0.8137090182544728,0.06863050922572
27,2,0.5,0.8194947209653092,-0.5099397618579138
27,2,0.25,0.8081178625296273,0.6277460817102787
27,2,0.0,0.798389778637155,1.6005544709575048
27,3,1.0,0.81439532334673,0.0
27,3,0.75,0.811447808747473,0.29475145992570173
27,3,0.5,0.8116228787754842,0.27724445712458134
27,3,0.25,0.7895804042437938,2.4814919102936206
27,3,0.0,0.7779199719670762,3.6475351379653853
27,4,1.0,0.81439532334673,0.0
27,4,0.75,0.8127707711562531,0.16245521904769689
27,4,0.5,0.8175731171470216,-0.3177793800291595
27,4,0.25,0.8090085300907087,0.5386793256021316
27,4,0.0,0.8062974465148378,0.8097876831892226
27,5,1.0,0.81439532334673,0.0
27,5,0.75,0.8077392247221469,0.6656098624583162
27,5,0.5,0.828648544438018,-1.4253221091288015
27,5,0.25,0.839054802955665,-2.4659479608934998
27,5,0.0,0.8358348568824614,-2.143953353573136
27,6,1.0,0.81439532334673,0.0
27,6,0.75,0.8078480378006352,0.654728554609485
27,6,0.5,0.8179704948419151,-0.3575171495185048
27,6,0.25,0.8030863710863351,1.1308952260394967
27,6,0.0,0.7827045016835609,3.1690821663169166
27,7,1.0,0.81439532334673,0.0
27,7,0.75,0.81439532334673,0.0
27,7,0.5,0.8201016263645867,-0.5706303017856684
27,7,0.25,0.8313172958975058,-1.6921972550775766
27,7,0.0,0.8403332907823564,-2.5937967435626375
27,8,1.0,0.81439532334673,0.0
27,8,0.75,0.81439532334673,0.0
27,8,0.5,0.8145703933747412,-0.017507002801120386
27,8,0.25,0.8101936426744611,0.42016806722688926
27,8,0.0,0.8014262099719371,1.2969113374792895
28,0,1.0,0.7687564271941726,0.0
28,0,0.75,0.7754800248680953,-0.6723597673922721
28,0,0.5,0.7675547519103434,0.12016752838291955
28,0,0.25,0.7732728918928389,-0.45164646986662893
28,0,0.0,0.7793255117132407,-1.0569084519068128
28,1,1.0,0.7687564271941726,0.0
28,1,0.75,0.7671746593301558,0.15817678640167587
28,1,0.5,0.7646689477031066,0.4087479491066026
28,1,0.25,0.7536661216864812,1.5090305507691415
28,1,0.0,0.749249173563407,1.9507253630765553
28,2,1.0,0.7687564271941726,0.0
28,2,0.75,0.7630293854109316,0.5727041783241016
28,2,0.5,0.7710674420279418,-0.2311014833769165
28,2,0.25,0.7735512783445542,-0.4794851150381585
28,2,0.0,0.7663428041522101,0.2413623041962465
28,3,1.0,0.7687564271941726,0.0
28,3,0.75,0.7609410642445357,0.7815362949636917
28,3,0.5,0.7677286100235822,0.10278171705904171
28,3,0.25,0.7549939984396105,1.3762428754562128
28,3,0.0,0.7372122688775233,3.154415831664925
28,4,1.0,0.7687564271941726,0.0
28,4,0.75,0.890989299932625,-12.22328727384524
28,4,0.5,0.8685763478638797,-9.981992066970713
28,4,0.25,0.8658947627651437,-9.713833557097107
28,4,0.0,0.8728279817119744,-10.40715545178018
28,5,1.0,0.7687564271941726,0.0
28,5,0.75,0.776651210970256,-0.7894783776083436
28,5,0.5,0.7664463801577147,0.2310047036457874
28,5,0.25,0.7543942086178779,1.4362218576294716
28,5,0.0,0.7425047012810294,2.6251725913143176
28,6,1.0,0.7687564271941726,0.0
28,6,0.75,0.7743993506493507,-0.5642923455178139
28,6,0.5,0.7782623850125098,-0.9505957818337185
28,6,0.25,0.779607683982684,-1.0851256788511399
28,6,0.0,0.7694405691741373,-0.0684141979964692
28,7,1.0,0.7687564271941726,0.0
28,7,0.75,0.7696773182957393,-0.09208911015666787
28,7,0.5,0.7763866715045961,-0.7630244310423473
28,7,0.25,0.7559502566277375,1.2806170566435071
28,7,0.0,0.7456358359199751,2.312059127419752
28,8,1.0,0.7687564271941726,0.0
28,8,0.75,0.7754226679764493,-0.6666240782276733
28,8,0.5,0.770528360047583,-0.1771932853410374
28,8,0.25,0.7570727350282667,1.1683692165905923
28,8,0.0,0.7659270304529363,0.28293967412362786
29,0,1.0,0.8644945062584939,0.0
29,0,0.75,0.8619536231931872,0.2540883065306643
29,0,0.5,0.8570083912642726,0.7486114994221249
29,0,0.25,0.8561120997731316,0.8382406485362259
29,0,0.0,0.8446902008240582,1.9804305434435676
29,1,1.0,0.8644945062584939,0.0
29,1,0.75,0.8746158311403257,-1.0121324881831817
29,1,0.5,0.8669875708544231,-0.24930645959292397
29,1,0.25,0.8692153316165099,-0.472082535801599
29,1,0.0,0.8738047100417197,-0.9310203783225779
29,2,1.0,0.8644945062584939,0.0
29,2,0.75,0.846361688317101,1.8132817941392876
29,2,0.5,0.8462128441363106,1.8281662122183295
29,2,0.25,0.8403059931733519,2.4188513085142027
29,2,0.0,0.823468792631195,4.10257136272989
29,3,1.0,0.8644945062584939,0.0
29,3,0.75,0.8503128914365785,1.4181614821915378
29,3,0.5,0.8476686514476924,1.6825854810801455
29,3,0.25,0.8368138593682837,2.7680646890210214
29,3,0.0,0.8312000278902518,3.3294478368242064
29,4,1.0,0.8644945062584939,0.0
29,4,0.75,0.8537676968259412,1.0726809432552664
29,4,0.5,0.8257730035376258,3.872150272086805
29,4,0.25,0.809486634006442,5.500787225205183
29,4,0.0,0.8205854665199831,4.3909039738510796
29,5,1.0,0.8644945062584939,0.0
29,5,0.75,0.8513955936984723,1.3098912560021603
29,5,0.5,0.8289618163054695,3.553268995302439
29,5,0.25,0.8106130375638394,5.388146869465449
29,5,0.0,0.7871365845516081,7.735792170688582
29,6,1.0,0.8644945062584939,0.0
29,6,0.75,0.8706803425887554,-0.6185836330261485
29,6,0.5,0.878460005597574,-1.396549933908009
29,6,0.25,0.8805472360805424,-1.6052729822048528
29,6,0.0,0.8844639079395415,-1.996940168104766
29,7,1.0,0.8644945062584939,0.0
29,7,0.75,0.8707910658242377,-0.629655956574382
29,7,0.5,0.8620705563438498,0.2423949914644119
29,7,0.25,0.8438832837748111,2.0611222483682745
29,7,0.0,0.8499397701873317,1.45547360711622
29,8,1.0,0.8644945062584939,0.0
29,8,0.75,0.8601421908896485,0.4352315368845394
29,8,0.5,0.8409217546025969,2.3572751655897006
29,8,0.25,0.8127377003541285,5.175680590436538
29,8,0.0,0.8152064913253313,4.928801493316259
30,0,1.0,0.9036936363750449,0.0
30,0,0.75,0.9259954181787066,-2.2301781803661713
30,0,0.5,0.9350649350649352,-3.1371298689890303
30,0,0.25,0.9323315281210018,-2.863789174595699
30,0,0.0,0.935020908004779,-3.1327271629734144
30,1,1.0,0.9036936363750449,0.0
30,1,0.75,0.9002435244687105,0.34501119063343744
30,1,0.5,0.9105344605093096,-0.6840824134264789
30,1,0.25,0.8935946627680067,1.0098973607038153
30,1,0.0,0.894429920474413,0.9263715900631797
30,2,1.0,0.9036936363750449,0.0
30,2,0.75,0.9299624626525548,-2.6268826277509927
30,2,0.5,0.9407288238990535,-3.7035187524008695
30,2,0.25,0.9446731850584908,-4.097954868344599
30,2,0.0,0.9488545921368186,-4.516095576177371
30,3,1.0,0.9036936363750449,0.0
30,3,0.75,0.9050041158276404,-0.13104794525955477
30,3,0.5,0.8896277431931082,1.4065893181936628
30,3,0.25,0.8907874765233121,1.2906159851732713
30,3,0.0,0.8642504288860628,3.9443207488982
30,4,1.0,0.9036936363750449,0.0
30,4,0.75,0.8981919561362333,0.550168023881159
30,4,0.5,0.895526543336635,0.81670930384099
30,4,0.25,0.8829760280112965,2.0717608363748363
30,4,0.0,0.8786893226554171,2.5004313719627747
30,5,1.0,0.9036936363750449,0.0
30,5,0.75,0.8776348728211795,2.6058763553865383
30,5,0.5,0.8747056392908311,2.8987997084213735
30,5,0.25,0.8723135964912281,3.138003988381677
30,5,0.0,0.8917431205249705,1.195051585007434
30,6,1.0,0.9036936363750449,0.0
30,6,0.75,0.9036936363750449,0.0
30,6,0.5,0.9054263353117966,-0.17326989367517642
30,6,0.25,0.9160048285048284,-1.23111921297836
30,6,0.0,0.9281752509616287,-2.448161458658382
30,7,1.0,0.9036936363750449,0.0
30,7,0.75,0.9040258992159914,-0.03322628409465622
30,7,0.5,0.8847368846196361,1.8956751755408785
30,7,0.25,0.8907504337767496,1.294320259829529
30,7,0.0,0.9015944529084856,0.20991834665592402
30,8,1.0,0.9036936363750449,0.0
30,8,0.75,0.9087878039778962,-0.5094167602851307
30,8,0.5,0.9235004596786536,-1.9806823303608723
30,8,0.25,0.9351380317859623,-3.144439541091748
30,8,0.0,0.9287554280638147,-2.5061791688769874
31,0,1.0,0.8343822045649825,0.0
31,0,0.75,0.8460341773086293,-1.1651972743646821
31,0,0.5,0.8499845361261513,-1.5602331561168858
31,0,0.25,0.8424868421052631,-0.8104637540280679
31,0,0.0,0.8628376606346708,-2.8455456069688356
31,1,1.0,0.8343822045649825,0.0
31,1,0.75,0.8383074531673156,-0.392524860233312
31,1,0.5,0.8528625465561869,-1.8480341991204408
31,1,0.25,0.8276846484493303,0.6697556115652148
31,1,0.0,0.8403609211296137,-0.5978716564631226
31,2,1.0,0.8343822045649825,0.0
31,2,0.75,0.8451254532777672,-1.0743248712784759
31,2,0.5,0.8387338226772263,-0.4351618112243827
31,2,0.25,0.8303000996424593,0.4082104922523144
31,2,0.0,0.8128227774524617,2.155942711252079
31,3,1.0,0.8343822045649825,0.0
31,3,0.75,0.849036191974823,-1.4653987409840585
31,3,0.5,0.8583623693379792,-2.3980164772996693
31,3,0.25,0.8556883490073145,-2.130614444233203
31,3,0.0,0.8255966429203891,0.878556164459332
31,4,1.0,0.8343822045649825,0.0
31,4,0.75,0.8302201823352291,0.41620222297533704
31,4,0.5,0.8205217209905313,1.3860483574451132
31,4,0.25,0.8113096780594855,2.307252650549696
31,4,0.0,0.7889711613495632,4.541104321541923
31,5,1.0,0.8343822045649825,0.0
31,5,0.75,0.8419969512195122,-0.7614746654529769
31,5,0.5,0.832975336555954,0.14068680090284502
31,5,0.25,0.8302124705919556,0.416973397302689
31,5,0.0,0.8296200602285619,0.4762144336420526
31,6,1.0,0.8343822045649825,0.0
31,6,0.75,0.8379929279647842,-0.36107233998017296
31,6,0.5,0.8393468993169464,-0.49646947519639273
31,6,0.25,0.8278767253423917,0.6505479222590815
31,6,0.0,0.8238996437167169,1.0482560848265599
31,7,1.0,0.8343822045649825,0.0
31,7,0.75,0.8317584810553733,0.2623723509609155
31,7,0.5,0.8199004591628403,1.4481745402142199
31,7,0.25,0.802073867751834,3.2308336813148486
31,7,0.0,0.8049265469587431,2.945565760623936
31,8,1.0,0.8343822045649825,0.0
31,8,0.75,0.8349064117881322,-0.05242072231497197
31,8,0.5,0.8182533438237609,1.6128860741221551
31,8,0.25,0.8088497930726564,2.55324114923261
31,8,0.0,0.7953328092327967,3.9049395332185766
32,0,1.0,0.8769397690110526,0.0
32,0,0.75,0.8757613166566107,0.11784523544419168
32,0,0.5,0.8888393903214649,-1.1899621310412223
32,0,0.25,0.871702390149121,0.5237378861931652
32,0,0.0,0.8659356893094879,1.1004079701564695
32,1,1.0,0.8769397690110526,0.0
32,1,0.75,0.882985499462943,-0.6045730451890385
32,1,0.5,0.8976067042258488,-2.0666935214796123
32,1,0.25,0.9011351468122731,-2.4195377801220497
32,1,0.0,0.8863834115689895,-0.9443642557936838
32,2,1.0,0.8769397690110526,0.0
32,2,0.75,0.8850370714123831,-0.8097302401330442
32,2,0.5,0.893530356331319,-1.6590587320266414
32,2,0.25,0.8878680069700577,-1.0928237959005105
32,2,0.0,0.8761457012304638,0.07940677805888807
32,3,1.0,0.8769397690110526,0.0
32,3,0.75,0.8828552473621027,-0.5915478351050107
32,3,0.5,0.8847157666032515,-0.7775997592198824
32,3,0.25,0.8798933238720053,-0.2953554860952612
32,3,0.0,0.8652882268768873,1.1651542134165305
32,4,1.0,0.8769397690110526,0.0
32,4,0.75,0.8757840304005808,0.11557386104718015
32,4,0.5,0.8633081695608471,1.3631599450205534
32,4,0.25,0.8464020961145194,3.0537672896533197
32,4,0.0,0.8614320016079028,1.5507767403149852
32,5,1.0,0.8769397690110526,0.0
32,5,0.75,0.8747615355130552,0.2178233497997395
32,5,0.5,0.8912307704025784,-1.4291001391525726
32,5,0.25,0.8710801163405606,0.5859652670492044
32,5,0.0,0.8735177098573573,0.34220591536953116
32,6,1.0,0.8769397690110526,0.0
32,6,0.75,0.8884369781202694,-1.149720910921681
32,6,0.5,0.900438155241582,-2.3498386230529356
32,6,0.25,0.8852609312049673,-0.8321162193914655
32,6,0.0,0.8893195039453583,-1.2379734934305664
32,7,1.0,0.8769397690110526,0.0
32,7,0.75,0.8919088038453256,-1.496903483427292
32,7,0.5,0.8858686065160366,-0.8928837504983966
32,7,0.25,0.8784687023178499,-0.15289333067972644
32,7,0.0,0.8592462514266768,1.7693517584375873
32,8,1.0,0.8769397690110526,0.0
32,8,0.75,0.8957574292875045,-1.881766027645182
32,8,0.5,0.8953392292205925,-1.8399460209539864
32,8,0.25,0.8953392292205925,-1.8399460209539864
32,8,0.0,0.89198593933724,-1.504617032618738
33,0,1.0,0.8825228539653762,0.0
33,0,0.75,0.8824357107393719,0.00871432260043381
33,0,0.5,0.8747141616778371,0.780869228753911
33,0,0.25,0.8747722854262674,0.7750568539108826
33,0,0.0,0.8732732096370961,0.9249644328280127
33,1,1.0,0.8825228539653762,0.0
33,1,0.75,0.8845743245214752,-0.2051470556099
33,1,0.5,0.8909790171776473,-0.8456163212271051
33,1,0.25,0.8911262746622014,-0.8603420696825181
33,1,0.0,0.8858507678757175,-0.33279139103412625
33,2,1.0,0.8825228539653762,0.0
33,2,0.75,0.8948108990431018,-1.228804507772563
33,2,0.5,0.9009628909905484,-1.8440037025172162
33,2,0.25,0.8927965697496948,-1.0273715784318571
33,2,0.0,0.8933643564090605,-1.0841502443684314
33,3,1.0,0.8825228539653762,0.0
33,3,0.75,0.8676831478034284,1.4839706161947852
33,3,0.5,0.8714268120532754,1.1096041912100785
33,3,0.25,0.8520692224334055,3.045363153197067
33,3,0.0,0.8450141144284956,3.750873953688061
33,4,1.0,0.8825228539653762,0.0
33,4,0.75,0.8774842069307827,0.5038647034593557
33,4,0.5,0.886139911942631,-0.3617057977254756
33,4,0.25,0.8974397140373777,-1.4916860072001437
33,4,0.0,0.9111501957883614,-2.862734182298521
33,5,1.0,0.8825228539653762,0.0
33,5,0.75,0.8886661429052802,-0.6143288939904012
33,5,0.5,0.8944305736742643,-1.1907719708888043
33,5,0.25,0.8957702429054799,-1.3247388940103688
33,5,0.0,0.8867012199671473,-0.41783660017711277
33,6,1.0,0.8825228539653762,0.0
33,6,0.75,0.8806149556835967,0.19078982817795076
33,6,0.5,0.8780756238422143,0.44472301231619493
33,6,0.25,0.8834511254203026,-0.09282714549263549
33,6,0.0,0.8930990737010476,-1.0576219735671355
33,7,1.0,0.8825228539653762,0.0
33,7,0.75,0.8867325764017913,-0.4209722436415042
33,7,0.5,0.8708344715927671,1.1688382372609163
33,7,0.25,0.8800537021649298,0.24691518004463786
33,7,0.0,0.8788291747676998,0.36936791976763805
33,8,1.0,0.8825228539653762,0.0
33,8,0.75,0.8997105982168536,-1.71877442514774
33,8,0.5,0.9148220355055827,-3.22991815402065
33,8,0.25,0.9208257788155926,-3.8302924850216358
33,8,0.0,0.9125683901097951,-3.004553614441885
34,0,1.0,0.8863862131246237,0.0
34,0,0.75,0.8863862131246237,0.0
34,0,0.5,0.8751342506851142,1.1251962439509544
34,0,0.25,0.8379093361646378,4.847687695998593
34,0,0.0,0.8150136425835689,7.137257054105484
34,1,1.0,0.8863862131246237,0.0
34,1,0.75,0.8793246060630167,0.7061607061607078
34,1,0.5,0.8909037080832951,-0.45174949586713753
34,1,0.25,0.8736824565251251,1.2703756599498628
34,1,0.0,0.8692072880793686,1.717892504525509
34,2,1.0,0.8863862131246237,0.0
34,2,0.75,0.8862884474911281,0.009776563349561673
34,2,0.5,0.8838347885143756,0.2551424610248154
34,2,0.25,0.8851871259052249,0.11990872193988755
34,2,0.0,0.8922678565344417,-0.5881643409818005
34,3,1.0,0.8863862131246237,0.0
34,3,0.75,0.8793246060630167,0.7061607061607078
34,3,0.5,0.8838347885143756,0.2551424610248154
34,3,0.25,0.8860222108095064,0.036400231511735104
34,3,0.0,0.8719199625865668,1.4466250538056946
34,4,1.0,0.8863862131246237,0.0
34,4,0.75,0.8912349466569287,-0.4848733532304972
34,4,0.5,0.9107966555162034,-2.4410442391579634
34,4,0.25,0.8927615017599322,-0.6375288635308451
34,4,0.0,0.8841004183094413,0.22857948151824292
34,5,1.0,0.8863862131246237,0.0
34,5,0.75,0.8863862131246237,0.0
34,5,0.5,0.8797795170683864,0.6606696056237316
34,5,0.25,0.8819211393326438,0.4465073791979912
34,5,0.0,0.8974132452659261,-1.1027032141302406
34,6,1.0,0.8863862131246237,0.0
34,6,0.75,0.89327442295401,-0.6888209829386316
34,6,0.5,0.8863862131246237,0.0
34,6,0.25,0.8818241617768423,0.4562051347781426
34,6,0.0,0.8886233150206919,-0.22371018960681832
34,7,1.0,0.8863862131246237,0.0
34,7,0.75,0.8476067130548011,3.877950006982267
34,7,0.5,0.8508313583448852,3.555485477973852
34,7,0.25,0.853266191817169,3.312002130745473
34,7,0.0,0.8436120451062468,4.277416801837697
34,8,1.0,0.8863862131246237,0.0
34,8,0.75,0.883399470899471,0.29867422251527165
34,8,0.5,0.8712312441521366,1.5154968972487137
34,8,0.25,0.8522394940771074,3.4146719047516316
34,8,0.0,0.847694039531653,3.8692173592970724
35,0,1.0,0.7081823951382109,0.0
35,0,0.75,0.7020641839372004,0.6118211201010526
35,0,0.5,0.7072517497141437,0.0930645424067178
35,0,0.25,0.713234727285919,-0.5052332147708061
35,0,0.0,0.700484604517976,0.7697790620234901
35,1,1.0,0.7081823951382109,0.0
35,1,0.75,0.7181316083249785,-0.9949213186767558
35,1,0.5,0.7069367394344235,0.12456557037874294
35,1,0.25,0.7174580705945043,-0.9275675456293375
35,1,0.0,0.714216206190376,-0.603381105216505
35,2,1.0,0.7081823951382109,0.0
35,2,0.75,0.712329258888892,-0.41468637506810735
35,2,0.5,0.7133330521969667,-0.5150657058755836
35,2,0.25,0.7096259828838691,-0.14435877456582258
35,2,0.0,0.7181543940613245,-0.9971998923113623
35,3,1.0,0.7081823951382109,0.0
35,3,0.75,0.6965483974444836,1.1633997693727305
35,3,0.5,0.6992124634484359,0.8969931689775001
35,3,0.25,0.6989078213070348,0.9274573831176136
35,3,0.0,0.6919816208740784,1.6200774264132467
35,4,1.0,0.7081823951382109,0.0
35,4,0.75,0.7105921895174493,-0.24097943792383836
35,4,0.5,0.6970471991711669,1.1135195967044043
35,4,0.25,0.70526282279693,0.29195723412809294
35,4,0.0,0.7031558350436189,0.5026560094592014
35,5,1.0,0.7081823951382109,0.0
35,5,0.75,0.7049931449453877,0.3189250192823234
35,5,0.5,0.6914905223558208,1.669187278239015
35,5,0.25,0.6826359647873144,2.5546430350896543
35,5,0.0,0.6814718390629599,2.671055607525097
35,6,1.0,0.7081823951382109,0.0
35,6,0.75,0.7137555427029112,-0.5573147564700287
35,6,0.5,0.7093695777906305,-0.11871826524195717
35,6,0.25,0.7072031694724189,0.09792256657920051
35,6,0.0,0.7271934428232857,-1.9011047685074778
35,7,1.0,0.7081823951382109,0.0
35,7,0.75,0.7152085637092715,-0.7026168571060643
35,7,0.5,0.7104649510609979,-0.2282555922787033
35,7,0.25,0.7057420713601938,0.24403237780170617
35,7,0.0,0.7216424591571617,-1.3460064018950835
35,8,1.0,0.7081823951382109,0.0
35,8,0.75,0.7070621706804404,0.11202244577704912
35,8,0.5,0.7078252359838555,0.03571591543554131
35,8,0.25,0.6979435898390712,1.0238805299139675
35,8,0.0,0.7011265897367145,0.7055805401496418
36,0,1.0,0.8202846624138738,0.0
36,0,0.75,0.8124041432928508,0.7880519121022944
36,0,0.5,0.80501369253966,1.5270969874213725
36,0,0.25,0.7940589740949311,2.6225688318942675
36,0,0.0,0.7813269311578522,3.8957731256021533
36,1,1.0,0.8202846624138738,0.0
36,1,0.75,0.8178181131048856,0.2466549308988153
36,1,0.5,0.80568643354409,1.4598228869783791
36,1,0.25,0.786261202448903,3.4023459964970804
36,1,0.0,0.7732944529468149,4.69902094670589
36,2,1.0,0.8202846624138738,0.0
36,2,0.75,0.8076698084524171,1.2614853961456673
36,2,0.5,0.8080765559659607,1.2208106447913036
36,2,0.25,0.7947627086078173,2.5521953806056485
36,2,0.0,0.783318675983401,3.6965986430472775
36,3,1.0,0.8202846624138738,0.0
36,3,0.75,0.810674210050705,0.961045236316882
36,3,0.5,0.7993771081577055,2.0907554256168304
36,3,0.25,0.7958119561318528,2.4472706282020917
36,3,0.0,0.7731050325510439,4.717962986282986
36,4,1.0,0.8202846624138738,0.0
36,4,0.75,0.8087032169424114,1.1581445471462337
36,4,0.5,0.8061755855047728,1.4109076909101015
36,4,0.25,0.8121110909802254,0.8173571433648386
36,4,0.0,0.8136041895685471,0.668047284532669
36,5,1.0,0.8202846624138738,0.0
36,5,0.75,0.8177678853233921,0.25167770904817033
36,5,0.5,0.813409648965323,0.6875013448550793
36,5,0.25,0.815030005982314,0.5254656431559757
36,5,0.0,0.8096041156615889,1.0680546752284914
36,6,1.0,0.8202846624138738,0.0
36,6,0.75,0.8123222162949658,0.7962446118907951
36,6,0.5,0.8167334627480036,0.35511996658701417
36,6,0.25,0.8124674947139656,0.7817167699908145
36,6,0.0,0.7839144029047874,3.6370259509086345
36,7,1.0,0.8202846624138738,0.0
36,7,0.75,0.8004006012321604,1.9884061181713375
36,7,0.5,0.7654724599515694,5.481220246230434
36,7,0.25,0.7450728630952365,7.521179931863731
36,7,0.0,0.7584120734908135,6.1872588923060245
36,8,1.0,0.8202846624138738,0.0
36,8,0.75,0.8152507961428468,0.5033866271026977
36,8,0.5,0.7994059468749399,2.0878715538933834
36,8,0.25,0.7900246358835379,3.026002653033588
36,8,0.0,0.7582372998149349,6.204736259893884
37,0,1.0,0.9091281310211946,0.0
37,0,0.75,0.8744921588583561,3.4635972162838535
37,0,0.5,0.8557154279117818,5.341270310941281
37,0,0.25,0.8389164909746194,7.021164004657521
37,0,0.0,0.8601508014129373,4.89773296082573
37,1,1.0,0.9091281310211946,0.0
37,1,0.75,0.9034085571678179,0.5719573853376736
37,1,0.5,0.8914549868932691,1.7673144127925533
37,1,0.25,0.8914549868932691,1.7673144127925533
37,1,0.0,0.8867524476646451,2.237568335654949
37,2,1.0,0.9091281310211946,0.0
37,2,0.75,0.8914549868932691,1.7673144127925533
37,2,0.5,0.8903048063045511,1.8823324716643497
37,2,0.25,0.8832771528459795,2.585097817521509
37,2,0.0,0.8813683467259904,2.7759784295204204
37,3,1.0,0.9091281310211946,0.0
37,3,0.75,0.9256471655355851,-1.6519034514390518
37,3,0.5,0.9234117543395893,-1.4283623318394723
37,3,0.25,0.9296844017337321,-2.0556270712537517
37,3,0.0,0.9136533242876527,-0.4525193266458061
37,4,1.0,0.9091281310211946,0.0
37,4,0.75,0.8953267757711298,1.3801355250064762
37,4,0.5,0.9066249810735105,0.250314994768408
37,4,0.25,0.9030965235229593,0.6031607498235281
37,4,0.0,0.9036958787942677,0.5432252226926892
37,5,1.0,0.9091281310211946,0.0
37,5,0.75,0.9123963433241784,-0.32682123029837973
37,5,0.5,0.9004915814194165,0.8636549601778065
37,5,0.25,0.8891897629574039,1.993836806379068
37,5,0.0,0.8953267757711298,1.3801355250064762
37,6,1.0,0.9091281310211946,0.0
37,6,0.75,0.9152585029966369,-0.6130371975442306
37,6,0.5,0.9097483720052126,-0.062024098401802785
37,6,0.25,0.8923853275168141,1.674280350438051
37,6,0.0,0.8979384477415505,1.1189683279644091
37,7,1.0,0.9091281310211946,0.0
37,7,0.75,0.8970679097132077,1.2060221307986896
37,7,0.5,0.8747722193820012,3.435591163919338
37,7,0.25,0.8337466516413885,7.538147937980611
37,7,0.0,0.839451029705146,6.967710131604865
37,8,1.0,0.9091281310211946,0.0
37,8,0.75,0.900122840752018,0.9005290269176625
37,8,0.5,0.8774176047054051,3.1710526315789522
37,8,0.25,0.8555915926720219,5.353653834917271
37,8,0.0,0.8445837713884312,6.454435963276339
38,0,1.0,0.9067762267211907,0.0
38,0,0.75,0.8874056471903831,1.9370579530807674
38,0,0.5,0.8567699961729812,5.000623054820952
38,0,0.25,0.8495214174716181,5.72548092495726
38,0,0.0,0.863882761173263,4.289346554792772
38,1,1.0,0.9067762267211907,0.0
38,1,0.75,0.8946776436801065,1.2098583041084243
38,1,0.5,0.8931363776396124,1.3639849081578337
38,1,0.25,0.8851867331208189,2.158949360037188
38,1,0.0,0.8827924124732635,2.398381424792728
38,2,1.0,0.9067762267211907,0.0
38,2,0.75,0.9260580393112741,-1.9281812590083325
38,2,0.5,0.9219346336320506,-1.51584069108599
38,2,0.25,0.9160189009040041,-0.9242674182813326
38,2,0.0,0.9162006786528127,-0.9424451931622002
38,3,1.0,0.9067762267211907,0.0
38,3,0.75,0.9134378863624146,-0.6661659641223894
38,3,0.5,0.9277720892145302,-2.099586249333951
38,3,0.25,0.9177367751009595,-1.0960548379768786
38,3,0.0,0.9075405560276337,-0.07643293064429901
38,4,1.0,0.9067762267211907,0.0
38,4,0.75,0.8993382807668522,0.7437945954338554
38,4,0.5,0.876275639631804,3.0500587089386744
38,4,0.25,0.8455540805832038,6.122214613798693
38,4,0.0,0.8662661919804777,4.051003474071302
38,5,1.0,0.9067762267211907,0.0
38,5,0.75,0.9067762267211907,0.0
38,5,0.5,0.8899368279785846,1.6839398742606093
38,5,0.25,0.8941297843602701,1.2646442360920607
38,5,0.0,0.8825495570527918,2.4226669668398926
38,6,1.0,0.9067762267211907,0.0
38,6,0.75,0.9121913030632484,-0.5415076342057623
38,6,0.5,0.9121913030632484,-0.5415076342057623
38,6,0.25,0.9125390292364463,-0.5762802515255516
38,6,0.0,0.8897243336664675,1.705189305472321
38,7,1.0,0.9067762267211907,0.0
38,7,0.75,0.9008778416146936,0.5898385106497095
38,7,0.5,0.8993382807668522,0.7437945954338554
38,7,0.25,0.8934087148372863,1.3367511883904393
38,7,0.0,0.8813236208937852,2.5452605827405494
38,8,1.0,0.9067762267211907,0.0
38,8,0.75,0.9008778416146936,0.5898385106497095
38,8,0.5,0.9067762267211907,0.0
38,8,0.25,0.9008778416146936,0.5898385106497095
38,8,0.0,0.903553044306279,0.3223182414911707
39,0,1.0,0.8818968247811866,0.0
39,0,0.75,0.8595697394436762,2.2327085337510377
39,0,0.5,0.8398022751956322,4.209454958555437
39,0,0.25,0.8381968202090296,4.370000457215695
39,0,0.0,0.8383821459389151,4.351467884227144
39,1,1.0,0.8818968247811866,0.0
39,1,0.75,0.873817203240485,0.8079621540701631
39,1,0.5,0.8761463211076848,0.5750503673501828
39,1,0.25,0.8630707638284093,1.882606095277728
39,1,0.0,0.8740307765948822,0.7866048186304431
39,2,1.0,0.8818968247811866,0.0
39,2,0.75,0.8577082841942502,2.4188540586936425
39,2,0.5,0.8473775521243876,3.4519272656798994
39,2,0.25,0.834024377178914,4.78724476022726
39,2,0.0,0.8306361627110483,5.1260662070138245
39,3,1.0,0.8818968247811866,0.0
39,3,0.75,0.8717773938345207,1.0119430946665897
39,3,0.5,0.8671874101715821,1.470941460960451
39,3,0.25,0.8773537516386487,0.4543073142537879
39,3,0.0,0.8751623517027958,0.6734473078390812
39,4,1.0,0.8818968247811866,0.0
39,4,0.75,0.8686918213219367,1.3205003459249909
39,4,0.5,0.8486556131424579,3.324121163872873
39,4,0.25,0.8312858747781429,5.0610950003043715
39,4,0.0,0.8275393466401215,5.435747814106506
39,5,1.0,0.8818968247811866,0.0
39,5,0.75,0.8611444570695551,2.075236771163147
39,5,0.5,0.8657878745829165,1.6108950198270078
39,5,0.25,0.8659763289510125,1.5920495830174075
39,5,0.0,0.8756450886197722,0.625173616141439
39,6,1.0,0.8818968247811866,0.0
39,6,0.75,0.8752835443764895,0.6613280404697108
39,6,0.5,0.877382103711891,0.4514721069295624
39,6,0.25,0.8799602942283405,0.19365305528460386
39,6,0.0,0.8903111032610656,-0.8414278479878967
39,7,1.0,0.8818968247811866,0.0
39,7,0.75,0.8565189725546923,2.5377852226494246
39,7,0.5,0.8605549530385282,2.1341871742658336
39,7,0.25,0.8360181730092845,4.587865177190209
39,7,0.0,0.8081346267187824,7.376219806240414
39,8,1.0,0.8818968247811866,0.0
39,8,0.75,0.8732855232302877,0.8611301550898842
39,8,0.5,0.8799458122534937,0.1951012527692919
39,8,0.25,0.8750491279783837,0.6847696802802838
39,8,0.0,0.8861214835003178,-0.4224658719131247
40,0,1.0,0.8271198959873014,0.0
40,0,0.75,0.8222798461327105,0.48400498545908555
40,0,0.5,0.8101192970477474,1.7000598939553968
40,0,0.25,0.811482656696177,1.5637239291124372
40,0,0.0,0.7869599043433991,4.015999164390227
40,1,1.0,0.8271198959873014,0.0
40,1,0.75,0.812516452975488,1.4603443011813377
40,1,0.5,0.7950039553964777,3.2115940590823677
40,1,0.25,0.7839568221504783,4.316307383682306
40,1,0.0,0.7646635190987165,6.245637688858485
40,2,1.0,0.8271198959873014,0.0
40,2,0.75,0.8335129601389861,-0.6393064151684724
40,2,0.5,0.8457486847392632,-1.8628788751961833
40,2,0.25,0.8529639961064588,-2.5844100119157387
40,2,0.0,0.868401364764268,-4.1281468776966594
40,3,1.0,0.8271198959873014,0.0
40,3,0.75,0.8274514512307243,-0.033155524342287634
40,3,0.5,0.8263354044367723,0.0784491550529065
40,3,0.25,0.843295969498729,-1.617607351142758
40,3,0.0,0.8388610099710805,-1.1741113983779083
40,4,1.0,0.8271198959873014,0.0
40,4,0.75,0.8228341340196619,0.4285761967639523
40,4,0.5,0.8453848359825715,-1.8264939995270124
40,4,0.25,0.8390316455696203,-1.1911749582318887
40,4,0.0,0.8224644390701092,0.4655456917192158
40,5,1.0,0.8271198959873014,0.0
40,5,0.75,0.8323890772314468,-0.5269181244145438
40,5,0.5,0.8323890772314468,-0.5269181244145438
40,5,0.25,0.8426892842707843,-1.5569388283482866
40,5,0.0,0.85493374534879,-2.7813849361488563
40,6,1.0,0.8271198959873014,0.0
40,6,0.75,0.7991183336010282,2.800156238627316
40,6,0.5,0.7739707861314038,5.31491098558976
40,6,0.25,0.7739112677945607,5.320862819274074
40,6,0.0,0.756247458533781,7.087243745352046
40,7,1.0,0.8271198959873014,0.0
40,7,0.75,0.8076605281031429,1.9459367884158474
40,7,0.5,0.8053670173266474,2.1752878660654007
40,7,0.25,0.7889117647058824,3.8208131281418978
40,7,0.0,0.8066093513628676,2.05105446244338
40,8,1.0,0.8271198959873014,0.0
40,8,0.75,0.8260716532366773,0.10482427506240954
40,8,0.5,0.8094769102336816,1.7642985753619778
40,8,0.25,0.8046187288111608,2.250116717614059
40,8,0.0,0.7741371661187852,5.298272986851615
