subject,channel,f1_full,f1_occluded,drop_pp
1,0,0.7480804305409983,0.7549642442256108,-0.688381368461255
1,1,0.7480804305409983,0.7427509110844878,0.5329519456510501
1,2,0.7480804305409983,0.7408147586646694,0.7265671876328872
1,3,0.7480804305409983,0.6805959820927909,6.7484448448207335
1,4,0.7480804305409983,0.7270610952252894,2.1019335315708876
1,5,0.7480804305409983,0.6564014567532844,9.167897378771384
1,6,0.7480804305409983,0.7214357024782052,2.6644728062793055
1,7,0.7480804305409983,0.6615030772242798,8.657735331671844
1,8,0.7480804305409983,0.7148998815019744,3.31805490390239
2,0,0.8997908304596077,0.8236326521111248,7.615817834848293
2,1,0.8997908304596077,0.8537897253523004,4.600110510730737
2,2,0.8997908304596077,0.9005083393006326,-0.07175088410248387
2,3,0.8997908304596077,0.8603450457577614,3.9445784701846343
2,4,0.8997908304596077,0.8596330342052934,4.015779625431437
2,5,0.8997908304596077,0.8759402064524554,2.385062400715232
2,6,0.8997908304596077,0.8486355011909087,5.1155329268699035
2,7,0.8997908304596077,0.8161767801362309,8.361405032337688
2,8,0.8997908304596077,0.9050189823158029,-0.5228151856195185
3,0,0.9277120798459502,0.9459282797877662,-1.8216199941816003
3,1,0.9277120798459502,0.9077838761756198,1.9928203670330324
3,2,0.9277120798459502,0.9203312499058505,0.7380829940099698
3,3,0.9277120798459502,0.880319533278026,4.739254656792413
3,4,0.9277120798459502,0.953525641025641,-2.5813561179690803
3,5,0.9277120798459502,0.9439739675300676,-1.6261887684117404
3,6,0.9277120798459502,0.9220986802727047,0.561339957324547
3,7,0.9277120798459502,0.9011798736353016,2.6532206210648557
3,8,0.9277120798459502,0.9181218895117134,0.9590190334236803
4,0,0.9516350625483811,0.9418699630872239,0.9765099461157223
4,1,0.9516350625483811,0.9300437350006315,2.1591327547749617
4,2,0.9516350625483811,0.9397863481435935,1.184871440478763
4,3,0.9516350625483811,0.9150685485543046,3.656651399407651
4,4,0.9516350625483811,0.9223931983964249,2.9241864151956287
4,5,0.9516350625483811,0.9379770177018036,1.365804484657751
4,6,0.9516350625483811,0.9294433928341237,2.2191669714257456
4,7,0.9516350625483811,0.9124010473754719,3.9234015172909253
4,8,0.9516350625483811,0.9537709139292252,-0.2135851380844045
5,0,0.6825283587380362,0.675428049181019,0.7100309557017237
5,1,0.6825283587380362,0.7163628186865366,-3.383445994850043
5,2,0.6825283587380362,0.6892918380212478,-0.6763479283211637
5,3,0.6825283587380362,0.7380941615216983,-5.556580278366208
5,4,0.6825283587380362,0.6395804108290397,4.2947947908996476
5,5,0.6825283587380362,0.6254606220157348,5.7067736722301365
5,6,0.6825283587380362,0.6770472582972582,0.5481100440777986
5,7,0.6825283587380362,0.6668066850579998,1.5721673680036408
5,8,0.6825283587380362,0.6480368895183912,3.4491469219644966
6,0,0.8189333641554424,0.8092185698475565,0.971479430788591
6,1,0.8189333641554424,0.809813466063466,0.9119898091976331
6,2,0.8189333641554424,0.8552948785613496,-3.636151440590718
6,3,0.8189333641554424,0.8476828885470215,-2.8749524391579073
6,4,0.8189333641554424,0.7862842226101177,3.2649141545324722
6,5,0.8189333641554424,0.8291172841808907,-1.0183920025448323
6,6,0.8189333641554424,0.8316289927175715,-1.2695628562129135
6,7,0.8189333641554424,0.6876375418934464,13.129582226199599
6,8,0.8189333641554424,0.7943601210775622,2.4573243077880225
7,0,0.8521489861692049,0.8128589121272047,3.9290074042000134
7,1,0.8521489861692049,0.8040331707084227,4.811581546078214
7,2,0.8521489861692049,0.782788881412021,6.9360104757183905
7,3,0.8521489861692049,0.8401347884954765,1.2014197673728355
7,4,0.8521489861692049,0.8038902408396238,4.825874532958108
7,5,0.8521489861692049,0.852077902597429,0.007108357177587621
7,6,0.8521489861692049,0.717023376197829,13.51256099713759
7,7,0.8521489861692049,0.7983724313511548,5.377655481805011
7,8,0.8521489861692049,0.8281379011188449,2.401108505035998
8,0,0.882468001693431,0.880332148826817,0.21358528666139964
8,1,0.882468001693431,0.876891209027902,0.5576792665529018
8,2,0.882468001693431,0.8938173280078724,-1.134932631444141
8,3,0.882468001693431,0.8676046669738071,1.4863334719623866
8,4,0.882468001693431,0.851056237669567,3.141176402386403
8,5,0.882468001693431,0.8561319018434842,2.633609984994678
8,6,0.882468001693431,0.8843358395989974,-0.18678379055664385
8,7,0.882468001693431,0.8430184722319554,3.944952946147562
8,8,0.882468001693431,0.8788013905391132,0.3666611154317767
9,0,0.8739998952846262,0.859394894321365,1.4605000963261228
9,1,0.8739998952846262,0.8390650058065586,3.4934889478067555
9,2,0.8739998952846262,0.8482563121826382,2.574358310198799
9,3,0.8739998952846262,0.8427149704559809,3.128492482864531
9,4,0.8739998952846262,0.8909033710877564,-1.690347580313023
9,5,0.8739998952846262,0.8515800209170347,2.241987436759152
9,6,0.8739998952846262,0.8683004797135233,0.5699415571102873
9,7,0.8739998952846262,0.8296399564830101,4.435993880161604
9,8,0.8739998952846262,0.865317214665129,0.8682680619497174
10,0,0.7928373876459818,0.8048359690904683,-1.1998581444486511
10,1,0.7928373876459818,0.7987181286392232,-0.5880740993241429
10,2,0.7928373876459818,0.7766238224952049,1.6213565150776876
10,3,0.7928373876459818,0.7884284892804306,0.44088983655511393
10,4,0.7928373876459818,0.7960257269351382,-0.31883392891564055
10,5,0.7928373876459818,0.7957244008714597,-0.2887013225477908
10,6,0.7928373876459818,0.8312312485288607,-3.8393860882878883
10,7,0.7928373876459818,0.7790687880283256,1.3768599617656196
10,8,0.7928373876459818,0.7907883192999146,0.20490683460672177
11,0,0.9276899966775479,0.9131834340561678,1.450656262138017
11,1,0.9276899966775479,0.9294977808429982,-0.18077841654502436
11,2,0.9276899966775479,0.8896427491841405,3.8047247493407377
11,3,0.9276899966775479,0.9139746055415972,1.3715391135950772
11,4,0.9276899966775479,0.8828642155990126,4.48257810785353
11,5,0.9276899966775479,0.906149895972088,2.1540100705459975
11,6,0.9276899966775479,0.9334026512802626,-0.571265460271464
11,7,0.9276899966775479,0.9297036698162314,-0.20136731386835027
11,8,0.9276899966775479,0.9197528598807694,0.7937136796778543
12,0,0.9064240819665074,0.9078947947854148,-0.1470712818907427
12,1,0.9064240819665074,0.8940794127103204,1.2344669256186935
12,2,0.9064240819665074,0.8802269912731002,2.6197090693407143
12,3,0.9064240819665074,0.9033464751191147,0.30776068473926665
12,4,0.9064240819665074,0.9106872453104702,-0.4263163343962817
12,5,0.9064240819665074,0.9162588415490767,-0.9834759582569297
12,6,0.9064240819665074,0.8796760317130592,2.6748050253448175
12,7,0.9064240819665074,0.9336038042065418,-2.71797222400344
12,8,0.9064240819665074,0.93019761929537,-2.377353732886267
13,0,0.9595354853479854,0.9453199325258461,1.4215552822139266
13,1,0.9595354853479854,0.943139208764703,1.6396276583282354
13,2,0.9595354853479854,0.9402793233006104,1.9256162047375014
13,3,0.9595354853479854,0.9588233319063568,0.07121534416285602
13,4,0.9595354853479854,0.9420704675013006,1.746501784668475
13,5,0.9595354853479854,0.9647216730827499,-0.5186187734764536
13,6,0.9595354853479854,0.9546135308974282,0.4921954450557209
13,7,0.9595354853479854,0.9524600603161916,0.7075425031793814
13,8,0.9595354853479854,0.9644531614511659,-0.49176761031805016
14,0,0.8211218368743339,0.815253513208582,0.5868323665751962
14,1,0.8211218368743339,0.8241928758389209,-0.3071038964586936
14,2,0.8211218368743339,0.8280488941474163,-0.6927057273082404
14,3,0.8211218368743339,0.7287670527670528,9.235478410728115
14,4,0.8211218368743339,0.8482777435917159,-2.7155906717381995
14,5,0.8211218368743339,0.8362763682277563,-1.5154531353422374
14,6,0.8211218368743339,0.8170897196949272,0.4032117179406769
14,7,0.8211218368743339,0.7921383614492286,2.8983475425105376
14,8,0.8211218368743339,0.7921543778801843,2.8967458994149653
15,0,0.9341671133762812,0.9321286175377688,0.20384958385124552
15,1,0.9341671133762812,0.9100748831662473,2.4092230210033927
15,2,0.9341671133762812,0.9203832554906571,1.3783857885624085
15,3,0.9341671133762812,0.9364195298952224,-0.22524165189411471
15,4,0.9341671133762812,0.9073700708923501,2.679704248393111
15,5,0.9341671133762812,0.8985900787191149,3.557703465716633
15,6,0.9341671133762812,0.9377154559012716,-0.35483425249903666
15,7,0.9341671133762812,0.8798494584888716,5.431765488740958
15,8,0.9341671133762812,0.9512803880317906,-1.711327465550938
16,0,0.8939259605342714,0.880673756221917,1.325220431235441
16,1,0.8939259605342714,0.8913033400411499,0.26226204931215635
16,2,0.8939259605342714,0.8906969202291244,0.3229040305147035
16,3,0.8939259605342714,0.8845999670415688,0.9325993492702578
16,4,0.8939259605342714,0.85881640758759,3.510955294668139
16,5,0.8939259605342714,0.8569593442803658,3.6966616253905626
16,6,0.8939259605342714,0.9013486475741518,-0.742268703988036
16,7,0.8939259605342714,0.8567997523385361,3.712620819573531
16,8,0.8939259605342714,0.8552651838413515,3.8660776692919896
17,0,0.8684378200227894,0.9035092817779625,-3.507146175517317
17,1,0.8684378200227894,0.8877546841438707,-1.9316864121081356
17,2,0.8684378200227894,0.8451830006049607,2.32548194178287
17,3,0.8684378200227894,0.8478090648469938,2.0628755175795543
17,4,0.8684378200227894,0.8755380036630037,-0.7100183640214364
17,5,0.8684378200227894,0.8576412522372383,1.0796567785551048
17,6,0.8684378200227894,0.8603517252646999,0.8086094758089413
17,7,0.8684378200227894,0.8418556186936148,2.658220132917455
17,8,0.8684378200227894,0.8560702757520985,1.2367544270690867
18,0,0.8898747648747649,0.8749103451814032,1.4964419693361708
18,1,0.8898747648747649,0.9217211776994386,-3.184641282467371
18,2,0.8898747648747649,0.905534763489309,-1.5659998614544035
18,3,0.8898747648747649,0.8107115677321156,7.9163197142649295
18,4,0.8898747648747649,0.8620024519220639,2.7872312952700984
18,5,0.8898747648747649,0.8892010310981939,0.06737337765709839
18,6,0.8898747648747649,0.9151269505257119,-2.5252185650947
18,7,0.8898747648747649,0.8548359206535332,3.5038844221231713
18,8,0.8898747648747649,0.8629720473898556,2.6902717484909355
19,0,0.9073394197606005,0.8870656175265393,2.0273802234061167
19,1,0.9073394197606005,0.8765506615772085,3.0788758183391995
19,2,0.9073394197606005,0.8873732254195487,1.9966194341051846
19,3,0.9073394197606005,0.8613068125418536,4.603260721874691
19,4,0.9073394197606005,0.8958147920700974,1.1524627690503109
19,5,0.9073394197606005,0.8698256530372895,3.751376672331097
19,6,0.9073394197606005,0.9352811361391107,-2.7941716378510173
19,7,0.9073394197606005,0.8876617707415987,1.967764901900182
19,8,0.9073394197606005,0.8548227672291914,5.251665253140914
20,0,0.8789484348393923,0.8291371045512612,4.981133028813112
20,1,0.8789484348393923,0.8575918838206581,2.1356551018734238
20,2,0.8789484348393923,0.8064840032209661,7.2464431618426195
20,3,0.8789484348393923,0.8661883917104947,1.276004312889767
20,4,0.8789484348393923,0.8816089546478042,-0.26605198084118653
20,5,0.8789484348393923,0.8776269887843485,0.13214460550438067
20,6,0.8789484348393923,0.8532434747701174,2.570496006927492
20,7,0.8789484348393923,0.8385668276972624,4.0381607142129905
20,8,0.8789484348393923,0.8370219877927304,4.192644704666193
21,0,0.9334540038096658,0.8940377675495461,3.9416236260119697
21,1,0.9334540038096658,0.9124097128674199,2.1044290942245913
21,2,0.9334540038096658,0.915957867052986,1.7496136756679825
21,3,0.9334540038096658,0.8694289143797349,6.402508942993091
21,4,0.9334540038096658,0.9154346826882037,1.8019321121462095
21,5,0.9334540038096658,0.9324929971988796,0.09610066107862414
21,6,0.9334540038096658,0.927168781922303,0.6285221887362802
21,7,0.9334540038096658,0.9067234478141011,2.673055599556473
21,8,0.9334540038096658,0.8846201049589797,4.8833898850686115
22,0,0.7927243772641663,0.7503876422633291,4.233673500083723
22,1,0.7927243772641663,0.7831475634974505,0.9576813766715819
22,2,0.7927243772641663,0.7951506826506827,-0.24263053865163364
22,3,0.7927243772641663,0.76043300418326,3.229137308090635
22,4,0.7927243772641663,0.7588458528077926,3.3878524456373738
22,5,0.7927243772641663,0.7751504354154098,1.7573941848756491
22,6,0.7927243772641663,0.781637631468878,1.1086745795288344
22,7,0.7927243772641663,0.7528879583809162,3.983641888325018
22,8,0.7927243772641663,0.7537833592521093,3.894101801205707
23,0,0.8539240819888992,0.8354011246662942,1.8522957322605005
23,1,0.8539240819888992,0.8650276919763928,-1.1103609987493601
23,2,0.8539240819888992,0.8382504759276969,1.5673606061202383
23,3,0.8539240819888992,0.8248314959030033,2.9092586085895933
23,4,0.8539240819888992,0.8368381141860048,1.7085967802894397
23,5,0.8539240819888992,0.8487774179818711,0.5146664007028123
23,6,0.8539240819888992,0.8351955144279781,1.8728567560921117
23,7,0.8539240819888992,0.8191128484484256,3.4811233540473663
23,8,0.8539240819888992,0.8374563463262605,1.6467735662638705
24,0,0.8291510336835713,0.8451693199825525,-1.6018286298981166
24,1,0.8291510336835713,0.8302687249857061,-0.11176913021347934
24,2,0.8291510336835713,0.7924272548548656,3.67237788287057
24,3,0.8291510336835713,0.8309646201300402,-0.18135864464688956
24,4,0.8291510336835713,0.7840366666023643,4.5114367081207085
24,5,0.8291510336835713,0.8070669693026558,2.208406438091559
24,6,0.8291510336835713,0.8203491389451949,0.8801894738376448
24,7,0.8291510336835713,0.8205371375704867,0.8613896113084607
24,8,0.8291510336835713,0.7820274864656449,4.712354721792645
25,0,0.9297603543372506,0.9345708879573393,-0.4810533620088764
25,1,0.9297603543372506,0.9282315077711769,0.15288465660736605
25,2,0.9297603543372506,0.9326261484561156,-0.2865794118865006
25,3,0.9297603543372506,0.8861128476586149,4.364750667863571
25,4,0.9297603543372506,0.8915110312489729,3.8249323088277665
25,5,0.9297603543372506,0.8968123574815621,3.29479968556885
25,6,0.9297603543372506,0.9313315003539276,-0.1571146016677072
25,7,0.9297603543372506,0.8747817320061753,5.497862233107531
25,8,0.9297603543372506,0.9513622434798972,-2.16018891426466
26,0,0.755119673041966,0.7519580349225629,0.3161638119403176
26,1,0.755119673041966,0.7614271994285134,-0.6307526386547413
26,2,0.755119673041966,0.7412835906807018,1.3836082361264213
26,3,0.755119673041966,0.7543953196377529,0.07243534042131738
26,4,0.755119673041966,0.7461756424621271,0.8944030579838946
26,5,0.755119673041966,0.7603775521164567,-0.5257879074490712
26,6,0.755119673041966,0.7705652501717133,-1.5445577129747257
26,7,0.755119673041966,0.7647652782404744,-0.9645605198508322
26,8,0.755119673041966,0.7348501301254694,2.026954291649663
27,0,0.81439532334673,0.8755311355311355,-6.113581218440545
27,1,0.81439532334673,0.8241242459651493,-0.9728922618419289
27,2,0.81439532334673,0.798389778637155,1.6005544709575048
27,3,0.81439532334673,0.7779199719670762,3.6475351379653853
27,4,0.81439532334673,0.8062974465148378,0.8097876831892226
27,5,0.81439532334673,0.8358348568824614,-2.143953353573136
27,6,0.81439532334673,0.7827045016835609,3.1690821663169166
27,7,0.81439532334673,0.8403332907823564,-2.5937967435626375
27,8,0.81439532334673,0.8014262099719371,1.2969113374792895
28,0,0.7687564271941726,0.7793255117132407,-1.0569084519068128
28,1,0.7687564271941726,0.749249173563407,1.9507253630765553
28,2,0.7687564271941726,0.7663428041522101,0.2413623041962465
28,3,0.7687564271941726,0.7372122688775233,3.154415831664925
28,4,0.7687564271941726,0.8728279817119744,-10.40715545178018
28,5,0.7687564271941726,0.7425047012810294,2.6251725913143176
28,6,0.7687564271941726,0.7694405691741373,-0.0684141979964692
28,7,0.7687564271941726,0.7456358359199751,2.312059127419752
28,8,0.7687564271941726,0.7659270304529363,0.28293967412362786
29,0,0.8644945062584939,0.8446902008240582,1.9804305434435676
29,1,0.8644945062584939,0.8738047100417197,-0.9310203783225779
29,2,0.8644945062584939,0.823468792631195,4.10257136272989
29,3,0.8644945062584939,0.8312000278902518,3.3294478368242064
29,4,0.8644945062584939,0.8205854665199831,4.3909039738510796
29,5,0.8644945062584939,0.7871365845516081,7.735792170688582
29,6,0.8644945062584939,0.8844639079395415,-1.996940168104766
29,7,0.8644945062584939,0.8499397701873317,1.45547360711622
29,8,0.8644945062584939,0.8152064913253313,4.928801493316259
30,0,0.9036936363750449,0.935020908004779,-3.1327271629734144
30,1,0.9036936363750449,0.894429920474413,0.9263715900631797
30,2,0.9036936363750449,0.9488545921368186,-4.516095576177371
30,3,0.9036936363750449,0.8642504288860628,3.9443207488982
30,4,0.9036936363750449,0.8786893226554171,2.5004313719627747
30,5,0.9036936363750449,0.8917431205249705,1.195051585007434
30,6,0.9036936363750449,0.9281752509616287,-2.448161458658382
30,7,0.9036936363750449,0.9015944529084856,0.20991834665592402
30,8,0.9036936363750449,0.9287554280638147,-2.5061791688769874
31,0,0.8343822045649825,0.8628376606346708,-2.8455456069688356
31,1,0.8343822045649825,0.8403609211296137,-0.5978716564631226
31,2,0.8343822045649825,0.8128227774524617,2.155942711252079
31,3,0.8343822045649825,0.8255966429203891,0.878556164459332
31,4,0.8343822045649825,0.7889711613495632,4.541104321541923
31,5,0.8343822045649825,0.8296200602285619,0.4762144336420526
31,6,0.8343822045649825,0.8238996437167169,1.0482560848265599
31,7,0.8343822045649825,0.8049265469587431,2.945565760623936
31,8,0.8343822045649825,0.7953328092327967,3.9049395332185766
32,0,0.8769397690110526,0.8659356893094879,1.1004079701564695
32,1,0.8769397690110526,0.8863834115689895,-0.9443642557936838
32,2,0.8769397690110526,0.8761457012304638,0.07940677805888807
32,3,0.8769397690110526,0.8652882268768873,1.1651542134165305
32,4,0.8769397690110526,0.8614320016079028,1.5507767403149852
32,5,0.8769397690110526,0.8735177098573573,0.34220591536953116
32,6,0.8769397690110526,0.8893195039453583,-1.2379734934305664
32,7,0.8769397690110526,0.8592462514266768,1.7693517584375873
32,8,0.8769397690110526,0.89198593933724,-1.504617032618738
33,0,0.8825228539653762,0.8732732096370961,0.9249644328280127
33,1,0.8825228539653762,0.8858507678757175,-0.33279139103412625
33,2,0.8825228539653762,0.8933643564090605,-1.0841502443684314
33,3,0.8825228539653762,0.8450141144284956,3.750873953688061
33,4,0.8825228539653762,0.9111501957883614,-2.862734182298521
33,5,0.8825228539653762,0.8867012199671473,-0.41783660017711277
33,6,0.8825228539653762,0.8930990737010476,-1.0576219735671355
33,7,0.8825228539653762,0.8788291747676998,0.36936791976763805
33,8,0.8825228539653762,0.9125683901097951,-3.004553614441885
34,0,0.8863862131246237,0.8150136425835689,7.137257054105484
34,1,0.8863862131246237,0.8692072880793686,1.717892504525509
34,2,0.8863862131246237,0.8922678565344417,-0.5881643409818005
34,3,0.8863862131246237,0.8719199625865668,1.4466250538056946
34,4,0.8863862131246237,0.8841004183094413,0.22857948151824292
34,5,0.8863862131246237,0.8974132452659261,-1.1027032141302406
34,6,0.8863862131246237,0.8886233150206919,-0.22371018960681832
34,7,0.8863862131246237,0.8436120451062468,4.277416801837697
34,8,0.8863862131246237,0.847694039531653,3.8692173592970724
35,0,0.7081823951382109,0.700484604517976,0.7697790620234901
35,1,0.7081823951382109,0.714216206190376,-0.603381105216505
35,2,0.7081823951382109,0.7181543940613245,-0.9971998923113623
35,3,0.7081823951382109,0.6919816208740784,1.6200774264132467
35,4,0.7081823951382109,0.7031558350436189,0.5026560094592014
35,5,0.7081823951382109,0.6814718390629599,2.671055607525097
35,6,0.7081823951382109,0.7271934428232857,-1.9011047685074778
35,7,0.7081823951382109,0.7216424591571617,-1.3460064018950835
35,8,0.7081823951382109,0.7011265897367145,0.7055805401496418
36,0,0.8202846624138738,0.7813269311578522,3.8957731256021533
36,1,0.8202846624138738,0.7732944529468149,4.69902094670589
36,2,0.8202846624138738,0.783318675983401,3.6965986430472775
36,3,0.8202846624138738,0.7731050325510439,4.717962986282986
36,4,0.8202846624138738,0.8136041895685471,0.668047284532669
36,5,0.8202846624138738,0.8096041156615889,1.0680546752284914
36,6,0.8202846624138738,0.7839144029047874,3.6370259509086345
36,7,0.8202846624138738,0.7584120734908135,6.1872588923060245
36,8,0.8202846624138738,0.7582372998149349,6.204736259893884
37,0,0.9091281310211946,0.8601508014129373,4.89773296082573
37,1,0.9091281310211946,0.8867524476646451,2.237568335654949
37,2,0.9091281310211946,0.8813683467259904,2.7759784295204204
37,3,0.9091281310211946,0.9136533242876527,-0.4525193266458061
37,4,0.9091281310211946,0.9036958787942677,0.5432252226926892
37,5,0.9091281310211946,0.8953267757711298,1.3801355250064762
37,6,0.9091281310211946,0.8979384477415505,1.1189683279644091
37,7,0.9091281310211946,0.839451029705146,6.967710131604865
37,8,0.9091281310211946,0.8445837713884312,6.454435963276339
38,0,0.9067762267211907,0.863882761173263,4.289346554792772
38,1,0.9067762267211907,0.8827924124732635,2.398381424792728
38,2,0.9067762267211907,0.9162006786528127,-0.9424451931622002
38,3,0.9067762267211907,0.9075405560276337,-0.07643293064429901
38,4,0.9067762267211907,0.8662661919804777,4.051003474071302
38,5,0.9067762267211907,0.8825495570527918,2.4226669668398926
38,6,0.9067762267211907,0.8897243336664675,1.705189305472321
38,7,0.9067762267211907,0.8813236208937852,2.5452605827405494
38,8,0.9067762267211907,0.903553044306279,0.3223182414911707
39,0,0.8818968247811866,0.8383821459389151,4.351467884227144
39,1,0.8818968247811866,0.8740307765948822,0.7866048186304431
39,2,0.8818968247811866,0.8306361627110483,5.1260662070138245
39,3,0.8818968247811866,0.8751623517027958,0.6734473078390812
39,4,0.8818968247811866,0.8275393466401215,5.435747814106506
39,5,0.8818968247811866,0.8756450886197722,0.625173616141439
39,6,0.8818968247811866,0.8903111032610656,-0.8414278479878967
39,7,0.8818968247811866,0.8081346267187824,7.376219806240414
39,8,0.8818968247811866,0.8861214835003178,-0.4224658719131247
40,0,0.8271198959873014,0.7869599043433991,4.015999164390227
40,1,0.8271198959873014,0.7646635190987165,6.245637688858485
40,2,0.8271198959873014,0.868401364764268,-4.1281468776966594
40,3,0.8271198959873014,0.8388610099710805,-1.1741113983779083
40,4,0.8271198959873014,0.8224644390701092,0.4655456917192158
40,5,0.8271198959873014,0.85493374534879,-2.7813849361488563
40,6,0.8271198959873014,0.756247458533781,7.087243745352046
40,7,0.8271198959873014,0.8066093513628676,2.05105446244338
40,8,0.8271198959873014,0.7741371661187852,5.298272986851615
