subject,channel,r,f1_drop_mean,f1_drop_sd
1,0,5,0.06989646867303698,0.018962399064999927
1,1,5,0.06001941625388689,0.01187614358645396
1,2,5,0.07850027720850772,0.01631656854854164
1,3,5,0.06301961051876655,0.011643095020693725
1,4,5,0.07965498052496485,0.016221595906715482
1,5,5,0.10623789896812066,0.006122461803388753
1,6,5,0.043386389626004274,0.01730323202842889
1,7,5,0.12873816858686102,0.026879142869638606
1,8,5,0.08951520768261419,0.011479042437730349
2,0,5,0.1774637824040044,0.01927583627019959
2,1,5,0.09122363227669594,0.015819194626400152
2,2,5,0.10474284670688536,0.009441819782638701
2,3,5,0.1357208372339489,0.040511216172999846
2,4,5,0.1717343889229696,0.02120115844552081
2,5,5,0.13069434748646294,0.024000716452750755
2,6,5,0.08107050798340935,0.0085140267612711
2,7,5,0.13891523270463907,0.010549785107828306
2,8,5,0.0583982050767371,0.023286532534220437
3,0,5,0.08292272775884282,0.019161724412078467
3,1,5,0.04944709253040451,0.004204406225288432
3,2,5,0.11010301428926346,0.01993151743248852
3,3,5,0.030555535616705633,0.01058620228558548
3,4,5,0.11263285915559526,0.014826901552825929
3,5,5,0.038034067592316353,0.007659124293352191
3,6,5,0.03170112182657399,0.009722505513151104
3,7,5,0.08037859614199443,0.01676066016005968
3,8,5,0.07035119431779206,0.017878069764046274
4,0,5,0.11135068506577987,0.015929012378705244
4,1,5,0.12703905776722885,0.015601588056342168
4,2,5,0.07807929893571064,0.01592774820986675
4,3,5,0.13472747056571957,0.02129814955279864
4,4,5,0.21466332015125858,0.013017768785185964
4,5,5,0.12632640273206794,0.007555101417593151
4,6,5,0.05171472946424105,0.008690959690248082
4,7,5,0.1164409227345075,0.012803177333354766
4,8,5,0.14841241082624693,0.0146598670849777
5,0,5,0.04530134004811144,0.013041594693596288
5,1,5,0.034868842329649374,0.006379320890479432
5,2,5,0.03172787091881477,0.017883855717744427
5,3,5,0.01932764848109956,0.015283627063058672
5,4,5,0.10449882219254703,0.020926352057875068
5,5,5,0.09496719073978166,0.015811548017803982
5,6,5,0.04347305989679813,0.007756392623744241
5,7,5,0.05438985146502884,0.004784502615849757
5,8,5,0.102918201820701,0.017399585667711635
6,0,5,0.0908361557939584,0.010963449567258792
6,1,5,0.08287125920885001,0.006596065800760853
6,2,5,0.046033966151051174,0.010548840702905685
6,3,5,-0.005628474754046908,0.01423575507413794
6,4,5,0.14883496081936612,0.01877189676358778
6,5,5,0.049160980185570226,0.014995019020186486
6,6,5,0.036815159713208964,0.008004939060897866
6,7,5,0.12305121690331129,0.012876612073021364
6,8,5,0.08016865188242905,0.01598166742477939
7,0,5,0.10695972428220553,0.00764448604008184
7,1,5,0.12333519312910679,0.013931302751737632
7,2,5,0.12088049409826444,0.014738639626508405
7,3,5,0.08427130507034566,0.01607271019297694
7,4,5,0.18099724832855815,0.020959072760688112
7,5,5,0.12785361887291763,0.010203524110381628
7,6,5,0.13602090468291642,0.012320272780974684
7,7,5,0.12760313477333562,0.014594370282570823
7,8,5,0.09666384768903984,0.00868161942575377
8,0,5,0.11799249801072635,0.01494072616683246
8,1,5,0.11969688720609764,0.010508575866639003
8,2,5,0.07152611037912134,0.00970933477365054
8,3,5,0.0794573094530927,0.02052208011644466
8,4,5,0.17111480800187534,0.013231732603534305
8,5,5,0.10371104114631735,0.012096110945344782
8,6,5,0.06356397491103083,0.02000601891724697
8,7,5,0.18496909226008262,0.01512277758403068
8,8,5,0.11969900301725278,0.013619180688097239
9,0,5,0.07053920095735378,0.014877767856140154
9,1,5,0.11214550549162088,0.007309814966414744
9,2,5,0.05325099470437118,0.017285978986099657
9,3,5,0.047689531112452575,0.0147158298956463
9,4,5,0.11780090622981657,0.023529210915835267
9,5,5,0.06139280317019715,0.011241605646105598
9,6,5,0.07299503477560931,0.00442805557167465
9,7,5,0.11023642706935077,0.0066879143709512165
9,8,5,0.0741963085002256,0.00718185213807015
10,0,5,0.06618043333421855,0.012763612171689677
10,1,5,0.004073134549241653,0.014770001673082652
10,2,5,0.037571573586681686,0.02245764315893851
10,3,5,0.06803534276304173,0.011584806232488318
10,4,5,0.11409020888588735,0.022303169915623453
10,5,5,0.138162880985227,0.016727955646017884
10,6,5,0.018976927701932978,0.021625536995048114
10,7,5,0.11490368614838584,0.018314102779746516
10,8,5,0.07368360985867897,0.013417905274199173
11,0,5,0.08677640612787699,0.01361499505694748
11,1,5,0.08580685512753965,0.01609909010427374
11,2,5,0.08641021831008973,0.012199987511719915
11,3,5,0.0800253797352611,0.010307213406023604
11,4,5,0.16789526741696523,0.019444465231956296
11,5,5,0.10428787950235774,0.013526539775444378
11,6,5,0.06240995292004199,0.00973541887047639
11,7,5,0.11030010167787578,0.014325703478908308
11,8,5,0.08532589457201886,0.015086583337881494
12,0,5,0.04819433892959142,0.01285384113875503
12,1,5,0.08067940367285509,0.02068664248426865
12,2,5,0.10692481977210548,0.006975908370509438
12,3,5,0.045604837261182606,0.018476312603732812
12,4,5,0.10536545604473446,0.011849243500237262
12,5,5,0.027317440770228574,0.014077090660153741
12,6,5,0.04324652945553322,0.012622720734492303
12,7,5,0.08427310439713694,0.015315752395673204
12,8,5,0.07188298509850297,0.014155165455593723
13,0,5,0.11580760758173705,0.003832876503555979
13,1,5,0.054076629662429744,0.009590034928734552
13,2,5,0.09243253459418618,0.020136365257679485
13,3,5,0.04477769137311931,0.009566970882735023
13,4,5,0.1885333227160059,0.013843840695343858
13,5,5,0.1166008585718032,0.012175974039063966
13,6,5,0.02597479254803812,0.012928425962128488
13,7,5,0.08816490959954164,0.013773245206682308
13,8,5,0.09904561239469167,0.007669062534647972
14,0,5,0.04256154556040048,0.0028694229795519868
14,1,5,0.07553876081065411,0.016468706711590692
14,2,5,0.04518464851641881,0.0025356341537642107
14,3,5,0.09789010820857544,0.008505021269684134
14,4,5,0.1384758951385691,0.014032178797348263
14,5,5,0.027814333703439352,0.005164130605880308
14,6,5,0.023563303752493648,0.0070555170067904075
14,7,5,0.10095898770745142,0.014145486743117922
14,8,5,0.09308712795785021,0.010512538532186913
15,0,5,0.09483214121068491,0.005652991041412223
15,1,5,0.08310210027143265,0.007416289338239155
15,2,5,0.09147203529559585,0.014337306253246739
15,3,5,0.03593399138131892,0.010490206680603048
15,4,5,0.13104917170134273,0.012518064334373403
15,5,5,0.09591772206347526,0.014588972563866355
15,6,5,0.04550236974766799,0.01262048026060119
15,7,5,0.10988242163024424,0.013342909665610466
15,8,5,0.07200011372240778,0.02040022777653951
16,0,5,0.14937972055724985,0.009420943741938281
16,1,5,0.08374703324397285,0.01382251395854895
16,2,5,0.07093921469079714,0.009636573390292735
16,3,5,0.058527911469888075,0.01406068309568676
16,4,5,0.1466438107371574,0.02255641127568467
16,5,5,0.08732301591267382,0.01067557682901934
16,6,5,0.034766587812500395,0.013841339897352872
16,7,5,0.14347932046923143,0.013711738977319601
16,8,5,0.12117742216292385,0.01908617614093916
17,0,5,0.09444287445027855,0.018221299625295957
17,1,5,0.04413151808486464,0.01795881230092504
17,2,5,0.05255286051070993,0.015419567452452014
17,3,5,0.0248674801846678,0.018235897634449907
17,4,5,0.14753949505398525,0.012603319874944216
17,5,5,0.11126341168392036,0.021316579679717937
17,6,5,0.07691378063969863,0.02476295471067346
17,7,5,0.09829798222053007,0.010254415970595168
17,8,5,0.08351419728954908,0.023863866825362755
18,0,5,0.07972915794979414,0.01579888104649648
18,1,5,0.06506946865429317,0.021186553622572768
18,2,5,0.07002917592873296,0.025702631924595588
18,3,5,0.1288771998907505,0.012720634499791288
18,4,5,0.09161452634836029,0.021865553257459334
18,5,5,0.09957354083423668,0.006746838199247427
18,6,5,0.04607733716536555,0.005123787632999259
18,7,5,0.1293592151218787,0.016174742218527882
18,8,5,0.07095910945123943,0.012981842314069823
19,0,5,0.11846267047238432,0.004847539788001369
19,1,5,0.08098431936425372,0.015331913456780139
19,2,5,0.08644764797512852,0.015989580908774118
19,3,5,0.07527574297817256,0.012058795858969223
19,4,5,0.09881404938985883,0.009418332687770817
19,5,5,0.06468067317986308,0.005741328617693081
19,6,5,0.039949742029972944,0.010900199337953378
19,7,5,0.11136600588266916,0.007302784809770038
19,8,5,0.09424060549358426,0.010999022866777562
20,0,5,0.15103968647119742,0.017726919166461706
20,1,5,0.0963067930091066,0.014055809665050118
20,2,5,0.10358031839003778,0.014717721005708255
20,3,5,0.13796344186918136,0.020790276418520937
20,4,5,0.16027966391663515,0.015039180684630166
20,5,5,0.12427509157325514,0.02400253886953043
20,6,5,0.08311872398711358,0.004957307053037867
20,7,5,0.09954425500910942,0.008634134137225481
20,8,5,0.13502519088995704,0.00808496517419904
21,0,5,0.14332457908336943,0.010936938273224287
21,1,5,0.07687720234228664,0.013735896921470543
21,2,5,0.1439910562562198,0.026148032036402393
21,3,5,0.04575363535528596,0.013733421227006234
21,4,5,0.12055969723657947,0.02674494866035885
21,5,5,0.1717563858151508,0.020540964950028974
21,6,5,0.038982601815943194,0.012223827227271474
21,7,5,0.11554009493387765,0.01677002171717093
21,8,5,0.12359898508782545,0.01386903369185887
22,0,5,0.10842518036880436,0.012177349003050578
22,1,5,0.09877388036422792,0.007061384002020471
22,2,5,0.049572495802353234,0.021414259237976935
22,3,5,0.08314165540155058,0.014091743313669157
22,4,5,0.13374209844526147,0.014771795077757584
22,5,5,0.10551063772190838,0.021593760630939436
22,6,5,0.05174266073298532,0.014731252844581042
22,7,5,0.10715603524611579,0.005334130851062618
22,8,5,0.11911597416324844,0.011385400143514985
23,0,5,0.13611193643195094,0.028520660981864426
23,1,5,0.08145283763425008,0.005525960142555728
23,2,5,0.05484771839395739,0.007046849968787499
23,3,5,0.04794656359361353,0.01924114070840054
23,4,5,0.10303862609409162,0.009602052491854831
23,5,5,0.1065049378166621,0.017507151359315593
23,6,5,0.11312889858545135,0.00901208355128768
23,7,5,0.12997945589680868,0.019436583336183054
23,8,5,0.10286423845657175,0.009093281294390203
24,0,5,0.0649510483885621,0.016328606980532113
24,1,5,0.056444421300972825,0.019088862875661212
24,2,5,0.16045685631115417,0.01815270685194165
24,3,5,0.05297315760748571,0.022817960165218847
24,4,5,0.11187184185831918,0.006790581906661707
24,5,5,0.09588488556092171,0.028656201284475664
24,6,5,0.0660711817356032,0.015107788284262128
24,7,5,0.11512803413143484,0.01295107598597164
24,8,5,0.13575114090614712,0.01031343982990274
25,0,5,0.15835478864616756,0.02462262801399059
25,1,5,0.08616654281796451,0.013814742214307726
25,2,5,0.07360248612378913,0.010727414803413968
25,3,5,0.11906911844391618,0.015554614805565987
25,4,5,0.14869345171036988,0.010084811438983016
25,5,5,0.07695427978843791,0.009439184591376227
25,6,5,0.08475193323556363,0.016686920111148678
25,7,5,0.13019292986077355,0.005421196646903736
25,8,5,0.12053723398136948,0.014569822884696717
26,0,5,0.0860351076137809,0.013193868213069842
26,1,5,0.07344591066326689,0.017316937550863575
26,2,5,0.07302303242227218,0.009491522067628481
26,3,5,0.046404856259581705,0.00979543776561931
26,4,5,0.0996291474337764,0.021017699850214025
26,5,5,0.09994679714260421,0.014610933795143147
26,6,5,0.03281852297334777,0.01147943495067161
26,7,5,0.09813047125115479,0.008986607188192395
26,8,5,0.08072162407830548,0.009757890367163215
27,0,5,0.06496405508520367,0.009528696654334064
27,1,5,0.048351219078479876,0.017449876675715053
27,2,5,0.028702816502795915,0.025974947124146427
27,3,5,0.05244512040774696,0.020840110160883878
27,4,5,0.16400979323888432,0.012379686310153274
27,5,5,0.11028229165784989,0.01022446871918552
27,6,5,0.022792655020901866,0.012332128238735345
27,7,5,0.08996871212032884,0.00727057182055049
27,8,5,0.04828624881388375,0.008677799711068794
28,0,5,0.04816081691583296,0.015312295161156961
28,1,5,0.04410776528112752,0.014108588397969987
28,2,5,0.030401670300705307,0.008076030292481084
28,3,5,0.054447035172089334,0.015893811177089868
28,4,5,0.12145702604552822,0.018015006217505937
28,5,5,0.11844793976102178,0.01943920830793888
28,6,5,0.03734273216078876,0.013324344310573423
28,7,5,0.07436022215523799,0.010925460463042717
28,8,5,0.07539784619237153,0.011485748276822057
29,0,5,0.11814471593074619,0.008869016050425069
29,1,5,0.020609476692790098,0.010573467717501887
29,2,5,0.10896891216491537,0.01162999338522966
29,3,5,0.05891595648512937,0.005811150124984807
29,4,5,0.14268604494974063,0.017238685338729732
29,5,5,0.17587492530706467,0.014877729947154897
29,6,5,0.04983301996725013,0.006842151727040127
29,7,5,0.13017782837606928,0.01810967746602588
29,8,5,0.14124109054139364,0.017096188808459742
30,0,5,0.12363391457310194,0.02471083573494675
30,1,5,0.031183449826430554,0.02232662614743617
30,2,5,0.050846139435071304,0.005426133401711826
30,3,5,0.10298246475593442,0.00941224662930643
30,4,5,0.10726685247189427,0.01968318687134526
30,5,5,0.19010931801608077,0.024419674622435196
30,6,5,0.0705034803814045,0.0130114381363057
30,7,5,0.1308090827462402,0.005749728132460401
30,8,5,0.09759474073239804,0.019270230410584795
31,0,5,0.08337276222642573,0.008876320296131994
31,1,5,0.0738791181376193,0.02067170291536516
31,2,5,0.1055304671777515,0.008816270059672341
31,3,5,0.06686616128557281,0.013610852402658588
31,4,5,0.17286373316481554,0.013293343347395147
31,5,5,0.13085600629726443,0.009753772083567114
31,6,5,0.05395714677466059,0.01573144348651792
31,7,5,0.10592378593614285,0.015365784707075825
31,8,5,0.10092497178604787,0.022822207693009196
32,0,5,0.07315065329557573,0.015936141142080463
32,1,5,0.04009310508185713,0.023780022496540553
32,2,5,0.06318080806656416,0.01618903957828905
32,3,5,0.023937256005356344,0.013730855725106001
32,4,5,0.21109508035243502,0.011298039786897082
32,5,5,0.0972532497956093,0.022215422987617157
32,6,5,0.02978631638509204,0.024833204691535653
32,7,5,0.10126561658901398,0.027230752087560997
32,8,5,0.07572904914697536,0.01493671480737123
33,0,5,0.05360148453271556,0.010741082824364074
33,1,5,0.058312288265563984,0.016601606816258472
33,2,5,0.04922684545511304,0.008884033258346098
33,3,5,0.05687581043886218,0.016324424746486963
33,4,5,0.12327737057837027,0.01916378130574457
33,5,5,0.11232069022362634,0.011621450315925957
33,6,5,0.08100146278750994,0.017429962768354956
33,7,5,0.07222548229267789,0.020624852236341737
33,8,5,0.08742918013768548,0.01815027655714542
34,0,5,0.17027166057375864,0.016912415269182454
34,1,5,0.08315716103461634,0.01240703349635917
34,2,5,0.11120163475867414,0.007968758086083147
34,3,5,0.0711580655745202,0.015505031607670684
34,4,5,0.13941901360545494,0.002523034799793935
34,5,5,0.10897790449679093,0.006577525943902395
34,6,5,0.06465642147538117,0.020642857250412313
34,7,5,0.14700008047335145,0.02115040320176457
34,8,5,0.12596141007045036,0.020337523036637696
35,0,5,0.10370789905274688,0.004687536879085368
35,1,5,0.021714560383763515,0.008765209183971596
35,2,5,0.02106532198913582,0.011500620216717976
35,3,5,0.03166200428627244,0.016585911114979826
35,4,5,0.08113128422554601,0.01648460200529539
35,5,5,0.10837969031991632,0.011181430828432598
35,6,5,0.010062890187078576,0.006187904635826449
35,7,5,0.05315219888953935,0.006059573014834993
35,8,5,0.06954120142175027,0.021019805156914848
36,0,5,0.06500123247780695,0.015313977081309259
36,1,5,0.11581910412966696,0.017790766926890304
36,2,5,0.0757356591845936,0.011782208593300989
36,3,5,0.09179890624522817,0.008030164147777106
36,4,5,0.16022253801913663,0.020811591038519473
36,5,5,0.12505147793915986,0.01647017920270957
36,6,5,0.062255486401776514,0.009804805244024876
36,7,5,0.137597329697964,0.020161297720085417
36,8,5,0.09571797753986111,0.01941761235209625
37,0,5,0.12362362206754365,0.01663910081566617
37,1,5,0.1180503820204698,0.014457172616025927
37,2,5,0.11690274298660416,0.018005540511049772
37,3,5,0.06358448970166533,0.010590738477291578
37,4,5,0.20860105000738022,0.014927721500171806
37,5,5,0.12218398414358074,0.015238514407947285
37,6,5,0.06662779233048573,0.011112654582342788
37,7,5,0.19080050916934954,0.01316039797295358
37,8,5,0.1098167390943466,0.012334627311510336
38,0,5,0.1226163646594987,0.024742206793118747
38,1,5,0.05691478276781605,0.020390417806820865
38,2,5,0.054701069420820606,0.010858884667947244
38,3,5,0.09318200986057341,0.031738550435158566
38,4,5,0.23991963398462207,0.011546860990087686
38,5,5,0.22131435995135745,0.01987396146588822
38,6,5,0.08086911619117779,0.02596138485374616
38,7,5,0.11849019421963428,0.011128244679711557
38,8,5,0.08365241777377144,0.025602245827793302
39,0,5,0.09589045380822836,0.005513362801742312
39,1,5,0.03463545159616712,0.015301631651665462
39,2,5,0.09501778624714594,0.021909245706710583
39,3,5,0.07248181125834305,0.012515655960787629
39,4,5,0.1750014726137033,0.015391465533836076
39,5,5,0.13870118903837914,0.0069722937730334715
39,6,5,0.04284563245555173,0.009658949115633647
39,7,5,0.12720609369164165,0.014506525006513546
39,8,5,0.07131233959657471,0.01571556637959541
40,0,5,0.17787365491203944,0.013094192117362966
40,1,5,0.0366410338639338,0.016443233685997934
40,2,5,0.0017267321803104085,0.023501216876176883
40,3,5,0.009144217541103816,0.02099241288203112
40,4,5,0.0985963666863467,0.01498843950428745
40,5,5,0.05189020533226747,0.01111978371655534
40,6,5,0.10460059652112404,0.009331911064812248
40,7,5,0.10804765231443252,0.014835709090511679
40,8,5,0.07495801472234576,0.03229926699634746
