epoch,train_ce,train_coral,val_loss,best,subject,coral_lambda
1,0.9249581245815053,0.00011936321200611179,0.6043376046104786,1,1,100.0
2,0.812298791548785,7.377935249036562e-05,0.5323403210156706,1,1,100.0
3,0.7716281407019672,6.205436293384991e-05,0.5325180941801653,0,1,100.0
4,0.7398413041058709,5.4941805694183775e-05,0.5598732343997186,0,1,100.0
5,0.7193887892891379,5.0204467590768164e-05,0.500661507079372,1,1,100.0
6,0.7048471100190107,4.819306366912582e-05,0.5047775531628755,0,1,100.0
7,0.6768931066288667,4.555622506492963e-05,0.5268287202564859,0,1,100.0
8,0.6545742175158332,4.075751299644574e-05,0.4876419457432649,1,1,100.0
9,0.6448091759401209,4.257724401267136e-05,0.4746078494416151,1,1,100.0
10,0.6225298551952138,3.800364776158377e-05,0.5329567325891852,0,1,100.0
11,0.6119641588014715,4.074811881497119e-05,0.47158362490684563,1,1,100.0
12,0.6000520064550288,3.618314450945678e-05,0.45713180679569815,1,1,100.0
13,0.5851527010693269,3.41007999582764e-05,0.47390105127671883,0,1,100.0
14,0.5747075179043938,3.516072341453229e-05,0.4625455915249861,0,1,100.0
15,0.5630005450809703,3.203496782910353e-05,0.43112180965269736,1,1,100.0
16,0.5510544243980856,3.0015815986296408e-05,0.41972870565373005,1,1,100.0
17,0.5390181366135093,3.142215047024793e-05,0.4108686527890281,1,1,100.0
18,0.529535082508536,3.108886067981503e-05,0.39274901915977267,1,1,100.0
19,0.5122073047301349,2.9733246821492418e-05,0.38732203394328674,1,1,100.0
20,0.49503232661415547,3.207176157636294e-05,0.37698849946291274,1,1,100.0
21,0.4833698339322034,3.3031092265018206e-05,0.3960800954326602,0,1,100.0
22,0.48023639181080985,3.1791652145329866e-05,0.3578597845927636,1,1,100.0
23,0.4759577512741089,2.9650923469863996e-05,0.37669032577891387,0,1,100.0
24,0.47134081125259397,2.929136588885312e-05,0.35752002905665164,1,1,100.0
25,0.45652778709636016,2.9928492938993527e-05,0.32915330771453133,1,1,100.0
26,0.44266301533755137,3.0099648639032454e-05,0.3399428938512595,0,1,100.0
27,0.4368860833785113,3.075632245300392e-05,0.3518810398576178,0,1,100.0
28,0.43160477315678314,2.9837940233204898e-05,0.3573076760756563,0,1,100.0
29,0.4214523136615753,3.020784116576097e-05,0.3230481592489497,1,1,100.0
30,0.42846545401741476,3.017355456369628e-05,0.3542550727031593,0,1,100.0
31,0.4167565868181341,2.8002023592468024e-05,0.3364066898884423,0,1,100.0
32,0.40082275096107933,2.9287726540454006e-05,0.31764283742381966,1,1,100.0
33,0.4018173179205726,3.006671654207714e-05,0.32019045169252397,0,1,100.0
34,0.4015599447138169,2.9755534855854314e-05,0.31044153152601917,1,1,100.0
35,0.3871019060120863,2.9948091768721283e-05,0.3163354733367494,0,1,100.0
36,0.3910476309411666,3.2066275365222656e-05,0.31541331573134246,0,1,100.0
37,0.39006185724454767,2.9933729884385898e-05,0.3206590449181313,0,1,100.0
38,0.38804384855663077,2.9151783425785493e-05,0.3110728816446129,0,1,100.0
39,0.38267577921642976,3.050054720541298e-05,0.3091628770608813,1,1,100.0
40,0.383131826449843,3.0378375488319707e-05,0.3116628433334051,0,1,100.0
1,0.91853367581087,0.00011258794218199053,0.5824976742237112,1,2,100.0
2,0.8299063437125263,7.419159558005905e-05,0.5235342326871603,1,2,100.0
3,0.7747118956902448,6.080401707389255e-05,0.594000257824229,0,2,100.0
4,0.7517959349295672,5.819128093528835e-05,0.5178254491671725,1,2,100.0
5,0.7303366696133333,5.401556672415395e-05,0.48002441098018206,1,2,100.0
6,0.7069770308101878,4.5617863810655445e-05,0.5345968324514752,0,2,100.0
7,0.6923051076776842,4.376577119675109e-05,0.4603909570642767,1,2,100.0
8,0.6712525669266196,4.295664197450285e-05,0.45256443399851143,1,2,100.0
9,0.6629135762943941,4.1885612196946406e-05,0.45461687750220453,0,2,100.0
10,0.6464225726969102,4.2852192200371066e-05,0.44691661335232463,1,2,100.0
11,0.635533497614019,4.096748761024655e-05,0.4835450870930066,0,2,100.0
12,0.6219678479082444,3.79299462057294e-05,0.442924761496166,1,2,100.0
13,0.6210420008967904,3.834847846198553e-05,0.43070574641993936,1,2,100.0
14,0.5875810689785901,3.6213659768691286e-05,0.4118828706588166,1,2,100.0
15,0.5788035101750317,3.567098428902682e-05,0.42438493696098345,0,2,100.0
16,0.556402877849691,3.5082620353718726e-05,0.4009404359778485,1,2,100.0
17,0.5478546398527482,3.405000001400956e-05,0.39431897256915055,1,2,100.0
18,0.5390522115370806,3.65652546272887e-05,0.3823690400905593,1,2,100.0
19,0.5221460991046007,3.3977359399774715e-05,0.4015501277808583,0,2,100.0
20,0.5112639865454506,3.329817310954882e-05,0.38757162962021174,0,2,100.0
21,0.5056485344381894,3.043640441747437e-05,0.3932028841565609,0,2,100.0
22,0.49235586138332593,3.193961503497763e-05,0.35309609527520724,1,2,100.0
23,0.48496103637358723,3.1249753759338466e-05,0.369141264962274,0,2,100.0
24,0.476653528213501,3.056664656255367e-05,0.32608876523391905,1,2,100.0
25,0.4658066693474265,3.0255771258346025e-05,0.36361737548709333,0,2,100.0
26,0.4588145540041082,2.9881685087970895e-05,0.3650976245158825,0,2,100.0
27,0.45176032430985397,2.8662474398836767e-05,0.34032210511607863,0,2,100.0
28,0.44527140925912295,3.099285289970473e-05,0.34713631899644765,0,2,100.0
29,0.4372186657260446,3.0099483859992367e-05,0.33315417045538204,0,2,100.0
30,0.425157191472895,3.0186153098303988e-05,0.3437156457971923,0,2,100.0
31,0.4270575284957886,3.047631390098318e-05,0.3388664320732633,0,2,100.0
1,0.9269144591831026,0.0001287822426006425,0.6261396250925951,1,3,100.0
2,0.8129195904447919,8.025722763704835e-05,0.562186229163254,1,3,100.0
3,0.7772027615989957,7.154363872056517e-05,0.5665396600675948,0,3,100.0
4,0.74880227517514,5.768313721567947e-05,0.5850454113398851,0,3,100.0
5,0.7272806330805733,5.65526184540691e-05,0.5581330353553091,1,3,100.0
6,0.7052934297493526,4.928733339208217e-05,0.5528758837129789,1,3,100.0
7,0.686253214875857,4.5249009049473986e-05,0.5476559402701496,1,3,100.0
8,0.6650286614894867,4.619305595302389e-05,0.5538557157820503,0,3,100.0
9,0.6494412968556086,4.731933298292764e-05,0.46301946795455334,1,3,100.0
10,0.6275212136762482,4.321267211014943e-05,0.4609489466277088,1,3,100.0
11,0.6177969049839747,4.4473084731829916e-05,0.5267733183697452,0,3,100.0
12,0.6015542149543762,3.850636262757776e-05,0.46575959768299857,0,3,100.0
13,0.5848556629249028,3.701825636155609e-05,0.5092174347243624,0,3,100.0
14,0.5673234005059514,3.7092542437936314e-05,0.4545434190965796,1,3,100.0
15,0.5541197803048861,3.8159369133999075e-05,0.43350142413394904,1,3,100.0
16,0.5361389759041014,3.4689851309806164e-05,0.4358431114274955,0,3,100.0
17,0.5269241744563693,3.4183846331697643e-05,0.4492526973882549,0,3,100.0
18,0.5079373280916896,3.341117088071076e-05,0.48789057008429204,0,3,100.0
19,0.4931283160334542,3.154905193912869e-05,0.4292556880004454,1,3,100.0
20,0.4796285093540237,3.340061768886655e-05,0.465570063184686,0,3,100.0
21,0.4797718861982936,3.1818699469676217e-05,0.43216875661968157,0,3,100.0
22,0.46405471045346486,3.027985292733536e-05,0.4234728765024778,1,3,100.0
23,0.4637269505432674,3.222057698405392e-05,0.4228274022101327,1,3,100.0
24,0.4537274202420598,2.976490885062265e-05,0.3875461970656853,1,3,100.0
25,0.4400534690136001,3.0266983252485736e-05,0.4111747460034412,0,3,100.0
26,0.4361713517989431,2.9198823497045807e-05,0.4116883083663645,0,3,100.0
27,0.41597880068279447,3.1237434541253606e-05,0.3662909933456067,1,3,100.0
28,0.41195316186973024,2.983974034231367e-05,0.3689801924052083,0,3,100.0
29,0.40589957116615205,3.1850225024668144e-05,0.41394695889272604,0,3,100.0
30,0.40058245367947076,3.064862390341919e-05,0.4291274368777257,0,3,100.0
31,0.4002027774140948,2.967028816177238e-05,0.3891428838611678,0,3,100.0
32,0.38724803640728905,2.941061430170694e-05,0.3885981920152931,0,3,100.0
33,0.3837726279383614,2.875776805835596e-05,0.416646624571525,0,3,100.0
34,0.3734299810159774,2.7288071816569537e-05,0.3922029757373971,0,3,100.0
1,0.9285961880403406,9.446512053460431e-05,0.5985515333326121,1,4,100.0
2,0.824918398436378,6.979633912765969e-05,0.5332260502454562,1,4,100.0
3,0.7867089958751903,6.512784375980332e-05,0.537768632797344,0,4,100.0
4,0.7644049265805413,5.559679069419337e-05,0.48406735655994454,1,4,100.0
5,0.7207237601280212,5.417672449873541e-05,0.4816739757855733,1,4,100.0
6,0.6945880279821508,5.14582445997375e-05,0.45837647189868175,1,4,100.0
7,0.6782135668922873,4.601694445762619e-05,0.4304336143461651,1,4,100.0
8,0.6728191032129176,4.3394236512112377e-05,0.4272851321528496,1,4,100.0
9,0.6362624662763933,4.4601549063158656e-05,0.40098702196423636,1,4,100.0
10,0.6239265575128443,4.1574047110557065e-05,0.4031553255371683,0,4,100.0
11,0.6190210377468782,3.657387162949068e-05,0.4136181887003341,0,4,100.0
12,0.6036449681310093,3.60524352906984e-05,0.36779461598315205,1,4,100.0
13,0.5897279216962702,3.574802236364442e-05,0.39629323950133855,0,4,100.0
14,0.5800454651608187,3.211956279889872e-05,0.37818002217746044,0,4,100.0
15,0.5548353763187632,3.369507210342871e-05,0.3797752372491647,0,4,100.0
16,0.5475517861983356,3.521366833250367e-05,0.390157915655697,0,4,100.0
17,0.5386312316445744,3.277828873251565e-05,0.4182718177952266,0,4,100.0
18,0.5332510422257816,3.225306859616574e-05,0.3694342345092884,0,4,100.0
19,0.5164717197418213,3.142827021399759e-05,0.34508308067660504,1,4,100.0
20,0.513227312705096,3.090227666475317e-05,0.38921483510969695,0,4,100.0
21,0.49600629561087667,2.982326526869335e-05,0.37093329359058436,0,4,100.0
22,0.49273610746159274,3.2815065531073796e-05,0.3878976510635912,0,4,100.0
23,0.48447771177572363,3.06505522423643e-05,0.39865176332895197,0,4,100.0
24,0.4697811887544744,3.250217260381974e-05,0.36752459295932255,0,4,100.0
25,0.45935957326608545,2.7830507807426757e-05,0.3575414398120748,0,4,100.0
26,0.44824814866570867,3.0770468669395676e-05,0.3433390762257302,1,4,100.0
27,0.447926871916827,3.1081824186805856e-05,0.38166780202356637,0,4,100.0
28,0.4313650667667389,2.701845728819642e-05,0.3466402274629073,0,4,100.0
29,0.42799420391812043,2.988252708746586e-05,0.38375651272825706,0,4,100.0
30,0.41974458378904006,2.8716606603291653e-05,0.34526035808073574,0,4,100.0
31,0.4181932722820955,2.937407931740916e-05,0.37248467497453525,0,4,100.0
32,0.40444730765679304,3.1195891129113184e-05,0.356625648777813,0,4,100.0
33,0.40692495808881873,3.0486939623883433e-05,0.3639601928511881,0,4,100.0
1,0.9295496505849502,0.00012009227691177169,0.49348135570954677,1,5,100.0
2,0.8225539179409251,7.103591933093198e-05,0.502127944894275,0,5,100.0
3,0.787787133104661,5.856595093706239e-05,0.4269061029921743,1,5,100.0
4,0.7472437942729276,5.458671918912681e-05,0.4196959952814096,1,5,100.0
5,0.7358579860014074,5.107098952387734e-05,0.4230945133652717,0,5,100.0
6,0.708451881128199,4.629266393963275e-05,0.39440189029764783,1,5,100.0
7,0.6910462316344766,4.194184152498458e-05,0.39192652734995886,1,5,100.0
8,0.6681228616658379,4.337929184497197e-05,0.4702136701591204,0,5,100.0
9,0.6598227528964772,4.053496841687079e-05,0.39457939073661175,0,5,100.0
10,0.6400339673547184,3.8088424994117195e-05,0.3861580677097177,1,5,100.0
11,0.6175434322918163,3.854403184959665e-05,0.4025807601393887,0,5,100.0
12,0.6133032097535975,3.5664314418681896e-05,0.36834742599371084,1,5,100.0
13,0.5869170613148633,3.646828768336598e-05,0.3718732400857581,0,5,100.0
14,0.5775396764278412,3.496744539006613e-05,0.37528603618074063,0,5,100.0
15,0.5623677222167744,3.531127145192038e-05,0.3569424238623682,1,5,100.0
16,0.555499252501656,3.3082153694361775e-05,0.33559202071520383,1,5,100.0
17,0.5421437529956593,3.2651595414362796e-05,0.32922500964557455,1,5,100.0
18,0.526195267719381,3.3186047628131586e-05,0.32687093928798505,1,5,100.0
19,0.5124044200953315,3.0452080018756746e-05,0.32396870890402846,1,5,100.0
20,0.5013500325820025,3.1313921456731965e-05,0.3305861876581432,0,5,100.0
21,0.48038298662971046,3.0073054735754234e-05,0.3309845888018919,0,5,100.0
22,0.48012290737208196,3.0467307442449965e-05,0.3351080799105894,0,5,100.0
23,0.46397970178548026,3.0877055435078493e-05,0.3133316616875767,1,5,100.0
24,0.4673155907322379,3.1120039185385826e-05,0.31067970368645637,1,5,100.0
25,0.4512393961934482,2.818075597186929e-05,0.3131131018688883,0,5,100.0
26,0.4372907382600448,3.060148581639891e-05,0.3039358471654402,1,5,100.0
27,0.42684319124502296,2.8545182238517823e-05,0.29797631166953137,1,5,100.0
28,0.4235704684958738,2.8673508816556184e-05,0.299110195908641,0,5,100.0
29,0.4094196393209345,3.0458387995809864e-05,0.3261792134174723,0,5,100.0
30,0.408016260581858,3.198386417780592e-05,0.30074423646441584,0,5,100.0
31,0.3926787421983831,3.0630098755115315e-05,0.314826272956887,0,5,100.0
32,0.3962172091007233,2.8796831290545765e-05,0.29069482807326663,1,5,100.0
33,0.38682522282880893,3.0102816419778666e-05,0.3013627479525598,0,5,100.0
34,0.3833912914290148,2.9422345901633996e-05,0.2999536143401968,0,5,100.0
35,0.381525682701784,3.128328359761166e-05,0.2969735263067148,0,5,100.0
36,0.37017214158002065,2.9925786678658744e-05,0.29583134989804416,0,5,100.0
37,0.3718492965487873,2.8793748274705758e-05,0.29407775976805944,0,5,100.0
38,0.36908983097356907,2.8416482938850738e-05,0.2970566367399966,0,5,100.0
39,0.365050787785474,3.017315644041553e-05,0.29879919015695505,0,5,100.0
1,0.916451021319344,0.00012357562787829445,0.7536937803767264,1,6,100.0
2,0.8092715846640723,7.228748853820088e-05,0.5980452651663245,1,6,100.0
3,0.7655822570834842,6.242883492155844e-05,0.5949574847635978,1,6,100.0
4,0.7443228513002396,5.2550209147739224e-05,0.5907750905355447,1,6,100.0
5,0.7134622044506527,4.970960868550243e-05,0.5856870296886751,1,6,100.0
6,0.6895032070931935,5.031734625455491e-05,0.552693322443458,1,6,100.0
7,0.672483334229106,4.5170035718911095e-05,0.562577790563212,0,6,100.0
8,0.6457254609891346,4.422787746772796e-05,0.5247360164162962,1,6,100.0
9,0.6365195157982054,3.843235918750343e-05,0.53826478896052,0,6,100.0
10,0.6170816779846237,4.192264854975205e-05,0.4770595299385537,1,6,100.0
11,0.5948756773556981,4.049142236388954e-05,0.48999608995979904,0,6,100.0
12,0.5851138894047055,3.805888194446674e-05,0.5130584508883366,0,6,100.0
13,0.5733974877567518,3.870090319781282e-05,0.5142264788252622,0,6,100.0
14,0.5556732157156581,3.8408877160344714e-05,0.47669761636447183,1,6,100.0
15,0.540200799703598,3.568528011653273e-05,0.4828574138269275,0,6,100.0
16,0.5364423926387515,3.458359818372022e-05,0.44814527510067703,1,6,100.0
17,0.5271107235125133,3.2979496674150664e-05,0.43321147238708124,1,6,100.0
18,0.503215739769595,3.183439072191028e-05,0.4170920465676313,1,6,100.0
19,0.4855798468703315,3.235870582059197e-05,0.4185695773071845,0,6,100.0
20,0.4852979640875544,3.150700770978195e-05,0.4271939066149042,0,6,100.0
21,0.4808409504947208,3.2643889534526915e-05,0.40115848310698526,1,6,100.0
22,0.4611875539024671,3.185971783230863e-05,0.39128229407266296,1,6,100.0
23,0.45466875568741844,3.286064219580675e-05,0.41604022095885557,0,6,100.0
24,0.4519449160212562,3.0376721562268877e-05,0.3855447516706937,1,6,100.0
25,0.44239017899547306,2.877946997700963e-05,0.3876173433421219,0,6,100.0
26,0.43353260095630375,2.9022577585973997e-05,0.3975297056225678,0,6,100.0
27,0.41981673382577445,3.058228037930565e-05,0.40290415517635353,0,6,100.0
28,0.42072851672059014,2.993549042869182e-05,0.38328755368137435,1,6,100.0
29,0.39999741812547046,2.735159909033904e-05,0.3904131719383588,0,6,100.0
30,0.3972058349422046,2.940768182010548e-05,0.37658451854512587,1,6,100.0
31,0.3951307638060479,2.9459111774918884e-05,0.37507579809174124,1,6,100.0
32,0.39244026584284647,2.971940285706729e-05,0.39968678706954114,0,6,100.0
33,0.3779605336132504,2.888081824147819e-05,0.3664990684597261,1,6,100.0
34,0.38210593979983104,3.100224359643887e-05,0.36792443927478247,0,6,100.0
35,0.37145613062949406,2.9407081889249164e-05,0.3697394288044905,0,6,100.0
36,0.37174793013504576,3.0943210190127414e-05,0.36609604477595475,1,6,100.0
37,0.3599544669545832,3.199477409257919e-05,0.36526278368157206,1,6,100.0
38,0.36186799513442175,3.0639752280660016e-05,0.3626694618854803,1,6,100.0
39,0.36519748859462287,2.9997948548130115e-05,0.36643558192036657,0,6,100.0
40,0.3668960141284125,3.111098487265519e-05,0.3627442207869279,0,6,100.0
1,0.9249715634754726,0.00012150953660325503,0.5480595611161796,1,7,100.0
2,0.8281148629529136,7.558049137081806e-05,0.5336026152364474,1,7,100.0
3,0.7686244682187126,6.587798205665811e-05,0.4942557228433826,1,7,100.0
4,0.7400862936462674,6.309857724859502e-05,0.5622044884816773,0,7,100.0
5,0.7191489991687593,5.455483274307058e-05,0.46272545169671064,1,7,100.0
6,0.6917613035156613,5.2809987859551e-05,0.448808374412356,1,7,100.0
7,0.6701235430581229,5.396522434845489e-05,0.47886155191165386,0,7,100.0
8,0.6441653001876104,4.668757516074471e-05,0.42768203737878296,1,7,100.0
9,0.6299039717941057,4.402044377067276e-05,0.4532408842566375,0,7,100.0
10,0.606658381720384,4.345971235254963e-05,0.4209394372033886,1,7,100.0
11,0.5925346215566,4.187048110300869e-05,0.42090938327374394,1,7,100.0
12,0.5816345278705869,4.127009879084653e-05,0.4578956117476064,0,7,100.0
13,0.5611282491258213,4.0167778067933836e-05,0.4019225555193889,1,7,100.0
14,0.5507569107271376,3.7024066711767644e-05,0.3868541605067703,1,7,100.0
15,0.5367311186024121,3.739240333916747e-05,0.3489790642723036,1,7,100.0
16,0.5257599130272865,3.988491462656557e-05,0.3983754173005162,0,7,100.0
17,0.524590752309277,3.288864525616407e-05,0.38673874006657527,0,7,100.0
18,0.5047808484662146,3.642839088310471e-05,0.3559888704161643,0,7,100.0
19,0.5029049710858435,3.4489768473750226e-05,0.34867026980375726,1,7,100.0
20,0.46767253677050274,3.563815239647825e-05,0.36856849303551675,0,7,100.0
21,0.4777485224462691,3.367456251691605e-05,0.3536873357505139,0,7,100.0
22,0.4623597597792035,3.231712066952328e-05,0.3313861715351066,1,7,100.0
23,0.4621015006587619,3.171197758569005e-05,0.32693275265967076,1,7,100.0
24,0.4419296213558742,3.2046321632064756e-05,0.3468754629923327,0,7,100.0
25,0.44404923099847066,3.128769774429245e-05,0.3191251443638299,1,7,100.0
26,0.43173717707395554,3.1399834673114434e-05,0.32779880473424455,0,7,100.0
27,0.42267378987300963,3.4033198343898954e-05,0.33097596380004285,0,7,100.0
28,0.4135956100764729,3.001717667367692e-05,0.31214296417408965,1,7,100.0
29,0.41074576086941217,3.347830534039531e-05,0.3133423762289632,0,7,100.0
30,0.41058038033190225,3.0198232144314152e-05,0.31631403180883083,0,7,100.0
31,0.3963468049963315,3.0323223947042216e-05,0.3222399901683586,0,7,100.0
32,0.3962239321498644,3.0943208501065824e-05,0.3118602667251249,1,7,100.0
33,0.3877224052945773,2.93988528894607e-05,0.3020278281388228,1,7,100.0
34,0.37790299561761675,3.116846608550293e-05,0.31654519167667333,0,7,100.0
35,0.37784439041501,3.0552009190744555e-05,0.3116831140603192,0,7,100.0
36,0.37388486982811064,3.373878228428241e-05,0.3112997014355759,0,7,100.0
37,0.38379830015557154,3.095447159683404e-05,0.30855696303671815,0,7,100.0
38,0.3717209945122401,3.087601200084984e-05,0.30927500341254627,0,7,100.0
39,0.37054132599206197,3.0603456296029476e-05,0.30889721784747076,0,7,100.0
40,0.3725379691237495,2.9879458538960623e-05,0.3074732052983387,0,7,100.0
1,0.9324798477547509,0.00011460122433553417,0.566455942733392,1,8,100.0
2,0.8130103129716146,6.97707655490376e-05,0.6014526492340273,0,8,100.0
3,0.7892350724765232,6.046126323088261e-05,0.500883294844333,1,8,100.0
4,0.7460380246241888,5.592714612811549e-05,0.5277599488355835,0,8,100.0
5,0.7288643036569867,4.553963840624506e-05,0.4835020295801552,1,8,100.0
6,0.6989576646259853,4.626334536321034e-05,0.5232100068305858,0,8,100.0
7,0.6819907916443688,4.2848701382137645e-05,0.49224218741724407,0,8,100.0
8,0.661691087342444,4.2621325866050375e-05,0.4733800344798866,1,8,100.0
9,0.6406275019759223,4.084683141194373e-05,0.5096626303389541,0,8,100.0
10,0.6325930548565728,3.8121708734078786e-05,0.4493090850066708,1,8,100.0
11,0.6190305703452655,3.927074628033248e-05,0.44799699685965283,1,8,100.0
12,0.6048429672207151,3.592045550249168e-05,0.4496429581177427,0,8,100.0
13,0.5842909805831455,3.67024277000469e-05,0.44446714913714874,1,8,100.0
14,0.5852316958563668,3.4016901671358415e-05,0.3943671447216955,1,8,100.0
15,0.5588747550334249,3.611264052475841e-05,0.429444224229622,0,8,100.0
16,0.5451455279475167,3.6548698235925434e-05,0.4532688242672515,0,8,100.0
17,0.5313885360956192,3.4893657638825794e-05,0.40358781269048355,0,8,100.0
18,0.5225540041213944,3.452219858618697e-05,0.39778932979275583,0,8,100.0
19,0.51085452770903,3.238521068331985e-05,0.37292243788639706,1,8,100.0
20,0.5000348215301832,3.2705303792248565e-05,0.41855599853614345,0,8,100.0
21,0.4936980122611636,3.22403655315741e-05,0.40834580821047933,0,8,100.0
22,0.4815253423792975,3.306336440714187e-05,0.390272600351632,0,8,100.0
23,0.466748340853623,3.2388314225716474e-05,0.37709137310556085,0,8,100.0
24,0.4544247587521871,3.0411441046107073e-05,0.36600703214704705,1,8,100.0
25,0.45234591442914235,3.420892642766592e-05,0.40351994429402765,0,8,100.0
26,0.43573063399110523,3.2121883036563216e-05,0.3782079487133343,0,8,100.0
27,0.43242393859795164,3.0814876286707916e-05,0.38334852477919457,0,8,100.0
28,0.42310879982653116,3.1155521680505315e-05,0.38766633122381094,0,8,100.0
29,0.4128322345869882,3.1847977511677615e-05,0.37783047671147674,0,8,100.0
30,0.40526388425912174,3.289266608893134e-05,0.38898112680780694,0,8,100.0
31,0.4052362920982497,3.2136918207470444e-05,0.37388550074804655,0,8,100.0
1,0.9252608084962481,0.00011890073368530942,0.5321036677569746,1,9,100.0
2,0.8236087049756732,7.098753385868068e-05,0.5189768311232218,1,9,100.0
3,0.7720156418425697,6.736624137764531e-05,0.482543538114488,1,9,100.0
4,0.7381098901941663,5.9972187435570436e-05,0.5215219079801712,0,9,100.0
5,0.7189003413631803,5.6361544596126934e-05,0.5239024487862834,0,9,100.0
6,0.6895417521397272,4.828158474386631e-05,0.48470247546998274,0,9,100.0
7,0.6649102298986345,4.7861028806870485e-05,0.432060274796178,1,9,100.0
8,0.6501855765070234,4.2250034420292304e-05,0.424765775932859,1,9,100.0
9,0.6316147404057639,4.348861321410541e-05,0.4479709715679534,0,9,100.0
10,0.6275012773417291,4.347997743198426e-05,0.4248738973003201,0,9,100.0
11,0.609102641187963,3.941979619932161e-05,0.4616729048582789,0,9,100.0
12,0.5938446138586316,3.632214929893962e-05,0.4263933305159149,0,9,100.0
13,0.5728918342363267,3.661558096046931e-05,0.44440445369295456,0,9,100.0
14,0.5670242643072492,3.8223724459385267e-05,0.4201941850857103,1,9,100.0
15,0.561208060099965,3.204639097020845e-05,0.3886588144903263,1,9,100.0
16,0.5342877819424584,3.1485786859688925e-05,0.40030430046860327,0,9,100.0
17,0.5326505388532367,3.093148899053977e-05,0.4022912768776087,0,9,100.0
18,0.5148801285596121,3.22714481843009e-05,0.3998994769201156,0,9,100.0
19,0.4998592056688808,3.4316616100633314e-05,0.37618680933014287,1,9,100.0
20,0.4868444051770937,3.0031403163039138e-05,0.3910370442684807,0,9,100.0
21,0.4773682267183349,3.0134949654547243e-05,0.34422576145009803,1,9,100.0
22,0.47665933626038687,3.0144436810327795e-05,0.3512614440904746,0,9,100.0
23,0.46736949930588406,2.8983773085028154e-05,0.34300562740106844,1,9,100.0
24,0.45855759722845896,3.134204654911411e-05,0.36248351363586856,0,9,100.0
25,0.4483647719025612,3.2093695955111235e-05,0.3643393342442662,0,9,100.0
26,0.4392791982917559,3.1694449457323314e-05,0.3646592847288522,0,9,100.0
27,0.4263092361035801,3.010142728228294e-05,0.34759032902589476,0,9,100.0
28,0.42260209577424185,3.0803117429708694e-05,0.3751965787850315,0,9,100.0
29,0.41759251874117626,3.2611723565337126e-05,0.3466303523630822,0,9,100.0
30,0.4036981708237103,3.289268349925849e-05,0.34847905231368403,0,9,100.0
1,0.9036515474319458,0.000128829842330614,0.6832579087871149,1,10,100.0
2,0.8079828479710747,7.483823184670387e-05,0.640669510035451,1,10,100.0
3,0.7557854343863094,6.371809859582058e-05,0.6535296503218503,0,10,100.0
4,0.7408708376042983,5.355241174744579e-05,0.6454560549879447,0,10,100.0
5,0.7232926221454845,4.76643476063413e-05,0.5986465288064349,1,10,100.0
6,0.702867353663725,4.12429485389593e-05,0.585141723332097,1,10,100.0
7,0.6737100201494554,4.432749337865971e-05,0.579659520019313,1,10,100.0
8,0.6615573560490328,4.166344782895655e-05,0.516542969180829,1,10,100.0
9,0.6450005264843212,4.02659233633826e-05,0.5912028613857269,0,10,100.0
10,0.6227742766632753,3.887646538821761e-05,0.576719627017449,0,10,100.0
11,0.6199651648016536,3.520405065073111e-05,0.5197569874070402,0,10,100.0
12,0.6011731803417206,3.845995362259119e-05,0.5439707451123287,0,10,100.0
13,0.5797500803190119,3.515182449037264e-05,0.5508462195177738,0,10,100.0
14,0.5768083312932183,3.5582061472643334e-05,0.5139933466223223,1,10,100.0
15,0.5599665129885955,3.107318225374911e-05,0.5023481411943524,1,10,100.0
16,0.5498493163024678,3.257230421107071e-05,0.5244159813168492,0,10,100.0
17,0.5390987441820256,3.249130617512171e-05,0.49782850441233606,1,10,100.0
18,0.5139046227230745,3.019932895874851e-05,0.49649211606224647,1,10,100.0
19,0.5143250318134532,3.117224533686086e-05,0.4736386758230444,1,10,100.0
20,0.505296491875368,3.269682084090378e-05,0.46791104700885394,1,10,100.0
21,0.49698961832944083,3.110259263742003e-05,0.5323208375990677,0,10,100.0
22,0.48399733164731196,3.0245326064794105e-05,0.5279017570422675,0,10,100.0
23,0.4774410805281471,2.9015390870935173e-05,0.46776418442598894,1,10,100.0
24,0.4726425875635708,3.092639903222923e-05,0.45000859253238223,1,10,100.0
25,0.4525647727882161,2.9687747027149753e-05,0.5371499789158203,0,10,100.0
26,0.4461717865046333,2.72974612444694e-05,0.4683652676617501,0,10,100.0
27,0.44449290247524487,2.9054241959409624e-05,0.464485680934022,0,10,100.0
28,0.4287838055807002,2.8866580054026974e-05,0.4438198017195683,1,10,100.0
29,0.42966903132550854,2.7325607612403795e-05,0.48777914796247346,0,10,100.0
30,0.4240950139129863,2.689191479636493e-05,0.4688469838400832,0,10,100.0
31,0.4124874654938193,2.5670005732750083e-05,0.4559726941030554,0,10,100.0
32,0.40937059732044445,2.672347663439509e-05,0.47397226854545915,0,10,100.0
33,0.408248285335653,2.7833358078222614e-05,0.4556253952132371,0,10,100.0
34,0.3958069945082945,2.7872337073751943e-05,0.46673775683696483,0,10,100.0
35,0.40069540914367224,2.8188955334104215e-05,0.4639473204006759,0,10,100.0
1,0.9225880783724497,0.00012239428735527503,0.6775208759552661,1,11,100.0
2,0.811695388282638,8.37292409195503e-05,0.5929172157237318,1,11,100.0
3,0.770014019615679,6.343170069333401e-05,0.5884838288226159,1,11,100.0
4,0.7455698373806046,5.680077705926441e-05,0.6173422311995235,0,11,100.0
5,0.7156201162970209,5.3378789305563525e-05,0.5284147224116968,1,11,100.0
6,0.6991718547889986,5.119961731753688e-05,0.5635506603084625,0,11,100.0
7,0.6689331689512873,4.784968253929892e-05,0.5191563139134527,1,11,100.0
8,0.6560497937432255,4.538719962050869e-05,0.5476075947631956,0,11,100.0
9,0.632860682096826,4.16825156229694e-05,0.5012287659511265,1,11,100.0
10,0.6143274788396904,4.0914912899031795e-05,0.5232533328922789,0,11,100.0
11,0.6046641863972307,4.045468407836659e-05,0.4744230357764171,1,11,100.0
12,0.5867550915264221,4.036254796963213e-05,0.46996143468095647,1,11,100.0
13,0.5660630572273071,3.789528384815245e-05,0.4782675148882264,0,11,100.0
14,0.5626754168286381,3.630681733859574e-05,0.46351399172112917,1,11,100.0
15,0.5421437161514558,3.666012486634378e-05,0.5105925635325095,0,11,100.0
16,0.5216792832656079,3.531854987619248e-05,0.4822169058411681,0,11,100.0
17,0.5143200805388302,3.627297690356324e-05,0.48660865583017393,0,11,100.0
18,0.5087775990187403,3.699009581199e-05,0.44797424838053473,1,11,100.0
19,0.49024711495422457,3.5051894839677726e-05,0.46370382536972826,0,11,100.0
20,0.4808214037533266,3.4479415744609e-05,0.46032312586490987,0,11,100.0
21,0.4761237699583352,3.607516485218699e-05,0.462049217297286,0,11,100.0
22,0.4632043899541878,3.391476722359826e-05,0.4324604307353345,1,11,100.0
23,0.4642112976815327,3.0274436441292224e-05,0.4156542561757479,1,11,100.0
24,0.44323250615453147,3.2958098215083254e-05,0.43072893610804325,0,11,100.0
25,0.4427828655903598,3.500537208179068e-05,0.4295110524029062,0,11,100.0
26,0.4239887677761446,3.227320568445307e-05,0.4257438289595533,0,11,100.0
27,0.42441386810268267,3.180549178813887e-05,0.4478292461660019,0,11,100.0
28,0.4117174690746399,3.26609307490163e-05,0.4231908173211362,0,11,100.0
29,0.40182375261582526,3.101669759657907e-05,0.4312712198357993,0,11,100.0
30,0.4093256416809128,3.262032413362884e-05,0.4339511398128034,0,11,100.0
1,0.9289281167263208,0.00011109353342130076,0.6043816138605167,1,12,100.0
2,0.8198049421920333,6.306379361566817e-05,0.5866560031759502,1,12,100.0
3,0.7768035586490187,5.430503991848063e-05,0.5174223141274451,1,12,100.0
4,0.7522232386954996,5.456355397337723e-05,0.5572939276563819,0,12,100.0
5,0.7289027689501296,4.793346270585167e-05,0.5413263267134095,0,12,100.0
6,0.7117774680603383,4.288905381335373e-05,0.5102673729238857,1,12,100.0
7,0.6896800738434459,4.195200021650783e-05,0.5159343341334652,0,12,100.0
8,0.664522074682768,4.385573942441667e-05,0.48253532293300905,1,12,100.0
9,0.6400031662264536,4.198057878204773e-05,0.5114642399740061,0,12,100.0
10,0.6336564435515293,3.827145168500909e-05,0.4391649164056124,1,12,100.0
11,0.6119858431954717,3.697530392369223e-05,0.45324800034950036,0,12,100.0
12,0.6158881263677464,3.3325790418318725e-05,0.433695541836461,1,12,100.0
13,0.5854214516490005,3.6249826375434314e-05,0.4968611482682801,0,12,100.0
14,0.5755783645219581,3.56543252649338e-05,0.45814809491477965,0,12,100.0
15,0.5571418044178985,3.634463407019381e-05,0.39923078881406204,1,12,100.0
16,0.5444339541501777,3.519560213198717e-05,0.42101549123472387,0,12,100.0
17,0.5425484748773797,3.103577243966229e-05,0.40315003621637363,0,12,100.0
18,0.5240486458290455,3.313671152491859e-05,0.4192363142211487,0,12,100.0
19,0.5247213279092034,3.429117957641084e-05,0.40733056927619393,0,12,100.0
20,0.5046650992576466,3.206032240911533e-05,0.41460225300282205,0,12,100.0
21,0.5013878044000891,3.0096323254922956e-05,0.39015899676020444,1,12,100.0
22,0.500079924977103,2.9916837394371533e-05,0.39970547437170867,0,12,100.0
23,0.4833402138116748,2.8630459869312947e-05,0.3873274084468102,1,12,100.0
24,0.4785721326290175,3.014356243088408e-05,0.4121904163636768,0,12,100.0
25,0.46517899840377097,2.9043296435279338e-05,0.3520710496406472,1,12,100.0
26,0.463056052146956,2.7328281840857737e-05,0.4057629624568542,0,12,100.0
27,0.44191901316476423,2.7801892513728722e-05,0.365936595786367,0,12,100.0
28,0.4413954920546953,3.1751371225677864e-05,0.369147766471862,0,12,100.0
29,0.43769664161427074,2.909659639932892e-05,0.38967486785554306,0,12,100.0
30,0.4288991308489511,2.7110912057206977e-05,0.37533881846515516,0,12,100.0
31,0.4258689963540366,2.900156361520626e-05,0.3637495402682084,0,12,100.0
32,0.4175379064887069,2.7178525796930338e-05,0.3476083973163889,1,12,100.0
33,0.41334628989530164,3.044673946512143e-05,0.33656605493683933,1,12,100.0
34,0.4038291029458822,2.727520861595241e-05,0.36011965383078326,0,12,100.0
35,0.39604870628478916,2.9212385438874005e-05,0.349520338859405,0,12,100.0
36,0.3990358242461848,2.7648732823361696e-05,0.3652846410956805,0,12,100.0
37,0.3903093043454858,2.9531595024563166e-05,0.3645712907724863,0,12,100.0
38,0.38348937034606934,2.945988946817653e-05,0.35704982050724304,0,12,100.0
39,0.3851932879797248,2.908358556999511e-05,0.3555794159276976,0,12,100.0
40,0.3864870106064996,2.868494177460508e-05,0.3614498760341744,0,12,100.0
1,0.9366136413244974,0.00012345628064871388,0.5842882697582245,1,13,100.0
2,0.8190674710841406,8.076712215586754e-05,0.6062434909343719,0,13,100.0
3,0.7761348634958267,6.405464715239109e-05,0.6059357538223267,0,13,100.0
4,0.7580135294369289,5.531549944256161e-05,0.5658933124542236,1,13,100.0
5,0.7269319920312791,5.266268362902338e-05,0.4899772382378578,1,13,100.0
6,0.7182276710158303,4.757390130786613e-05,0.46258644211292266,1,13,100.0
7,0.685141839441799,4.17775218444322e-05,0.45119987535476686,1,13,100.0
8,0.6829482451790855,4.2280639328445045e-05,0.4786639528274536,0,13,100.0
9,0.6608154908532188,4.2819776852064974e-05,0.45186553871631624,0,13,100.0
10,0.6406375304574058,3.988345283037883e-05,0.44586042368412016,1,13,100.0
11,0.6307097464090302,3.535523880297357e-05,0.45336895835399627,0,13,100.0
12,0.6221573643741154,3.924102044211828e-05,0.4105060029029846,1,13,100.0
13,0.5952558563578696,3.8539448269148124e-05,0.4216208418607712,0,13,100.0
14,0.5850294810675439,3.5032739799048396e-05,0.4003851931095123,1,13,100.0
15,0.5832432192705926,3.3321185843046154e-05,0.3826404066383839,1,13,100.0
16,0.55910681613854,3.2432128959737295e-05,0.39329025807976725,0,13,100.0
17,0.5590356297436214,3.093943453114618e-05,0.3923842861652374,0,13,100.0
18,0.546681991645268,2.954323876803669e-05,0.36057826524972914,1,13,100.0
19,0.5245694078150249,3.150631077698476e-05,0.3770459417104721,0,13,100.0
20,0.5156517390693937,2.9041240536354874e-05,0.36414989492297173,0,13,100.0
21,0.5053216999485379,3.160770144123013e-05,0.3500187913030386,1,13,100.0
22,0.4852110899630047,3.093981537122523e-05,0.3517202024459839,0,13,100.0
23,0.4908439811496508,2.93111723381333e-05,0.3410087306946516,1,13,100.0
24,0.4705308274853797,3.170777602333276e-05,0.3488154513835907,0,13,100.0
25,0.46382331422397066,3.0079805020206896e-05,0.34778495478630067,0,13,100.0
26,0.44741485693625044,2.9269406717330205e-05,0.36267276671528814,0,13,100.0
27,0.4419782076563154,3.018083935742089e-05,0.33865561236441133,1,13,100.0
28,0.4340409874206498,3.144126445217158e-05,0.3313416835963726,1,13,100.0
29,0.42439954373098554,2.9528612079351053e-05,0.34109994971752167,0,13,100.0
30,0.42628030230601627,3.1107917796665184e-05,0.33593500235676765,0,13,100.0
31,0.419722664923895,3.1695893290989695e-05,0.3401749582439661,0,13,100.0
32,0.41177589339869364,2.9351372653590736e-05,0.3312352017313242,1,13,100.0
33,0.4014354795217514,3.0420758992563823e-05,0.3281715948283672,1,13,100.0
34,0.39676624110766817,2.9828627941155684e-05,0.3276575886309147,1,13,100.0
35,0.40485404644693646,3.07645165039936e-05,0.32455261373519895,1,13,100.0
36,0.3909810760191509,2.9997305925159406e-05,0.32299310770630835,1,13,100.0
37,0.39487126611527945,3.065459207261613e-05,0.32301535895466804,0,13,100.0
38,0.38489652886277154,3.1138996075155557e-05,0.3270120295584202,0,13,100.0
39,0.38276462416563717,3.068018064108661e-05,0.32606083613634107,0,13,100.0
40,0.39060524638210026,3.135785387019583e-05,0.32516083277761937,0,13,100.0
1,0.9207894809274788,0.00011309696198721607,0.6490217351734754,1,14,100.0
2,0.8021913544241205,7.488827715685356e-05,0.6876837243569197,0,14,100.0
3,0.7685026526451111,5.954759504368349e-05,0.5262058357234388,1,14,100.0
4,0.7300769428172743,5.80136389785421e-05,0.5567894902087503,0,14,100.0
5,0.7195373536592506,5.394449810015672e-05,0.42694446276621156,1,14,100.0
6,0.7006650265440884,5.139426480949273e-05,0.4552298549786066,0,14,100.0
7,0.6785654619515661,4.345340682656493e-05,0.4019444742648929,1,14,100.0
8,0.6485105724219816,4.919561773471265e-05,0.43291602962843106,0,14,100.0
9,0.6396897226931101,4.5297044215910417e-05,0.4418950602556336,0,14,100.0
10,0.6358702771634941,3.8679979768923924e-05,0.42987867750991243,0,14,100.0
11,0.5986793831170324,4.1776618300319975e-05,0.4158095340289507,0,14,100.0
12,0.5926692062113659,3.614830225215192e-05,0.3812427577171727,1,14,100.0
13,0.5748725619660803,3.7969922834827776e-05,0.3677235318481115,1,14,100.0
14,0.5576785766934774,3.7369606057420396e-05,0.3589410441684423,1,14,100.0
15,0.5427346987178526,3.594739445613512e-05,0.3805121392573679,0,14,100.0
16,0.5334647243999573,3.4631306422293654e-05,0.3436503970069627,1,14,100.0
17,0.5153117549706654,3.398328623138312e-05,0.360623370427314,0,14,100.0
18,0.5138203128274664,3.378452278280221e-05,0.3388999334574322,1,14,100.0
19,0.49145971831068935,3.18319045443085e-05,0.33510333016457133,1,14,100.0
20,0.48605650124779665,3.359864658924347e-05,0.34251867110590584,0,14,100.0
21,0.47647073110902166,3.134655506358516e-05,0.37633550900612855,0,14,100.0
22,0.4586673400488244,3.210511609525504e-05,0.3383361372260856,0,14,100.0
23,0.46087920091238366,2.9829302120670473e-05,0.3155873865753816,1,14,100.0
24,0.446795243455703,3.0273518136545387e-05,0.3218601492649697,0,14,100.0
25,0.4240232203380171,3.213946392971122e-05,0.33996155499201447,0,14,100.0
26,0.42680961073163043,3.250315470920093e-05,0.33129526475873167,0,14,100.0
27,0.4205310718122735,3.081146176730518e-05,0.3299589895605465,0,14,100.0
28,0.41224798093359155,3.114449516789432e-05,0.31956222083426766,0,14,100.0
29,0.39826038372085754,3.273286748448168e-05,0.32188783559364553,0,14,100.0
30,0.39453610167445907,3.0015368343833048e-05,0.3295231959827576,0,14,100.0
1,0.9133451928695043,0.00012585090120237075,0.795184442498176,1,15,100.0
2,0.8038407095840999,7.54649074137671e-05,0.6665672148486703,1,15,100.0
3,0.7670939515034357,6.242177377793095e-05,0.6075876848825795,1,15,100.0
4,0.7430610188416072,5.845228774671254e-05,0.5724753427985991,1,15,100.0
5,0.7206593837056842,5.4602674957831843e-05,0.5630764627182094,1,15,100.0
6,0.6879935562610626,5.0984195500599784e-05,0.5410270106883973,1,15,100.0
7,0.6760104057334718,4.375999738147671e-05,0.5184976619287553,1,15,100.0
8,0.6494767502659843,4.398652193534266e-05,0.5604776963734581,0,15,100.0
9,0.6406588000910622,4.16894382570241e-05,0.5610415384659612,0,15,100.0
10,0.6267862727954274,3.895066518972661e-05,0.5162095910871326,1,15,100.0
11,0.6133276327025323,3.907598602381768e-05,0.533142156598664,0,15,100.0
12,0.593718310551984,3.746309145450747e-05,0.5204023240623914,0,15,100.0
13,0.5734146624093964,4.03636722477954e-05,0.49172885163960667,1,15,100.0
14,0.5707772434467361,3.3307657195975826e-05,0.4883236555872403,1,15,100.0
15,0.534585969433898,3.712421604567291e-05,0.484350491622588,1,15,100.0
16,0.53429183754183,3.470580040378818e-05,0.44991106426990424,1,15,100.0
17,0.5184584181933176,3.474780112897168e-05,0.45127755981260437,0,15,100.0
18,0.5065092089630309,3.239102835279828e-05,0.4510524153366199,0,15,100.0
19,0.49366488059361774,3.238399254509464e-05,0.42578763450404733,1,15,100.0
20,0.4830720932001159,3.309534297711382e-05,0.43635362132153904,0,15,100.0
21,0.47607469168447314,3.000893790764773e-05,0.45095685579154404,0,15,100.0
22,0.46368770656131564,3.203569388330964e-05,0.44875784146808617,0,15,100.0
23,0.4557260047821772,3.0756578542509704e-05,0.4320687109071783,0,15,100.0
24,0.4554704331925937,3.049225979555645e-05,0.4031431989855135,1,15,100.0
25,0.44291663879439946,2.9632655111657057e-05,0.4326077006657156,0,15,100.0
26,0.4276716237266858,3.080171808549148e-05,0.4412142624953429,0,15,100.0
27,0.41585811440433773,3.025415436414256e-05,0.4431353830616213,0,15,100.0
28,0.41687867293755215,3.085009830967811e-05,0.41789467521226337,0,15,100.0
29,0.40462732705331983,2.9684239009276054e-05,0.43462922408347393,0,15,100.0
30,0.4001899620606786,2.9225741984971266e-05,0.416078509730707,0,15,100.0
31,0.39304804766461965,3.0164216371174136e-05,0.43304756618392676,0,15,100.0
1,0.9215831875801086,0.00012653950137010884,0.9517006547587692,1,16,100.0
2,0.8152540557524737,7.009833617998726e-05,0.8703196081639348,1,16,100.0
3,0.7763036945286919,5.9404319686376874e-05,0.8591747266218668,1,16,100.0
4,0.7393467005561379,5.380831931046594e-05,0.6768422549444146,1,16,100.0
5,0.7109390497207642,5.4021348735071064e-05,0.6848598380756986,0,16,100.0
6,0.6935836034662584,4.482107262233245e-05,0.6229895185006905,1,16,100.0
7,0.6733614451744977,4.213068682207342e-05,0.6797332704193779,0,16,100.0
8,0.6477078837506911,4.369206170154297e-05,0.5851604174150277,1,16,100.0
9,0.6399976583088145,4.188614115906496e-05,0.5419854833062288,1,16,100.0
10,0.6176702239934135,3.797536557934055e-05,0.6497402470835708,0,16,100.0
11,0.6046568260473364,3.94069986000164e-05,0.5419984330164146,0,16,100.0
12,0.5821702283971449,3.651089950033244e-05,0.5358864321766892,1,16,100.0
13,0.5745984487673815,3.37850115422899e-05,0.5052649846375621,1,16,100.0
14,0.5612802764948677,3.4637129711507655e-05,0.5402921398354185,0,16,100.0
15,0.5540834903717041,3.503383458711837e-05,0.49447428503107366,1,16,100.0
16,0.5417706114404341,3.114640789777588e-05,0.46561790964785654,1,16,100.0
17,0.5254046292865977,3.2809956054038865e-05,0.5130121673747992,0,16,100.0
18,0.5119844026425305,3.406230008455596e-05,0.48257844596152094,0,16,100.0
19,0.5010290251058691,3.426030692507458e-05,0.4514053857820049,1,16,100.0
20,0.49934824845370124,3.145164223764475e-05,0.41474840747323005,1,16,100.0
21,0.484743671206867,3.02959257062278e-05,0.4157595761325962,0,16,100.0
22,0.4753984139246099,3.078864339091952e-05,0.4538868221191337,0,16,100.0
23,0.4778343207695905,3.073381314393105e-05,0.41790486405546245,0,16,100.0
24,0.46047590725562154,2.9829686258488115e-05,0.40662567472508504,1,16,100.0
25,0.4471640646457672,3.1755654773031195e-05,0.42763913114359425,0,16,100.0
26,0.43651337097672854,2.7842510548105246e-05,0.4350838982945035,0,16,100.0
27,0.43197727974723366,2.9843119752031806e-05,0.41891424098465346,0,16,100.0
28,0.4234279411680558,3.2246196026201635e-05,0.43890619103949036,0,16,100.0
29,0.4141701291589176,3.0279989882461342e-05,0.402732611794001,1,16,100.0
30,0.4213242460699642,3.095608282070744e-05,0.4098656623922842,0,16,100.0
31,0.4082521501709433,3.337537604880601e-05,0.41986817551772815,0,16,100.0
32,0.3976525571416406,2.820076643889907e-05,0.40520842727708717,0,16,100.0
33,0.3923549655605765,3.0502996656543794e-05,0.41335705530111955,0,16,100.0
34,0.39482619341681985,3.194285230111906e-05,0.40659145734049457,0,16,100.0
35,0.3789005044628592,3.0940795883960914e-05,0.4030623895347498,0,16,100.0
36,0.38348423558122974,3.434222423546838e-05,0.40890778601169586,0,16,100.0
1,0.9088733742036015,0.00011175221161137009,0.7811844203477701,1,17,100.0
2,0.8120170767048756,6.45616484514202e-05,0.7129854393064489,1,17,100.0
3,0.7696116157324917,6.220538397242472e-05,0.6962512515459205,1,17,100.0
4,0.736830266125231,5.593307388010884e-05,0.6996601475752638,0,17,100.0
5,0.7164956912936935,5.056104465077087e-05,0.6343994763091885,1,17,100.0
6,0.687421280217458,4.634707598948391e-05,0.6413302179430301,0,17,100.0
7,0.6729862718697054,4.513094385599168e-05,0.593082077142238,1,17,100.0
8,0.6446741144341158,4.3027013531852376e-05,0.5462956621360507,1,17,100.0
9,0.6227276418582502,4.051713474026141e-05,0.5789197583607851,0,17,100.0
10,0.6174003722437893,4.154282762474066e-05,0.5322393457854087,1,17,100.0
11,0.5959918132747513,4.0933898699551215e-05,0.5394287421169192,0,17,100.0
12,0.5861188675983843,3.915792651066321e-05,0.5592318097388105,0,17,100.0
13,0.5616501914449485,4.042015343547535e-05,0.48327585574252535,1,17,100.0
14,0.56066402218428,3.638502055830294e-05,0.5061347282723097,0,17,100.0
15,0.5364722164280443,3.5224970015844456e-05,0.5545361559277306,0,17,100.0
16,0.5265954786754516,3.6919087330924336e-05,0.4994907730657829,0,17,100.0
17,0.5168076789522745,3.425319169238434e-05,0.47566412738008185,1,17,100.0
18,0.4949935150433736,3.341332878160055e-05,0.4743098216915944,1,17,100.0
19,0.4948221653340811,3.641931812947964e-05,0.4768323842775133,0,17,100.0
20,0.4734353035329336,3.3302801594219496e-05,0.47008540531035725,1,17,100.0
21,0.4787493014192007,3.609874020404244e-05,0.49088103037975217,0,17,100.0
22,0.463180873408375,3.3865444120566686e-05,0.4714805615107369,0,17,100.0
23,0.457259863615036,3.2570922353826686e-05,0.4787862591562812,0,17,100.0
24,0.44393575909626054,3.138855929838505e-05,0.47798546374065837,0,17,100.0
25,0.43550635569066887,3.28660768122589e-05,0.48688183598211654,0,17,100.0
26,0.42648462538259574,3.3074204878515495e-05,0.4500903723241985,1,17,100.0
27,0.4237364649054516,3.1082731908669764e-05,0.4698545827642257,0,17,100.0
28,0.41453795368412893,3.2372810410269736e-05,0.45508053890150146,0,17,100.0
29,0.4140226040259901,3.030893611753253e-05,0.4526316479559175,0,17,100.0
30,0.39444259024528133,3.2551260305644316e-05,0.43313972775421195,1,17,100.0
31,0.3965296452663031,3.264713483208269e-05,0.4572635417319443,0,17,100.0
32,0.3896467996289931,3.019505598479237e-05,0.4386263138811292,0,17,100.0
33,0.38053104425051126,3.2759514802622226e-05,0.44344604449822644,0,17,100.0
34,0.3808045351361654,3.0891690815235094e-05,0.45130090457218824,0,17,100.0
35,0.37500522115144386,3.114359750758144e-05,0.435395649905548,0,17,100.0
36,0.368822220219187,3.033951269385562e-05,0.45463656573757405,0,17,100.0
37,0.37723193793411713,3.2058246041885125e-05,0.4424390933792625,0,17,100.0
1,0.9492713407028553,0.00014234601647246544,0.6124574114294613,1,18,100.0
2,0.8217444295106933,7.32113298168812e-05,0.5820262135357904,1,18,100.0
3,0.7743439099123312,5.923912405790382e-05,0.4925068539902675,1,18,100.0
4,0.7536690623261207,5.676360585713938e-05,0.5174530234877314,0,18,100.0
5,0.7256669637768768,4.613110969478649e-05,0.45504240251682065,1,18,100.0
6,0.7105170010134231,4.564922300084808e-05,0.4847215876774261,0,18,100.0
7,0.6885416057220725,4.612394355336979e-05,0.4756584282584991,0,18,100.0
8,0.6767205658347107,4.295293782106032e-05,0.41853164636250717,1,18,100.0
9,0.651212987511657,4.1855423977574184e-05,0.45318928305353634,0,18,100.0
10,0.6437379832184592,3.9176884266178305e-05,0.44903754477350405,0,18,100.0
11,0.6332254139489906,3.6017368645759214e-05,0.4530627824312645,0,18,100.0
12,0.6186035826455715,3.6234892810847834e-05,0.40818652289156593,1,18,100.0
13,0.6077994936427404,3.3231315767828396e-05,0.3969144543667606,1,18,100.0
14,0.5867189290218575,3.476625271676228e-05,0.3427289798321307,1,18,100.0
15,0.5793640239294185,3.467764487817645e-05,0.3489999713052807,0,18,100.0
16,0.5678717511337857,3.215610368622651e-05,0.34984512986719524,0,18,100.0
17,0.5488813685816388,3.2592484997219925e-05,0.32107673658531055,1,18,100.0
18,0.527152533101481,3.189676232956794e-05,0.35706044881039406,0,18,100.0
19,0.5335316228312116,3.2459001357533134e-05,0.31710360436733687,1,18,100.0
20,0.513986739308335,2.9989569178047362e-05,0.3088112905108433,1,18,100.0
21,0.5107090279113414,2.9777146686006576e-05,0.31952871705059344,0,18,100.0
22,0.4986715444991755,2.883518774006218e-05,0.30229563599765047,1,18,100.0
23,0.4885952628629152,3.2236236282103144e-05,0.27080877619118054,1,18,100.0
24,0.4694912991551466,2.74932086794315e-05,0.29254566005603483,0,18,100.0
25,0.46927889384502586,2.6601720999805854e-05,0.3002199582937287,0,18,100.0
26,0.4590866073619488,2.921806715803118e-05,0.28605109544275825,0,18,100.0
27,0.45630745173886766,2.8039606720910322e-05,0.27731329812808564,0,18,100.0
28,0.4377409046472505,3.0301809496196193e-05,0.2759631041218253,0,18,100.0
29,0.4317060220380162,2.8920524274263e-05,0.2709766168035086,0,18,100.0
30,0.4335637896559959,2.9370991754593317e-05,0.259542574257813,1,18,100.0
31,0.4185541313748027,2.8491030799307548e-05,0.2560982891378478,1,18,100.0
32,0.4163232605124629,2.692800531211867e-05,0.2620135701027628,0,18,100.0
33,0.40671200218588804,2.787853394016396e-05,0.2585206282468061,0,18,100.0
34,0.40952273544877077,2.9943383662273762e-05,0.24720198780169958,1,18,100.0
35,0.39256912955017975,2.8928750103913507e-05,0.2441873863980794,1,18,100.0
36,0.39567540100840637,2.709069616854364e-05,0.24469670877822675,0,18,100.0
37,0.39293706347776014,2.8096546609662637e-05,0.2468535519078096,0,18,100.0
38,0.3874229518480079,3.0253818506533333e-05,0.24525079151436452,0,18,100.0
39,0.3876424944678018,2.9106719519531486e-05,0.24130896299521584,1,18,100.0
40,0.38751099518565246,2.8414937248250448e-05,0.24348980091522893,0,18,100.0
1,0.9258346060911814,0.00012493203038978944,0.5665713792954225,1,19,100.0
2,0.8084342160395214,7.570812037253442e-05,0.5762178587146728,0,19,100.0
3,0.7808547410227004,6.485440406409215e-05,0.5371897873601097,1,19,100.0
4,0.7492972825254712,6.345529090183499e-05,0.5086435599730125,1,19,100.0
5,0.7243612855672836,5.487572867596533e-05,0.5174774135031793,0,19,100.0
6,0.697793185710907,5.180906791359857e-05,0.4929673005556314,1,19,100.0
7,0.6732050329446793,4.931686539965172e-05,0.4765026357521689,1,19,100.0
8,0.662586435675621,4.597491074708246e-05,0.4783351358435912,0,19,100.0
9,0.6515431255102158,4.427725744313821e-05,0.4501224346053792,1,19,100.0
10,0.6311586669513157,4.5457497457218344e-05,0.46104700082272543,0,19,100.0
11,0.6154351326681319,4.3438011029398437e-05,0.4692694032743555,0,19,100.0
12,0.5985072042260852,4.5005408754236886e-05,0.4675541904486743,0,19,100.0
13,0.5796489882327261,4.099015476250705e-05,0.42724049076503584,1,19,100.0
14,0.5624162235430309,3.905518834861661e-05,0.45748760444751485,0,19,100.0
15,0.5519929450182688,3.699602993514245e-05,0.4260728535958694,1,19,100.0
16,0.5449591059060324,3.696218077276994e-05,0.44257334455257036,0,19,100.0
17,0.5250558544482503,3.48053798309896e-05,0.40024469904646837,1,19,100.0
18,0.5146772386062712,3.7263731861631166e-05,0.3944314798406967,1,19,100.0
19,0.5081457775973138,3.893616026505784e-05,0.44921905773625065,0,19,100.0
20,0.49566484171719777,3.6767241843855505e-05,0.3807477704247059,1,19,100.0
21,0.4904953358428819,3.3456299509756114e-05,0.37598582046832957,1,19,100.0
22,0.4653282981543314,3.4229648809698465e-05,0.38492567288765134,0,19,100.0
23,0.4632347999584107,3.675864055756912e-05,0.37267511223124866,1,19,100.0
24,0.4556919595315343,3.191821339160448e-05,0.3698701186348907,1,19,100.0
25,0.44857942561308545,3.377641468475867e-05,0.3646418874352301,1,19,100.0
26,0.43881050036067054,3.165891097350617e-05,0.3705037729279393,0,19,100.0
27,0.4259495760003726,3.267042016627134e-05,0.38359999163659064,0,19,100.0
28,0.42530534842184614,3.311641839467311e-05,0.3900941217580713,0,19,100.0
29,0.4178832826160249,3.067024211607835e-05,0.3699037963406348,0,19,100.0
30,0.41614492379483725,3.2298252054239305e-05,0.3781569665648668,0,19,100.0
31,0.39682824200107936,3.501256235592466e-05,0.3591681315278451,1,19,100.0
32,0.3952031351980709,3.3004231876735245e-05,0.3624283222554598,0,19,100.0
33,0.3978431419957252,3.320988069043822e-05,0.362291856378318,0,19,100.0
34,0.3848156120095934,3.467855475762571e-05,0.36016719453008494,0,19,100.0
35,0.3868152559513137,3.3841965627548885e-05,0.35572877511747614,1,19,100.0
36,0.3817830231218111,3.200829048312569e-05,0.3593390540179954,0,19,100.0
37,0.38415535042683285,3.306273345601983e-05,0.35780666425101626,0,19,100.0
38,0.368039866288503,3.404641267393128e-05,0.358860523826901,0,19,100.0
39,0.38001596750248046,3.324493545300183e-05,0.3663380728003072,0,19,100.0
40,0.3741075322031975,3.2957580190538594e-05,0.3613618614354634,0,19,100.0
1,0.9205191681782404,0.00013250151901697142,0.5726261324707846,1,20,100.0
2,0.8186117510000864,7.495226925259755e-05,0.5871283330285495,0,20,100.0
3,0.7848883391845793,6.230898131997535e-05,0.6309686078889991,0,20,100.0
4,0.7519037262314842,5.802841665821948e-05,0.5151358353790553,1,20,100.0
5,0.7249844939935775,5.5619472710705375e-05,0.5644151903644314,0,20,100.0
6,0.7087681520552862,4.6989350786524096e-05,0.46477778410409265,1,20,100.0
7,0.6762834659644535,4.6727375168605555e-05,0.4321802386062865,1,20,100.0
8,0.6604293237129847,4.255702426581549e-05,0.4377049202140022,0,20,100.0
9,0.6380314443792615,4.2034533505232374e-05,0.42567552936499503,1,20,100.0
10,0.6236838230064937,4.2261911100164674e-05,0.41976768979194035,1,20,100.0
11,0.6016047692724636,4.005333013472929e-05,0.3993160250590682,1,20,100.0
12,0.5969910085910842,3.717515197162616e-05,0.4357816266867642,0,20,100.0
13,0.5702107669342131,3.838458297607195e-05,0.3828112411105179,1,20,100.0
14,0.571626042681081,3.4765615748169476e-05,0.4008466825905901,0,20,100.0
15,0.5500564291363671,3.353713572366923e-05,0.4108165333059549,0,20,100.0
16,0.5292816651718957,3.5141699819567816e-05,0.36181865674718905,1,20,100.0
17,0.5255081245586986,3.530130929686406e-05,0.3727334187037642,0,20,100.0
18,0.5064163800506365,3.3555703794263536e-05,0.3767621915106079,0,20,100.0
19,0.5028538366868383,3.5680636712987466e-05,0.378668148458532,0,20,100.0
20,0.4972267267959459,3.5678842474832585e-05,0.359251583309437,1,20,100.0
21,0.48723896060671124,3.30786341952002e-05,0.3391683012307732,1,20,100.0
22,0.4678589102058184,3.0365482957893707e-05,0.33919725237226506,0,20,100.0
23,0.47318955120586215,3.293383417171537e-05,0.3509023524767293,0,20,100.0
24,0.4478023179939815,3.13460318466241e-05,0.35561747494697044,0,20,100.0
25,0.4498123774925868,3.2496789572178386e-05,0.32873721303530207,1,20,100.0
26,0.43974510828653973,3.4652665146408946e-05,0.3308387549439307,0,20,100.0
27,0.4262545030741465,3.122030648228247e-05,0.34554194080089734,0,20,100.0
28,0.42515040118069874,3.370149585992165e-05,0.33253756992033734,0,20,100.0
29,0.4133556297137624,3.3189885124600204e-05,0.3132292986948909,1,20,100.0
30,0.419386221184617,3.16544337476357e-05,0.3246812138794294,0,20,100.0
31,0.39981430236782345,3.312453981423113e-05,0.34746719715813107,0,20,100.0
32,0.39287602936937693,3.414633220884189e-05,0.32853494786677684,0,20,100.0
33,0.3842162908542724,3.3791514960328295e-05,0.3215565264293233,0,20,100.0
34,0.3847548770053046,3.472004250614278e-05,0.3324879123689952,0,20,100.0
35,0.37847340922980083,3.3326686077219036e-05,0.3120606186498034,1,20,100.0
36,0.3692016072926067,3.345154976029464e-05,0.336001980322466,0,20,100.0
37,0.37978056924683706,3.390550002569355e-05,0.3256383075405368,0,20,100.0
38,0.3700617008975574,3.255677906314044e-05,0.3287988407720172,0,20,100.0
39,0.37079072814612163,3.2360756536252754e-05,0.32568396925382176,0,20,100.0
40,0.38163782265924273,3.45235348287956e-05,0.327749840677077,0,20,100.0
1,0.9137667814890543,0.00012112723786794093,0.6227091161788083,1,21,100.0
2,0.8138892977010637,7.564583354126495e-05,0.6345654086273881,0,21,100.0
3,0.7653614907037645,6.431808097182685e-05,0.5843613590105784,1,21,100.0
4,0.7320077454759961,6.052049299060378e-05,0.5817293715294811,1,21,100.0
5,0.709706989072618,5.472425800689962e-05,0.5553662254359589,1,21,100.0
6,0.6779233061131977,5.3670992916262806e-05,0.5140612991074491,1,21,100.0
7,0.6548894885040465,4.98000986659636e-05,0.4876906837563753,1,21,100.0
8,0.6397448160818645,4.7620828895776956e-05,0.46960611302577304,1,21,100.0
9,0.6178709875260081,4.4694258793329244e-05,0.46185698570481126,1,21,100.0
10,0.5974346690234684,4.234648221903453e-05,0.42516512982593196,1,21,100.0
11,0.593863824293727,4.2701352651333547e-05,0.4397385528236297,0,21,100.0
12,0.5725037863566762,3.840652994941116e-05,0.4485687571174851,0,21,100.0
13,0.553381489501113,3.8191779302516284e-05,0.446281408999893,0,21,100.0
14,0.540088781288692,4.075892015212698e-05,0.39640235963686365,1,21,100.0
15,0.5182832529147466,3.785130114747084e-05,0.43977660781458033,0,21,100.0
16,0.5139953905627841,3.945401037223443e-05,0.4275314140479965,0,21,100.0
17,0.5028773493000439,3.822417208236099e-05,0.38900404035060726,1,21,100.0
18,0.4906793786656289,3.567593533998228e-05,0.3974752214732416,0,21,100.0
19,0.4766860838447298,3.462212234375156e-05,0.42361008218497165,0,21,100.0
20,0.4700601108017422,3.826605511459915e-05,0.37707940177954796,1,21,100.0
21,0.4650267947997366,3.3753640699225275e-05,0.33901563833132736,1,21,100.0
22,0.44868498153629754,3.462738236304999e-05,0.3659772724188664,0,21,100.0
23,0.44440270960330963,3.378257127094132e-05,0.373371062899917,0,21,100.0
24,0.4281422293611935,3.321015763157491e-05,0.35598354363326873,0,21,100.0
25,0.42756338453009013,3.3787625744437155e-05,0.35037702578010893,0,21,100.0
26,0.4088579746229308,3.301824277254387e-05,0.3418702248163431,0,21,100.0
27,0.4071478446324666,3.53756774443138e-05,0.353215915417918,0,21,100.0
28,0.4074510247224853,3.201059972265544e-05,0.3599623927994846,0,21,100.0
1,0.9041833210559118,0.00013760209644498813,0.6699746738235975,1,22,100.0
2,0.7947255039498919,7.963999706546365e-05,0.6769639522144475,0,22,100.0
3,0.750341731167975,6.730440938034527e-05,0.6318817378933896,1,22,100.0
4,0.735342032852627,5.483670944765132e-05,0.6000087594248585,1,22,100.0
5,0.7049941356692996,5.0446431898654696e-05,0.6345260213906925,0,22,100.0
6,0.6852970371643702,5.039593283332319e-05,0.6309905236452511,0,22,100.0
7,0.6620333741108576,5.3984365812149395e-05,0.5921394313695197,1,22,100.0
8,0.6389221839961552,4.368865408347725e-05,0.5958075155724877,0,22,100.0
9,0.6181540063449315,4.8187863068874104e-05,0.5463206518172603,1,22,100.0
10,0.6005321599188305,4.4223582530581294e-05,0.5878677099165459,0,22,100.0
11,0.5861706715964136,4.059710978427098e-05,0.575117418091245,0,22,100.0
12,0.571032566683633,4.3153805282123534e-05,0.5488352558856407,0,22,100.0
13,0.5469954968208358,4.30724914102549e-05,0.5352597860744243,1,22,100.0
14,0.527125803132852,3.922457777402347e-05,0.504113151858436,1,22,100.0
15,0.51238350463765,4.4306342737226735e-05,0.4735517913158791,1,22,100.0
16,0.5065024935063862,3.839143454613458e-05,0.536159880720943,0,22,100.0
17,0.5065836853214672,3.8031439609247695e-05,0.4741678660407845,0,22,100.0
18,0.48631510032074793,3.8011077906828306e-05,0.49748600526165565,0,22,100.0
19,0.47977526237567264,3.551609257729502e-05,0.47634870144874625,0,22,100.0
20,0.46283423474856783,3.573550754611331e-05,0.5047211175101579,0,22,100.0
21,0.45746087389332907,3.5749143340321356e-05,0.48320124535509335,0,22,100.0
22,0.45219858877715613,3.4920097797502035e-05,0.47463425197278525,0,22,100.0
1,0.9285170442836229,0.0001245344062417009,0.5643275782752091,1,23,100.0
2,0.825961345156958,7.538132423326525e-05,0.49810098539180453,1,23,100.0
3,0.7798412573892016,6.681998867100257e-05,0.5211274472039757,0,23,100.0
4,0.7501450548338335,5.584723721556149e-05,0.4577457903805711,1,23,100.0
5,0.7328288208606631,5.177464113647909e-05,0.5021692178101904,0,23,100.0
6,0.7134317714114522,4.757670137413972e-05,0.5054520730816082,0,23,100.0
7,0.6957996411378994,4.551339880827284e-05,0.438039595727798,1,23,100.0
8,0.6678272894648618,4.3538713895074135e-05,0.48579364429251415,0,23,100.0
9,0.6547999638457631,4.2459157368792274e-05,0.42428060930955547,1,23,100.0
10,0.6281016656132632,4.062808359374812e-05,0.4263419268815338,0,23,100.0
11,0.6098120302654976,4.417510040924711e-05,0.45593756936391644,0,23,100.0
12,0.6048017355591752,3.782575219892626e-05,0.41456599414466433,1,23,100.0
13,0.5847241400286208,3.8373991501853304e-05,0.43770406687034114,0,23,100.0
14,0.5715338761030242,3.62952331522328e-05,0.41478007837006414,0,23,100.0
15,0.5580051780440086,3.653777263067706e-05,0.4060980182217865,1,23,100.0
16,0.538354927024176,3.555753946150003e-05,0.4603051667166645,0,23,100.0
17,0.5339072765999062,3.42009924108509e-05,0.3875498446606708,1,23,100.0
18,0.5135786640782689,3.3290828299826434e-05,0.3539365601321628,1,23,100.0
19,0.49534693152405496,3.4056026485158393e-05,0.40208451754122393,0,23,100.0
20,0.49118405753789945,3.285104215793517e-05,0.3774863853335246,0,23,100.0
21,0.4835607354031053,3.12985808324261e-05,0.35794180551261356,0,23,100.0
22,0.4721451273491216,3.261757740611481e-05,0.38061647318709674,0,23,100.0
23,0.4639161464779876,3.3069614420487915e-05,0.3732897153061617,0,23,100.0
24,0.46318209067333577,2.9921434213255728e-05,0.382704557452758,0,23,100.0
25,0.4488397275292596,3.0482730687444294e-05,0.3583917480842672,0,23,100.0
1,0.9160472104946772,0.00013893134261403853,0.7796464467096907,1,24,100.0
2,0.8063342308714276,8.167402622694637e-05,0.7676187931948345,1,24,100.0
3,0.7669754439876193,6.663049212615338e-05,0.7420013302612883,1,24,100.0
4,0.7412336085523877,6.37281860863801e-05,0.6960681944120268,1,24,100.0
5,0.714795266588529,5.3149227759214614e-05,0.6470930300924459,1,24,100.0
6,0.7012345719905126,5.424630362107391e-05,0.6672570080711291,0,24,100.0
7,0.683071758775484,4.650563893110735e-05,0.5881192494440175,1,24,100.0
8,0.659816195567449,4.4939446459985834e-05,0.592893616873243,0,24,100.0
9,0.643098112373125,4.6658554029341934e-05,0.6567804229404279,0,24,100.0
10,0.6258783482369923,4.247887309680837e-05,0.5864371808494634,1,24,100.0
11,0.6027807085996583,4.382613516489593e-05,0.6165911642615853,0,24,100.0
12,0.5804002235333124,4.434010697011781e-05,0.6080200906224579,0,24,100.0
13,0.5698561334893817,4.1839691350885134e-05,0.5720340396892204,1,24,100.0
14,0.5651284612360454,3.933502607434916e-05,0.5326866683086403,1,24,100.0
15,0.5349613449403218,3.942380752570378e-05,0.6208330794475098,0,24,100.0
16,0.5313097969407127,3.699412852819521e-05,0.5854745336661213,0,24,100.0
17,0.5237198908414159,3.549120046521975e-05,0.6085490347734588,0,24,100.0
18,0.5141978817326682,3.439114858511381e-05,0.5842020225217227,0,24,100.0
19,0.4847955036730993,3.5915778794116616e-05,0.5287907432598865,1,24,100.0
20,0.47202713787555695,3.5638545514735773e-05,0.6249216165288016,0,24,100.0
21,0.4719649219796771,3.464014242213341e-05,0.5966772483699476,0,24,100.0
22,0.4541569341506277,3.685474367947401e-05,0.49542762170949206,1,24,100.0
23,0.4508370306520235,3.4085396345333374e-05,0.5563306305482079,0,24,100.0
24,0.43923758289643694,3.4267875564962325e-05,0.495943638251016,0,24,100.0
25,0.44151549147708075,3.519481937733612e-05,0.5203050421814808,0,24,100.0
26,0.42707018625168575,3.3115671158157056e-05,0.4997005539263791,0,24,100.0
27,0.41547482176905587,3.428472997430141e-05,0.5291143367255506,0,24,100.0
28,0.4129721334292775,3.4800736254207244e-05,0.5071872131604898,0,24,100.0
29,0.4036371796613648,3.3423273981454604e-05,0.49117477081323924,1,24,100.0
30,0.4042654594495183,3.2688661056974e-05,0.49473434898564933,0,24,100.0
31,0.3992351708667619,3.1142204231097516e-05,0.5500368002334587,0,24,100.0
32,0.39152036749181296,3.116076208070375e-05,0.5119209149739279,0,24,100.0
33,0.3834383661548297,3.078892192813024e-05,0.5274464995242082,0,24,100.0
34,0.37331985540333246,3.054710894156458e-05,0.5052380284694163,0,24,100.0
35,0.3789288564806893,3.037305632027537e-05,0.4982593473318497,0,24,100.0
36,0.3662766572974977,3.0210548868039733e-05,0.5257091562636951,0,24,100.0
1,0.9316228543009076,0.00010469786944408302,0.567598794157836,1,25,100.0
2,0.8212761680285136,7.093991462170379e-05,0.5704997937294319,0,25,100.0
3,0.7743412809712547,6.27117863024025e-05,0.5241249577710086,1,25,100.0
4,0.7505075683196386,6.296685201266969e-05,0.5098817628963852,1,25,100.0
5,0.7282721669900984,5.457101512244359e-05,0.5110217568650092,0,25,100.0
6,0.7029095781700951,5.5484591354927814e-05,0.5083563296233025,1,25,100.0
7,0.6781935074499675,4.5959775694167805e-05,0.5037838312191982,1,25,100.0
8,0.6743538567707652,4.805977778232773e-05,0.4980021377264614,1,25,100.0
9,0.653028449841908,4.3399771216389215e-05,0.4429241538842319,1,25,100.0
10,0.6201879680156708,4.361971698363916e-05,0.4346415805190022,1,25,100.0
11,0.6124850447688784,3.9518880883059905e-05,0.4027563918689247,1,25,100.0
12,0.5979982387451899,3.9179192126106323e-05,0.40103695853435295,1,25,100.0
13,0.5724153199366161,3.932820189740076e-05,0.43601179684716573,0,25,100.0
14,0.5685402403275172,3.4781308732774397e-05,0.40519549580332137,0,25,100.0
15,0.5513880518930299,3.783215087033958e-05,0.3886325061733514,1,25,100.0
16,0.5414908166442599,3.3403258774861957e-05,0.40135204325424473,0,25,100.0
17,0.5156249641662553,3.4932133573983306e-05,0.3855711235899021,1,25,100.0
18,0.5140298626252583,3.4727775333262147e-05,0.36899774229824844,1,25,100.0
19,0.502801354442324,3.4437018733851366e-05,0.36447767546434157,1,25,100.0
20,0.4891344528822672,3.325760309009984e-05,0.37816775405790726,0,25,100.0
21,0.48025636339471456,3.335743093928267e-05,0.3680784263361388,0,25,100.0
22,0.45840841212442945,3.2069687958504624e-05,0.34676143234704343,1,25,100.0
23,0.4582388503920464,2.999937342316289e-05,0.35528788084475327,0,25,100.0
24,0.45022260149319965,3.1998161159121774e-05,0.34755311194260113,0,25,100.0
25,0.44024485172260375,3.0348954905570108e-05,0.3534630408278204,0,25,100.0
26,0.4302206312616666,3.244871965892214e-05,0.35975497615686663,0,25,100.0
27,0.427259090755667,3.0122936961907682e-05,0.35888394239495397,0,25,100.0
28,0.4194462260320073,3.0550877194660385e-05,0.35452915568062116,0,25,100.0
29,0.407752245309807,3.2109151128506276e-05,0.3430986976667009,1,25,100.0
30,0.3997920226483118,3.189397349550356e-05,0.3465080472473917,0,25,100.0
31,0.3909462544889677,2.9452590253987138e-05,0.3626302315851662,0,25,100.0
32,0.3886092830271948,2.9915628406992516e-05,0.3498890014904995,0,25,100.0
33,0.39504631892556236,3.166461768463099e-05,0.34634287805077235,0,25,100.0
34,0.3780078400103819,2.996495091099946e-05,0.34007180387142977,1,25,100.0
35,0.3677144522468249,3.179054192514741e-05,0.3456859856064411,0,25,100.0
36,0.3671422962631498,3.0432478654672324e-05,0.3440102587474634,0,25,100.0
37,0.37737638219481423,3.251698780375245e-05,0.33678253968499255,1,25,100.0
38,0.3693833752047448,3.094304788863242e-05,0.3381671911720149,0,25,100.0
39,0.36119180030765985,2.8876454594172262e-05,0.3372977951961294,0,25,100.0
40,0.3634259040866579,3.145360062176007e-05,0.3362681003366138,1,25,100.0
1,0.9132390611228489,0.00012275335259238047,0.5598115299772731,1,26,100.0
2,0.8235862169946943,7.20293245692682e-05,0.5559887928658626,1,26,100.0
3,0.7716196236156282,5.900321667424924e-05,0.5119446494357407,1,26,100.0
4,0.748787406654585,4.759496403580886e-05,0.47426403998060024,1,26,100.0
5,0.7308707606224787,4.685600758117895e-05,0.49855440603865,0,26,100.0
6,0.7036800994759514,4.569883503791061e-05,0.46219562983100115,1,26,100.0
7,0.6816633272738684,4.630263555598157e-05,0.4421616924933739,1,26,100.0
8,0.6523318088480404,4.400429666670139e-05,0.4180194228310067,1,26,100.0
9,0.6501811132544563,4.342907548215451e-05,0.4305886333360984,0,26,100.0
10,0.6201594734475726,4.2183680740154594e-05,0.40049203876713635,1,26,100.0
11,0.6024640053510666,3.884973414512517e-05,0.40167554135740824,0,26,100.0
12,0.5917364898182097,3.683366932299188e-05,0.3806142773204678,1,26,100.0
13,0.5636218605296952,4.0152140735742814e-05,0.36625461032805817,1,26,100.0
14,0.5565075597592762,3.687406561290291e-05,0.35550170448032387,1,26,100.0
15,0.5382879489944095,3.783744943488966e-05,0.3564859089989504,0,26,100.0
16,0.523908964225224,3.6149559275058674e-05,0.36494829585773364,0,26,100.0
17,0.516147850170022,3.604458357759064e-05,0.3580462924692321,0,26,100.0
18,0.4930363662895702,3.600944680892142e-05,0.34369877909003665,1,26,100.0
19,0.482036390829654,3.5350436107927676e-05,0.3327323195961182,1,26,100.0
20,0.4729620725626037,3.356959515648279e-05,0.3506453230323831,0,26,100.0
21,0.46833701751061846,3.4306401479019165e-05,0.33671168866419393,0,26,100.0
22,0.4548400913675626,3.431322740999305e-05,0.3344073851565621,0,26,100.0
23,0.4404195241984867,3.377584804790482e-05,0.31532197104864,1,26,100.0
24,0.4512751978777704,3.34685319969486e-05,0.3377947146832716,0,26,100.0
25,0.4327874318474815,3.2162439007758316e-05,0.33656495651987584,0,26,100.0
26,0.43017437486421495,2.9919379574580706e-05,0.31211112826551385,1,26,100.0
27,0.4172183715161823,3.232322008746754e-05,0.3237989597707712,0,26,100.0
28,0.41113909156549544,3.090031014792094e-05,0.2984282814614768,1,26,100.0
29,0.41058369087321417,3.0415285631793916e-05,0.31873083142291525,0,26,100.0
30,0.3969759582763627,2.8974259337354896e-05,0.31062027739971554,0,26,100.0
31,0.3977309866320519,3.2326873592648465e-05,0.32397792957216653,0,26,100.0
32,0.3796888767253785,3.183944006325744e-05,0.3159207519709477,0,26,100.0
33,0.38268904565345674,3.286501552273486e-05,0.31379046985036974,0,26,100.0
34,0.36907197002853664,3.0829969383765797e-05,0.3000089771690597,0,26,100.0
35,0.3734096537033717,3.317008964759658e-05,0.3015838257698614,0,26,100.0
1,0.921226285752796,0.0001230944920583473,0.577583732513281,1,27,100.0
2,0.8160693858351026,7.585399414113323e-05,0.6062914888989105,0,27,100.0
3,0.7723745881091981,6.852828798963899e-05,0.644760158983802,0,27,100.0
4,0.7255677325384957,6.287941228254654e-05,0.6350462994112177,0,27,100.0
5,0.7097080115761075,5.417110501834291e-05,0.5897490459415111,0,27,100.0
6,0.6857172662303561,5.148963022553029e-05,0.5415981818548581,1,27,100.0
7,0.6485777412142072,5.1831818208960436e-05,0.5409856365035902,1,27,100.0
8,0.6345899090880439,5.1165173469295645e-05,0.5151075557899861,1,27,100.0
9,0.617341928538822,4.047437087571043e-05,0.5332884363799926,0,27,100.0
10,0.5991883767502648,4.216950334185163e-05,0.5141469326458479,1,27,100.0
11,0.5811304801276752,3.773148539819106e-05,0.49048211657807894,1,27,100.0
12,0.5679151039747965,3.926282362867607e-05,0.4899234792240236,1,27,100.0
13,0.5568886558924403,4.04705767453249e-05,0.46734914352536683,1,27,100.0
14,0.5365957135245913,4.085938791745104e-05,0.44092228127877237,1,27,100.0
15,0.5326017875756536,3.911641267352804e-05,0.4393320796702072,1,27,100.0
16,0.5065204188937232,3.6713214112318206e-05,0.449824268639329,0,27,100.0
17,0.49939827691941036,3.4785710492239254e-05,0.4467500475978079,0,27,100.0
18,0.49045910295985995,3.0319357154526405e-05,0.4391581447500932,1,27,100.0
19,0.4738694578409195,3.2117140065002746e-05,0.43526646657752605,1,27,100.0
20,0.4766823922594388,3.2187368907172986e-05,0.43085157388617634,1,27,100.0
21,0.45394901079790934,3.233069587406048e-05,0.41212039974778286,1,27,100.0
22,0.4546671484907468,3.3131025182748477e-05,0.4130184424188938,0,27,100.0
23,0.4258978881296657,3.283780001982537e-05,0.40215303996193263,1,27,100.0
24,0.43061310336703346,3.172960491394319e-05,0.4065454271037569,0,27,100.0
25,0.43019445134060724,3.232969402233721e-05,0.39652356454114684,1,27,100.0
26,0.41250177153519224,3.095311452246582e-05,0.40431483454911815,0,27,100.0
27,0.4132636608112426,3.427567799008102e-05,0.42420739755939374,0,27,100.0
28,0.4037339687347412,3.1646853001023245e-05,0.43518233977951987,0,27,100.0
29,0.3857605081228983,3.072494726958601e-05,0.4088881495389861,0,27,100.0
30,0.379551225120113,3.116637725768323e-05,0.38499161486442274,1,27,100.0
31,0.38067258965401424,3.184401882771497e-05,0.3902141298601019,0,27,100.0
32,0.36716160320100333,3.180408215744787e-05,0.3924009136946095,0,27,100.0
33,0.3714363385169279,3.3519275196643626e-05,0.39400103655059326,0,27,100.0
34,0.36440963989921976,3.112826379947364e-05,0.4070803560165741,0,27,100.0
35,0.3650254518503234,3.21143979384769e-05,0.38964774613438347,0,27,100.0
36,0.3549977033620789,3.263045478195723e-05,0.40199539786287647,0,27,100.0
37,0.34852113468306406,3.22081604324575e-05,0.39355150456370613,0,27,100.0
1,0.9276564930166517,0.0001092649568125212,0.5176974501682887,1,28,100.0
2,0.8117064776874724,7.229531976398513e-05,0.5147703432019655,1,28,100.0
3,0.7805494680291131,6.590565555511386e-05,0.4928480652530729,1,28,100.0
4,0.7508280795244944,5.4991773573593016e-05,0.4854620481163961,1,28,100.0
5,0.7263901659420559,5.3298748818113904e-05,0.466928905483507,1,28,100.0
6,0.7161359581209364,5.010116718126699e-05,0.4663572219928091,1,28,100.0
7,0.6769652792385646,4.255410803601817e-05,0.45051139743039675,1,28,100.0
8,0.675636622167769,4.504505566382293e-05,0.43496838883923256,1,28,100.0
9,0.6457295403594062,4.1097048887466025e-05,0.46101571681823617,0,28,100.0
10,0.6335754146178564,4.442156166208276e-05,0.4320257439183877,1,28,100.0
11,0.6230170719680332,3.9891496444830585e-05,0.3950872367062259,1,28,100.0
12,0.5949793014497984,3.82945465519567e-05,0.40264599487651254,0,28,100.0
13,0.5912083461880684,3.832152361567187e-05,0.420935838146757,0,28,100.0
14,0.5793844209540457,3.3987340689886226e-05,0.36747964963765606,1,28,100.0
15,0.5569658297158423,3.415754565053032e-05,0.40199976049600994,0,28,100.0
16,0.5472103602119854,3.0784217350238965e-05,0.36895910778669394,0,28,100.0
17,0.5312199997050422,3.1736980634464306e-05,0.36397710398078725,1,28,100.0
18,0.5158270143327259,3.3064603745255484e-05,0.34764963222140205,1,28,100.0
19,0.505862971501691,3.1988368023337986e-05,0.36022526012531714,0,28,100.0
20,0.4950649415453275,3.185963952914573e-05,0.3477362737764548,0,28,100.0
21,0.4984033430616061,2.9680512657900442e-05,0.3492835688640998,0,28,100.0
22,0.48367855946222943,2.998184979896039e-05,0.324691002831068,1,28,100.0
23,0.4694021003586905,2.8396888865245273e-05,0.33765957341602487,0,28,100.0
24,0.45924219276223865,3.124850157594968e-05,0.31013059590687114,1,28,100.0
25,0.446185633185364,3.2410725387827756e-05,0.3244966261649485,0,28,100.0
26,0.4455741775177774,3.068654162537617e-05,0.32312283813867976,0,28,100.0
27,0.43994872697762083,3.0957333386877074e-05,0.31610127638633406,0,28,100.0
28,0.42287313299519674,2.9623685025269098e-05,0.3316840788946563,0,28,100.0
29,0.4134842710835593,3.122878054758379e-05,0.33128996275998374,0,28,100.0
30,0.4119161977654412,3.169646578542251e-05,0.3302513495017488,0,28,100.0
31,0.39809610197941464,3.0414680774507968e-05,0.3337702607660011,0,28,100.0
1,0.9370732406775156,0.00013383069537147612,0.6065398757132896,1,29,100.0
2,0.822278190936361,7.179979621425792e-05,0.5847268795139685,1,29,100.0
3,0.794144169205711,6.040125793203645e-05,0.5378847392328601,1,29,100.0
4,0.7601953390098753,4.8626463445717016e-05,0.52117580533947,1,29,100.0
5,0.7407776663700739,4.909868502658182e-05,0.5505072735115925,0,29,100.0
6,0.7229991995152973,4.7629088515220375e-05,0.49583330880706905,1,29,100.0
7,0.6927957818621681,4.526754892573254e-05,0.46891706231933633,1,29,100.0
8,0.677079262478011,3.993479159752107e-05,0.47691979256571104,0,29,100.0
9,0.661858469247818,4.080596703542618e-05,0.4468297962511107,1,29,100.0
10,0.6379399299621582,4.09122088794469e-05,0.45976471204530917,0,29,100.0
11,0.6235585170132774,4.013683530415403e-05,0.4318186452578763,1,29,100.0
12,0.6168599174845786,3.69455930402702e-05,0.442228810830104,0,29,100.0
13,0.5949957150788534,3.972027607666123e-05,0.4457382173035629,0,29,100.0
14,0.5773028305598668,3.8119413927363765e-05,0.4284206375211554,1,29,100.0
15,0.5589706869352431,3.5738788829760215e-05,0.39992464114277404,1,29,100.0
16,0.5570965838574228,3.5548589147808906e-05,0.40794684617255833,0,29,100.0
17,0.5385120794886634,3.433589938053739e-05,0.3978422419807292,1,29,100.0
18,0.5219626259945688,3.347623063139812e-05,0.4221223816007452,0,29,100.0
19,0.5164762501205716,3.393508346302302e-05,0.43173604082019285,0,29,100.0
20,0.5070189578192574,3.287635646691862e-05,0.3878198504907613,1,29,100.0
21,0.4930713229945728,3.177253577069634e-05,0.37084020203060847,1,29,100.0
22,0.48168920086962835,3.344723089477546e-05,0.4045899141723515,0,29,100.0
23,0.47377812223775045,2.8706871662940275e-05,0.36150545341496604,1,29,100.0
24,0.4617774408488047,3.367604813320213e-05,0.3910386273670932,0,29,100.0
25,0.4575812355393455,3.220753238305666e-05,0.37149287146590365,0,29,100.0
26,0.44662409240291234,3.102503770995619e-05,0.35085186857184286,1,29,100.0
27,0.4246903895622208,2.9321590253467938e-05,0.38314938004341714,0,29,100.0
28,0.4295490061243375,3.059077934743809e-05,0.3605802547349415,0,29,100.0
29,0.42750120837064015,3.086050903567368e-05,0.3901145427576374,0,29,100.0
30,0.40836842358112335,3.118530321444268e-05,0.3482043426263608,1,29,100.0
31,0.4076270867316496,3.275670288920602e-05,0.38383988848382217,0,29,100.0
32,0.40051746191013426,3.0321640202774213e-05,0.3721227376963608,0,29,100.0
33,0.39878951190483003,3.1241805291280065e-05,0.3803904247621031,0,29,100.0
34,0.395683759025165,3.0948288873506024e-05,0.3711924385288994,0,29,100.0
35,0.390294265179407,3.232289905749245e-05,0.36937794693025033,0,29,100.0
36,0.39101017940612065,3.173571455287553e-05,0.36174602813463286,0,29,100.0
37,0.3825971331624758,3.0101195620989617e-05,0.37044274814637584,0,29,100.0
1,0.9118310451507569,0.00013534862382049836,0.6972199148690631,1,30,100.0
2,0.7946499768425437,8.491737162865534e-05,0.7287108576653473,0,30,100.0
3,0.7542425870895386,7.278119605068829e-05,0.7697805468410109,0,30,100.0
4,0.7267269919900333,6.290030407185173e-05,0.6722961461261291,1,30,100.0
5,0.6997653400196748,5.453781589441111e-05,0.7152169995224619,0,30,100.0
6,0.6715772278168622,5.1108311248861034e-05,0.6398789790539497,1,30,100.0
7,0.6512779684627757,5.018097487182411e-05,0.5993232380155092,1,30,100.0
8,0.6329966355772579,4.561359547712046e-05,0.6202867513893515,0,30,100.0
9,0.617913366766537,4.930245165322798e-05,0.5904832090712178,1,30,100.0
10,0.6112585867152495,4.64624040058184e-05,0.5957572305120397,0,30,100.0
11,0.5818793745601878,4.389484707002446e-05,0.5469471557948,1,30,100.0
12,0.5637103256057291,4.153090117410209e-05,0.5416642942885542,1,30,100.0
13,0.5580353372237261,4.0097115240367954e-05,0.5705563312767417,0,30,100.0
14,0.5450547060545753,3.673679500078673e-05,0.5583673863500942,0,30,100.0
15,0.5231543260462144,4.2058239363113365e-05,0.5315948349956467,1,30,100.0
16,0.5144941403585321,3.739032260508633e-05,0.5525446117714758,0,30,100.0
17,0.49756218300146215,3.9743251031990546e-05,0.4892106895672062,1,30,100.0
18,0.48375583010561324,3.5360253177179186e-05,0.4878342259381688,1,30,100.0
19,0.4672375342425178,3.6434219317229956e-05,0.5134163561375188,0,30,100.0
20,0.4573647197555093,3.259443857292782e-05,0.48258805514005215,1,30,100.0
21,0.44807693923220915,3.521349086333751e-05,0.47777554278044154,1,30,100.0
22,0.4365060715114369,3.579723589235287e-05,0.48475973856096455,0,30,100.0
23,0.42540549215148477,3.685781989856075e-05,0.5515391983127934,0,30,100.0
24,0.424414577554254,3.326764988956069e-05,0.5257125818677716,0,30,100.0
25,0.4136605417027193,3.322677116289817e-05,0.5219792156719912,0,30,100.0
26,0.4010460871107438,3.281429740394849e-05,0.5099943651323932,0,30,100.0
27,0.3997628054198097,3.311511872572523e-05,0.5011305265229322,0,30,100.0
28,0.39690821591545555,3.1395209525191387e-05,0.5079762149498616,0,30,100.0
1,0.9162595426335054,0.0001214245381347342,0.6768623129319368,1,31,100.0
2,0.8147777157671311,7.317011563025196e-05,0.5486100374277835,1,31,100.0
3,0.7729287694482242,6.27178733873948e-05,0.5388596197068115,1,31,100.0
4,0.7491454909829532,5.4878008535631714e-05,0.5168895145203817,1,31,100.0
5,0.7189740573658663,4.710354767346015e-05,0.5022961043152682,1,31,100.0
6,0.707486623175004,4.720592444166815e-05,0.5537729178408963,0,31,100.0
7,0.6783010167234084,4.528421056473984e-05,0.5146587809449531,0,31,100.0
8,0.6605892826529111,4.168912265038885e-05,0.4723927145672088,1,31,100.0
9,0.6523561442599577,4.128562489794978e-05,0.47704857055923944,0,31,100.0
10,0.6251595013281879,4.207460725036285e-05,0.43778126225702607,1,31,100.0
11,0.6173655909650466,3.9777310388779046e-05,0.44284159552282276,0,31,100.0
12,0.5898102493847117,4.092137194889159e-05,0.43756880644308666,1,31,100.0
13,0.5824432537836187,3.794439621475142e-05,0.46247320779200846,0,31,100.0
14,0.5764038408503813,3.8146584098713526e-05,0.4178780881995096,1,31,100.0
15,0.5501163054915036,3.616895082814153e-05,0.44090726147556264,0,31,100.0
16,0.5513006546918083,3.464476394583471e-05,0.36071950840632316,1,31,100.0
17,0.5206286121817196,3.614838165316649e-05,0.349927019732198,1,31,100.0
18,0.5089202628416174,3.478411186626866e-05,0.4134736748582518,0,31,100.0
19,0.5060405345524058,3.28486185240121e-05,0.3701572011795139,0,31,100.0
20,0.4836389892241534,3.164988203720628e-05,0.35440515435551023,0,31,100.0
21,0.48666934476179236,3.410977055061855e-05,0.3611091098767952,0,31,100.0
22,0.48606925326235156,3.1392400042557925e-05,0.3675618404324494,0,31,100.0
23,0.46916022721458883,3.1942720777485243e-05,0.35574115792613964,0,31,100.0
24,0.44674403562265286,3.4946299317251784e-05,0.3494977405918744,1,31,100.0
25,0.45224255814271813,3.248025517249891e-05,0.3425620959778989,1,31,100.0
26,0.4360243474735933,3.352742366105838e-05,0.3382129867233745,1,31,100.0
27,0.433989743976032,3.1735495790866587e-05,0.31273764106441154,1,31,100.0
28,0.4232282908523784,3.106012832979425e-05,0.3222720989290274,0,31,100.0
29,0.41863087205325855,2.840391718885204e-05,0.32770801449358644,0,31,100.0
30,0.407218715022592,3.208810748594046e-05,0.3408192109282637,0,31,100.0
31,0.4024098136845757,3.082364774480298e-05,0.34690653568237106,0,31,100.0
32,0.39849466541234185,3.191554323540699e-05,0.3326294858783311,0,31,100.0
33,0.38857117751065423,3.162178851626402e-05,0.34939507995180435,0,31,100.0
34,0.3923786850536571,3.0323006050072282e-05,0.33082083302805415,0,31,100.0
1,0.9212606190198875,0.0001180247093444965,0.5735083436637636,1,32,100.0
2,0.8214480273694877,8.352587501138325e-05,0.5149452780839499,1,32,100.0
3,0.7736464638307871,7.065661303791588e-05,0.5905797611585936,0,32,100.0
4,0.7555312061884317,6.041421758972462e-05,0.5286387318616126,0,32,100.0
5,0.7176220969981458,5.606055032308999e-05,0.49642962721111883,1,32,100.0
6,0.7091117824416563,5.693626525203125e-05,0.4727725330864036,1,32,100.0
7,0.6813332991427686,5.0598711538211305e-05,0.4701402687873596,1,32,100.0
8,0.6542280179908476,5.0289588665669635e-05,0.4820671337112742,0,32,100.0
9,0.6305279634803175,4.795400055156213e-05,0.4904501328610966,0,32,100.0
10,0.617941643100187,4.567347221666981e-05,0.46416109034761516,1,32,100.0
11,0.5872082631272005,4.6576298152640776e-05,0.45944504051381707,1,32,100.0
12,0.5852539086916361,4.137382845317872e-05,0.4328175409566983,1,32,100.0
13,0.5646480271615177,3.981306243471167e-05,0.436951607465744,0,32,100.0
14,0.542590239679957,4.0899297225650914e-05,0.4611459123810925,0,32,100.0
15,0.5393372863890177,3.957437387813466e-05,0.4687201873260459,0,32,100.0
16,0.5214077008057789,4.257934770395374e-05,0.4526663729027692,0,32,100.0
17,0.5079325024622032,3.855977628112866e-05,0.47103802448692256,0,32,100.0
18,0.4911148537354297,3.631459974230783e-05,0.44846242848794343,0,32,100.0
19,0.4796937786671053,3.55863476325323e-05,0.40238443078563424,1,32,100.0
20,0.4734878299466099,3.602942688960767e-05,0.442163845738228,0,32,100.0
21,0.463161550731544,3.473446054432502e-05,0.49109514121670217,0,32,100.0
22,0.4498775917363454,3.670461568157385e-05,0.3965153752455571,1,32,100.0
23,0.4388778195323714,3.351234803390016e-05,0.43462943304100154,0,32,100.0
24,0.4313454290470445,3.38769968290861e-05,0.39319710698109633,1,32,100.0
25,0.42633554195783224,3.361406629391054e-05,0.4229067596275243,0,32,100.0
26,0.41153720416218403,3.458775433708902e-05,0.4379080448862155,0,32,100.0
27,0.407866507768631,3.147948507786902e-05,0.4327597800086819,0,32,100.0
28,0.4118118921676314,3.1778281953004164e-05,0.40635798177403265,0,32,100.0
29,0.40060871085488653,3.273401969373338e-05,0.4155571957853785,0,32,100.0
30,0.3768122609121254,3.305449991971563e-05,0.40840101624146485,0,32,100.0
31,0.3806246544223234,3.3483956304921615e-05,0.3896653723300692,1,32,100.0
32,0.37550174507750084,3.212351377047767e-05,0.39872746175935125,0,32,100.0
33,0.3772614181759846,3.306700444183486e-05,0.40483622706485495,0,32,100.0
34,0.35903187904013206,3.440951844691355e-05,0.4129628161815723,0,32,100.0
35,0.36566044874938136,3.182995607792428e-05,0.40573707777663626,0,32,100.0
36,0.36650230223874014,3.3381855596910254e-05,0.40619769197838257,0,32,100.0
37,0.36309716087507915,3.3088176207391105e-05,0.41141723059577706,0,32,100.0
38,0.34833171622580794,3.2795905986771336e-05,0.41133594543364427,0,32,100.0
1,0.9149457414944967,0.00011587027299919144,0.7465951150251271,1,33,100.0
2,0.8186486086675099,7.78693253042071e-05,0.6697310289502766,1,33,100.0
3,0.7646580842279252,6.08888134419907e-05,0.6328642746716509,1,33,100.0
4,0.7458752798182624,5.811265747893014e-05,0.6489304758639826,0,33,100.0
5,0.7042850880395799,5.810132002114274e-05,0.6274062449396353,1,33,100.0
6,0.69092406190577,4.691366558247301e-05,0.6108530826631423,1,33,100.0
7,0.6589903260270754,4.472073572157699e-05,0.6523479624023314,0,33,100.0
8,0.6451293450026285,4.2556325297482545e-05,0.5989031641971642,1,33,100.0
9,0.6303159754191127,4.225804973213512e-05,0.5577356952904411,1,33,100.0
10,0.6122914793945494,4.113246008533419e-05,0.519824911098767,1,33,100.0
11,0.5878315159962291,3.699184314124674e-05,0.47314215931331166,1,33,100.0
12,0.5742624582988876,3.9419503926702805e-05,0.5856563108620169,0,33,100.0
13,0.5610857939436322,3.7732097791290254e-05,0.4864217751311509,0,33,100.0
14,0.5335725538787388,3.855481154026902e-05,0.4926911632116239,0,33,100.0
15,0.5219791432221731,3.449090131436519e-05,0.5002752618168291,0,33,100.0
16,0.515884752429667,3.759337165493413e-05,0.47200914908116237,1,33,100.0
17,0.5032619653003556,3.4548342769301687e-05,0.4466910371318434,1,33,100.0
18,0.5029315082799821,3.483114687696798e-05,0.4449686689990805,1,33,100.0
19,0.47786345510255723,3.3661467612199926e-05,0.4150565523518101,1,33,100.0
20,0.459175943618729,3.23779296585209e-05,0.41793460299460233,0,33,100.0
21,0.46149125127565294,3.2818383336537714e-05,0.4559264860097194,0,33,100.0
22,0.4520260230416343,3.233112177743654e-05,0.42786653369865163,0,33,100.0
23,0.44599152356386185,3.280350544324998e-05,0.43358987740563004,0,33,100.0
24,0.43151944130659103,3.1897197177819357e-05,0.3997999526265839,1,33,100.0
25,0.4194229766726494,3.2327300362209955e-05,0.40215182130294685,0,33,100.0
26,0.42215537563675926,3.061504126630358e-05,0.38556138392359113,1,33,100.0
27,0.4133631452208474,3.273791240384786e-05,0.36518160839179187,1,33,100.0
28,0.39808946865655126,3.1091088376775764e-05,0.39242764668117375,0,33,100.0
29,0.3905973711184093,3.115225241518125e-05,0.392857116270415,0,33,100.0
30,0.3981319743962515,3.168963660625325e-05,0.38307385622395707,0,33,100.0
31,0.38164119830443743,3.273713675644969e-05,0.3907625192478614,0,33,100.0
32,0.37615416163489934,3.176413193137878e-05,0.39094101481293375,0,33,100.0
33,0.37695125046940076,3.087213465169909e-05,0.3932382918129417,0,33,100.0
34,0.36623032728121396,3.3700839811076766e-05,0.37920313931329314,0,33,100.0
1,0.9314849284433183,0.00010919991040108947,0.7448748911746452,1,34,100.0
2,0.8243967841068903,7.685188904274365e-05,0.5629455694138829,1,34,100.0
3,0.7912855744361877,6.25163965672809e-05,0.5295361361295773,1,34,100.0
4,0.7573610239085697,5.468948949696607e-05,0.5020337943115384,1,34,100.0
5,0.7304243778898603,5.619065004360718e-05,0.502181788791522,0,34,100.0
6,0.7172198806490216,5.1041168977202945e-05,0.4445185778948983,1,34,100.0
7,0.68051135965756,5.168121370367035e-05,0.44503371132926306,0,34,100.0
8,0.6759147523414522,4.5025821821452284e-05,0.4894826523120443,0,34,100.0
9,0.6626444728601546,4.1471615900047166e-05,0.4275239502589686,1,34,100.0
10,0.6420716696551868,4.0998868631244735e-05,0.40622069637759073,1,34,100.0
11,0.61955574012938,4.027404771650687e-05,0.41640156822737,0,34,100.0
12,0.6090967470691317,4.032411990400371e-05,0.3686692632960993,1,34,100.0
13,0.5919002933161599,3.896789703936693e-05,0.3482656562947153,1,34,100.0
14,0.5735317809241158,3.736274428384994e-05,0.40025298654974734,0,34,100.0
15,0.5626149535888717,3.812298988729405e-05,0.3823072320392153,0,34,100.0
16,0.5454185963386581,3.5283214380061033e-05,0.34160099789339693,1,34,100.0
17,0.539208876589934,3.4703971041814106e-05,0.32182521573710277,1,34,100.0
18,0.5271468957265218,3.207262105726321e-05,0.341996005974367,0,34,100.0
19,0.512429729104042,3.2635330864563695e-05,0.3090072866168008,1,34,100.0
20,0.5007893606310799,3.307380150848379e-05,0.31425701115320526,0,34,100.0
21,0.4911741043130557,3.5068828267304484e-05,0.29936062428556626,1,34,100.0
22,0.4861294400124323,3.158156563845945e-05,0.27258423596883263,1,34,100.0
23,0.47273715159722735,3.1735732980970556e-05,0.2828851318411916,0,34,100.0
24,0.45866465426626657,3.2295295395237013e-05,0.27803454824689555,0,34,100.0
25,0.4481058418750763,3.0764243698892337e-05,0.2786311810356396,0,34,100.0
26,0.43866756842249915,3.3476343062266965e-05,0.26149326333745104,1,34,100.0
27,0.4323745983697119,3.1547253738175465e-05,0.2847014349191126,0,34,100.0
28,0.4233055370194571,3.40724574189586e-05,0.26757121569204284,0,34,100.0
29,0.4230489131240618,3.385226281828918e-05,0.28028230390983044,0,34,100.0
30,0.4107233598118737,3.0051103402954704e-05,0.2740958615714259,0,34,100.0
31,0.412815266421863,3.140286846592928e-05,0.25931451959311086,1,34,100.0
32,0.4005922923485438,2.911511865022476e-05,0.2624214312953767,0,34,100.0
33,0.3981611029732795,3.078790353226525e-05,0.2576707549444258,1,34,100.0
34,0.3998989285457702,3.1154622179417945e-05,0.25069588144746746,1,34,100.0
35,0.3933945362057005,3.033730711519768e-05,0.26177845162637786,0,34,100.0
36,0.3869846133249147,3.0328284819482915e-05,0.2573496815433815,0,34,100.0
37,0.385774712122622,2.960444334392031e-05,0.25090160030400954,0,34,100.0
38,0.3817908504889125,3.068506553712983e-05,0.2558630048119473,0,34,100.0
39,0.38034440186761675,3.1393231979780555e-05,0.2677375150590872,0,34,100.0
40,0.37820446739594143,3.021460701174441e-05,0.2617231539134064,0,34,100.0
1,0.8910727252562841,0.0001317826544046901,0.7165732947755451,1,35,100.0
2,0.7909303917771294,7.915532088580741e-05,0.7672735620136103,0,35,100.0
3,0.7493021672680265,6.545394582991277e-05,0.7600757245374613,0,35,100.0
4,0.7159860389573234,6.096381440286114e-05,0.7607202082872391,0,35,100.0
5,0.6793209307250523,5.892221651308882e-05,0.6838011382039914,1,35,100.0
6,0.6646123081445694,5.457680773750846e-05,0.7953692885223499,0,35,100.0
7,0.6434689746016548,5.0262083905614594e-05,0.6208009146277077,1,35,100.0
8,0.6205559511269841,4.762117069254773e-05,0.7032792828669233,0,35,100.0
9,0.5986965923082261,4.273976113230068e-05,0.5786420874728644,1,35,100.0
10,0.5870500185659954,4.0672179736810944e-05,0.7373198881622188,0,35,100.0
11,0.575100601429031,4.283680549460336e-05,0.653753426449358,0,35,100.0
12,0.5545091476468813,3.9418457444775237e-05,0.6846411076089567,0,35,100.0
13,0.5496756863735971,3.667811818429202e-05,0.6770744065731025,0,35,100.0
14,0.5287255194215548,4.00082294618187e-05,0.5404519025575031,1,35,100.0
15,0.5142087819320815,3.889424334331471e-05,0.6213916845865979,0,35,100.0
16,0.5015126942169099,3.892690121921034e-05,0.5659469738294763,0,35,100.0
17,0.502381627758344,3.41855799368724e-05,0.5600287230177359,0,35,100.0
18,0.480388122300307,3.850760740100495e-05,0.6479028540178517,0,35,100.0
19,0.4815673927466075,3.621954032323196e-05,0.5901926658924453,0,35,100.0
20,0.4617733011643092,3.4243222000354546e-05,0.585349984497817,0,35,100.0
21,0.4604949603478114,3.4757072929399634e-05,0.5587413922444848,0,35,100.0
1,0.9357452294405769,0.00012784343052771874,0.6356358790769658,1,36,100.0
2,0.8320965963251451,7.785284824956976e-05,0.6381078074235871,0,36,100.0
3,0.7768887477762559,6.644848555665436e-05,0.5641647156300186,1,36,100.0
4,0.7517462386804469,5.876450715518063e-05,0.5585391642605524,1,36,100.0
5,0.7100636152660146,5.5514513502096046e-05,0.5073506929982403,1,36,100.0
6,0.676899724146899,5.719339182285373e-05,0.5470908397026267,0,36,100.0
7,0.6658242162536172,4.826000930573654e-05,0.4915002913673883,1,36,100.0
8,0.6391702992074629,4.748336650663987e-05,0.5688961819246374,0,36,100.0
9,0.6257549464702606,4.158594580504167e-05,0.47092510754480704,1,36,100.0
10,0.6049885700730716,4.166169398077353e-05,0.46300810932685116,1,36,100.0
11,0.5855895754169015,4.0458442719468356e-05,0.4550173026616321,1,36,100.0
12,0.5827989066348357,3.792861068230944e-05,0.4683252597622238,0,36,100.0
13,0.5635123109116273,3.815066892831751e-05,0.4230283237283844,1,36,100.0
14,0.5404761598390692,3.6622454760671485e-05,0.37913778305745066,1,36,100.0
15,0.5381780101972468,3.330487567890326e-05,0.4148697065767153,0,36,100.0
16,0.5096544966978185,3.473729925377377e-05,0.3992206831065307,0,36,100.0
17,0.5098008846535402,3.532605311621035e-05,0.41110151969112435,0,36,100.0
18,0.5020920083803289,3.5229323753703606e-05,0.4183181662959178,0,36,100.0
19,0.483281180788489,3.420730048246161e-05,0.36780456611379936,1,36,100.0
20,0.47078958223847783,3.171930406739086e-05,0.38171006229265525,0,36,100.0
21,0.4701701679650475,3.071099732444375e-05,0.3975068557677233,0,36,100.0
22,0.4562109168838052,3.17175365446875e-05,0.34668337128433,1,36,100.0
23,0.4463644192499273,3.165086748006562e-05,0.3798678570798141,0,36,100.0
24,0.43684037818628196,3.5329225262531135e-05,0.33593027074341614,1,36,100.0
25,0.4279187097268946,2.9942290968713623e-05,0.3530832791618141,0,36,100.0
26,0.4123525619506836,3.234438321241588e-05,0.36028660522314504,0,36,100.0
27,0.4131661881418789,3.3049179482451804e-05,0.38102684888316923,0,36,100.0
28,0.4064303082578323,3.2503790305995875e-05,0.3844922090993998,0,36,100.0
29,0.39291502342504614,3.083986127475167e-05,0.37232908393361563,0,36,100.0
30,0.3823313197668861,3.126506374375073e-05,0.35311438460947236,0,36,100.0
31,0.3865047829992631,3.0070394025054102e-05,0.35567094720190184,0,36,100.0
1,0.9242114642087151,0.00015295604980030263,0.7655786372652279,1,37,100.0
2,0.8239196910577662,7.070107299916665e-05,0.5933985123745829,1,37,100.0
3,0.7820034630158368,6.03819803098518e-05,0.4936082688411975,1,37,100.0
4,0.7494965434074402,5.578149699859376e-05,0.4954900180754412,0,37,100.0
5,0.7364003637257744,5.0027337976430046e-05,0.5462473853120824,0,37,100.0
6,0.7197580540881438,4.726381741741481e-05,0.46890917529121334,1,37,100.0
7,0.6909074068069458,4.64943955782527e-05,0.502687932714774,0,37,100.0
8,0.6653686579535989,4.441948703435414e-05,0.47013884670994144,0,37,100.0
9,0.6598207179237815,4.7468591026913866e-05,0.49629478122108645,0,37,100.0
10,0.6308912971440483,4.5148148573763835e-05,0.442257400537015,1,37,100.0
11,0.6222138019169078,4.374673534424373e-05,0.4360200093804503,1,37,100.0
12,0.6035015516421374,4.156392860750202e-05,0.4247763837933663,1,37,100.0
13,0.5804037918062771,4.09670749992502e-05,0.4390187648652391,0,37,100.0
14,0.5779169037061579,4.2513160309788554e-05,0.4218838965751897,1,37,100.0
15,0.5538451145677006,4.02230818187544e-05,0.4606547506730946,0,37,100.0
16,0.5413107833441566,3.642878329949728e-05,0.33694485747250597,1,37,100.0
17,0.5359259226742913,3.928337006500977e-05,0.36432228376753895,0,37,100.0
18,0.5237847619196948,3.652118714800214e-05,0.41469459301521205,0,37,100.0
19,0.5083352155545179,3.624378116322024e-05,0.3888745710085254,0,37,100.0
20,0.5036906947107876,3.603560544434004e-05,0.348322366991244,0,37,100.0
21,0.4915195075904622,3.476664098664461e-05,0.36328719518044994,0,37,100.0
22,0.4839486756745507,3.3612893029759803e-05,0.3805499699690359,0,37,100.0
23,0.46957128047943114,3.3195231684230215e-05,0.34707794868351866,0,37,100.0
1,0.9055175355502537,0.00013727620751610847,0.653261874349938,1,38,100.0
2,0.7994013492550168,8.195905472045222e-05,0.6019509689509508,1,38,100.0
3,0.7625210391623634,7.026926778053166e-05,0.7495779518233723,0,38,100.0
4,0.7305289918468112,6.22585961363733e-05,0.6802977297118705,0,38,100.0
5,0.7068608807665961,5.635360433925165e-05,0.5959878687164493,1,38,100.0
6,0.69099103978702,5.576264757543131e-05,0.6819657682732227,0,38,100.0
7,0.6678333296662285,5.034247245324271e-05,0.595257554613135,1,38,100.0
8,0.6581169395219713,4.909316131878378e-05,0.6892703200461169,0,38,100.0
9,0.6289592818135307,4.5643326800581276e-05,0.5975689623302877,0,38,100.0
10,0.6107987651512736,4.6311726193726786e-05,0.5282221406939906,1,38,100.0
11,0.6026834515588624,4.313543582784838e-05,0.6154245683854377,0,38,100.0
12,0.5793120023750123,4.20239082034511e-05,0.5095528027277663,1,38,100.0
13,0.557230382448151,4.4014313364944733e-05,0.5153308011698747,0,38,100.0
14,0.5502938287598746,4.2519896634898724e-05,0.5581951925548615,0,38,100.0
15,0.5354867790426526,4.1570506558249086e-05,0.531271723301279,0,38,100.0
16,0.5270241090939158,4.0863655418174206e-05,0.6179901894900692,0,38,100.0
17,0.5029055873552958,4.2681809450836484e-05,0.46007700749075287,1,38,100.0
18,0.5000368214788891,3.691968116808788e-05,0.46100183415150664,0,38,100.0
19,0.48913869119825815,3.549877445558585e-05,0.5077559093089608,0,38,100.0
20,0.47847406495185124,3.74529157029645e-05,0.5060066334029407,0,38,100.0
21,0.4776440447285062,3.719341629264472e-05,0.48848893827729645,0,38,100.0
22,0.4544036817692575,3.470103127342771e-05,0.5315384948727612,0,38,100.0
23,0.45356071882304694,3.301122534962598e-05,0.5032938651380287,0,38,100.0
24,0.43991260124104364,3.4121215689776275e-05,0.49870557255102393,0,38,100.0
1,0.9242895869647756,0.00014337656860280892,0.6345534655765358,1,39,100.0
2,0.8297752548666562,8.330965852912734e-05,0.6795890499987528,0,39,100.0
3,0.7727711565354292,7.351601221564445e-05,0.5308957976567281,1,39,100.0
4,0.7523119162110722,5.97662157173652e-05,0.5434750077000449,0,39,100.0
5,0.7253909223219928,6.34384759263519e-05,0.5159604283335542,1,39,100.0
6,0.6990120200549855,5.228434037074776e-05,0.5136336734858552,1,39,100.0
7,0.6811482724021463,5.027637960344745e-05,0.535992542378014,0,39,100.0
8,0.6510687989347121,4.6773575955097946e-05,0.5027076802197957,1,39,100.0
9,0.6417936381171732,4.590501110428972e-05,0.528310999082707,0,39,100.0
10,0.6246558795957005,4.156642749234486e-05,0.4648767546048349,1,39,100.0
11,0.5947883518303142,4.4677933820982135e-05,0.5625370351063014,0,39,100.0
12,0.5938068842186647,3.749154245323392e-05,0.4558459173659889,1,39,100.0
13,0.5692626472781687,3.942274952885996e-05,0.4494285946615631,1,39,100.0
14,0.5635909318923951,3.6296619873610327e-05,0.4626935765842307,0,39,100.0
15,0.5457499107893775,3.5424005695591295e-05,0.4646487072852667,0,39,100.0
16,0.5391208017573638,3.500688807809424e-05,0.43159651606307403,1,39,100.0
17,0.5176985028912039,3.442722578149508e-05,0.4533520336446777,0,39,100.0
18,0.5067363805630628,3.481755186786519e-05,0.46209631136623736,0,39,100.0
19,0.5028122200685389,3.518405328042504e-05,0.41437691747707806,1,39,100.0
20,0.4803860555676853,3.429988826289499e-05,0.4498810524625959,0,39,100.0
21,0.4774666551281424,3.460394505322363e-05,0.3889892291758489,1,39,100.0
22,0.47001424852539514,3.1995867881478795e-05,0.38428125197742713,1,39,100.0
23,0.46322978945339427,3.292846364167738e-05,0.4263787864365045,0,39,100.0
24,0.45263152578297783,3.298534692850594e-05,0.40311253934371954,0,39,100.0
25,0.4464234516901128,3.177491275624454e-05,0.41041060555069697,0,39,100.0
26,0.4289820905993966,3.155506085878348e-05,0.38284307630402387,1,39,100.0
27,0.4260489772347843,3.208245483726975e-05,0.40031475858333854,0,39,100.0
28,0.42194590919158037,3.161345660320127e-05,0.40162623778682643,0,39,100.0
29,0.40718690104344313,2.9438430112136034e-05,0.43290875405872925,0,39,100.0
30,0.40470608718254986,3.0462841074468624e-05,0.4019200768180561,0,39,100.0
31,0.39873350174988015,3.138480571899837e-05,0.38812550351225095,0,39,100.0
32,0.3950276153929093,3.0514201267471757e-05,0.3949159339476123,0,39,100.0
33,0.3881085024160497,2.9812876442413065e-05,0.3989153734711684,0,39,100.0
1,0.9154794691574006,0.000131679188944829,0.7969517016680577,1,40,100.0
2,0.8155783925737653,8.59864026746696e-05,0.7216847173739783,1,40,100.0
3,0.7695091146798361,6.897840917407025e-05,0.7926654890828765,0,40,100.0
4,0.7373865551891781,6.121642733584547e-05,0.7410954714032378,0,40,100.0
5,0.7134331684736979,5.428295402712787e-05,0.6534406688111218,1,40,100.0
6,0.6949728677670161,5.517277319692463e-05,0.6410401710142297,1,40,100.0
7,0.6749929721866336,5.3766215127585125e-05,0.6414787442480202,0,40,100.0
8,0.6494090230692,4.909448831486294e-05,0.6595495982241654,0,40,100.0
9,0.638552643713497,4.521855583204472e-05,0.6252793204057366,1,40,100.0
10,0.6253457789619764,4.932502618733755e-05,0.5917426794911631,1,40,100.0
11,0.6055971334377924,4.1929906577327834e-05,0.6020883085478426,0,40,100.0
12,0.5963533222675323,4.463346985652433e-05,0.6000691304940798,0,40,100.0
13,0.5788609694157328,4.055440850996612e-05,0.5966599442764381,0,40,100.0
14,0.5714352769511086,3.9532156214201155e-05,0.640666532947791,0,40,100.0
15,0.558145668889795,3.832507826744058e-05,0.6284574446667776,0,40,100.0
16,0.5293951698002362,3.814654307158586e-05,0.6094137568888682,0,40,100.0
17,0.5297671691292808,3.72185137123216e-05,0.5917759819095098,0,40,100.0
