subject,channel,r,f1_drop_mean,f1_drop_sd
1,0,5,0.1391320780805096,0.015394347329251035
1,1,5,0.10372940024538554,0.015685425433709498
1,2,5,0.08902387191157275,0.008374500638260438
1,3,5,0.061007299359287816,0.008431376800574434
1,4,5,0.054379693168035106,0.01270019581432467
1,5,5,0.11465310184601545,0.021184750646383466
1,6,5,0.04251136658957513,0.008841377208206607
1,7,5,0.1312816448213015,0.007986900735842394
1,8,5,0.07717166428485567,0.016999208252444397
2,0,5,0.1088786875109535,0.0232270617684468
2,1,5,0.07440676103190284,0.005605992363153764
2,2,5,0.09110133801055416,0.021610452604450315
2,3,5,0.05695528485318788,0.02962574610731288
2,4,5,0.1479533786370762,0.006301888257277229
2,5,5,0.12526920403056832,0.01730885900182223
2,6,5,0.060051694611940064,0.01390017635340921
2,7,5,0.10156466905375468,0.015722303161739528
2,8,5,0.09236455369762067,0.009019107496797187
3,0,5,0.10855905398891605,0.02075358038257938
3,1,5,0.06207757090622275,0.005702856040663487
3,2,5,0.13735599605430523,0.005335998863609824
3,3,5,0.08853444536738589,0.011366865294274681
3,4,5,0.11928106894644912,0.024720507857608365
3,5,5,0.09916867912378373,0.017624026337101053
3,6,5,0.04380108639751053,0.0056261906631756824
3,7,5,0.12110117841672921,0.009219565855521214
3,8,5,0.08822797702048699,0.013015235786270745
4,0,5,0.03916481813049042,0.02337856480287626
4,1,5,0.09846016258862489,0.026001057153704616
4,2,5,0.07461425844957051,0.019331769291797522
4,3,5,0.10917703632654656,0.013870781187085063
4,4,5,0.21113624656727303,0.022107686339358817
4,5,5,0.1369675989598224,0.02337743097159641
4,6,5,0.05611440447205947,0.013901972340112043
4,7,5,0.08073999926751071,0.012322945759884034
4,8,5,0.10790971695754151,0.016096006288210063
5,0,5,0.06635831385405147,0.014422265798362775
5,1,5,0.023899040265292593,0.024652033671979844
5,2,5,0.059182412034165854,0.01652461899132562
5,3,5,0.009940900217163252,0.007183392098383114
5,4,5,0.08110656732548518,0.017662776008871638
5,5,5,0.06503401466294474,0.011130928133343607
5,6,5,0.039660796656603915,0.006834624147035642
5,7,5,0.053435220261109896,0.015296638793583723
5,8,5,0.09668003919370141,0.009814449446427467
6,0,5,0.13014496885539906,0.024709623062732246
6,1,5,0.06099702344367382,0.01998700599784384
6,2,5,0.04929767337709776,0.016983546288619582
6,3,5,0.04206005751595261,0.015228117632471103
6,4,5,0.1529766062782449,0.017441259008407643
6,5,5,0.08612726779374287,0.023246620164326832
6,6,5,0.06012298029113576,0.01748257258418387
6,7,5,0.10739013775333706,0.020231916451670207
6,8,5,0.1307738190235376,0.022558533844360597
7,0,5,0.12482871709194596,0.01690932190917643
7,1,5,0.0821314043113455,0.024651898861314175
7,2,5,0.15572700647968973,0.025085268446381422
7,3,5,0.051800737935836595,0.017541246585466432
7,4,5,0.145190799765649,0.024019499994037824
7,5,5,0.10439105577676144,0.012507595458722624
7,6,5,0.036900162579901565,0.016864640071602467
7,7,5,0.1427674747221793,0.0255484541793267
7,8,5,0.09576407330254928,0.009620057801519461
8,0,5,0.1420087724516432,0.014684587602633232
8,1,5,0.07605014951795563,0.012871099045724225
8,2,5,0.045933024971569855,0.010258627120263066
8,3,5,0.09970687465356351,0.008816704391042148
8,4,5,0.1693432119479657,0.03235049051623807
8,5,5,0.16718197864325093,0.009929905482528196
8,6,5,0.07226627286186778,0.015103126382617498
8,7,5,0.15709096540983877,0.01967395091093705
8,8,5,0.08926620673131373,0.016839082645923008
9,0,5,0.09329729148542834,0.01873830334465892
9,1,5,0.11902733965369952,0.02258465106564871
9,2,5,0.08489645133599406,0.014242127444423248
9,3,5,0.02937551296055483,0.009915064203592465
9,4,5,0.1144401762332576,0.017018081261684703
9,5,5,0.08181100280890792,0.008091169425801643
9,6,5,0.04060048503375104,0.015026507087221464
9,7,5,0.14601879898925257,0.013397389765176348
9,8,5,0.08303592889863456,0.018286125555909433
10,0,5,0.10013222639499378,0.015819991679006384
10,1,5,0.033199828045327215,0.0240270431967353
10,2,5,0.031877837576265944,0.025822483299433464
10,3,5,0.1052301995367831,0.03246824647768116
10,4,5,0.13125564485124255,0.019584917544701222
10,5,5,0.1288548058602231,0.023528002136137455
10,6,5,0.0015378394008660034,0.01050503526496853
10,7,5,0.07491566165857381,0.013339403253035354
10,8,5,0.10786804682580484,0.02059524712742863
11,0,5,0.159275696848238,0.013262456143175309
11,1,5,0.07154597797756579,0.010354728442899133
11,2,5,0.09453823992571772,0.015208434579847413
11,3,5,0.08980508483000918,0.020159346475001252
11,4,5,0.16247096533840416,0.006590352807130663
11,5,5,0.08841585653941102,0.011128918309685596
11,6,5,0.03643220258632503,0.01011187060346268
11,7,5,0.09531142451590009,0.013250606775013557
11,8,5,0.09486750695649541,0.017610852962222916
12,0,5,0.07716867673193628,0.005733172366334932
12,1,5,0.0756618629200821,0.018240398231968574
12,2,5,0.16151243976859872,0.022471416672517695
12,3,5,0.09749053499629065,0.02580227447146022
12,4,5,0.11591083456990417,0.02202022891825131
12,5,5,0.05291941211635696,0.017013994640494003
12,6,5,0.038318044504884116,0.012697224989019724
12,7,5,0.08709648015665335,0.01630981374481778
12,8,5,0.08995880790477181,0.012075061850146881
13,0,5,0.12880693968264373,0.007535697876830186
13,1,5,0.07463852999757566,0.01681026467603268
13,2,5,0.0959032261199029,0.0175107783093203
13,3,5,0.052883412879421755,0.01283174122794546
13,4,5,0.1401067728903058,0.018421064301083458
13,5,5,0.17795365001454,0.02638176598929508
13,6,5,0.07031927048477171,0.011117287569537155
13,7,5,0.09516264184785714,0.01349027171294479
13,8,5,0.08323483662637336,0.018778763774559514
14,0,5,0.08559009574615153,0.019591731511404555
14,1,5,0.06896678801826298,0.017244920729893636
14,2,5,0.048216954695432766,0.018480036125015392
14,3,5,0.10584834267117879,0.008282266867109419
14,4,5,0.17677851759967028,0.0134376587754905
14,5,5,0.07892147118183838,0.005384422588681813
14,6,5,0.025159078477985198,0.009274222807055872
14,7,5,0.09537447981986458,0.011965886807224522
14,8,5,0.09227371989968933,0.01395667351135225
15,0,5,0.10870757678065215,0.02486073685908763
15,1,5,0.11140791338231355,0.015331046023330666
15,2,5,0.1348771162463675,0.016134478794343418
15,3,5,0.09807725535361,0.009976600242715784
15,4,5,0.18110165382730822,0.0057252696705293185
15,5,5,0.13484683382763457,0.011197934925277986
15,6,5,0.04481892353003223,0.017459755486534712
15,7,5,0.08716264337302992,0.017089378833092566
15,8,5,0.0785897990963866,0.024892617707736757
16,0,5,0.09180256191690792,0.013718759612898904
16,1,5,0.08193403021907,0.021511090422821944
16,2,5,0.09766232768422059,0.013610074692561753
16,3,5,0.0318504012885068,0.00809726245868227
16,4,5,0.07624675120319029,0.025476725035152963
16,5,5,0.08869882146913119,0.013520926457690083
16,6,5,0.017525784028114534,0.00984060142402385
16,7,5,0.10549761819130976,0.014515262738509187
16,8,5,0.10519331034548814,0.016578054037420038
17,0,5,0.11414024640226535,0.02036679118904047
17,1,5,0.07701791815476637,0.02006300400574456
17,2,5,0.11366607184212338,0.0093806669197264
17,3,5,0.05976934747191072,0.02205269924316174
17,4,5,0.14047393811766168,0.014077136052147311
17,5,5,0.1738534327845634,0.00974676308230185
17,6,5,0.10579997027041763,0.008093092737256056
17,7,5,0.08662586485893412,0.01773524431558018
17,8,5,0.07022261127559662,0.016393883013745152
18,0,5,0.10705777103083532,0.018785981306291107
18,1,5,0.07204552222207199,0.017086308887436272
18,2,5,0.08243895238561685,0.014198869458563659
18,3,5,0.1082704419923495,0.023450876511753167
18,4,5,0.08674057084160905,0.016414567046773312
18,5,5,0.14214892594767187,0.011303009430427703
18,6,5,0.07883628653027153,0.010503597195508434
18,7,5,0.12632853900651958,0.021916734142358084
18,8,5,0.05511854031253571,0.010196232560156495
19,0,5,0.06957812859039054,0.011005314904957547
19,1,5,0.060075567637172436,0.018631669924142443
19,2,5,0.08628611509672815,0.01247721149705257
19,3,5,0.10889491738862958,0.012017005326570797
19,4,5,0.08606899509252412,0.015258138030580915
19,5,5,0.08515629082054665,0.018734530280819426
19,6,5,0.04981776674234926,0.008880661109282763
19,7,5,0.12041055357547119,0.015224167927739436
19,8,5,0.08632945377473078,0.020347486785281636
20,0,5,0.07917317158068812,0.020125707195371094
20,1,5,0.10146415934581843,0.012467959295526448
20,2,5,0.09673575170504037,0.012443935439174022
20,3,5,0.06095981156255239,0.018564672062574047
20,4,5,0.14298239180990552,0.02170799600882359
20,5,5,0.13855170818157808,0.01509217939328388
20,6,5,0.041067781169681815,0.014089427159873238
20,7,5,0.0978949402693728,0.01638558823062777
20,8,5,0.13408728985002255,0.009294525940675806
21,0,5,0.15011865968787402,0.013131517671994481
21,1,5,0.07823626392389782,0.02357679903439006
21,2,5,0.08923508520933279,0.012458186449848361
21,3,5,0.07937671171175953,0.03625619939291864
21,4,5,0.14889024940867768,0.018670139249806633
21,5,5,0.15545171854430878,0.009073779481607426
21,6,5,0.07388056528051819,0.010938557628807001
21,7,5,0.14747446023947924,0.014841987315389533
21,8,5,0.16105713229558002,0.023537794115299517
22,0,5,0.15305867257002986,0.02038457320282339
22,1,5,0.06542696651742974,0.017996809316605095
22,2,5,0.12117776815796659,0.012529183580950487
22,3,5,0.060029692003364075,0.007320535741771347
22,4,5,0.1119540371486863,0.02516724505935889
22,5,5,0.12449872982079017,0.014719034424421663
22,6,5,0.0385073526029561,0.00874151569167234
22,7,5,0.16166815315147107,0.027567178140831525
22,8,5,0.1315362332707396,0.020620481030162466
23,0,5,0.1214472379105281,0.01286854306599222
23,1,5,0.08274885710331088,0.012038315376640515
23,2,5,0.07769475853340405,0.018926580242160308
23,3,5,0.0485579498020295,0.01799633801360959
23,4,5,0.11985907200698036,0.022850338717537166
23,5,5,0.10397331432991086,0.012992792566352319
23,6,5,0.042619625124402136,0.006706679832444473
23,7,5,0.1394283327553935,0.019993376521838187
23,8,5,0.06886265628715908,0.01929805208691444
24,0,5,0.06770098298122045,0.02019233270159446
24,1,5,0.05489163163985471,0.01844314718765619
24,2,5,0.1123933121509368,0.013707761983660291
24,3,5,0.056153947420647984,0.02109464268566725
24,4,5,0.13433919742402628,0.026069083064748835
24,5,5,0.07984759698824703,0.015494497878616075
24,6,5,0.05078610562576828,0.0123243003929963
24,7,5,0.12924307710069116,0.009754791345172861
24,8,5,0.11042797561900808,0.014122206365591103
25,0,5,0.10544280675344016,0.014043156224305879
25,1,5,0.08955289286329367,0.017189561867583105
25,2,5,0.08323419952052682,0.019996520624438914
25,3,5,0.07450602087140808,0.007291615786664248
25,4,5,0.10847999911831188,0.016103666769035792
25,5,5,0.1092921226248144,0.00982084666361274
25,6,5,0.0625076176132026,0.013815624096276924
25,7,5,0.08661246063992885,0.011258282455797056
25,8,5,0.0934398778773163,0.01401021379368223
26,0,5,0.0949788256234215,0.017840865241072142
26,1,5,0.020977564881838884,0.012246500397266397
26,2,5,0.07177202824748823,0.017149646934343035
26,3,5,0.032363639319226124,0.017654179291708316
26,4,5,0.1271344447152428,0.012028836000825147
26,5,5,0.08495550621781538,0.015579890651666494
26,6,5,0.03186912870644447,0.008443770031891784
26,7,5,0.11012015986294417,0.016357623782041926
26,8,5,0.07290636604052417,0.005442993259266848
27,0,5,0.056591702379083134,0.009821028686902725
27,1,5,0.055983979656110086,0.02087537450447162
27,2,5,0.05299906345999979,0.009408406303240873
27,3,5,0.07241290582441137,0.006705451519859023
27,4,5,0.13144451873765628,0.015941330981776573
27,5,5,0.09253654092461283,0.004902587659961208
27,6,5,0.032195090591849974,0.016811124291467874
27,7,5,0.12572196654940188,0.016812744854183635
27,8,5,0.06883428662189772,0.015496609407473178
28,0,5,0.07105639457307686,0.009536936490678162
28,1,5,0.05558734453724634,0.015188513372290388
28,2,5,0.04941076286358794,0.006679484039678853
28,3,5,0.05438807879095693,0.013649736986153413
28,4,5,0.12950313112885795,0.014587835166920785
28,5,5,0.1453091001240745,0.009746104536304463
28,6,5,0.033099323842007845,0.010136020072988862
28,7,5,0.0713626806643394,0.016621622233720674
28,8,5,0.050253169704910824,0.008816605322446927
29,0,5,0.11674635762048946,0.01637307441100637
29,1,5,0.06492158488368396,0.018270863012756454
29,2,5,0.06680210630383945,0.013487034461958319
29,3,5,0.08458510019168028,0.009383736472996822
29,4,5,0.15375527201793343,0.024770281803834483
29,5,5,0.1803535670413947,0.023964524754499263
29,6,5,0.05512207608723203,0.012826118571893252
29,7,5,0.12289299792855543,0.014326330579588114
29,8,5,0.17386917426267137,0.011405221126355274
30,0,5,0.06125031542363828,0.013578738129525664
30,1,5,0.07209737633004953,0.013563132679684254
30,2,5,0.06255757629582395,0.008814199028451802
30,3,5,0.050292664288250855,0.012876596479851636
30,4,5,0.06226402116972198,0.012231636553403348
30,5,5,0.0940116577136552,0.013402638879995855
30,6,5,0.047735979643001136,0.013505317267569985
30,7,5,0.16133736503326682,0.01830367187919778
30,8,5,0.10001237660061832,0.008361816943688052
31,0,5,0.045504723960579384,0.016941305310239362
31,1,5,0.053237504735514495,0.01866375942903979
31,2,5,0.07099641855952396,0.013618619827746677
31,3,5,0.061026497806793034,0.008428798300069882
31,4,5,0.13719013016725415,0.018465480189661567
31,5,5,0.1275994606855636,0.02430754415203533
31,6,5,0.05732007110771531,0.014996459419056831
31,7,5,0.10031629367671786,0.015150455863989321
31,8,5,0.08938317577459347,0.011331861391492377
32,0,5,0.13584829182519098,0.016107261538405183
32,1,5,0.08529017022465765,0.018256211872906953
32,2,5,0.08119142587444024,0.005898544767288918
32,3,5,0.04077267386668375,0.014891306258016141
32,4,5,0.14511435375465453,0.007693894185202846
32,5,5,0.19301762826905317,0.017535780219169548
32,6,5,0.06562799924795541,0.012979474081953211
32,7,5,0.1384021435582021,0.008976707990801119
32,8,5,0.1318147187904818,0.028237910345297983
33,0,5,0.06785060399438429,0.01819215334341202
33,1,5,0.07285527140331345,0.015024138250091983
33,2,5,0.09233361495697126,0.015689294670624767
33,3,5,0.025754934422507314,0.0027275445784515676
33,4,5,0.21347750948787855,0.016767147571918804
33,5,5,0.12397831427183885,0.012213979409832574
33,6,5,0.08804664693634257,0.010074197963186326
33,7,5,0.07968479592090047,0.014599173616360043
33,8,5,0.1554726914317603,0.004091886069244457
34,0,5,0.09346913971908885,0.019284668112657107
34,1,5,0.06807042149020201,0.01322091103336176
34,2,5,0.057050827329653095,0.008810221368884692
34,3,5,0.06129284767984437,0.024151604408367295
34,4,5,0.07149256586850224,0.013731787787541012
34,5,5,0.07011810392513826,0.013711802649621798
34,6,5,0.012949476862827302,0.008885535314067211
34,7,5,0.08483605284105773,0.0035043547548666487
34,8,5,0.041907024310133004,0.01711670453481894
35,0,5,0.08727053649536747,0.02046019417585981
35,1,5,0.03701129812281079,0.012479544465391618
35,2,5,0.04786406374972385,0.016455831748080844
35,3,5,0.0408019341854118,0.014811220726208175
35,4,5,0.08016869155889039,0.014280050564676938
35,5,5,0.052419038019298834,0.006265376886899169
35,6,5,0.008630298998705955,0.007604072884072437
35,7,5,0.04540771029920012,0.01563203996036869
35,8,5,0.029149345351543697,0.00988906691650472
36,0,5,0.03311781926270383,0.016952701365739665
36,1,5,0.075775912689266,0.020970209176735956
36,2,5,0.11536755649706468,0.013271673155812432
36,3,5,0.08965160358056526,0.018171289125566665
36,4,5,0.11681647689028193,0.021946342642432913
36,5,5,0.09464554840022783,0.011509096002410258
36,6,5,0.07685462636742842,0.013056406956499204
36,7,5,0.14962597592073054,0.021044150540608916
36,8,5,0.09825835606072164,0.017359333427549174
37,0,5,0.05062275656987185,0.01165488116733989
37,1,5,0.057530076064901306,0.01729115741106386
37,2,5,0.07292983781628917,0.015448403574997077
37,3,5,0.021226117616682028,0.01372687684035874
37,4,5,0.13730466823793774,0.02166257004869127
37,5,5,0.09882832334500939,0.0201556134107525
37,6,5,0.01689176123342826,0.012200680428332545
37,7,5,0.1150273916069761,0.016908720460157324
37,8,5,0.07150877936789013,0.024411988273040607
38,0,5,0.10067660103148976,0.015587070903355918
38,1,5,0.058608632613539456,0.006930056215030139
38,2,5,0.09161458940088818,0.010551691563666313
38,3,5,0.10066928356222256,0.01746611115350002
38,4,5,0.20097634274564496,0.012382316314475169
38,5,5,0.1824604453292419,0.008440075437261855
38,6,5,0.05432916351892303,0.014543113542087567
38,7,5,0.10932993397259745,0.01930753994401806
38,8,5,0.1082035646748117,0.017106495859032816
39,0,5,0.0905618371088223,0.020238361352188098
39,1,5,0.07077674354703709,0.009264189526175285
39,2,5,0.055450634429521806,0.025020028722718014
39,3,5,0.05466332036477697,0.016793211765586562
39,4,5,0.2282552033563326,0.014575024757054255
39,5,5,0.1665769604932205,0.019674848899853593
39,6,5,0.06432877330216624,0.021391914216141793
39,7,5,0.13792746977687925,0.017944283692652573
39,8,5,0.05012703295431298,0.01824237361469095
40,0,5,0.08800596734178918,0.01934645591719077
40,1,5,0.08323943799213666,0.008635354145704722
40,2,5,0.07544887910883877,0.01639532298625632
40,3,5,0.058119679094126096,0.020207754235246737
40,4,5,0.1235668157329721,0.015536731991262369
40,5,5,0.08840446823106203,0.010174020499570377
40,6,5,0.07952375028570284,0.025019737113110577
40,7,5,0.09717196753250017,0.006789660418452427
40,8,5,0.060706251152302236,0.021665275048055935
