subject,block,block_width,feature_channel,gate_mean,gate_sd
156,0,32,0,0.4000374674797058,0.06695970147848129
156,0,32,1,0.525858998298645,0.04800492525100708
156,0,32,2,0.4190819561481476,0.05406704917550087
156,0,32,3,0.381862610578537,0.06200503185391426
156,0,32,4,0.3335880935192108,0.12570737302303314
156,0,32,5,0.551460325717926,0.05715271830558777
156,0,32,6,0.588276743888855,0.03256992995738983
156,0,32,7,0.3786822557449341,0.060113128274679184
156,0,32,8,0.4236949384212494,0.07326424866914749
156,0,32,9,0.4588020443916321,0.08969834446907043
156,0,32,10,0.59892737865448,0.07060884684324265
156,0,32,11,0.42919760942459106,0.11647923290729523
156,0,32,12,0.47093629837036133,0.11372296512126923
156,0,32,13,0.5013562440872192,0.09831082075834274
156,0,32,14,0.33915048837661743,0.11777245253324509
156,0,32,15,0.6550332903862,0.08317901939153671
156,0,32,16,0.4631275236606598,0.05479920282959938
156,0,32,17,0.37943750619888306,0.04012325778603554
156,0,32,18,0.386392742395401,0.05192011594772339
156,0,32,19,0.3663947284221649,0.11841975152492523
156,0,32,20,0.426395982503891,0.06448926031589508
156,0,32,21,0.6198474168777466,0.08177435398101807
156,0,32,22,0.5112410187721252,0.1683083027601242
156,0,32,23,0.4068310856819153,0.03195105865597725
156,0,32,24,0.5603479146957397,0.03461111709475517
156,0,32,25,0.5928686261177063,0.05914488807320595
156,0,32,26,0.449453741312027,0.05948557332158089
156,0,32,27,0.489966481924057,0.1385592818260193
156,0,32,28,0.4151389002799988,0.029294341802597046
156,0,32,29,0.5838985443115234,0.11032479256391525
156,0,32,30,0.3667851984500885,0.09200021624565125
156,0,32,31,0.6072810888290405,0.029724368825554848
156,1,32,0,0.4012036919593811,0.07296977937221527
156,1,32,1,0.559708833694458,0.09468808025121689
156,1,32,2,0.5441033840179443,0.1378406584262848
156,1,32,3,0.6180617809295654,0.06655997782945633
156,1,32,4,0.4701274633407593,0.116309754550457
156,1,32,5,0.4947788119316101,0.08133634924888611
156,1,32,6,0.40893134474754333,0.07774978131055832
156,1,32,7,0.3579643666744232,0.10271181166172028
156,1,32,8,0.5415562391281128,0.05624806135892868
156,1,32,9,0.5044462084770203,0.06864861398935318
156,1,32,10,0.44492068886756897,0.1418737769126892
156,1,32,11,0.5960051417350769,0.1151665598154068
156,1,32,12,0.33284103870391846,0.09356816112995148
156,1,32,13,0.5402939319610596,0.0809699147939682
156,1,32,14,0.4460589587688446,0.14975348114967346
156,1,32,15,0.4968331754207611,0.13038407266139984
156,1,32,16,0.4952194094657898,0.1353011131286621
156,1,32,17,0.43926766514778137,0.126099094748497
156,1,32,18,0.5005221962928772,0.08485293388366699
156,1,32,19,0.4572165608406067,0.15410295128822327
156,1,32,20,0.5402430891990662,0.1135445088148117
156,1,32,21,0.6061639189720154,0.09490671753883362
156,1,32,22,0.3411181569099426,0.05574245750904083
156,1,32,23,0.5449123978614807,0.11795982718467712
156,1,32,24,0.5298294425010681,0.07319023460149765
156,1,32,25,0.5352842211723328,0.09377016872167587
156,1,32,26,0.6111787557601929,0.041367195546627045
156,1,32,27,0.48446792364120483,0.09139490127563477
156,1,32,28,0.5874459743499756,0.08640893548727036
156,1,32,29,0.44356662034988403,0.0740990862250328
156,1,32,30,0.43751585483551025,0.07431048899888992
156,1,32,31,0.5169009566307068,0.13706426322460175
156,2,64,0,0.6252927184104919,0.18729661405086517
156,2,64,1,0.32573822140693665,0.19612251222133636
156,2,64,2,0.4576433598995209,0.13099654018878937
156,2,64,3,0.4302029013633728,0.14877314865589142
156,2,64,4,0.5317310094833374,0.24739240109920502
156,2,64,5,0.6356856822967529,0.11703525483608246
156,2,64,6,0.5455805659294128,0.15904028713703156
156,2,64,7,0.39392101764678955,0.17768771946430206
156,2,64,8,0.4101182520389557,0.18044382333755493
156,2,64,9,0.3515079617500305,0.17357079684734344
156,2,64,10,0.40608829259872437,0.09651041775941849
156,2,64,11,0.7181598544120789,0.15341642498970032
156,2,64,12,0.45297837257385254,0.16468845307826996
156,2,64,13,0.6145842671394348,0.1516471654176712
156,2,64,14,0.6299660205841064,0.1792076677083969
156,2,64,15,0.612883985042572,0.10982666164636612
156,2,64,16,0.6005975604057312,0.11694912612438202
156,2,64,17,0.6200812458992004,0.20578880608081818
156,2,64,18,0.37424400448799133,0.16537585854530334
156,2,64,19,0.6662114858627319,0.22848273813724518
156,2,64,20,0.6600666642189026,0.1679130643606186
156,2,64,21,0.5291664004325867,0.2343352735042572
156,2,64,22,0.5287257432937622,0.17288844287395477
156,2,64,23,0.6461983323097229,0.03777869790792465
156,2,64,24,0.5718816518783569,0.0630374476313591
156,2,64,25,0.5088382959365845,0.1257885843515396
156,2,64,26,0.7389589548110962,0.07135683298110962
156,2,64,27,0.5531111359596252,0.21230335533618927
156,2,64,28,0.3107708990573883,0.17826497554779053
156,2,64,29,0.527202844619751,0.0820765495300293
156,2,64,30,0.36075904965400696,0.17572137713432312
156,2,64,31,0.5775388479232788,0.28879228234291077
156,2,64,32,0.4765709638595581,0.034800935536623
156,2,64,33,0.5387580394744873,0.10495107620954514
156,2,64,34,0.31079763174057007,0.1419820934534073
156,2,64,35,0.60410076379776,0.13610553741455078
156,2,64,36,0.4332009553909302,0.1631288081407547
156,2,64,37,0.5107037425041199,0.19634485244750977
156,2,64,38,0.4845898151397705,0.1861540973186493
156,2,64,39,0.6642443537712097,0.11413998901844025
156,2,64,40,0.30288153886795044,0.06564301252365112
156,2,64,41,0.5642361044883728,0.1934087574481964
156,2,64,42,0.6696615815162659,0.16547296941280365
156,2,64,43,0.5461397171020508,0.13651372492313385
156,2,64,44,0.5372148156166077,0.08483000844717026
156,2,64,45,0.6252819895744324,0.2044958919286728
156,2,64,46,0.4198417067527771,0.24430903792381287
156,2,64,47,0.3047875463962555,0.1061410903930664
156,2,64,48,0.44606813788414,0.09330816566944122
156,2,64,49,0.6301175951957703,0.11837759613990784
156,2,64,50,0.4548044800758362,0.17169055342674255
156,2,64,51,0.5432106852531433,0.1795889139175415
156,2,64,52,0.38071781396865845,0.18787027895450592
156,2,64,53,0.35286110639572144,0.1461605727672577
156,2,64,54,0.4641629159450531,0.08615539222955704
156,2,64,55,0.32921043038368225,0.16580018401145935
156,2,64,56,0.4252506494522095,0.098209448158741
156,2,64,57,0.5036720037460327,0.17072083055973053
156,2,64,58,0.513376772403717,0.09416932612657547
156,2,64,59,0.37586286664009094,0.18650592863559723
156,2,64,60,0.47424063086509705,0.12277105450630188
156,2,64,61,0.44126614928245544,0.14309708774089813
156,2,64,62,0.5364959239959717,0.13974981009960175
156,2,64,63,0.3697223365306854,0.1966766119003296
156,3,64,0,0.5207308530807495,0.16835243999958038
156,3,64,1,0.5587161779403687,0.15238362550735474
156,3,64,2,0.5136964917182922,0.1340264528989792
156,3,64,3,0.4836224317550659,0.23855280876159668
156,3,64,4,0.355993390083313,0.13424928486347198
156,3,64,5,0.3579930365085602,0.16000355780124664
156,3,64,6,0.29987579584121704,0.0836564153432846
156,3,64,7,0.6160771250724792,0.18192905187606812
156,3,64,8,0.29311254620552063,0.08930175006389618
156,3,64,9,0.6794694662094116,0.06670557707548141
156,3,64,10,0.5903138518333435,0.09279631823301315
156,3,64,11,0.3238038122653961,0.15253712236881256
156,3,64,12,0.4514814615249634,0.19041065871715546
156,3,64,13,0.5482757091522217,0.13533331453800201
156,3,64,14,0.6205852031707764,0.09625758230686188
156,3,64,15,0.5113531351089478,0.17466704547405243
156,3,64,16,0.4930351674556732,0.20765464007854462
156,3,64,17,0.5639137029647827,0.15685102343559265
156,3,64,18,0.4797857701778412,0.17893029749393463
156,3,64,19,0.4641295373439789,0.18880192935466766
156,3,64,20,0.3595532178878784,0.16176696121692657
156,3,64,21,0.6234549880027771,0.18504644930362701
156,3,64,22,0.48512977361679077,0.09366410970687866
156,3,64,23,0.64102703332901,0.07973278313875198
156,3,64,24,0.4628191590309143,0.22040869295597076
156,3,64,25,0.5671161413192749,0.20812784135341644
156,3,64,26,0.43384701013565063,0.10568153113126755
156,3,64,27,0.44175973534584045,0.13983020186424255
156,3,64,28,0.5912219882011414,0.13396573066711426
156,3,64,29,0.41947701573371887,0.10994220525026321
156,3,64,30,0.37058791518211365,0.09890913218259811
156,3,64,31,0.5320344567298889,0.1715373545885086
156,3,64,32,0.4659965932369232,0.225996732711792
156,3,64,33,0.5101767182350159,0.11017847806215286
156,3,64,34,0.6359220743179321,0.07932888716459274
156,3,64,35,0.5190128684043884,0.2212999165058136
156,3,64,36,0.636603832244873,0.1287272423505783
156,3,64,37,0.5564755201339722,0.15725946426391602
156,3,64,38,0.394478976726532,0.23300784826278687
156,3,64,39,0.5281879305839539,0.09444780647754669
156,3,64,40,0.45654964447021484,0.23930607736110687
156,3,64,41,0.3309537470340729,0.15148475766181946
156,3,64,42,0.3750675916671753,0.11128238588571548
156,3,64,43,0.5506131052970886,0.23625779151916504
156,3,64,44,0.5457760691642761,0.13671788573265076
156,3,64,45,0.5061275362968445,0.14669983088970184
156,3,64,46,0.3569954037666321,0.08186781406402588
156,3,64,47,0.5240902900695801,0.11256083101034164
156,3,64,48,0.48789098858833313,0.19199907779693604
156,3,64,49,0.41506218910217285,0.15184757113456726
156,3,64,50,0.5974925756454468,0.20419460535049438
156,3,64,51,0.40472492575645447,0.21261225640773773
156,3,64,52,0.5355380177497864,0.12306029349565506
156,3,64,53,0.49350959062576294,0.08683815598487854
156,3,64,54,0.3140016794204712,0.09325746446847916
156,3,64,55,0.32783788442611694,0.14201074838638306
156,3,64,56,0.5234881639480591,0.16616655886173248
156,3,64,57,0.2644209563732147,0.11793031543493271
156,3,64,58,0.6709495186805725,0.09292148053646088
156,3,64,59,0.4953674376010895,0.16134004294872284
156,3,64,60,0.44884729385375977,0.08513066172599792
156,3,64,61,0.5624160766601562,0.14394934475421906
156,3,64,62,0.5685730576515198,0.15564751625061035
156,3,64,63,0.5493561029434204,0.1713678240776062
156,4,128,0,0.43008363246917725,0.1302129477262497
156,4,128,1,0.48457252979278564,0.18508772552013397
156,4,128,2,0.6855220794677734,0.1263638734817505
156,4,128,3,0.37075021862983704,0.1324162781238556
156,4,128,4,0.6485610008239746,0.1638897955417633
156,4,128,5,0.3790487051010132,0.214827761054039
156,4,128,6,0.6285557150840759,0.15296974778175354
156,4,128,7,0.4096994400024414,0.12771452963352203
156,4,128,8,0.592305064201355,0.21158665418624878
156,4,128,9,0.3310490548610687,0.3106108605861664
156,4,128,10,0.5065969824790955,0.26069074869155884
156,4,128,11,0.48793214559555054,0.03830083832144737
156,4,128,12,0.6459687948226929,0.11339983344078064
156,4,128,13,0.5309542417526245,0.24237598478794098
156,4,128,14,0.5532781481742859,0.2627331018447876
156,4,128,15,0.45127105712890625,0.271644651889801
156,4,128,16,0.43293705582618713,0.14805381000041962
156,4,128,17,0.8051728010177612,0.08323998749256134
156,4,128,18,0.6294460296630859,0.1735020875930786
156,4,128,19,0.4531402885913849,0.33771511912345886
156,4,128,20,0.5147504210472107,0.25111737847328186
156,4,128,21,0.5552029013633728,0.11306463927030563
156,4,128,22,0.7199405431747437,0.10510054230690002
156,4,128,23,0.6563069224357605,0.13026490807533264
156,4,128,24,0.4399937093257904,0.18344683945178986
156,4,128,25,0.5717331171035767,0.23477144539356232
156,4,128,26,0.703774631023407,0.2298891842365265
156,4,128,27,0.563684344291687,0.1663886159658432
156,4,128,28,0.5909349322319031,0.2122655063867569
156,4,128,29,0.4529525935649872,0.15699326992034912
156,4,128,30,0.6677415370941162,0.12893879413604736
156,4,128,31,0.6800268292427063,0.21354618668556213
156,4,128,32,0.7706778645515442,0.18473568558692932
156,4,128,33,0.6104283332824707,0.24487712979316711
156,4,128,34,0.7125084400177002,0.16226941347122192
156,4,128,35,0.610400915145874,0.22348639369010925
156,4,128,36,0.38897210359573364,0.18303051590919495
156,4,128,37,0.39571326971054077,0.1582416594028473
156,4,128,38,0.6217361092567444,0.34395259618759155
156,4,128,39,0.5844611525535583,0.220371812582016
156,4,128,40,0.5860738158226013,0.16189783811569214
156,4,128,41,0.5947075486183167,0.12145888060331345
156,4,128,42,0.593264102935791,0.21702156960964203
156,4,128,43,0.5942374467849731,0.2060198336839676
156,4,128,44,0.4842621982097626,0.22232146561145782
156,4,128,45,0.6345998644828796,0.21642599999904633
156,4,128,46,0.34921708703041077,0.17751340568065643
156,4,128,47,0.44478052854537964,0.17834219336509705
156,4,128,48,0.4309838116168976,0.12883137166500092
156,4,128,49,0.5764073729515076,0.09321960061788559
156,4,128,50,0.7694592475891113,0.09973426908254623
156,4,128,51,0.6645318865776062,0.1733807921409607
156,4,128,52,0.38284626603126526,0.21999546885490417
156,4,128,53,0.41993585228919983,0.05457162484526634
156,4,128,54,0.6434313654899597,0.286426842212677
156,4,128,55,0.3694915175437927,0.21120083332061768
156,4,128,56,0.3878849744796753,0.23653428256511688
156,4,128,57,0.5402241349220276,0.09920091927051544
156,4,128,58,0.44738590717315674,0.13637936115264893
156,4,128,59,0.6701146960258484,0.16161100566387177
156,4,128,60,0.45935922861099243,0.26434004306793213
156,4,128,61,0.6757579445838928,0.17241963744163513
156,4,128,62,0.3581903278827667,0.21213075518608093
156,4,128,63,0.2967798411846161,0.11121541261672974
156,4,128,64,0.4866218566894531,0.3039546310901642
156,4,128,65,0.6986865401268005,0.2016267329454422
156,4,128,66,0.39422351121902466,0.2540251314640045
156,4,128,67,0.4755145311355591,0.1989961564540863
156,4,128,68,0.6395400166511536,0.17031778395175934
156,4,128,69,0.5883505344390869,0.11859280616044998
156,4,128,70,0.7349076867103577,0.10849031805992126
156,4,128,71,0.5022032260894775,0.07552344352006912
156,4,128,72,0.551942765712738,0.06485199928283691
156,4,128,73,0.6644980311393738,0.1238623633980751
156,4,128,74,0.3549818992614746,0.1438925713300705
156,4,128,75,0.5551785230636597,0.2123425453901291
156,4,128,76,0.6001173853874207,0.1463497430086136
156,4,128,77,0.5967927575111389,0.22308500111103058
156,4,128,78,0.8092631697654724,0.10580718517303467
156,4,128,79,0.6360840201377869,0.14317618310451508
156,4,128,80,0.593403697013855,0.26170817017555237
156,4,128,81,0.4297441244125366,0.2835474908351898
156,4,128,82,0.6008884310722351,0.2206059843301773
156,4,128,83,0.6911003589630127,0.10845768451690674
156,4,128,84,0.573594868183136,0.1460600197315216
156,4,128,85,0.5667822360992432,0.13905943930149078
156,4,128,86,0.6768639087677002,0.1606619954109192
156,4,128,87,0.5761028528213501,0.15649224817752838
156,4,128,88,0.54618901014328,0.28751763701438904
156,4,128,89,0.5785883069038391,0.20417875051498413
156,4,128,90,0.3814338743686676,0.159165158867836
156,4,128,91,0.37725913524627686,0.22257310152053833
156,4,128,92,0.48582762479782104,0.23502720892429352
156,4,128,93,0.48724621534347534,0.25557640194892883
156,4,128,94,0.5277803540229797,0.34497809410095215
156,4,128,95,0.8187441229820251,0.09610308706760406
156,4,128,96,0.5429186820983887,0.13116884231567383
156,4,128,97,0.5475541949272156,0.1595916599035263
156,4,128,98,0.4506702423095703,0.15308639407157898
156,4,128,99,0.6535038352012634,0.19532884657382965
156,4,128,100,0.5521484017372131,0.25718265771865845
156,4,128,101,0.403105229139328,0.3179593086242676
156,4,128,102,0.5189958810806274,0.10542047768831253
156,4,128,103,0.6392238140106201,0.18000778555870056
156,4,128,104,0.5320531129837036,0.21612359583377838
156,4,128,105,0.6374427080154419,0.2807721197605133
156,4,128,106,0.5419200658798218,0.24919664859771729
156,4,128,107,0.34443727135658264,0.21854454278945923
156,4,128,108,0.4290793538093567,0.23516136407852173
156,4,128,109,0.5285491347312927,0.22440454363822937
156,4,128,110,0.46131449937820435,0.263256698846817
156,4,128,111,0.6965304613113403,0.2236342430114746
156,4,128,112,0.4842016398906708,0.16567881405353546
156,4,128,113,0.7370101809501648,0.10600097477436066
156,4,128,114,0.5718178749084473,0.13728457689285278
156,4,128,115,0.6413608193397522,0.2646430432796478
156,4,128,116,0.48557716608047485,0.29229843616485596
156,4,128,117,0.5854527950286865,0.2633495330810547
156,4,128,118,0.46390804648399353,0.22959956526756287
156,4,128,119,0.6283532977104187,0.12223983556032181
156,4,128,120,0.39104288816452026,0.11455775797367096
156,4,128,121,0.6031602621078491,0.20957466959953308
156,4,128,122,0.36998361349105835,0.2719244360923767
156,4,128,123,0.6142226457595825,0.17926420271396637
156,4,128,124,0.7640275359153748,0.07688257843255997
156,4,128,125,0.6439545154571533,0.16705547273159027
156,4,128,126,0.5842585563659668,0.2141142040491104
156,4,128,127,0.4904455244541168,0.24382400512695312
156,5,128,0,0.5529288649559021,0.2598010003566742
156,5,128,1,0.7503219246864319,0.13312382996082306
156,5,128,2,0.7501222491264343,0.12846586108207703
156,5,128,3,0.6269845366477966,0.14593970775604248
156,5,128,4,0.7688987255096436,0.16126897931098938
156,5,128,5,0.44425851106643677,0.07259704172611237
156,5,128,6,0.666816771030426,0.09102897346019745
156,5,128,7,0.5412755608558655,0.1268828809261322
156,5,128,8,0.4390900731086731,0.09930124133825302
156,5,128,9,0.6543514132499695,0.18733654916286469
156,5,128,10,0.4822481572628021,0.21363025903701782
156,5,128,11,0.6686075925827026,0.10475805401802063
156,5,128,12,0.6174201965332031,0.16556085646152496
156,5,128,13,0.5973194241523743,0.17573826014995575
156,5,128,14,0.5435177683830261,0.12233375757932663
156,5,128,15,0.7759147882461548,0.14884673058986664
156,5,128,16,0.6496611833572388,0.15210336446762085
156,5,128,17,0.732567310333252,0.16828323900699615
156,5,128,18,0.6221185922622681,0.14196521043777466
156,5,128,19,0.5464566946029663,0.26523929834365845
156,5,128,20,0.532978355884552,0.2172323763370514
156,5,128,21,0.6523295044898987,0.12422052770853043
156,5,128,22,0.735863447189331,0.14114268124103546
156,5,128,23,0.6111593842506409,0.23770560324192047
156,5,128,24,0.6883118152618408,0.16983000934123993
156,5,128,25,0.32454684376716614,0.10702890157699585
156,5,128,26,0.7280024886131287,0.1342763751745224
156,5,128,27,0.6167256236076355,0.07829456776380539
156,5,128,28,0.5657555460929871,0.18890905380249023
156,5,128,29,0.5527831315994263,0.25152304768562317
156,5,128,30,0.4721432328224182,0.1530551314353943
156,5,128,31,0.6726399660110474,0.13071562349796295
156,5,128,32,0.6147478222846985,0.1612202227115631
156,5,128,33,0.6760207414627075,0.20689688622951508
156,5,128,34,0.6447286009788513,0.14858633279800415
156,5,128,35,0.6019020080566406,0.21516351401805878
156,5,128,36,0.4245588183403015,0.09468168020248413
156,5,128,37,0.540412962436676,0.13592588901519775
156,5,128,38,0.74227374792099,0.12348254770040512
156,5,128,39,0.6665475964546204,0.15277625620365143
156,5,128,40,0.3531073331832886,0.17314369976520538
156,5,128,41,0.6778913736343384,0.17561961710453033
156,5,128,42,0.6361696720123291,0.12710072100162506
156,5,128,43,0.48785337805747986,0.13310836255550385
156,5,128,44,0.7215062975883484,0.14745433628559113
156,5,128,45,0.5692718625068665,0.14972613751888275
156,5,128,46,0.5408301949501038,0.04455878213047981
156,5,128,47,0.6653762459754944,0.12448851764202118
156,5,128,48,0.5205014944076538,0.19176217913627625
156,5,128,49,0.5616373419761658,0.12711650133132935
156,5,128,50,0.758327066898346,0.15222224593162537
156,5,128,51,0.578450083732605,0.16097654402256012
156,5,128,52,0.6883169412612915,0.19897501170635223
156,5,128,53,0.46071773767471313,0.19472640752792358
156,5,128,54,0.49478936195373535,0.2160942405462265
156,5,128,55,0.6293529272079468,0.1833629310131073
156,5,128,56,0.4092641770839691,0.25082966685295105
156,5,128,57,0.6789527535438538,0.17628496885299683
156,5,128,58,0.643324613571167,0.1263018250465393
156,5,128,59,0.6511194109916687,0.11305072903633118
156,5,128,60,0.34596481919288635,0.13326673209667206
156,5,128,61,0.6514413952827454,0.20773182809352875
156,5,128,62,0.58120197057724,0.12471919506788254
156,5,128,63,0.47059354186058044,0.2236419916152954
156,5,128,64,0.5994709134101868,0.14172396063804626
156,5,128,65,0.6408332586288452,0.1026158258318901
156,5,128,66,0.5071658492088318,0.2233070433139801
156,5,128,67,0.5136106014251709,0.18650183081626892
156,5,128,68,0.4662167727947235,0.18111634254455566
156,5,128,69,0.5664883852005005,0.07855036854743958
156,5,128,70,0.3804782032966614,0.10233542323112488
156,5,128,71,0.6483818292617798,0.20899483561515808
156,5,128,72,0.5758309960365295,0.1926899403333664
156,5,128,73,0.6319929361343384,0.10349415242671967
156,5,128,74,0.5466775894165039,0.20302681624889374
156,5,128,75,0.6636245846748352,0.0992700457572937
156,5,128,76,0.6679209470748901,0.12728723883628845
156,5,128,77,0.7169151902198792,0.1387879103422165
156,5,128,78,0.6397864818572998,0.12337703257799149
156,5,128,79,0.45090264081954956,0.16507607698440552
156,5,128,80,0.604642391204834,0.27488425374031067
156,5,128,81,0.5945801138877869,0.18386651575565338
156,5,128,82,0.5944889187812805,0.2287825345993042
156,5,128,83,0.5858405232429504,0.2331637293100357
156,5,128,84,0.5681915879249573,0.1516142189502716
156,5,128,85,0.6184468269348145,0.08190830051898956
156,5,128,86,0.5621595978736877,0.26774370670318604
156,5,128,87,0.7023494839668274,0.12285429984331131
156,5,128,88,0.6155796051025391,0.20754285156726837
156,5,128,89,0.617486298084259,0.22825704514980316
156,5,128,90,0.676103413105011,0.16299910843372345
156,5,128,91,0.5453930497169495,0.17013594508171082
156,5,128,92,0.5471067428588867,0.12008906155824661
156,5,128,93,0.7304247617721558,0.13641022145748138
156,5,128,94,0.53923100233078,0.08614162355661392
156,5,128,95,0.7110345363616943,0.12501704692840576
156,5,128,96,0.7277547717094421,0.15234769880771637
156,5,128,97,0.5741091370582581,0.2407107800245285
156,5,128,98,0.6201182007789612,0.23143383860588074
156,5,128,99,0.6692912578582764,0.10426925122737885
156,5,128,100,0.5922546982765198,0.06153963878750801
156,5,128,101,0.6703145503997803,0.15462380647659302
156,5,128,102,0.5424138903617859,0.19046103954315186
156,5,128,103,0.5744055509567261,0.08154281228780746
156,5,128,104,0.558463454246521,0.13723860681056976
156,5,128,105,0.629010021686554,0.17417320609092712
156,5,128,106,0.6735990643501282,0.12255946546792984
156,5,128,107,0.43428122997283936,0.05286134034395218
156,5,128,108,0.4118291735649109,0.22600965201854706
156,5,128,109,0.6116040349006653,0.10142404586076736
156,5,128,110,0.46273544430732727,0.2447887659072876
156,5,128,111,0.6379214525222778,0.12854671478271484
156,5,128,112,0.5715082287788391,0.0905139222741127
156,5,128,113,0.6336555480957031,0.10844873636960983
156,5,128,114,0.6609054207801819,0.23233148455619812
156,5,128,115,0.6438065767288208,0.2250182330608368
156,5,128,116,0.5844892263412476,0.08322417736053467
156,5,128,117,0.6426358222961426,0.12711378931999207
156,5,128,118,0.6329085230827332,0.21915976703166962
156,5,128,119,0.5930883884429932,0.0943593680858612
156,5,128,120,0.6099964380264282,0.10910749435424805
156,5,128,121,0.7205317616462708,0.16435493528842926
156,5,128,122,0.44211694598197937,0.26826030015945435
156,5,128,123,0.714904248714447,0.18467161059379578
156,5,128,124,0.6135092377662659,0.249129056930542
156,5,128,125,0.49725237488746643,0.19112712144851685
156,5,128,126,0.6782383322715759,0.2037278264760971
156,5,128,127,0.5318655371665955,0.12617602944374084
185,0,32,0,0.41649800539016724,0.03454127535223961
185,0,32,1,0.3324536681175232,0.1012573316693306
185,0,32,2,0.6051783561706543,0.08873538672924042
185,0,32,3,0.43951278924942017,0.07965917885303497
185,0,32,4,0.4321032166481018,0.09684479236602783
185,0,32,5,0.5276731252670288,0.07495518028736115
185,0,32,6,0.4530547857284546,0.07930363714694977
185,0,32,7,0.6784167289733887,0.11867517977952957
185,0,32,8,0.3352406620979309,0.11098677664995193
185,0,32,9,0.5734674334526062,0.06356111168861389
185,0,32,10,0.2751315236091614,0.12348922342061996
185,0,32,11,0.37970033288002014,0.07391848415136337
185,0,32,12,0.4218728244304657,0.13525377213954926
185,0,32,13,0.4962199330329895,0.12003616988658905
185,0,32,14,0.5096753239631653,0.08483893424272537
185,0,32,15,0.4655631184577942,0.10493560135364532
185,0,32,16,0.5395135283470154,0.10845524072647095
185,0,32,17,0.6338131427764893,0.10387853533029556
185,0,32,18,0.5684728622436523,0.12450922280550003
185,0,32,19,0.3281264901161194,0.061777569353580475
185,0,32,20,0.48246535658836365,0.08488409221172333
185,0,32,21,0.5894172787666321,0.08727335929870605
185,0,32,22,0.5572904944419861,0.0456153005361557
185,0,32,23,0.568449854850769,0.06452558189630508
185,0,32,24,0.3574199974536896,0.09299707412719727
185,0,32,25,0.6261678338050842,0.16814623773097992
185,0,32,26,0.4414805769920349,0.07466593384742737
185,0,32,27,0.4009140431880951,0.06272426247596741
185,0,32,28,0.5750297904014587,0.07553582638502121
185,0,32,29,0.5151100158691406,0.07289376854896545
185,0,32,30,0.581580400466919,0.12799781560897827
185,0,32,31,0.47250810265541077,0.14904826879501343
185,1,32,0,0.6983251571655273,0.05689699575304985
185,1,32,1,0.5862719416618347,0.19650116562843323
185,1,32,2,0.3076789975166321,0.11420313268899918
185,1,32,3,0.41086897253990173,0.07358050346374512
185,1,32,4,0.4020020663738251,0.0759178027510643
185,1,32,5,0.3679541349411011,0.10469868779182434
185,1,32,6,0.6097071170806885,0.13914236426353455
185,1,32,7,0.5018444061279297,0.09612539410591125
185,1,32,8,0.5482882857322693,0.1838080883026123
185,1,32,9,0.48626741766929626,0.10131070017814636
185,1,32,10,0.5868985056877136,0.06265652179718018
185,1,32,11,0.6288864016532898,0.06316792219877243
185,1,32,12,0.30021947622299194,0.0921749696135521
185,1,32,13,0.3955034911632538,0.14550504088401794
185,1,32,14,0.39403218030929565,0.2474609911441803
185,1,32,15,0.5459799766540527,0.2132820039987564
185,1,32,16,0.5263985991477966,0.1300744265317917
185,1,32,17,0.41094014048576355,0.1678517907857895
185,1,32,18,0.41010797023773193,0.18765754997730255
185,1,32,19,0.5558835864067078,0.09680140763521194
185,1,32,20,0.4708365201950073,0.16501884162425995
185,1,32,21,0.3117048144340515,0.11274208128452301
185,1,32,22,0.5571231842041016,0.22085925936698914
185,1,32,23,0.5286139249801636,0.16727207601070404
185,1,32,24,0.562566339969635,0.20224398374557495
185,1,32,25,0.46681544184684753,0.18022145330905914
185,1,32,26,0.24851742386817932,0.0971909761428833
185,1,32,27,0.3491934835910797,0.135076642036438
185,1,32,28,0.4316439926624298,0.17141637206077576
185,1,32,29,0.5067493915557861,0.102444589138031
185,1,32,30,0.41246551275253296,0.12073468416929245
185,1,32,31,0.4434210956096649,0.140155628323555
185,2,64,0,0.3887058198451996,0.16255532205104828
185,2,64,1,0.4390726685523987,0.1253693848848343
185,2,64,2,0.5495084524154663,0.105826735496521
185,2,64,3,0.5277987122535706,0.041470181196928024
185,2,64,4,0.490119606256485,0.13788637518882751
185,2,64,5,0.5788772702217102,0.1268036812543869
185,2,64,6,0.411800742149353,0.17116867005825043
185,2,64,7,0.4961681663990021,0.09920331090688705
185,2,64,8,0.5569478273391724,0.0650300607085228
185,2,64,9,0.3691162168979645,0.1184559240937233
185,2,64,10,0.4318721890449524,0.11620534956455231
185,2,64,11,0.37649792432785034,0.129042848944664
185,2,64,12,0.43423962593078613,0.11611854285001755
185,2,64,13,0.4697442054748535,0.09714855998754501
185,2,64,14,0.3726411461830139,0.11494163423776627
185,2,64,15,0.5307080745697021,0.06863299757242203
185,2,64,16,0.6171079277992249,0.1517215371131897
185,2,64,17,0.3972543179988861,0.049921926110982895
185,2,64,18,0.40065494179725647,0.10464712232351303
185,2,64,19,0.3950638771057129,0.17213599383831024
185,2,64,20,0.5141584873199463,0.10674978047609329
185,2,64,21,0.747294545173645,0.12086064368486404
185,2,64,22,0.4232932925224304,0.12441116571426392
185,2,64,23,0.388568639755249,0.08758916705846786
185,2,64,24,0.5606639981269836,0.10415802150964737
185,2,64,25,0.6306883692741394,0.112392358481884
185,2,64,26,0.4282240867614746,0.09098273515701294
185,2,64,27,0.6014787554740906,0.13659970462322235
185,2,64,28,0.5688357353210449,0.1251143515110016
185,2,64,29,0.3824629783630371,0.14198626577854156
185,2,64,30,0.4658920466899872,0.14288125932216644
185,2,64,31,0.4731547236442566,0.12499304860830307
185,2,64,32,0.4615054726600647,0.16740824282169342
185,2,64,33,0.5562299489974976,0.10282821208238602
185,2,64,34,0.6803038716316223,0.12599241733551025
185,2,64,35,0.5561895966529846,0.07871819287538528
185,2,64,36,0.5125495791435242,0.1305275559425354
185,2,64,37,0.6607972979545593,0.11698018014431
185,2,64,38,0.6350790858268738,0.10422655940055847
185,2,64,39,0.43695950508117676,0.12047046422958374
185,2,64,40,0.43158775568008423,0.10574952512979507
185,2,64,41,0.5337435007095337,0.12366178631782532
185,2,64,42,0.3536909818649292,0.1490889936685562
185,2,64,43,0.32954201102256775,0.09339570254087448
185,2,64,44,0.6128202676773071,0.11915238946676254
185,2,64,45,0.4978405833244324,0.17562256753444672
185,2,64,46,0.39545688033103943,0.10565043985843658
185,2,64,47,0.6136259436607361,0.18246367573738098
185,2,64,48,0.42060768604278564,0.13725662231445312
185,2,64,49,0.3217410147190094,0.14764028787612915
185,2,64,50,0.4702264070510864,0.12855547666549683
185,2,64,51,0.5291143655776978,0.19001249969005585
185,2,64,52,0.37669500708580017,0.12574289739131927
185,2,64,53,0.4409087300300598,0.1625998169183731
185,2,64,54,0.5952337980270386,0.1410410851240158
185,2,64,55,0.5246416330337524,0.12332402914762497
185,2,64,56,0.43918633460998535,0.1400238424539566
185,2,64,57,0.5178874135017395,0.16960324347019196
185,2,64,58,0.4806363880634308,0.12582184374332428
185,2,64,59,0.5383678078651428,0.14557994902133942
185,2,64,60,0.3297297954559326,0.10957961529493332
185,2,64,61,0.4260096848011017,0.09596507251262665
185,2,64,62,0.4827100336551666,0.1310461014509201
185,2,64,63,0.5739107728004456,0.11148503422737122
185,3,64,0,0.4287700057029724,0.12216021865606308
185,3,64,1,0.5620644092559814,0.1424398273229599
185,3,64,2,0.43667393922805786,0.11346897482872009
185,3,64,3,0.5537131428718567,0.11718776822090149
185,3,64,4,0.5978190898895264,0.12183014303445816
185,3,64,5,0.5242852568626404,0.1148974820971489
185,3,64,6,0.47572439908981323,0.1121046170592308
185,3,64,7,0.5366976261138916,0.12848296761512756
185,3,64,8,0.646543025970459,0.08021652698516846
185,3,64,9,0.5615943074226379,0.12502749264240265
185,3,64,10,0.35831138491630554,0.17746329307556152
185,3,64,11,0.5245329141616821,0.2171420454978943
185,3,64,12,0.5195017457008362,0.24626776576042175
185,3,64,13,0.546532392501831,0.13101425766944885
185,3,64,14,0.46507859230041504,0.1740076243877411
185,3,64,15,0.521598219871521,0.13611163198947906
185,3,64,16,0.4773261845111847,0.17429713904857635
185,3,64,17,0.49472281336784363,0.07358775287866592
185,3,64,18,0.5281330347061157,0.1137997955083847
185,3,64,19,0.5900440216064453,0.07726355642080307
185,3,64,20,0.4844277501106262,0.1595761626958847
185,3,64,21,0.5557532906532288,0.07549803704023361
185,3,64,22,0.5569503307342529,0.1299028992652893
185,3,64,23,0.3894820511341095,0.09312555193901062
185,3,64,24,0.564753532409668,0.21727265417575836
185,3,64,25,0.4410833716392517,0.09891514480113983
185,3,64,26,0.3989354372024536,0.15316279232501984
185,3,64,27,0.5654603242874146,0.2362901121377945
185,3,64,28,0.4402647912502289,0.14039652049541473
185,3,64,29,0.46754321455955505,0.22716659307479858
185,3,64,30,0.6950385570526123,0.10960971564054489
185,3,64,31,0.5671226978302002,0.21822217106819153
185,3,64,32,0.7338908314704895,0.10364791005849838
185,3,64,33,0.43485450744628906,0.24481390416622162
185,3,64,34,0.42757120728492737,0.14539016783237457
185,3,64,35,0.5518552660942078,0.18653856217861176
185,3,64,36,0.36652323603630066,0.18152233958244324
185,3,64,37,0.5185025930404663,0.2296338826417923
185,3,64,38,0.6003828644752502,0.16324728727340698
185,3,64,39,0.40700533986091614,0.13023364543914795
185,3,64,40,0.42598146200180054,0.07779344171285629
185,3,64,41,0.38782036304473877,0.08764930814504623
185,3,64,42,0.5485681295394897,0.1788119077682495
185,3,64,43,0.3578093647956848,0.10444565117359161
185,3,64,44,0.50323486328125,0.09995389729738235
185,3,64,45,0.6111575365066528,0.11411883682012558
185,3,64,46,0.44053155183792114,0.1769944131374359
185,3,64,47,0.400527685880661,0.11363978683948517
185,3,64,48,0.5551422834396362,0.15257130563259125
185,3,64,49,0.4612869322299957,0.22741453349590302
185,3,64,50,0.4540221691131592,0.14037346839904785
185,3,64,51,0.5040218234062195,0.23383481800556183
185,3,64,52,0.6251384019851685,0.1050955280661583
185,3,64,53,0.44228604435920715,0.13313312828540802
185,3,64,54,0.549818217754364,0.2137923538684845
185,3,64,55,0.5008301734924316,0.14707523584365845
185,3,64,56,0.4636991620063782,0.11861570179462433
185,3,64,57,0.5352447628974915,0.19776321947574615
185,3,64,58,0.4199179410934448,0.11812654882669449
185,3,64,59,0.3458607792854309,0.08971865475177765
185,3,64,60,0.5341717600822449,0.22026197612285614
185,3,64,61,0.5703229308128357,0.14305178821086884
185,3,64,62,0.5066513419151306,0.07347217947244644
185,3,64,63,0.5169204473495483,0.16148297488689423
185,4,128,0,0.4607609808444977,0.2600933909416199
185,4,128,1,0.48416823148727417,0.2597257196903229
185,4,128,2,0.547788679599762,0.11163025349378586
185,4,128,3,0.5481288433074951,0.2715303301811218
185,4,128,4,0.6757044196128845,0.1657974272966385
185,4,128,5,0.7826287150382996,0.09623253345489502
185,4,128,6,0.475860595703125,0.26207515597343445
185,4,128,7,0.4775848686695099,0.2439316213130951
185,4,128,8,0.6408722400665283,0.21072128415107727
185,4,128,9,0.4616563022136688,0.12165472656488419
185,4,128,10,0.4902336895465851,0.24857893586158752
185,4,128,11,0.43536922335624695,0.2371249496936798
185,4,128,12,0.5575525164604187,0.2750546932220459
185,4,128,13,0.5365569591522217,0.3535657525062561
185,4,128,14,0.492015540599823,0.20813032984733582
185,4,128,15,0.640973687171936,0.27118048071861267
185,4,128,16,0.4655072093009949,0.28526702523231506
185,4,128,17,0.41507184505462646,0.2745179831981659
185,4,128,18,0.6215752959251404,0.15819449722766876
185,4,128,19,0.4953342378139496,0.22295697033405304
185,4,128,20,0.5586640238761902,0.2121819257736206
185,4,128,21,0.5302401185035706,0.3126356601715088
185,4,128,22,0.4154451787471771,0.23514129221439362
185,4,128,23,0.7021490335464478,0.13013294339179993
185,4,128,24,0.5839157700538635,0.09886844456195831
185,4,128,25,0.43608731031417847,0.2392217367887497
185,4,128,26,0.6424953937530518,0.21317364275455475
185,4,128,27,0.5042855143547058,0.16256782412528992
185,4,128,28,0.4622959792613983,0.2981656491756439
185,4,128,29,0.5209730863571167,0.27066105604171753
185,4,128,30,0.4173453748226166,0.3466952443122864
185,4,128,31,0.6159976124763489,0.27495208382606506
185,4,128,32,0.6062063574790955,0.17946720123291016
185,4,128,33,0.6226744651794434,0.25234222412109375
185,4,128,34,0.40956807136535645,0.19911952316761017
185,4,128,35,0.5835815668106079,0.21369041502475739
185,4,128,36,0.7355602383613586,0.17372655868530273
185,4,128,37,0.49476683139801025,0.21772906184196472
185,4,128,38,0.56466144323349,0.326844185590744
185,4,128,39,0.6384629011154175,0.22625897824764252
185,4,128,40,0.44530320167541504,0.12061028182506561
185,4,128,41,0.5701324939727783,0.22327499091625214
185,4,128,42,0.479870468378067,0.2645267844200134
185,4,128,43,0.5847260355949402,0.2387852817773819
185,4,128,44,0.6415849924087524,0.2331269085407257
185,4,128,45,0.6186845898628235,0.2370511293411255
185,4,128,46,0.6480196714401245,0.173103928565979
185,4,128,47,0.6636471748352051,0.20058460533618927
185,4,128,48,0.465471476316452,0.29904747009277344
185,4,128,49,0.5407177209854126,0.27324849367141724
185,4,128,50,0.6127614974975586,0.21166327595710754
185,4,128,51,0.5545571446418762,0.30319225788116455
185,4,128,52,0.6040980815887451,0.2201148271560669
185,4,128,53,0.6747645735740662,0.24827514588832855
185,4,128,54,0.5644278526306152,0.14611047506332397
185,4,128,55,0.43591704964637756,0.31637224555015564
185,4,128,56,0.725834846496582,0.12353532761335373
185,4,128,57,0.5578897595405579,0.25421780347824097
185,4,128,58,0.39217573404312134,0.1031150221824646
185,4,128,59,0.640762448310852,0.13816244900226593
185,4,128,60,0.49216070771217346,0.2382534295320511
185,4,128,61,0.6351563334465027,0.1944521814584732
185,4,128,62,0.49947038292884827,0.2190779447555542
185,4,128,63,0.7557495832443237,0.11782340705394745
185,4,128,64,0.5846521258354187,0.24816855788230896
185,4,128,65,0.42695385217666626,0.27370485663414
185,4,128,66,0.3934408128261566,0.3079725205898285
185,4,128,67,0.5196565389633179,0.13583405315876007
185,4,128,68,0.5229295492172241,0.25991326570510864
185,4,128,69,0.4822641909122467,0.17861735820770264
185,4,128,70,0.5381362438201904,0.1978844851255417
185,4,128,71,0.5808791518211365,0.17316454648971558
185,4,128,72,0.5399757623672485,0.22869470715522766
185,4,128,73,0.4345957934856415,0.2485945224761963
185,4,128,74,0.5204638242721558,0.3214976191520691
185,4,128,75,0.35645589232444763,0.27371692657470703
185,4,128,76,0.4423670768737793,0.1866122931241989
185,4,128,77,0.6061630249023438,0.21912501752376556
185,4,128,78,0.5029321908950806,0.23530392348766327
185,4,128,79,0.6295910477638245,0.1267443299293518
185,4,128,80,0.47093528509140015,0.2635982632637024
185,4,128,81,0.5888485312461853,0.2667063772678375
185,4,128,82,0.5516871809959412,0.16746515035629272
185,4,128,83,0.4296530783176422,0.3074028193950653
185,4,128,84,0.7180455327033997,0.12647821009159088
185,4,128,85,0.5379176735877991,0.18104460835456848
185,4,128,86,0.6237049698829651,0.311856210231781
185,4,128,87,0.5073873400688171,0.2692731022834778
185,4,128,88,0.6352283954620361,0.2479097843170166
185,4,128,89,0.6020237803459167,0.3096208870410919
185,4,128,90,0.5762223601341248,0.2086585909128189
185,4,128,91,0.4829270541667938,0.25744128227233887
185,4,128,92,0.6097947955131531,0.06825880706310272
185,4,128,93,0.5113381743431091,0.3532133400440216
185,4,128,94,0.4360017776489258,0.20865820348262787
185,4,128,95,0.5648320913314819,0.24586166441440582
185,4,128,96,0.6079371571540833,0.2527451813220978
185,4,128,97,0.4524141848087311,0.22678738832473755
185,4,128,98,0.4363214373588562,0.23902112245559692
185,4,128,99,0.49197715520858765,0.24407529830932617
185,4,128,100,0.6911845803260803,0.18797294795513153
185,4,128,101,0.6268319487571716,0.25409549474716187
185,4,128,102,0.388471394777298,0.21943245828151703
185,4,128,103,0.6812396049499512,0.24643108248710632
185,4,128,104,0.4783634543418884,0.14052915573120117
185,4,128,105,0.6692925691604614,0.22121185064315796
185,4,128,106,0.5846287608146667,0.15711843967437744
185,4,128,107,0.4758026599884033,0.23642459511756897
185,4,128,108,0.461179256439209,0.22790147364139557
185,4,128,109,0.4315522015094757,0.15080526471138
185,4,128,110,0.5297752618789673,0.25482937693595886
185,4,128,111,0.4421554505825043,0.24271322786808014
185,4,128,112,0.4366714358329773,0.13925981521606445
185,4,128,113,0.47125107049942017,0.13397201895713806
185,4,128,114,0.3849096894264221,0.2658231258392334
185,4,128,115,0.5164235830307007,0.1673460751771927
185,4,128,116,0.6766307353973389,0.15039344131946564
185,4,128,117,0.7045807838439941,0.18271499872207642
185,4,128,118,0.6608453392982483,0.24082787334918976
185,4,128,119,0.5866744518280029,0.2350284904241562
185,4,128,120,0.5886215567588806,0.21840114891529083
185,4,128,121,0.5417571663856506,0.18518322706222534
185,4,128,122,0.5407082438468933,0.1579909771680832
185,4,128,123,0.5534180402755737,0.19483505189418793
185,4,128,124,0.6572893857955933,0.2805785834789276
185,4,128,125,0.44210025668144226,0.27520623803138733
185,4,128,126,0.42145419120788574,0.3082412779331207
185,4,128,127,0.6564885973930359,0.10376448929309845
185,5,128,0,0.5742139220237732,0.1594206690788269
185,5,128,1,0.6787683963775635,0.18977418541908264
185,5,128,2,0.712192177772522,0.18213903903961182
185,5,128,3,0.7861817479133606,0.12003844976425171
185,5,128,4,0.7623636722564697,0.20433054864406586
185,5,128,5,0.7993018627166748,0.10293976962566376
185,5,128,6,0.5904868245124817,0.258736789226532
185,5,128,7,0.8888893127441406,0.07835706323385239
185,5,128,8,0.713009238243103,0.2469838410615921
185,5,128,9,0.843658983707428,0.09772028774023056
185,5,128,10,0.7928142547607422,0.08910363167524338
185,5,128,11,0.7688025832176208,0.1616518348455429
185,5,128,12,0.64970463514328,0.14150474965572357
185,5,128,13,0.5666027665138245,0.3511233329772949
185,5,128,14,0.5066481828689575,0.3087522089481354
185,5,128,15,0.8726896643638611,0.09974879771471024
185,5,128,16,0.8489357829093933,0.08871547877788544
185,5,128,17,0.5237242579460144,0.28121712803840637
185,5,128,18,0.8068966269493103,0.1750665307044983
185,5,128,19,0.8722097277641296,0.08051106333732605
185,5,128,20,0.6626671552658081,0.2085755169391632
185,5,128,21,0.8771067261695862,0.09016142040491104
185,5,128,22,0.5833973288536072,0.25691255927085876
185,5,128,23,0.5430402159690857,0.16246873140335083
185,5,128,24,0.5631454586982727,0.261575311422348
185,5,128,25,0.7486494183540344,0.18217219412326813
185,5,128,26,0.8533912897109985,0.08312657475471497
185,5,128,27,0.6627388596534729,0.1725083440542221
185,5,128,28,0.7562581300735474,0.21752557158470154
185,5,128,29,0.7311493158340454,0.22249580919742584
185,5,128,30,0.7991531491279602,0.2201981246471405
185,5,128,31,0.7339807152748108,0.1887253224849701
185,5,128,32,0.7394914031028748,0.24025858938694
185,5,128,33,0.7981357574462891,0.20912489295005798
185,5,128,34,0.7602300643920898,0.10175367444753647
185,5,128,35,0.7090485692024231,0.16465261578559875
185,5,128,36,0.8386038541793823,0.11329498887062073
185,5,128,37,0.8370856642723083,0.09431527554988861
185,5,128,38,0.7659913897514343,0.22556880116462708
185,5,128,39,0.7796178460121155,0.13234294950962067
185,5,128,40,0.5542248487472534,0.18718864023685455
185,5,128,41,0.8566634058952332,0.07850871235132217
185,5,128,42,0.5968853831291199,0.29929113388061523
185,5,128,43,0.5818979144096375,0.289660781621933
185,5,128,44,0.42397937178611755,0.11138956248760223
185,5,128,45,0.4243720471858978,0.2521681785583496
185,5,128,46,0.39583319425582886,0.25315308570861816
185,5,128,47,0.7978217005729675,0.24489076435565948
185,5,128,48,0.8441199660301208,0.10633812844753265
185,5,128,49,0.412426233291626,0.2743168771266937
185,5,128,50,0.8948930501937866,0.07293214648962021
185,5,128,51,0.6389864683151245,0.22759929299354553
185,5,128,52,0.7776470184326172,0.10553386062383652
185,5,128,53,0.6155336499214172,0.22117845714092255
185,5,128,54,0.7464573979377747,0.14549532532691956
185,5,128,55,0.7157658934593201,0.22140741348266602
185,5,128,56,0.808774471282959,0.19335341453552246
185,5,128,57,0.8708369135856628,0.09431984275579453
185,5,128,58,0.611199140548706,0.1876310408115387
185,5,128,59,0.5988161563873291,0.16587528586387634
185,5,128,60,0.5743336081504822,0.2762705981731415
185,5,128,61,0.8089643716812134,0.13889597356319427
185,5,128,62,0.4817461371421814,0.24031932651996613
185,5,128,63,0.749182939529419,0.22534550726413727
185,5,128,64,0.7525590062141418,0.22822950780391693
185,5,128,65,0.6137518286705017,0.23908278346061707
185,5,128,66,0.6263560056686401,0.19247348606586456
185,5,128,67,0.6667493581771851,0.1259593516588211
185,5,128,68,0.388340562582016,0.2809300422668457
185,5,128,69,0.2940111458301544,0.23917049169540405
185,5,128,70,0.682858943939209,0.14953342080116272
185,5,128,71,0.5674200654029846,0.16720303893089294
185,5,128,72,0.6310287714004517,0.2741069197654724
185,5,128,73,0.6799819469451904,0.23979482054710388
185,5,128,74,0.5816994905471802,0.3548184335231781
185,5,128,75,0.5816434025764465,0.11776152998209
185,5,128,76,0.7102653384208679,0.1931450515985489
185,5,128,77,0.778388500213623,0.10787059366703033
185,5,128,78,0.5584467649459839,0.20502933859825134
185,5,128,79,0.7191014289855957,0.31612497568130493
185,5,128,80,0.6012027859687805,0.2773905396461487
185,5,128,81,0.6250613331794739,0.2145361304283142
185,5,128,82,0.7613488435745239,0.09618022292852402
185,5,128,83,0.6161208748817444,0.2858743667602539
185,5,128,84,0.5009444952011108,0.25242379307746887
185,5,128,85,0.5581818222999573,0.28740158677101135
185,5,128,86,0.5626789331436157,0.2574707567691803
185,5,128,87,0.8658890128135681,0.08732493966817856
185,5,128,88,0.5014650225639343,0.22573383152484894
185,5,128,89,0.7869640588760376,0.21793122589588165
185,5,128,90,0.8862306475639343,0.09729917347431183
185,5,128,91,0.6785094738006592,0.23226048052310944
185,5,128,92,0.5829331874847412,0.22181832790374756
185,5,128,93,0.7324553728103638,0.2818896472454071
185,5,128,94,0.2819768786430359,0.2818182408809662
185,5,128,95,0.708643913269043,0.145202174782753
185,5,128,96,0.5841854214668274,0.2053309828042984
185,5,128,97,0.7024021148681641,0.2150277942419052
185,5,128,98,0.6289198398590088,0.2495976835489273
185,5,128,99,0.3480784595012665,0.23006406426429749
185,5,128,100,0.6112491488456726,0.12714453041553497
185,5,128,101,0.767619788646698,0.1751231551170349
185,5,128,102,0.4790214002132416,0.2646229863166809
185,5,128,103,0.653225302696228,0.20965594053268433
185,5,128,104,0.5208085179328918,0.25996753573417664
185,5,128,105,0.6530880928039551,0.24280527234077454
185,5,128,106,0.5972467064857483,0.27941760420799255
185,5,128,107,0.6525439620018005,0.15678462386131287
185,5,128,108,0.40004515647888184,0.16473521292209625
185,5,128,109,0.5596828460693359,0.28956109285354614
185,5,128,110,0.6793396472930908,0.1275836080312729
185,5,128,111,0.7558711171150208,0.19199977815151215
185,5,128,112,0.5741511583328247,0.18946078419685364
185,5,128,113,0.45667821168899536,0.22655248641967773
185,5,128,114,0.6739866733551025,0.24938693642616272
185,5,128,115,0.6399146318435669,0.20263557136058807
185,5,128,116,0.5547392964363098,0.18924078345298767
185,5,128,117,0.5925921201705933,0.28451043367385864
185,5,128,118,0.8648867011070251,0.10298056900501251
185,5,128,119,0.8164743781089783,0.15129239857196808
185,5,128,120,0.842553436756134,0.15580123662948608
185,5,128,121,0.3633791208267212,0.2828587293624878
185,5,128,122,0.5113237500190735,0.20045138895511627
185,5,128,123,0.6748743057250977,0.14177250862121582
185,5,128,124,0.6885860562324524,0.21509796380996704
185,5,128,125,0.33356356620788574,0.07746610790491104
185,5,128,126,0.8608392477035522,0.11197835952043533
185,5,128,127,0.8389446139335632,0.09483512490987778
186,0,32,0,0.4910431206226349,0.04816104471683502
186,0,32,1,0.46704721450805664,0.10576919466257095
186,0,32,2,0.4430423080921173,0.041427597403526306
186,0,32,3,0.46411892771720886,0.02864653430879116
186,0,32,4,0.5912232995033264,0.09485635161399841
186,0,32,5,0.6097699403762817,0.03916609287261963
186,0,32,6,0.5528476238250732,0.027228469029068947
186,0,32,7,0.569754421710968,0.06177961453795433
186,0,32,8,0.5423644781112671,0.037669409066438675
186,0,32,9,0.5847792029380798,0.05219313129782677
186,0,32,10,0.5019723176956177,0.05957147479057312
186,0,32,11,0.5047407746315002,0.03235158324241638
186,0,32,12,0.6124124526977539,0.08192168176174164
186,0,32,13,0.4240647554397583,0.09305805712938309
186,0,32,14,0.5783121585845947,0.05864502862095833
186,0,32,15,0.5771927833557129,0.05561813712120056
186,0,32,16,0.5601171255111694,0.038851041346788406
186,0,32,17,0.4548942446708679,0.08338382095098495
186,0,32,18,0.3513329029083252,0.07446981966495514
186,0,32,19,0.4411126971244812,0.03172963485121727
186,0,32,20,0.5212885737419128,0.10498347878456116
186,0,32,21,0.43846189975738525,0.06372819095849991
186,0,32,22,0.48356983065605164,0.03954717889428139
186,0,32,23,0.6180977821350098,0.06690967828035355
186,0,32,24,0.5216001272201538,0.07497626543045044
186,0,32,25,0.4781856834888458,0.07870752364397049
186,0,32,26,0.49380597472190857,0.06607378274202347
186,0,32,27,0.3600887358188629,0.034143559634685516
186,0,32,28,0.3762499690055847,0.041704095900058746
186,0,32,29,0.44915351271629333,0.043431296944618225
186,0,32,30,0.48133981227874756,0.049015577882528305
186,0,32,31,0.5484641194343567,0.05969012528657913
186,1,32,0,0.5925260186195374,0.031212667003273964
186,1,32,1,0.4851105213165283,0.06656772643327713
186,1,32,2,0.37755897641181946,0.0456119067966938
186,1,32,3,0.4234582185745239,0.04713231325149536
186,1,32,4,0.4484640657901764,0.07522089034318924
186,1,32,5,0.3732166290283203,0.05511581525206566
186,1,32,6,0.5266953110694885,0.07010312378406525
186,1,32,7,0.5569578409194946,0.04332980141043663
186,1,32,8,0.6251882910728455,0.07187570631504059
186,1,32,9,0.3847336173057556,0.07455014437437057
186,1,32,10,0.4675935208797455,0.09469950199127197
186,1,32,11,0.5967324376106262,0.03431597352027893
186,1,32,12,0.3483051061630249,0.05181384086608887
186,1,32,13,0.5677968859672546,0.02988510951399803
186,1,32,14,0.4374382197856903,0.0778992623090744
186,1,32,15,0.5267263054847717,0.038332924246788025
186,1,32,16,0.33320754766464233,0.05788377299904823
186,1,32,17,0.5714743137359619,0.058956824243068695
186,1,32,18,0.46742454171180725,0.0320843867957592
186,1,32,19,0.5678909420967102,0.038157228380441666
186,1,32,20,0.4938379228115082,0.03594876453280449
186,1,32,21,0.46405044198036194,0.032653238624334335
186,1,32,22,0.39653897285461426,0.09491151571273804
186,1,32,23,0.6380848288536072,0.06434150040149689
186,1,32,24,0.5918979048728943,0.02985137701034546
186,1,32,25,0.37739017605781555,0.021593855693936348
186,1,32,26,0.4916822016239166,0.03300808370113373
186,1,32,27,0.540123701095581,0.034543558955192566
186,1,32,28,0.4673660099506378,0.048923321068286896
186,1,32,29,0.4536452889442444,0.0494854561984539
186,1,32,30,0.49061208963394165,0.04514559730887413
186,1,32,31,0.5795668959617615,0.06396892666816711
186,2,64,0,0.4095437228679657,0.1353769451379776
186,2,64,1,0.4396623969078064,0.06278742104768753
186,2,64,2,0.46371403336524963,0.12254911661148071
186,2,64,3,0.42921698093414307,0.1395537555217743
186,2,64,4,0.3594399392604828,0.06696629524230957
186,2,64,5,0.5320404171943665,0.12695762515068054
186,2,64,6,0.5655773878097534,0.03500603139400482
186,2,64,7,0.45641496777534485,0.09202253818511963
186,2,64,8,0.5657936334609985,0.12670643627643585
186,2,64,9,0.42533183097839355,0.0835506021976471
186,2,64,10,0.49786171317100525,0.07324256747961044
186,2,64,11,0.34662818908691406,0.09930433332920074
186,2,64,12,0.6106109023094177,0.10633822530508041
186,2,64,13,0.5895674824714661,0.05737278610467911
186,2,64,14,0.5470961928367615,0.056722309440374374
186,2,64,15,0.5287354588508606,0.086870938539505
186,2,64,16,0.5401912331581116,0.06451427191495895
186,2,64,17,0.434908002614975,0.05929364264011383
186,2,64,18,0.43759065866470337,0.1305217742919922
186,2,64,19,0.5643138885498047,0.07529021054506302
186,2,64,20,0.5400828123092651,0.039924781769514084
186,2,64,21,0.39083486795425415,0.08251139521598816
186,2,64,22,0.3851240575313568,0.07489302009344101
186,2,64,23,0.5478861927986145,0.1325497180223465
186,2,64,24,0.4514881670475006,0.08995421230792999
186,2,64,25,0.42292407155036926,0.1648353636264801
186,2,64,26,0.5842342376708984,0.04801204800605774
186,2,64,27,0.5078940391540527,0.051740698516368866
186,2,64,28,0.5074239373207092,0.07534559071063995
186,2,64,29,0.4847544729709625,0.0761849507689476
186,2,64,30,0.40427878499031067,0.08960826694965363
186,2,64,31,0.38108545541763306,0.04598633944988251
186,2,64,32,0.4570828080177307,0.11365418881177902
186,2,64,33,0.4950006604194641,0.04903039336204529
186,2,64,34,0.4937770664691925,0.08380324393510818
186,2,64,35,0.33096542954444885,0.10224293917417526
186,2,64,36,0.5058826804161072,0.07803431153297424
186,2,64,37,0.3907482326030731,0.06633622199296951
186,2,64,38,0.36149850487709045,0.075624980032444
186,2,64,39,0.46186861395835876,0.07096502929925919
186,2,64,40,0.5099849700927734,0.10350871831178665
186,2,64,41,0.3690918982028961,0.06020653620362282
186,2,64,42,0.5243587493896484,0.09234173595905304
186,2,64,43,0.46246448159217834,0.09420083463191986
186,2,64,44,0.42903897166252136,0.039850201457738876
186,2,64,45,0.47111794352531433,0.08708256483078003
186,2,64,46,0.5669450759887695,0.06985457241535187
186,2,64,47,0.5171740055084229,0.04769293591380119
186,2,64,48,0.36668118834495544,0.08802974969148636
186,2,64,49,0.5400243997573853,0.1528177559375763
186,2,64,50,0.5048235058784485,0.07365871965885162
186,2,64,51,0.41752877831459045,0.0864366814494133
186,2,64,52,0.4592883586883545,0.0430121012032032
186,2,64,53,0.47884058952331543,0.06684856116771698
186,2,64,54,0.43422648310661316,0.07880660891532898
186,2,64,55,0.5038484930992126,0.06137467548251152
186,2,64,56,0.5382384657859802,0.08279705047607422
186,2,64,57,0.3491714298725128,0.05149579420685768
186,2,64,58,0.5191184878349304,0.1769154667854309
186,2,64,59,0.5553165078163147,0.04457080364227295
186,2,64,60,0.6085603833198547,0.07220202684402466
186,2,64,61,0.4717995822429657,0.10832665860652924
186,2,64,62,0.41095373034477234,0.05892904847860336
186,2,64,63,0.5084546804428101,0.08212289214134216
186,3,64,0,0.3860282897949219,0.14275428652763367
186,3,64,1,0.3819381296634674,0.1680835336446762
186,3,64,2,0.4569782614707947,0.10352028906345367
186,3,64,3,0.5448427796363831,0.06813637912273407
186,3,64,4,0.47377809882164,0.061363864690065384
186,3,64,5,0.4293648600578308,0.10595192015171051
186,3,64,6,0.4958069920539856,0.09285177290439606
186,3,64,7,0.5488006472587585,0.0848383828997612
186,3,64,8,0.35065436363220215,0.16824281215667725
186,3,64,9,0.49542534351348877,0.07086960226297379
186,3,64,10,0.5952755808830261,0.09947694838047028
186,3,64,11,0.5183166861534119,0.10916175693273544
186,3,64,12,0.3975563943386078,0.09173157066106796
186,3,64,13,0.4943665862083435,0.08375274389982224
186,3,64,14,0.5516582131385803,0.09894655644893646
186,3,64,15,0.39238885045051575,0.06436137109994888
186,3,64,16,0.438296914100647,0.11613855510950089
186,3,64,17,0.4107016324996948,0.12314766645431519
186,3,64,18,0.4569617211818695,0.18152616918087006
186,3,64,19,0.617990255355835,0.21860238909721375
186,3,64,20,0.3003252148628235,0.12484205514192581
186,3,64,21,0.5157913565635681,0.08770954608917236
186,3,64,22,0.5832016468048096,0.06577637791633606
186,3,64,23,0.7064139246940613,0.15172772109508514
186,3,64,24,0.5473275184631348,0.08609150350093842
186,3,64,25,0.38594478368759155,0.1099611148238182
186,3,64,26,0.4493364691734314,0.11289791762828827
186,3,64,27,0.4337421953678131,0.03896987438201904
186,3,64,28,0.6299258470535278,0.17438539862632751
186,3,64,29,0.4398142397403717,0.10211937129497528
186,3,64,30,0.6437510251998901,0.09856019169092178
186,3,64,31,0.37273892760276794,0.11771637201309204
186,3,64,32,0.49970778822898865,0.057378023862838745
186,3,64,33,0.5770168900489807,0.14109183847904205
186,3,64,34,0.5252185463905334,0.11793714016675949
186,3,64,35,0.4296342134475708,0.13895653188228607
186,3,64,36,0.6147022843360901,0.04986287280917168
186,3,64,37,0.49261656403541565,0.12802857160568237
186,3,64,38,0.5723344087600708,0.1525321900844574
186,3,64,39,0.5159785151481628,0.09461359679698944
186,3,64,40,0.6038563847541809,0.06565428525209427
186,3,64,41,0.39152073860168457,0.19118793308734894
186,3,64,42,0.4045522212982178,0.08915480971336365
186,3,64,43,0.6739476919174194,0.12872768938541412
186,3,64,44,0.5119286179542542,0.04856513440608978
186,3,64,45,0.48102450370788574,0.04992736503481865
186,3,64,46,0.6134644150733948,0.15185117721557617
186,3,64,47,0.4632299840450287,0.045758508145809174
186,3,64,48,0.6127969026565552,0.12373697757720947
186,3,64,49,0.2860428988933563,0.14381372928619385
186,3,64,50,0.3190750777721405,0.1359758824110031
186,3,64,51,0.5223179459571838,0.11519711464643478
186,3,64,52,0.5385053753852844,0.140099436044693
186,3,64,53,0.4515990912914276,0.04154244065284729
186,3,64,54,0.5208468437194824,0.10230647772550583
186,3,64,55,0.6627255082130432,0.1463961899280548
186,3,64,56,0.6655359268188477,0.17511221766471863
186,3,64,57,0.41053158044815063,0.040425825864076614
186,3,64,58,0.572705864906311,0.14056572318077087
186,3,64,59,0.3763691484928131,0.10351009666919708
186,3,64,60,0.4222026467323303,0.10956122726202011
186,3,64,61,0.5902566909790039,0.12335286289453506
186,3,64,62,0.47278809547424316,0.06399574875831604
186,3,64,63,0.4610729217529297,0.0820363238453865
186,4,128,0,0.567663848400116,0.12852518260478973
186,4,128,1,0.5886222124099731,0.2035033404827118
186,4,128,2,0.37915024161338806,0.15247517824172974
186,4,128,3,0.4551747739315033,0.09597022831439972
186,4,128,4,0.46492627263069153,0.12862645089626312
186,4,128,5,0.5136228799819946,0.1766914576292038
186,4,128,6,0.4557657539844513,0.12668392062187195
186,4,128,7,0.6581713557243347,0.12102677673101425
186,4,128,8,0.5839486718177795,0.24488776922225952
186,4,128,9,0.4201838970184326,0.08913581818342209
186,4,128,10,0.48788100481033325,0.22977791726589203
186,4,128,11,0.42769697308540344,0.10444140434265137
186,4,128,12,0.34403151273727417,0.14202667772769928
186,4,128,13,0.6264765858650208,0.10825107246637344
186,4,128,14,0.6355376839637756,0.16494189202785492
186,4,128,15,0.5235661268234253,0.0927649587392807
186,4,128,16,0.40179961919784546,0.19390445947647095
186,4,128,17,0.6619864702224731,0.09977395087480545
186,4,128,18,0.6206818222999573,0.1375618427991867
186,4,128,19,0.5914496183395386,0.06854106485843658
186,4,128,20,0.5353055596351624,0.24065573513507843
186,4,128,21,0.4405960142612457,0.08133118599653244
186,4,128,22,0.4635745882987976,0.08070636540651321
186,4,128,23,0.4485931694507599,0.12144434452056885
186,4,128,24,0.4751163423061371,0.14904925227165222
186,4,128,25,0.5112592577934265,0.07920670509338379
186,4,128,26,0.3298698961734772,0.11956823617219925
186,4,128,27,0.6464724540710449,0.12314356863498688
186,4,128,28,0.5544469952583313,0.09324780106544495
186,4,128,29,0.5127652287483215,0.190217062830925
186,4,128,30,0.5843251943588257,0.08597618341445923
186,4,128,31,0.5584340691566467,0.2064489722251892
186,4,128,32,0.5492225885391235,0.12026550620794296
186,4,128,33,0.4774673879146576,0.09825717657804489
186,4,128,34,0.6898296475410461,0.1071089431643486
186,4,128,35,0.6425041556358337,0.15366053581237793
186,4,128,36,0.471854567527771,0.09199847280979156
186,4,128,37,0.5844656229019165,0.08644839376211166
186,4,128,38,0.42519035935401917,0.19008012115955353
186,4,128,39,0.5969091653823853,0.08724700659513474
186,4,128,40,0.5943549275398254,0.10232541710138321
186,4,128,41,0.6330129504203796,0.053389593958854675
186,4,128,42,0.6954113245010376,0.11703789234161377
186,4,128,43,0.4038325548171997,0.17421145737171173
186,4,128,44,0.5456022620201111,0.09885288774967194
186,4,128,45,0.6308842897415161,0.22215405106544495
186,4,128,46,0.4810590147972107,0.21442602574825287
186,4,128,47,0.489727258682251,0.266737699508667
186,4,128,48,0.5810943245887756,0.16025488078594208
186,4,128,49,0.553764820098877,0.2310488522052765
186,4,128,50,0.5266959071159363,0.1462966799736023
186,4,128,51,0.5041863322257996,0.039896558970212936
186,4,128,52,0.6644842028617859,0.1307429075241089
186,4,128,53,0.4330485761165619,0.08648303896188736
186,4,128,54,0.5058584809303284,0.2118142545223236
186,4,128,55,0.4669116139411926,0.16167616844177246
186,4,128,56,0.5152116417884827,0.15452592074871063
186,4,128,57,0.6280276775360107,0.09256215393543243
186,4,128,58,0.6561436057090759,0.09657303243875504
186,4,128,59,0.6160895824432373,0.07366730272769928
186,4,128,60,0.6267079710960388,0.25964316725730896
186,4,128,61,0.4559403359889984,0.1793924868106842
186,4,128,62,0.4964582920074463,0.13915880024433136
186,4,128,63,0.680877149105072,0.11947214603424072
186,4,128,64,0.5184279680252075,0.17973586916923523
186,4,128,65,0.44519469141960144,0.08945583552122116
186,4,128,66,0.5621514916419983,0.16816410422325134
186,4,128,67,0.5025147199630737,0.14859957993030548
186,4,128,68,0.553318440914154,0.10462044179439545
186,4,128,69,0.4979825019836426,0.17879986763000488
186,4,128,70,0.5995233058929443,0.1404184103012085
186,4,128,71,0.43255817890167236,0.1439281702041626
186,4,128,72,0.5175338387489319,0.12655407190322876
186,4,128,73,0.3862355947494507,0.21077077090740204
186,4,128,74,0.3705320656299591,0.15135392546653748
186,4,128,75,0.46597689390182495,0.18705010414123535
186,4,128,76,0.5269985198974609,0.25095227360725403
186,4,128,77,0.5704553127288818,0.20553453266620636
186,4,128,78,0.4944016933441162,0.07838770747184753
186,4,128,79,0.589472234249115,0.08474691957235336
186,4,128,80,0.6068096160888672,0.07694833725690842
186,4,128,81,0.45327627658843994,0.09210085868835449
186,4,128,82,0.5513128638267517,0.2537167966365814
186,4,128,83,0.6426267027854919,0.2161887139081955
186,4,128,84,0.48905670642852783,0.06850484013557434
186,4,128,85,0.4543613791465759,0.0783388689160347
186,4,128,86,0.5425801873207092,0.06558162719011307
186,4,128,87,0.5764085054397583,0.12493465840816498
186,4,128,88,0.5689898133277893,0.3046734631061554
186,4,128,89,0.3937218487262726,0.13547125458717346
186,4,128,90,0.527618944644928,0.08434030413627625
186,4,128,91,0.5550077557563782,0.16166383028030396
186,4,128,92,0.43244192004203796,0.15818950533866882
186,4,128,93,0.37856632471084595,0.18103532493114471
186,4,128,94,0.5027511119842529,0.09131716936826706
186,4,128,95,0.492439329624176,0.13362574577331543
186,4,128,96,0.4681107699871063,0.12389663606882095
186,4,128,97,0.593906044960022,0.07189711928367615
186,4,128,98,0.3999485969543457,0.07052069902420044
186,4,128,99,0.5990845561027527,0.2042434960603714
186,4,128,100,0.6220366954803467,0.07867945730686188
186,4,128,101,0.5764427781105042,0.24513688683509827
186,4,128,102,0.3203556537628174,0.08089097589254379
186,4,128,103,0.4703131318092346,0.09550336748361588
186,4,128,104,0.3534690737724304,0.12626603245735168
186,4,128,105,0.42826133966445923,0.10077811777591705
186,4,128,106,0.542885422706604,0.08683226257562637
186,4,128,107,0.695236086845398,0.14040715992450714
186,4,128,108,0.3598257601261139,0.143391951918602
186,4,128,109,0.42813485860824585,0.18432459235191345
186,4,128,110,0.370503693819046,0.09514349699020386
186,4,128,111,0.6633438467979431,0.1745765507221222
186,4,128,112,0.7357980608940125,0.10211368650197983
186,4,128,113,0.6286423802375793,0.10880023241043091
186,4,128,114,0.4623834788799286,0.12663671374320984
186,4,128,115,0.4850805401802063,0.21196213364601135
186,4,128,116,0.6108876466751099,0.18278983235359192
186,4,128,117,0.5423848628997803,0.12637561559677124
186,4,128,118,0.44118475914001465,0.1186208575963974
186,4,128,119,0.5643099546432495,0.2535134553909302
186,4,128,120,0.5768932104110718,0.15881843864917755
186,4,128,121,0.39953356981277466,0.07642558962106705
186,4,128,122,0.5794452428817749,0.10658719390630722
186,4,128,123,0.5240687727928162,0.1301632970571518
186,4,128,124,0.705449640750885,0.0996125191450119
186,4,128,125,0.45391860604286194,0.11824005097150803
186,4,128,126,0.5122794508934021,0.0887317806482315
186,4,128,127,0.4778144955635071,0.09816762059926987
186,5,128,0,0.6790468096733093,0.09817084670066833
186,5,128,1,0.523378849029541,0.10199735313653946
186,5,128,2,0.3818765878677368,0.12991417944431305
186,5,128,3,0.5558080673217773,0.05171891301870346
186,5,128,4,0.5735642910003662,0.09129106998443604
186,5,128,5,0.5117506384849548,0.13330167531967163
186,5,128,6,0.47299256920814514,0.058833904564380646
186,5,128,7,0.5200515389442444,0.09078904241323471
186,5,128,8,0.5484672784805298,0.08080559223890305
186,5,128,9,0.3784749209880829,0.07882966846227646
186,5,128,10,0.40222078561782837,0.09727165102958679
186,5,128,11,0.5025462508201599,0.07531074434518814
186,5,128,12,0.4341883659362793,0.13421423733234406
186,5,128,13,0.4909836947917938,0.038915347307920456
186,5,128,14,0.5010751485824585,0.13697870075702667
186,5,128,15,0.35384097695350647,0.09522031992673874
186,5,128,16,0.5213856101036072,0.10203519463539124
186,5,128,17,0.5163509249687195,0.026958735659718513
186,5,128,18,0.5387517809867859,0.08849863708019257
186,5,128,19,0.45699408650398254,0.11039063334465027
186,5,128,20,0.5939706563949585,0.041729770600795746
186,5,128,21,0.5293698310852051,0.11454010754823685
186,5,128,22,0.5294668674468994,0.04889758303761482
186,5,128,23,0.5095231533050537,0.12328410148620605
186,5,128,24,0.6326712965965271,0.10340916365385056
186,5,128,25,0.5941115617752075,0.032317280769348145
186,5,128,26,0.61136394739151,0.09152521938085556
186,5,128,27,0.6519827246665955,0.16371040046215057
186,5,128,28,0.5159597992897034,0.10484191030263901
186,5,128,29,0.5296029448509216,0.08523951470851898
186,5,128,30,0.44719380140304565,0.10883170366287231
186,5,128,31,0.664745569229126,0.10861051082611084
186,5,128,32,0.5953974723815918,0.10629790276288986
186,5,128,33,0.452736496925354,0.07394347339868546
186,5,128,34,0.4073006510734558,0.06623191386461258
186,5,128,35,0.5557336211204529,0.07671646028757095
186,5,128,36,0.4517401456832886,0.13242864608764648
186,5,128,37,0.4948657751083374,0.058826785534620285
186,5,128,38,0.4648136496543884,0.03134879097342491
186,5,128,39,0.5350611209869385,0.056159403175115585
186,5,128,40,0.5017821788787842,0.05820852518081665
186,5,128,41,0.6103700399398804,0.09381940960884094
186,5,128,42,0.44874703884124756,0.09308066219091415
186,5,128,43,0.5073416829109192,0.0828915536403656
186,5,128,44,0.4872782528400421,0.06786039471626282
186,5,128,45,0.41770195960998535,0.11012426763772964
186,5,128,46,0.5410603284835815,0.0788578912615776
186,5,128,47,0.5865931510925293,0.07848705351352692
186,5,128,48,0.32330915331840515,0.10093960165977478
186,5,128,49,0.5480530858039856,0.07044100016355515
186,5,128,50,0.6605697274208069,0.0914941281080246
186,5,128,51,0.6113149523735046,0.10494562238454819
186,5,128,52,0.5057215690612793,0.11193378269672394
186,5,128,53,0.5984153747558594,0.12098924070596695
186,5,128,54,0.5757458806037903,0.06188812106847763
186,5,128,55,0.448646605014801,0.088828444480896
186,5,128,56,0.4754538834095001,0.07716353237628937
186,5,128,57,0.4499998092651367,0.13225415349006653
186,5,128,58,0.521093487739563,0.03688306733965874
186,5,128,59,0.4670484960079193,0.08965881913900375
186,5,128,60,0.6131972670555115,0.09858906269073486
186,5,128,61,0.5145285725593567,0.059343159198760986
186,5,128,62,0.5210638642311096,0.07722363620996475
186,5,128,63,0.5588911175727844,0.0791984423995018
186,5,128,64,0.5044541954994202,0.08366741985082626
186,5,128,65,0.5644782185554504,0.06693572551012039
186,5,128,66,0.40177956223487854,0.07802074402570724
186,5,128,67,0.584896981716156,0.08595004677772522
186,5,128,68,0.6179247498512268,0.08534029126167297
186,5,128,69,0.5262207388877869,0.07274561375379562
186,5,128,70,0.5738093852996826,0.19408321380615234
186,5,128,71,0.5805531740188599,0.07807818800210953
186,5,128,72,0.5003868341445923,0.08269337564706802
186,5,128,73,0.5776543021202087,0.11439957469701767
186,5,128,74,0.42274725437164307,0.14232194423675537
186,5,128,75,0.4720485508441925,0.0755857452750206
186,5,128,76,0.4950874149799347,0.03725111111998558
186,5,128,77,0.5921262502670288,0.08224762231111526
186,5,128,78,0.6321707963943481,0.07773029804229736
186,5,128,79,0.4724941849708557,0.10419036448001862
186,5,128,80,0.36918672919273376,0.08798389881849289
186,5,128,81,0.5925856232643127,0.11013085395097733
186,5,128,82,0.45382431149482727,0.0745285227894783
186,5,128,83,0.5871773362159729,0.05415395647287369
186,5,128,84,0.5324256420135498,0.11226838827133179
186,5,128,85,0.5821484327316284,0.041037268936634064
186,5,128,86,0.6179365515708923,0.08076120167970657
186,5,128,87,0.6375457048416138,0.16152343153953552
186,5,128,88,0.5412115454673767,0.13284827768802643
186,5,128,89,0.562428891658783,0.07751215994358063
186,5,128,90,0.4987236559391022,0.1071038469672203
186,5,128,91,0.41601523756980896,0.15760600566864014
186,5,128,92,0.3522282540798187,0.11649531871080399
186,5,128,93,0.5329788327217102,0.08993278443813324
186,5,128,94,0.612107515335083,0.10503889620304108
186,5,128,95,0.35706856846809387,0.11361666768789291
186,5,128,96,0.48533567786216736,0.06850532442331314
186,5,128,97,0.4592559337615967,0.05923926457762718
186,5,128,98,0.46344509720802307,0.0967925414443016
186,5,128,99,0.6565952301025391,0.09872877597808838
186,5,128,100,0.5911633372306824,0.12095815688371658
186,5,128,101,0.48815828561782837,0.10277847945690155
186,5,128,102,0.4796249568462372,0.04040643572807312
186,5,128,103,0.46755367517471313,0.09478835761547089
186,5,128,104,0.48427820205688477,0.11056126654148102
186,5,128,105,0.5163400173187256,0.0715872049331665
186,5,128,106,0.6006421446800232,0.07987993210554123
186,5,128,107,0.7020695209503174,0.11333312839269638
186,5,128,108,0.5562801957130432,0.045109692960977554
186,5,128,109,0.5763928890228271,0.11068246513605118
186,5,128,110,0.5247290730476379,0.07913395762443542
186,5,128,111,0.49651825428009033,0.16319337487220764
186,5,128,112,0.42318978905677795,0.11028919368982315
186,5,128,113,0.43135425448417664,0.08702486008405685
186,5,128,114,0.6089741587638855,0.09535994380712509
186,5,128,115,0.4777390658855438,0.10206747055053711
186,5,128,116,0.6978896260261536,0.08798670768737793
186,5,128,117,0.5904539227485657,0.16110390424728394
186,5,128,118,0.4662824273109436,0.05223715305328369
186,5,128,119,0.5899338722229004,0.06154670938849449
186,5,128,120,0.5841080546379089,0.08877701312303543
186,5,128,121,0.5456736087799072,0.07324979454278946
186,5,128,122,0.5115739703178406,0.027996601536870003
186,5,128,123,0.5313777327537537,0.0936320573091507
186,5,128,124,0.6293096542358398,0.10487248003482819
186,5,128,125,0.5760514736175537,0.08116742223501205
186,5,128,126,0.4801376461982727,0.09379824250936508
186,5,128,127,0.6059041023254395,0.0955067127943039
188,0,32,0,0.4643080234527588,0.1107838973402977
188,0,32,1,0.5348268747329712,0.11590743064880371
188,0,32,2,0.35951605439186096,0.07950027287006378
188,0,32,3,0.6095539927482605,0.07153753936290741
188,0,32,4,0.5335143804550171,0.10636979341506958
188,0,32,5,0.4460873305797577,0.08172033727169037
188,0,32,6,0.6020628809928894,0.053790073841810226
188,0,32,7,0.4155119061470032,0.08031994849443436
188,0,32,8,0.5192438364028931,0.08823087066411972
188,0,32,9,0.5364810824394226,0.11495712399482727
188,0,32,10,0.49709784984588623,0.09820742905139923
188,0,32,11,0.49281570315361023,0.0733238160610199
188,0,32,12,0.5050566792488098,0.03133223205804825
188,0,32,13,0.38681909441947937,0.05406445637345314
188,0,32,14,0.5316576361656189,0.05026460811495781
188,0,32,15,0.6005523800849915,0.12076195329427719
188,0,32,16,0.46553152799606323,0.06070772558450699
188,0,32,17,0.47754326462745667,0.11326254904270172
188,0,32,18,0.4911936819553375,0.0973225012421608
188,0,32,19,0.602571964263916,0.07804923504590988
188,0,32,20,0.519213080406189,0.08752555400133133
188,0,32,21,0.4262378215789795,0.06554776430130005
188,0,32,22,0.4205408990383148,0.08917997032403946
188,0,32,23,0.5102893114089966,0.12329152971506119
188,0,32,24,0.5358038544654846,0.06787548214197159
188,0,32,25,0.5289207100868225,0.050528205931186676
188,0,32,26,0.4421829581260681,0.0791962519288063
188,0,32,27,0.5060750842094421,0.07391799241304398
188,0,32,28,0.39214804768562317,0.060399021953344345
188,0,32,29,0.4935709238052368,0.09889407455921173
188,0,32,30,0.5159149169921875,0.11008547246456146
188,0,32,31,0.4503592252731323,0.06767323613166809
188,1,32,0,0.3694753050804138,0.03484097495675087
188,1,32,1,0.45101723074913025,0.0892978087067604
188,1,32,2,0.41338828206062317,0.07990109175443649
188,1,32,3,0.591745913028717,0.08546088635921478
188,1,32,4,0.34464481472969055,0.06228881701827049
188,1,32,5,0.3581814467906952,0.04365287348628044
188,1,32,6,0.5170567631721497,0.06273366510868073
188,1,32,7,0.5231164693832397,0.03993041440844536
188,1,32,8,0.39042600989341736,0.042116928845644
188,1,32,9,0.4077807068824768,0.017186004668474197
188,1,32,10,0.6313601732254028,0.04362091049551964
188,1,32,11,0.5645230412483215,0.08437412977218628
188,1,32,12,0.466785728931427,0.029160913079977036
188,1,32,13,0.45769476890563965,0.051525380462408066
188,1,32,14,0.5169344544410706,0.09198274463415146
188,1,32,15,0.4746522009372711,0.14015087485313416
188,1,32,16,0.3821328282356262,0.07887227088212967
188,1,32,17,0.513214647769928,0.09128480404615402
188,1,32,18,0.6262973546981812,0.04404071345925331
188,1,32,19,0.6676703095436096,0.0450303852558136
188,1,32,20,0.4974095821380615,0.04441266506910324
188,1,32,21,0.5608070492744446,0.04898080229759216
188,1,32,22,0.3747873604297638,0.025578662753105164
188,1,32,23,0.6538746356964111,0.0398239940404892
188,1,32,24,0.31601831316947937,0.06916250288486481
188,1,32,25,0.4024655818939209,0.044698316603899
188,1,32,26,0.4385954439640045,0.08112461119890213
188,1,32,27,0.5915597677230835,0.05504455789923668
188,1,32,28,0.3841285705566406,0.0489010252058506
188,1,32,29,0.5901266932487488,0.08360395580530167
188,1,32,30,0.570189356803894,0.1031932532787323
188,1,32,31,0.395568311214447,0.10449158400297165
188,2,64,0,0.4786577820777893,0.15514042973518372
188,2,64,1,0.4802579879760742,0.14036695659160614
188,2,64,2,0.45083820819854736,0.13437096774578094
188,2,64,3,0.4596349000930786,0.11972632259130478
188,2,64,4,0.5707300305366516,0.08567995578050613
188,2,64,5,0.6489489078521729,0.09705276042222977
188,2,64,6,0.3628250062465668,0.09935236722230911
188,2,64,7,0.4138186573982239,0.10387898981571198
188,2,64,8,0.6386693120002747,0.06691444665193558
188,2,64,9,0.38837730884552,0.12034972012042999
188,2,64,10,0.5350741744041443,0.17918772995471954
188,2,64,11,0.46520474553108215,0.0548570416867733
188,2,64,12,0.5084385275840759,0.14795677363872528
188,2,64,13,0.7006319165229797,0.11614309996366501
188,2,64,14,0.3532097041606903,0.1415819674730301
188,2,64,15,0.3898260295391083,0.06778226792812347
188,2,64,16,0.4230705797672272,0.15452787280082703
188,2,64,17,0.5509710311889648,0.1590285301208496
188,2,64,18,0.3313385546207428,0.12795865535736084
188,2,64,19,0.5553566217422485,0.11691321432590485
188,2,64,20,0.5494690537452698,0.15859821438789368
188,2,64,21,0.4499381184577942,0.10836102068424225
188,2,64,22,0.6548959016799927,0.11286693811416626
188,2,64,23,0.37352392077445984,0.166849747300148
188,2,64,24,0.55121248960495,0.14499999582767487
188,2,64,25,0.35192257165908813,0.0860585868358612
188,2,64,26,0.5185624361038208,0.15778139233589172
188,2,64,27,0.4676622748374939,0.1300595998764038
188,2,64,28,0.4704623818397522,0.15460260212421417
188,2,64,29,0.441151887178421,0.13798440992832184
188,2,64,30,0.673332154750824,0.07128242403268814
188,2,64,31,0.5990611910820007,0.07914204150438309
188,2,64,32,0.45388883352279663,0.0786362811923027
188,2,64,33,0.6902339458465576,0.06933657824993134
188,2,64,34,0.5436011552810669,0.07017359882593155
188,2,64,35,0.4498380422592163,0.1244235634803772
188,2,64,36,0.46967238187789917,0.16812734305858612
188,2,64,37,0.5342664122581482,0.1404508352279663
188,2,64,38,0.39526066184043884,0.07959780842065811
188,2,64,39,0.4613174498081207,0.13875439763069153
188,2,64,40,0.6573536396026611,0.11997757107019424
188,2,64,41,0.4872269332408905,0.08956564962863922
188,2,64,42,0.5341683030128479,0.1871066391468048
188,2,64,43,0.5984723567962646,0.11324010044336319
188,2,64,44,0.49950292706489563,0.09140732884407043
188,2,64,45,0.4486364722251892,0.10028978437185287
188,2,64,46,0.36288756132125854,0.14280174672603607
188,2,64,47,0.4452356994152069,0.1630164384841919
188,2,64,48,0.42347589135169983,0.07471685856580734
188,2,64,49,0.4212246537208557,0.12884660065174103
188,2,64,50,0.4266412854194641,0.08400503545999527
188,2,64,51,0.5183566212654114,0.18734633922576904
188,2,64,52,0.41021978855133057,0.1557166576385498
188,2,64,53,0.4388042092323303,0.24104391038417816
188,2,64,54,0.5589417219161987,0.11670596897602081
188,2,64,55,0.4344288408756256,0.15004359185695648
188,2,64,56,0.4535430371761322,0.17856913805007935
188,2,64,57,0.5209246873855591,0.16270007193088531
188,2,64,58,0.4766727685928345,0.09497850388288498
188,2,64,59,0.30638638138771057,0.1626032441854477
188,2,64,60,0.7473808526992798,0.12428218871355057
188,2,64,61,0.4997493326663971,0.1416069120168686
188,2,64,62,0.41316142678260803,0.11937764286994934
188,2,64,63,0.5438356399536133,0.14239883422851562
188,3,64,0,0.3917705714702606,0.22577513754367828
188,3,64,1,0.3712904453277588,0.26019880175590515
188,3,64,2,0.7040168642997742,0.1000257357954979
188,3,64,3,0.33987414836883545,0.17354115843772888
188,3,64,4,0.4673152565956116,0.3028193414211273
188,3,64,5,0.6369853019714355,0.07605290412902832
188,3,64,6,0.3291153907775879,0.1590787172317505
188,3,64,7,0.519372284412384,0.2754216194152832
188,3,64,8,0.4608152508735657,0.3239155411720276
188,3,64,9,0.4174184501171112,0.10040264576673508
188,3,64,10,0.4830830991268158,0.265625536441803
188,3,64,11,0.5001914501190186,0.22532004117965698
188,3,64,12,0.3998820185661316,0.10242799669504166
188,3,64,13,0.6150631308555603,0.14705640077590942
188,3,64,14,0.5480047464370728,0.29039016366004944
188,3,64,15,0.4033244252204895,0.08855916559696198
188,3,64,16,0.37222543358802795,0.12654906511306763
188,3,64,17,0.6551802754402161,0.1146160140633583
188,3,64,18,0.5472660660743713,0.11029017716646194
188,3,64,19,0.4836982190608978,0.27261513471603394
188,3,64,20,0.4074654281139374,0.17634309828281403
188,3,64,21,0.5097014307975769,0.3183947503566742
188,3,64,22,0.4269271492958069,0.3098050653934479
188,3,64,23,0.4582565128803253,0.2416064292192459
188,3,64,24,0.6578583121299744,0.23555748164653778
188,3,64,25,0.6139712333679199,0.0654507651925087
188,3,64,26,0.49558398127555847,0.14641839265823364
188,3,64,27,0.5272319912910461,0.2575811445713043
188,3,64,28,0.5341939330101013,0.1331758201122284
188,3,64,29,0.455531507730484,0.14258725941181183
188,3,64,30,0.5649807453155518,0.10686808824539185
188,3,64,31,0.39306899905204773,0.09832952171564102
188,3,64,32,0.45991194248199463,0.20111796259880066
188,3,64,33,0.582344114780426,0.23052747547626495
188,3,64,34,0.5898833870887756,0.23976477980613708
188,3,64,35,0.47636401653289795,0.13432742655277252
188,3,64,36,0.7006773948669434,0.13004674017429352
188,3,64,37,0.4606718420982361,0.22802886366844177
188,3,64,38,0.7281588912010193,0.11115225404500961
188,3,64,39,0.340674489736557,0.16606296598911285
188,3,64,40,0.5040349364280701,0.1631518304347992
188,3,64,41,0.5389556288719177,0.27070650458335876
188,3,64,42,0.437348872423172,0.20067688822746277
188,3,64,43,0.3843104839324951,0.1226033866405487
188,3,64,44,0.5701269507408142,0.19117817282676697
188,3,64,45,0.42223110795021057,0.18147127330303192
188,3,64,46,0.5315096974372864,0.042210087180137634
188,3,64,47,0.4942592978477478,0.16676321625709534
188,3,64,48,0.661699116230011,0.13247045874595642
188,3,64,49,0.3115012049674988,0.11967138946056366
188,3,64,50,0.3213059604167938,0.06354991346597672
188,3,64,51,0.6054738759994507,0.16680686175823212
188,3,64,52,0.4290235638618469,0.29197895526885986
188,3,64,53,0.24499636888504028,0.12052591890096664
188,3,64,54,0.46930062770843506,0.20651987195014954
188,3,64,55,0.3589177429676056,0.12013500928878784
188,3,64,56,0.47298547625541687,0.345689058303833
188,3,64,57,0.549710214138031,0.25873634219169617
188,3,64,58,0.5311009287834167,0.24563977122306824
188,3,64,59,0.475951611995697,0.2622242569923401
188,3,64,60,0.4846173822879791,0.1279076486825943
188,3,64,61,0.5538769364356995,0.07060287147760391
188,3,64,62,0.40160471200942993,0.0884319618344307
188,3,64,63,0.48880547285079956,0.14487522840499878
188,4,128,0,0.4901098906993866,0.06419666111469269
188,4,128,1,0.5088841319084167,0.21666942536830902
188,4,128,2,0.4892203211784363,0.17215144634246826
188,4,128,3,0.49582070112228394,0.12125241756439209
188,4,128,4,0.5885340571403503,0.18625326454639435
188,4,128,5,0.48522642254829407,0.11326602101325989
188,4,128,6,0.6559271216392517,0.23398718237876892
188,4,128,7,0.5254493951797485,0.08796665817499161
188,4,128,8,0.7338761687278748,0.09651501476764679
188,4,128,9,0.32324302196502686,0.20057716965675354
188,4,128,10,0.4701741635799408,0.2150186151266098
188,4,128,11,0.6873775720596313,0.2653559744358063
188,4,128,12,0.6273624300956726,0.1750076711177826
188,4,128,13,0.5161035060882568,0.21376830339431763
188,4,128,14,0.5380287170410156,0.2099246233701706
188,4,128,15,0.4129897356033325,0.28565070033073425
188,4,128,16,0.6259917616844177,0.17275816202163696
188,4,128,17,0.6202523112297058,0.212539404630661
188,4,128,18,0.5595150589942932,0.28052422404289246
188,4,128,19,0.4566977024078369,0.2070087045431137
188,4,128,20,0.569913387298584,0.12496461719274521
188,4,128,21,0.5816416144371033,0.21674448251724243
188,4,128,22,0.4203732907772064,0.236015185713768
188,4,128,23,0.43286097049713135,0.2651858329772949
188,4,128,24,0.6345143914222717,0.22305700182914734
188,4,128,25,0.4351085424423218,0.08496148139238358
188,4,128,26,0.7455655932426453,0.10517605394124985
188,4,128,27,0.5906084775924683,0.1784280687570572
188,4,128,28,0.4070071578025818,0.17930707335472107
188,4,128,29,0.4068393409252167,0.18064680695533752
188,4,128,30,0.49916112422943115,0.18402476608753204
188,4,128,31,0.39872410893440247,0.2336903065443039
188,4,128,32,0.6963090896606445,0.22566762566566467
188,4,128,33,0.4334222078323364,0.13566143810749054
188,4,128,34,0.6079927682876587,0.13664233684539795
188,4,128,35,0.655402421951294,0.1050441786646843
188,4,128,36,0.5766841769218445,0.14124605059623718
188,4,128,37,0.6700352430343628,0.25702816247940063
188,4,128,38,0.5696542859077454,0.2270859181880951
188,4,128,39,0.6392858624458313,0.19129349291324615
188,4,128,40,0.5156226754188538,0.2193020135164261
188,4,128,41,0.6392728090286255,0.11972075700759888
188,4,128,42,0.6808373928070068,0.13353373110294342
188,4,128,43,0.6955682635307312,0.21492691338062286
188,4,128,44,0.6656471490859985,0.1543302834033966
188,4,128,45,0.5363181829452515,0.17388348281383514
188,4,128,46,0.7208160161972046,0.11362046748399734
188,4,128,47,0.5608065128326416,0.14074477553367615
188,4,128,48,0.6883628964424133,0.09997384995222092
188,4,128,49,0.5430996417999268,0.1859322488307953
188,4,128,50,0.6319936513900757,0.10907488316297531
188,4,128,51,0.6613122224807739,0.14470136165618896
188,4,128,52,0.6513432860374451,0.0884707123041153
188,4,128,53,0.5761907696723938,0.22790393233299255
188,4,128,54,0.4878709018230438,0.21574176847934723
188,4,128,55,0.48739537596702576,0.19546017050743103
188,4,128,56,0.5794522762298584,0.1468367874622345
188,4,128,57,0.7141746878623962,0.18973422050476074
188,4,128,58,0.48400968313217163,0.14266720414161682
188,4,128,59,0.5494971871376038,0.14128942787647247
188,4,128,60,0.6136902570724487,0.25537481904029846
188,4,128,61,0.5418332815170288,0.10327118635177612
188,4,128,62,0.4275815188884735,0.18569855391979218
188,4,128,63,0.4909422993659973,0.1099965050816536
188,4,128,64,0.6198445558547974,0.20986904203891754
188,4,128,65,0.6114535331726074,0.14199362695217133
188,4,128,66,0.7409377694129944,0.13512815535068512
188,4,128,67,0.40145885944366455,0.19958852231502533
188,4,128,68,0.5655765533447266,0.23002968728542328
188,4,128,69,0.4362497329711914,0.18479624390602112
188,4,128,70,0.4817630350589752,0.15313149988651276
188,4,128,71,0.6247796416282654,0.18557743728160858
188,4,128,72,0.5306393504142761,0.19853706657886505
188,4,128,73,0.45491379499435425,0.24267345666885376
188,4,128,74,0.5729541778564453,0.19533362984657288
188,4,128,75,0.4848862588405609,0.20406527817249298
188,4,128,76,0.6078823804855347,0.09294863045215607
188,4,128,77,0.5654001235961914,0.22215817868709564
188,4,128,78,0.28901657462120056,0.18173561990261078
188,4,128,79,0.44132065773010254,0.18162643909454346
188,4,128,80,0.645312488079071,0.17046262323856354
188,4,128,81,0.6640005707740784,0.30501124262809753
188,4,128,82,0.5937382578849792,0.0930100828409195
188,4,128,83,0.5664182901382446,0.10908324271440506
188,4,128,84,0.36443066596984863,0.188196063041687
188,4,128,85,0.49134567379951477,0.19066211581230164
188,4,128,86,0.6139699220657349,0.24649837613105774
188,4,128,87,0.5459586381912231,0.13808265328407288
188,4,128,88,0.6349145770072937,0.16117648780345917
188,4,128,89,0.4080737233161926,0.29539552330970764
188,4,128,90,0.5603910684585571,0.14997398853302002
188,4,128,91,0.38999247550964355,0.28065022826194763
188,4,128,92,0.4740527272224426,0.1755618453025818
188,4,128,93,0.610437273979187,0.15169255435466766
188,4,128,94,0.7118330597877502,0.07429623603820801
188,4,128,95,0.6405736804008484,0.22530759871006012
188,4,128,96,0.6561709642410278,0.22638292610645294
188,4,128,97,0.5107249021530151,0.22100044786930084
188,4,128,98,0.5323594808578491,0.08362197875976562
188,4,128,99,0.6036486029624939,0.13557209074497223
188,4,128,100,0.425763875246048,0.14483699202537537
188,4,128,101,0.506765604019165,0.10900288820266724
188,4,128,102,0.4863903522491455,0.18584465980529785
188,4,128,103,0.44515368342399597,0.15094205737113953
188,4,128,104,0.5380423665046692,0.11489341408014297
188,4,128,105,0.41571730375289917,0.19382134079933167
188,4,128,106,0.5256542563438416,0.0878700390458107
188,4,128,107,0.5274456739425659,0.17604932188987732
188,4,128,108,0.4875245988368988,0.15047770738601685
188,4,128,109,0.6225988268852234,0.20135124027729034
188,4,128,110,0.4929284453392029,0.16225796937942505
188,4,128,111,0.55573570728302,0.16942048072814941
188,4,128,112,0.507996678352356,0.059403810650110245
188,4,128,113,0.4018760323524475,0.1973966807126999
188,4,128,114,0.683599054813385,0.2811679542064667
188,4,128,115,0.5244757533073425,0.24314013123512268
188,4,128,116,0.31564879417419434,0.2322368621826172
188,4,128,117,0.3156438171863556,0.11003703624010086
188,4,128,118,0.48129236698150635,0.20749232172966003
188,4,128,119,0.5432840585708618,0.1173577755689621
188,4,128,120,0.653531014919281,0.12378878146409988
188,4,128,121,0.4359493851661682,0.25410139560699463
188,4,128,122,0.6045330762863159,0.2284286469221115
188,4,128,123,0.26593640446662903,0.10332231968641281
188,4,128,124,0.42317575216293335,0.21887676417827606
188,4,128,125,0.3491459786891937,0.19737111032009125
188,4,128,126,0.5183621644973755,0.20527267456054688
188,4,128,127,0.5219197273254395,0.2053588628768921
188,5,128,0,0.5530610680580139,0.1563166081905365
188,5,128,1,0.6453691124916077,0.19951558113098145
188,5,128,2,0.45364511013031006,0.2124193012714386
188,5,128,3,0.4829042851924896,0.19839853048324585
188,5,128,4,0.7003742456436157,0.10784249007701874
188,5,128,5,0.7187254428863525,0.1280185580253601
188,5,128,6,0.684309184551239,0.15695415437221527
188,5,128,7,0.6562764048576355,0.17544011771678925
188,5,128,8,0.7344595193862915,0.0998765304684639
188,5,128,9,0.6623495817184448,0.1622234433889389
188,5,128,10,0.6443667411804199,0.16049502789974213
188,5,128,11,0.6452875733375549,0.13586927950382233
188,5,128,12,0.7350882291793823,0.12061131745576859
188,5,128,13,0.6699656844139099,0.08339489996433258
188,5,128,14,0.7180296182632446,0.07149151712656021
188,5,128,15,0.6912235617637634,0.1260339617729187
188,5,128,16,0.6564822196960449,0.08916507661342621
188,5,128,17,0.5846863389015198,0.11600463837385178
188,5,128,18,0.8081144094467163,0.13456854224205017
188,5,128,19,0.5825621485710144,0.1443614810705185
188,5,128,20,0.7455589175224304,0.08533119410276413
188,5,128,21,0.764082133769989,0.11211729049682617
188,5,128,22,0.6594645977020264,0.1505933403968811
188,5,128,23,0.7362434267997742,0.18911783397197723
188,5,128,24,0.6176695227622986,0.06802396476268768
188,5,128,25,0.608412504196167,0.07337645441293716
188,5,128,26,0.7586482763290405,0.12018390744924545
188,5,128,27,0.7441701292991638,0.11740361154079437
188,5,128,28,0.7093842625617981,0.14514663815498352
188,5,128,29,0.7851742506027222,0.1610744297504425
188,5,128,30,0.5440016984939575,0.17979900538921356
188,5,128,31,0.7403796911239624,0.07812973111867905
188,5,128,32,0.7166362404823303,0.09885456413030624
188,5,128,33,0.7867501974105835,0.09025785326957703
188,5,128,34,0.7645021080970764,0.10178221017122269
188,5,128,35,0.640595555305481,0.12040373682975769
188,5,128,36,0.6186659336090088,0.12770229578018188
188,5,128,37,0.7875277996063232,0.12327562272548676
188,5,128,38,0.5960003733634949,0.20682571828365326
188,5,128,39,0.5641059875488281,0.11033092439174652
188,5,128,40,0.37187299132347107,0.18318955600261688
188,5,128,41,0.5370986461639404,0.10114973038434982
188,5,128,42,0.6881917119026184,0.1061449870467186
188,5,128,43,0.3540503680706024,0.12254586815834045
188,5,128,44,0.7551138401031494,0.14371702075004578
188,5,128,45,0.6068635582923889,0.14302191138267517
188,5,128,46,0.7255644202232361,0.14069294929504395
188,5,128,47,0.7218044400215149,0.10170270502567291
188,5,128,48,0.4851834774017334,0.03202579542994499
188,5,128,49,0.7274450659751892,0.18672455847263336
188,5,128,50,0.6744381189346313,0.15367825329303741
188,5,128,51,0.7074550986289978,0.11455440521240234
188,5,128,52,0.6443617939949036,0.07979357242584229
188,5,128,53,0.7433362603187561,0.11757371574640274
188,5,128,54,0.7141357660293579,0.13774046301841736
188,5,128,55,0.7298338413238525,0.09098894149065018
188,5,128,56,0.6048519611358643,0.1590341180562973
188,5,128,57,0.7500213980674744,0.1083950325846672
188,5,128,58,0.6138496994972229,0.16807208955287933
188,5,128,59,0.5983800888061523,0.23712214827537537
188,5,128,60,0.792639970779419,0.11027166247367859
188,5,128,61,0.5710552930831909,0.14403775334358215
188,5,128,62,0.5139561891555786,0.1842716783285141
188,5,128,63,0.7777765393257141,0.09398414939641953
188,5,128,64,0.7682456970214844,0.11387132853269577
188,5,128,65,0.5991457104682922,0.11601123213768005
188,5,128,66,0.42636701464653015,0.26779264211654663
188,5,128,67,0.6839565634727478,0.121932253241539
188,5,128,68,0.6151694655418396,0.11798723042011261
188,5,128,69,0.6979765295982361,0.15909503400325775
188,5,128,70,0.6999184489250183,0.1506912261247635
188,5,128,71,0.6035739183425903,0.136844202876091
188,5,128,72,0.6086468696594238,0.15945009887218475
188,5,128,73,0.7260464429855347,0.10570739954710007
188,5,128,74,0.6674623489379883,0.16649465262889862
188,5,128,75,0.46642833948135376,0.14094890654087067
188,5,128,76,0.7663713693618774,0.07145393639802933
188,5,128,77,0.6301712989807129,0.2948188781738281
188,5,128,78,0.6247090101242065,0.17654550075531006
188,5,128,79,0.7157679796218872,0.1353011578321457
188,5,128,80,0.5699641108512878,0.1605091094970703
188,5,128,81,0.7563710808753967,0.10994935035705566
188,5,128,82,0.7177573442459106,0.09250092506408691
188,5,128,83,0.5903902053833008,0.10568542778491974
188,5,128,84,0.7446691393852234,0.08070940524339676
188,5,128,85,0.6404852271080017,0.15116940438747406
188,5,128,86,0.7802920341491699,0.1198531910777092
188,5,128,87,0.7419350147247314,0.08745817840099335
188,5,128,88,0.7223433256149292,0.1228012666106224
188,5,128,89,0.730668306350708,0.16506391763687134
188,5,128,90,0.6911975741386414,0.11138439178466797
188,5,128,91,0.567641019821167,0.17622193694114685
188,5,128,92,0.4857349395751953,0.17877210676670074
188,5,128,93,0.5133427977561951,0.22073939442634583
188,5,128,94,0.3760024309158325,0.13942834734916687
188,5,128,95,0.667696475982666,0.23364515602588654
188,5,128,96,0.7824263572692871,0.12683172523975372
188,5,128,97,0.40864554047584534,0.17806550860404968
188,5,128,98,0.7447341084480286,0.08198163658380508
188,5,128,99,0.35411471128463745,0.11382059007883072
188,5,128,100,0.5586661696434021,0.22753089666366577
188,5,128,101,0.6164973974227905,0.1716870218515396
188,5,128,102,0.2993405759334564,0.1443401426076889
188,5,128,103,0.5998016595840454,0.19388443231582642
188,5,128,104,0.7344689965248108,0.17568916082382202
188,5,128,105,0.4826797842979431,0.16217197477817535
188,5,128,106,0.5798324942588806,0.09111061692237854
188,5,128,107,0.6528468132019043,0.07895246893167496
188,5,128,108,0.3941432237625122,0.13520872592926025
188,5,128,109,0.6952276229858398,0.10672058910131454
188,5,128,110,0.5240992903709412,0.14566530287265778
188,5,128,111,0.6476252675056458,0.1747211068868637
188,5,128,112,0.6314433813095093,0.12444781512022018
188,5,128,113,0.622687578201294,0.13936273753643036
188,5,128,114,0.7722326517105103,0.13113746047019958
188,5,128,115,0.7433543801307678,0.18770508468151093
188,5,128,116,0.4513970911502838,0.09040132910013199
188,5,128,117,0.6770780682563782,0.1744328886270523
188,5,128,118,0.6564165949821472,0.13455656170845032
188,5,128,119,0.6615740060806274,0.1231144517660141
188,5,128,120,0.3940306007862091,0.233333557844162
188,5,128,121,0.7033537030220032,0.13095510005950928
188,5,128,122,0.7805241346359253,0.12799768149852753
188,5,128,123,0.6010751724243164,0.1404651552438736
188,5,128,124,0.5590436458587646,0.13125953078269958
188,5,128,125,0.6058459281921387,0.08420708775520325
188,5,128,126,0.7165268063545227,0.14716851711273193
188,5,128,127,0.5890596508979797,0.06304493546485901
189,0,32,0,0.3860585391521454,0.04595967009663582
189,0,32,1,0.6438672542572021,0.04096100479364395
189,0,32,2,0.36759495735168457,0.049217842519283295
189,0,32,3,0.42600324749946594,0.03171534091234207
189,0,32,4,0.49690762162208557,0.058266375213861465
189,0,32,5,0.5645056962966919,0.05284479632973671
189,0,32,6,0.4444478750228882,0.04167656973004341
189,0,32,7,0.6002545952796936,0.06440234184265137
189,0,32,8,0.49696019291877747,0.04716277867555618
189,0,32,9,0.3905700743198395,0.04773557558655739
189,0,32,10,0.4619104862213135,0.055106934159994125
189,0,32,11,0.446052223443985,0.03969449922442436
189,0,32,12,0.5633345246315002,0.055052708834409714
189,0,32,13,0.4003269374370575,0.031304869800806046
189,0,32,14,0.5707954168319702,0.04582833871245384
189,0,32,15,0.4645940363407135,0.02553946152329445
189,0,32,16,0.5006849765777588,0.0318126305937767
189,0,32,17,0.392252653837204,0.03427140787243843
189,0,32,18,0.5448188185691833,0.026804398745298386
189,0,32,19,0.5969523787498474,0.04847843945026398
189,0,32,20,0.5735542178153992,0.035222459584474564
189,0,32,21,0.5992857813835144,0.027704652398824692
189,0,32,22,0.5031101107597351,0.046496838331222534
189,0,32,23,0.48160773515701294,0.0454757958650589
189,0,32,24,0.5201951265335083,0.07363178580999374
189,0,32,25,0.4333890676498413,0.035921040922403336
189,0,32,26,0.4951498508453369,0.050000011920928955
189,0,32,27,0.4319462180137634,0.0501689575612545
189,0,32,28,0.4145974814891815,0.058789703994989395
189,0,32,29,0.45318344235420227,0.026202067732810974
189,0,32,30,0.585356593132019,0.052672550082206726
189,0,32,31,0.594207763671875,0.03038259968161583
189,1,32,0,0.5861918926239014,0.056305233389139175
189,1,32,1,0.5913283228874207,0.04787292331457138
189,1,32,2,0.40204423666000366,0.12394365668296814
189,1,32,3,0.3866514563560486,0.055727675557136536
189,1,32,4,0.5143519043922424,0.024555595591664314
189,1,32,5,0.5902115106582642,0.06533955782651901
189,1,32,6,0.5388835668563843,0.051415517926216125
189,1,32,7,0.5697923302650452,0.05919386073946953
189,1,32,8,0.5208430290222168,0.04847225174307823
189,1,32,9,0.6767462491989136,0.04037364944815636
189,1,32,10,0.5072183012962341,0.09034959971904755
189,1,32,11,0.35909754037857056,0.04292350262403488
189,1,32,12,0.5410336852073669,0.06231333687901497
189,1,32,13,0.4395791292190552,0.08679120242595673
189,1,32,14,0.5287013053894043,0.11078906059265137
189,1,32,15,0.46070247888565063,0.04655981808900833
189,1,32,16,0.4459461271762848,0.05705846846103668
189,1,32,17,0.5360249876976013,0.04714153707027435
189,1,32,18,0.5293350219726562,0.055939916521310806
189,1,32,19,0.6185001134872437,0.10474204272031784
189,1,32,20,0.5387320518493652,0.07829483598470688
189,1,32,21,0.5518640279769897,0.09347083419561386
189,1,32,22,0.4992259740829468,0.0509350523352623
189,1,32,23,0.43489426374435425,0.05081075057387352
189,1,32,24,0.5188497304916382,0.06360244750976562
189,1,32,25,0.4083237648010254,0.05510140210390091
189,1,32,26,0.38945627212524414,0.02827809751033783
189,1,32,27,0.4212997555732727,0.06885062158107758
189,1,32,28,0.66650390625,0.04195135459303856
189,1,32,29,0.47539302706718445,0.045705657452344894
189,1,32,30,0.5159997344017029,0.13117128610610962
189,1,32,31,0.6174237728118896,0.044058412313461304
189,2,64,0,0.45606729388237,0.0779964029788971
189,2,64,1,0.544403612613678,0.07185842096805573
189,2,64,2,0.4647555351257324,0.020936129614710808
189,2,64,3,0.4194507300853729,0.13782796263694763
189,2,64,4,0.5854617357254028,0.12982825934886932
189,2,64,5,0.42132368683815,0.1164037436246872
189,2,64,6,0.4326185882091522,0.058179356157779694
189,2,64,7,0.5675215721130371,0.08199658244848251
189,2,64,8,0.545204758644104,0.13060928881168365
189,2,64,9,0.47603610157966614,0.11826377362012863
189,2,64,10,0.5812623500823975,0.045587312430143356
189,2,64,11,0.4375433921813965,0.05187634378671646
189,2,64,12,0.6082196235656738,0.0877537950873375
189,2,64,13,0.6011222004890442,0.08195670694112778
189,2,64,14,0.4808233976364136,0.09383389353752136
189,2,64,15,0.5059137344360352,0.09108829498291016
189,2,64,16,0.3785240650177002,0.09981748461723328
189,2,64,17,0.5642831921577454,0.10082196444272995
189,2,64,18,0.5760498046875,0.1296667754650116
189,2,64,19,0.4294666051864624,0.11611529439687729
189,2,64,20,0.48479220271110535,0.08074047416448593
189,2,64,21,0.5504540801048279,0.1682058572769165
189,2,64,22,0.570256233215332,0.10141560435295105
189,2,64,23,0.4927074909210205,0.11087305098772049
189,2,64,24,0.5454830527305603,0.08366068452596664
189,2,64,25,0.4606589078903198,0.13403038680553436
189,2,64,26,0.32584333419799805,0.061675213277339935
189,2,64,27,0.48770827054977417,0.07212231308221817
189,2,64,28,0.5786817073822021,0.1314830482006073
189,2,64,29,0.5237420201301575,0.04874683544039726
189,2,64,30,0.5155710577964783,0.15719908475875854
189,2,64,31,0.5823313593864441,0.05439692363142967
189,2,64,32,0.5526540875434875,0.03419216722249985
189,2,64,33,0.46880555152893066,0.10097184777259827
189,2,64,34,0.597350537776947,0.16837303340435028
189,2,64,35,0.6221237778663635,0.12205498665571213
189,2,64,36,0.3885377049446106,0.11570101976394653
189,2,64,37,0.39180415868759155,0.0909779891371727
189,2,64,38,0.5327831506729126,0.152446448802948
189,2,64,39,0.4691861569881439,0.11673682928085327
189,2,64,40,0.4040210247039795,0.1081865131855011
189,2,64,41,0.47145217657089233,0.041449982672929764
189,2,64,42,0.4568576514720917,0.0699644684791565
189,2,64,43,0.47117358446121216,0.08754440397024155
189,2,64,44,0.5003776550292969,0.0627281591296196
189,2,64,45,0.44981247186660767,0.09185760468244553
189,2,64,46,0.3385769724845886,0.0735057070851326
189,2,64,47,0.49999621510505676,0.09140856564044952
189,2,64,48,0.5917441844940186,0.05723506957292557
189,2,64,49,0.32028380036354065,0.0648774802684784
189,2,64,50,0.4573686718940735,0.06670109927654266
189,2,64,51,0.5622130632400513,0.0484120175242424
189,2,64,52,0.59486985206604,0.049621716141700745
189,2,64,53,0.3856479525566101,0.05690179765224457
189,2,64,54,0.5935280919075012,0.12700806558132172
189,2,64,55,0.5194968581199646,0.09270010143518448
189,2,64,56,0.5255932807922363,0.088312067091465
189,2,64,57,0.4343179166316986,0.05456141382455826
189,2,64,58,0.4490088224411011,0.16448377072811127
189,2,64,59,0.47219547629356384,0.11236844956874847
189,2,64,60,0.46073511242866516,0.07761667668819427
189,2,64,61,0.5790720582008362,0.11291591823101044
189,2,64,62,0.451089471578598,0.07824220508337021
189,2,64,63,0.4201038181781769,0.1379573941230774
189,3,64,0,0.5401155352592468,0.12986846268177032
189,3,64,1,0.4506133496761322,0.04665666073560715
189,3,64,2,0.5088669657707214,0.09052257984876633
189,3,64,3,0.4486166834831238,0.06094854697585106
189,3,64,4,0.5284129977226257,0.1667221039533615
189,3,64,5,0.5562145709991455,0.12329598516225815
189,3,64,6,0.5261703133583069,0.0663660392165184
189,3,64,7,0.4237574338912964,0.10227663069963455
189,3,64,8,0.5867559313774109,0.052257124334573746
189,3,64,9,0.4871290922164917,0.06894499808549881
189,3,64,10,0.5079377889633179,0.09843046218156815
189,3,64,11,0.4571250379085541,0.07920017838478088
189,3,64,12,0.40491682291030884,0.1361314356327057
189,3,64,13,0.5435292720794678,0.13626043498516083
189,3,64,14,0.5095945596694946,0.05004420503973961
189,3,64,15,0.5740923881530762,0.055386874824762344
189,3,64,16,0.5132421255111694,0.051278140395879745
189,3,64,17,0.40493354201316833,0.10687567293643951
189,3,64,18,0.5756149888038635,0.11924292892217636
189,3,64,19,0.5373271107673645,0.07587645947933197
189,3,64,20,0.44092458486557007,0.059019267559051514
189,3,64,21,0.6291809678077698,0.07104215025901794
189,3,64,22,0.49242857098579407,0.07258403301239014
189,3,64,23,0.46387532353401184,0.120235875248909
189,3,64,24,0.41653260588645935,0.13138405978679657
189,3,64,25,0.4795999526977539,0.08507703244686127
189,3,64,26,0.4420391023159027,0.056521087884902954
189,3,64,27,0.5013775825500488,0.06181805208325386
189,3,64,28,0.6343002915382385,0.06332030892372131
189,3,64,29,0.5759556293487549,0.055788855999708176
189,3,64,30,0.4779213070869446,0.0678914487361908
189,3,64,31,0.48876625299453735,0.08362922072410583
189,3,64,32,0.423711359500885,0.1534796804189682
189,3,64,33,0.4578559994697571,0.07796110957860947
189,3,64,34,0.4659653604030609,0.1278981864452362
189,3,64,35,0.4774426519870758,0.1002422422170639
189,3,64,36,0.48906436562538147,0.046029407531023026
189,3,64,37,0.4680773913860321,0.027262195944786072
189,3,64,38,0.44631895422935486,0.05424823611974716
189,3,64,39,0.5824422836303711,0.13052797317504883
189,3,64,40,0.5625128746032715,0.15118169784545898
189,3,64,41,0.4396226406097412,0.04982065036892891
189,3,64,42,0.5600504279136658,0.1384900063276291
189,3,64,43,0.4897306561470032,0.13539917767047882
189,3,64,44,0.48270949721336365,0.055212825536727905
189,3,64,45,0.6285202503204346,0.06634074449539185
189,3,64,46,0.3942684829235077,0.10183067619800568
189,3,64,47,0.4103880822658539,0.06055215373635292
189,3,64,48,0.6640188097953796,0.07473690062761307
189,3,64,49,0.572371244430542,0.02604462020099163
189,3,64,50,0.5061890482902527,0.08434853702783585
189,3,64,51,0.5299158096313477,0.07133768498897552
189,3,64,52,0.5339043736457825,0.024197150021791458
189,3,64,53,0.41109007596969604,0.04395819082856178
189,3,64,54,0.5162803530693054,0.12317407876253128
189,3,64,55,0.4485199749469757,0.07950470596551895
189,3,64,56,0.42609384655952454,0.11337034404277802
189,3,64,57,0.44687777757644653,0.08230490237474442
189,3,64,58,0.6086151003837585,0.043658509850502014
189,3,64,59,0.4362996518611908,0.10714031010866165
189,3,64,60,0.602363109588623,0.12694934010505676
189,3,64,61,0.46062496304512024,0.080210380256176
189,3,64,62,0.3569396734237671,0.042618438601493835
189,3,64,63,0.4274747371673584,0.046198245137929916
189,4,128,0,0.5433196425437927,0.0855841115117073
189,4,128,1,0.575684130191803,0.09727618098258972
189,4,128,2,0.7049890756607056,0.09552191197872162
189,4,128,3,0.6085913181304932,0.20504124462604523
189,4,128,4,0.5932822227478027,0.05364696681499481
189,4,128,5,0.609182596206665,0.20123620331287384
189,4,128,6,0.32821449637413025,0.08748364448547363
189,4,128,7,0.6220522522926331,0.1725090593099594
189,4,128,8,0.5315159559249878,0.09009775519371033
189,4,128,9,0.648506224155426,0.17978093028068542
189,4,128,10,0.44192785024642944,0.17366310954093933
189,4,128,11,0.4836392402648926,0.12657861411571503
189,4,128,12,0.5947443842887878,0.15776892006397247
189,4,128,13,0.5065877437591553,0.09099876135587692
189,4,128,14,0.5832545161247253,0.25898703932762146
189,4,128,15,0.4515368342399597,0.11534598469734192
189,4,128,16,0.642888069152832,0.19248159229755402
189,4,128,17,0.5738899111747742,0.04845379665493965
189,4,128,18,0.3539588749408722,0.16592401266098022
189,4,128,19,0.4341685473918915,0.12184474617242813
189,4,128,20,0.7110043168067932,0.13290129601955414
189,4,128,21,0.5754892230033875,0.22646430134773254
189,4,128,22,0.5545468926429749,0.12582869827747345
189,4,128,23,0.5750362873077393,0.1731577068567276
189,4,128,24,0.44725778698921204,0.11243082582950592
189,4,128,25,0.4936584532260895,0.22063180804252625
189,4,128,26,0.5733850598335266,0.2217412143945694
189,4,128,27,0.5419747829437256,0.0786723867058754
189,4,128,28,0.5844191312789917,0.06973537802696228
189,4,128,29,0.5355364084243774,0.32102420926094055
189,4,128,30,0.5606165528297424,0.12377827614545822
189,4,128,31,0.5019749402999878,0.14395581185817719
189,4,128,32,0.6139161586761475,0.10000108927488327
189,4,128,33,0.4722709357738495,0.21064770221710205
189,4,128,34,0.6408417820930481,0.09431330114603043
189,4,128,35,0.6147255301475525,0.11354229599237442
189,4,128,36,0.6379396319389343,0.13739076256752014
189,4,128,37,0.5866517424583435,0.2991703152656555
189,4,128,38,0.36627066135406494,0.16751472651958466
189,4,128,39,0.4611313045024872,0.19365890324115753
189,4,128,40,0.674672544002533,0.08590926975011826
189,4,128,41,0.6138890981674194,0.17029213905334473
189,4,128,42,0.6722878813743591,0.15137694776058197
189,4,128,43,0.5146346092224121,0.17916247248649597
189,4,128,44,0.5570748448371887,0.14909571409225464
189,4,128,45,0.5628170371055603,0.09485267102718353
189,4,128,46,0.5649008750915527,0.13406623899936676
189,4,128,47,0.4613919258117676,0.21568475663661957
189,4,128,48,0.4573599398136139,0.27702468633651733
189,4,128,49,0.5498249530792236,0.14543262124061584
189,4,128,50,0.6072416305541992,0.1733025759458542
189,4,128,51,0.3545646071434021,0.11602076888084412
189,4,128,52,0.5565600991249084,0.12747004628181458
189,4,128,53,0.6555843353271484,0.22020505368709564
189,4,128,54,0.6231243014335632,0.1748824417591095
189,4,128,55,0.6079078912734985,0.18050041794776917
189,4,128,56,0.3157908022403717,0.1249656081199646
189,4,128,57,0.5410959720611572,0.07476852089166641
189,4,128,58,0.49690672755241394,0.2137346863746643
189,4,128,59,0.49669337272644043,0.060937948524951935
189,4,128,60,0.6474538445472717,0.1769256442785263
189,4,128,61,0.5772508382797241,0.17969150841236115
189,4,128,62,0.503570556640625,0.06131114810705185
189,4,128,63,0.5593114495277405,0.13766439259052277
189,4,128,64,0.4537821114063263,0.10590551793575287
189,4,128,65,0.6106811165809631,0.10175629705190659
189,4,128,66,0.5296525359153748,0.23917865753173828
189,4,128,67,0.43609124422073364,0.11512396484613419
189,4,128,68,0.5128406286239624,0.21409079432487488
189,4,128,69,0.6773014664649963,0.21335752308368683
189,4,128,70,0.4439527988433838,0.23488977551460266
189,4,128,71,0.5426772236824036,0.22858591377735138
189,4,128,72,0.5350265502929688,0.10191348940134048
189,4,128,73,0.38375717401504517,0.1367819607257843
189,4,128,74,0.5476806163787842,0.1893136203289032
189,4,128,75,0.48855388164520264,0.11865396052598953
189,4,128,76,0.36827147006988525,0.1289067566394806
189,4,128,77,0.589560329914093,0.29255568981170654
189,4,128,78,0.5772104859352112,0.11080283671617508
189,4,128,79,0.5366998314857483,0.2257305383682251
189,4,128,80,0.5766924023628235,0.11432900279760361
189,4,128,81,0.5346757173538208,0.11912602931261063
189,4,128,82,0.5408110618591309,0.15018734335899353
189,4,128,83,0.5896205306053162,0.1251409649848938
189,4,128,84,0.4178111255168915,0.18962889909744263
189,4,128,85,0.3798355162143707,0.21770422160625458
189,4,128,86,0.5224263072013855,0.14563582837581635
189,4,128,87,0.539417028427124,0.21404576301574707
189,4,128,88,0.4965496063232422,0.10057439655065536
189,4,128,89,0.5672032833099365,0.1797056943178177
189,4,128,90,0.6576196551322937,0.1645481139421463
189,4,128,91,0.433474600315094,0.20615646243095398
189,4,128,92,0.46724990010261536,0.18659164011478424
189,4,128,93,0.5133524537086487,0.13217942416667938
189,4,128,94,0.4245595633983612,0.20170196890830994
189,4,128,95,0.5124955773353577,0.12288538366556168
189,4,128,96,0.3197770416736603,0.12917794287204742
189,4,128,97,0.44459545612335205,0.21923856437206268
189,4,128,98,0.553347647190094,0.11746830493211746
189,4,128,99,0.501672625541687,0.20244130492210388
189,4,128,100,0.47145867347717285,0.12337431311607361
189,4,128,101,0.5177966356277466,0.1291072964668274
189,4,128,102,0.7611337900161743,0.11405782401561737
189,4,128,103,0.5593467950820923,0.1968938559293747
189,4,128,104,0.5998026728630066,0.1448172777891159
189,4,128,105,0.5759278535842896,0.10495186597108841
189,4,128,106,0.4111063480377197,0.12230485677719116
189,4,128,107,0.4342697858810425,0.12346509844064713
189,4,128,108,0.48676353693008423,0.16392923891544342
189,4,128,109,0.5875833630561829,0.13777422904968262
189,4,128,110,0.49821412563323975,0.1221889778971672
189,4,128,111,0.5260976552963257,0.20070576667785645
189,4,128,112,0.48409751057624817,0.07331284880638123
189,4,128,113,0.47504210472106934,0.06611871719360352
189,4,128,114,0.676128625869751,0.08657658100128174
189,4,128,115,0.6142027974128723,0.15205328166484833
189,4,128,116,0.5653577446937561,0.0501299612224102
189,4,128,117,0.2854371964931488,0.1872480809688568
189,4,128,118,0.4941132664680481,0.10733133554458618
189,4,128,119,0.5738982558250427,0.19042055308818817
189,4,128,120,0.48838967084884644,0.10560552775859833
189,4,128,121,0.4042105972766876,0.10836943984031677
189,4,128,122,0.558493971824646,0.11839672923088074
189,4,128,123,0.5116512775421143,0.26819658279418945
189,4,128,124,0.5042757987976074,0.20645934343338013
189,4,128,125,0.5996308922767639,0.09789907932281494
189,4,128,126,0.5061397552490234,0.05963974818587303
189,4,128,127,0.6255810260772705,0.1493983119726181
189,5,128,0,0.5035117864608765,0.11839455366134644
189,5,128,1,0.5056827068328857,0.039240799844264984
189,5,128,2,0.4910913407802582,0.10216252505779266
189,5,128,3,0.47705936431884766,0.06530985981225967
189,5,128,4,0.5264468193054199,0.05628983676433563
189,5,128,5,0.5995892286300659,0.07399386912584305
189,5,128,6,0.4408150613307953,0.11007169634103775
189,5,128,7,0.46004611253738403,0.10104969888925552
189,5,128,8,0.5292927026748657,0.11776465177536011
189,5,128,9,0.6088739037513733,0.1471029669046402
189,5,128,10,0.5364139080047607,0.12856775522232056
189,5,128,11,0.45014408230781555,0.03450069949030876
189,5,128,12,0.5228301882743835,0.12519365549087524
189,5,128,13,0.5493501424789429,0.08620809763669968
189,5,128,14,0.6305024027824402,0.18143290281295776
189,5,128,15,0.5818429589271545,0.1202293261885643
189,5,128,16,0.48783913254737854,0.1296394318342209
189,5,128,17,0.5308547616004944,0.0750756487250328
189,5,128,18,0.5068170428276062,0.11793214827775955
189,5,128,19,0.5031320452690125,0.09493609517812729
189,5,128,20,0.45311596989631653,0.0800037756562233
189,5,128,21,0.49741944670677185,0.04679116979241371
189,5,128,22,0.44008851051330566,0.05116778612136841
189,5,128,23,0.6011930704116821,0.06869545578956604
189,5,128,24,0.5939810872077942,0.1586197316646576
189,5,128,25,0.5261781215667725,0.06282296031713486
189,5,128,26,0.4735976755619049,0.11954666674137115
189,5,128,27,0.558036744594574,0.11241064220666885
189,5,128,28,0.6680285930633545,0.07973489165306091
189,5,128,29,0.4989014267921448,0.07686274498701096
189,5,128,30,0.5139485597610474,0.11025793850421906
189,5,128,31,0.5846602320671082,0.06861080974340439
189,5,128,32,0.5698416233062744,0.10303110629320145
189,5,128,33,0.5538493990898132,0.04684840887784958
189,5,128,34,0.5515626668930054,0.07520462572574615
189,5,128,35,0.5410903692245483,0.06358402967453003
189,5,128,36,0.4635387063026428,0.06290588527917862
189,5,128,37,0.5354920625686646,0.05124079808592796
189,5,128,38,0.5456263422966003,0.09019910544157028
189,5,128,39,0.5359029769897461,0.047465238720178604
189,5,128,40,0.47745123505592346,0.06517946720123291
189,5,128,41,0.5506072640419006,0.07163822650909424
189,5,128,42,0.49702197313308716,0.04384417459368706
189,5,128,43,0.5289708971977234,0.08756051957607269
189,5,128,44,0.4187650680541992,0.10445386916399002
189,5,128,45,0.4708172380924225,0.11081718653440475
189,5,128,46,0.6140750050544739,0.060074929147958755
189,5,128,47,0.412909597158432,0.14178897440433502
189,5,128,48,0.4312417507171631,0.08723285794258118
189,5,128,49,0.5576298236846924,0.07466552406549454
189,5,128,50,0.5270684361457825,0.08861124515533447
189,5,128,51,0.29331663250923157,0.07206535339355469
189,5,128,52,0.5233553647994995,0.11726277321577072
189,5,128,53,0.5238950252532959,0.11900622397661209
189,5,128,54,0.6271074414253235,0.08708497881889343
189,5,128,55,0.46408283710479736,0.12752340734004974
189,5,128,56,0.591925323009491,0.10546792298555374
189,5,128,57,0.45146599411964417,0.1162286102771759
189,5,128,58,0.5884706377983093,0.08593256771564484
189,5,128,59,0.38632187247276306,0.11134923249483109
189,5,128,60,0.5295565128326416,0.09845736622810364
189,5,128,61,0.484182745218277,0.09823796898126602
189,5,128,62,0.5968275666236877,0.14052630960941315
189,5,128,63,0.5586702227592468,0.09348557144403458
189,5,128,64,0.5071565508842468,0.05768279731273651
189,5,128,65,0.5031480193138123,0.09954510629177094
189,5,128,66,0.5043778419494629,0.06402226537466049
189,5,128,67,0.47361087799072266,0.11816687136888504
189,5,128,68,0.5164890885353088,0.07336964458227158
189,5,128,69,0.6719585061073303,0.10687477886676788
189,5,128,70,0.520199716091156,0.11719222366809845
189,5,128,71,0.5900423526763916,0.1114269271492958
189,5,128,72,0.5015929937362671,0.15767063200473785
189,5,128,73,0.5735026001930237,0.09209088236093521
189,5,128,74,0.624872624874115,0.11466944962739944
189,5,128,75,0.5009631514549255,0.12295004725456238
189,5,128,76,0.5289083123207092,0.12516796588897705
189,5,128,77,0.4536159634590149,0.07181888818740845
189,5,128,78,0.4728146195411682,0.09886499494314194
189,5,128,79,0.45797818899154663,0.08379264175891876
189,5,128,80,0.49462175369262695,0.0441482812166214
189,5,128,81,0.5400713086128235,0.12311961501836777
189,5,128,82,0.6021142601966858,0.0820484459400177
189,5,128,83,0.5242082476615906,0.10504709929227829
189,5,128,84,0.6058353185653687,0.085076704621315
189,5,128,85,0.4967581629753113,0.08330022543668747
189,5,128,86,0.5564426183700562,0.08545777201652527
189,5,128,87,0.5993469953536987,0.08670537173748016
189,5,128,88,0.48986950516700745,0.07229072600603104
189,5,128,89,0.5889189839363098,0.08317660540342331
189,5,128,90,0.5573094487190247,0.13236883282661438
189,5,128,91,0.5405940413475037,0.09519801288843155
189,5,128,92,0.5688074827194214,0.05241557955741882
189,5,128,93,0.563906192779541,0.09496165812015533
189,5,128,94,0.44197699427604675,0.06573216617107391
189,5,128,95,0.3481035828590393,0.08518002927303314
189,5,128,96,0.6829818487167358,0.0925934687256813
189,5,128,97,0.5275870561599731,0.11665595322847366
189,5,128,98,0.34910231828689575,0.04934307560324669
189,5,128,99,0.4751109182834625,0.11349612474441528
189,5,128,100,0.45759767293930054,0.04901420325040817
189,5,128,101,0.42180854082107544,0.08847683668136597
189,5,128,102,0.6867237091064453,0.09760832786560059
189,5,128,103,0.5302816033363342,0.0964539423584938
189,5,128,104,0.552737295627594,0.04078296944499016
189,5,128,105,0.4739757478237152,0.040575217455625534
189,5,128,106,0.5085263848304749,0.09904798120260239
189,5,128,107,0.5629334449768066,0.11238855868577957
189,5,128,108,0.39943769574165344,0.05250184237957001
189,5,128,109,0.6446821093559265,0.06821466237306595
189,5,128,110,0.6642328500747681,0.0593114010989666
189,5,128,111,0.4904305636882782,0.07620188593864441
189,5,128,112,0.5764586329460144,0.17785906791687012
189,5,128,113,0.5748993754386902,0.10235049575567245
189,5,128,114,0.40634685754776,0.14428487420082092
189,5,128,115,0.502534806728363,0.08151844888925552
189,5,128,116,0.47163569927215576,0.13563933968544006
189,5,128,117,0.49885594844818115,0.08697821199893951
189,5,128,118,0.5684601664543152,0.12256112694740295
189,5,128,119,0.6379730105400085,0.05598705634474754
189,5,128,120,0.5413289666175842,0.05427142232656479
189,5,128,121,0.6011232137680054,0.06934908777475357
189,5,128,122,0.5172182321548462,0.065937839448452
189,5,128,123,0.5946318507194519,0.05712996423244476
189,5,128,124,0.615555465221405,0.12475403398275375
189,5,128,125,0.6686592698097229,0.1052602007985115
189,5,128,126,0.48177164793014526,0.09091614931821823
189,5,128,127,0.5529751181602478,0.09563307464122772
190,0,32,0,0.536907434463501,0.1640257090330124
190,0,32,1,0.4016002416610718,0.06572683155536652
190,0,32,2,0.5562165379524231,0.12945722043514252
190,0,32,3,0.40969783067703247,0.06943635642528534
190,0,32,4,0.5380702018737793,0.08583974838256836
190,0,32,5,0.49940550327301025,0.039923522621393204
190,0,32,6,0.41837695240974426,0.06157080829143524
190,0,32,7,0.48021891713142395,0.07965980470180511
190,0,32,8,0.6054471731185913,0.07274521142244339
190,0,32,9,0.5873711109161377,0.11729644238948822
190,0,32,10,0.33490490913391113,0.06738907843828201
190,0,32,11,0.4877913296222687,0.04659189283847809
190,0,32,12,0.4534299969673157,0.08870510756969452
190,0,32,13,0.5751621723175049,0.06300414353609085
190,0,32,14,0.599969744682312,0.09842712432146072
190,0,32,15,0.43563151359558105,0.0790180116891861
190,0,32,16,0.551071286201477,0.08495703339576721
190,0,32,17,0.5993332862854004,0.07926254719495773
190,0,32,18,0.5130706429481506,0.05299803987145424
190,0,32,19,0.4716484844684601,0.05889906361699104
190,0,32,20,0.4136432409286499,0.08768020570278168
190,0,32,21,0.534806489944458,0.07444266974925995
190,0,32,22,0.4618707001209259,0.06650276482105255
190,0,32,23,0.48097115755081177,0.028865624219179153
190,0,32,24,0.5515376329421997,0.12364006787538528
190,0,32,25,0.5191188454627991,0.09311102330684662
190,0,32,26,0.44416362047195435,0.03915301337838173
190,0,32,27,0.5347520112991333,0.10162997245788574
190,0,32,28,0.3877495229244232,0.12791122496128082
190,0,32,29,0.6316955089569092,0.020306745544075966
190,0,32,30,0.4746164381504059,0.03595532849431038
190,0,32,31,0.4013199806213379,0.14507921040058136
190,1,32,0,0.44014623761177063,0.045247577130794525
190,1,32,1,0.469694584608078,0.05683344975113869
190,1,32,2,0.3794526159763336,0.04730813205242157
190,1,32,3,0.377789705991745,0.02819908782839775
190,1,32,4,0.5921330451965332,0.052340079098939896
190,1,32,5,0.5725602507591248,0.028831034898757935
190,1,32,6,0.44615164399147034,0.04468122869729996
190,1,32,7,0.4347137212753296,0.02595418132841587
190,1,32,8,0.6007794737815857,0.01969863660633564
190,1,32,9,0.5429871082305908,0.03041934035718441
190,1,32,10,0.3702538013458252,0.03822856768965721
190,1,32,11,0.5497493743896484,0.01305274199694395
190,1,32,12,0.6237009167671204,0.04488443210721016
190,1,32,13,0.562275230884552,0.040990136563777924
190,1,32,14,0.5165675282478333,0.028607947751879692
190,1,32,15,0.5699331164360046,0.04509691894054413
190,1,32,16,0.3941526710987091,0.047111596912145615
190,1,32,17,0.6348342895507812,0.0383562408387661
190,1,32,18,0.4115731716156006,0.036044422537088394
190,1,32,19,0.3860674798488617,0.04938265681266785
190,1,32,20,0.39219939708709717,0.03199353069067001
190,1,32,21,0.5182892680168152,0.01208509225398302
190,1,32,22,0.36116740107536316,0.042527370154857635
190,1,32,23,0.6018148064613342,0.01886393129825592
190,1,32,24,0.5442757606506348,0.03149479255080223
190,1,32,25,0.4215099811553955,0.051658257842063904
190,1,32,26,0.4054969251155853,0.03344549238681793
190,1,32,27,0.5765150189399719,0.03828124329447746
190,1,32,28,0.3975883424282074,0.042578864842653275
190,1,32,29,0.45825427770614624,0.04689161852002144
190,1,32,30,0.4262111783027649,0.042449191212654114
190,1,32,31,0.481411874294281,0.05697416514158249
190,2,64,0,0.36595872044563293,0.10906276106834412
190,2,64,1,0.7137695550918579,0.14645621180534363
190,2,64,2,0.5168963074684143,0.2565074563026428
190,2,64,3,0.46146172285079956,0.16118158400058746
190,2,64,4,0.6729599833488464,0.17025606334209442
190,2,64,5,0.38685959577560425,0.13246263563632965
190,2,64,6,0.5380052924156189,0.11129584908485413
190,2,64,7,0.569725513458252,0.1289408653974533
190,2,64,8,0.47726431488990784,0.08513212203979492
190,2,64,9,0.34589916467666626,0.2392462193965912
190,2,64,10,0.6164559125900269,0.16220679879188538
190,2,64,11,0.39829063415527344,0.0959143117070198
190,2,64,12,0.679617702960968,0.11392217874526978
190,2,64,13,0.5570405125617981,0.2737298905849457
190,2,64,14,0.36437180638313293,0.18844254314899445
190,2,64,15,0.36880379915237427,0.18612800538539886
190,2,64,16,0.5319643616676331,0.0878547728061676
190,2,64,17,0.47284916043281555,0.11676572263240814
190,2,64,18,0.45839688181877136,0.048324186354875565
190,2,64,19,0.3704982101917267,0.12694035470485687
190,2,64,20,0.4991653263568878,0.15782305598258972
190,2,64,21,0.45666682720184326,0.0864666998386383
190,2,64,22,0.5272452235221863,0.18841423094272614
190,2,64,23,0.3226974606513977,0.2531772255897522
190,2,64,24,0.36424940824508667,0.13349197804927826
190,2,64,25,0.40308496356010437,0.26523643732070923
190,2,64,26,0.5475208163261414,0.09722720831632614
190,2,64,27,0.49826595187187195,0.10184483230113983
