subject,channel,alpha,f1,drop_pp
1,0,1.0,0.5004576091519254,0.0
1,0,0.75,0.5026343406589374,-0.21767315070120308
1,0,0.5,0.4925072301984389,0.7950378953486492
1,0,0.25,0.4902468213411203,1.0210787810805089
1,0,0.0,0.4784619878410241,2.199562131090127
1,1,1.0,0.5004576091519254,0.0
1,1,0.75,0.5315832851678378,-3.112567601591243
1,1,0.5,0.5544805135024601,-5.4022904350534695
1,1,0.25,0.5603258308648836,-5.986822171295825
1,1,0.0,0.5593887245747008,-5.89311154227754
1,2,1.0,0.5004576091519254,0.0
1,2,0.75,0.50852341112092,-0.8065801968994646
1,2,0.5,0.5021209315202486,-0.1663322368323228
1,2,0.25,0.494927199847895,0.553040930403037
1,2,0.0,0.4664960063127282,3.396160283919719
1,3,1.0,0.5004576091519254,0.0
1,3,0.75,0.4692854991624002,3.117210998952519
1,3,0.5,0.4322440789229212,6.821353022900417
1,3,0.25,0.4059937289437447,9.44638802081807
1,3,0.0,0.392382717795673,10.807489135625236
1,4,1.0,0.5004576091519254,0.0
1,4,0.75,0.5190377346874131,-1.8580125535487713
1,4,0.5,0.5396013440248013,-3.9143734872875924
1,4,0.25,0.5253420764756465,-2.488446732372107
1,4,0.0,0.49475234411751884,0.5705265034406548
1,5,1.0,0.5004576091519254,0.0
1,5,0.75,0.465531188520642,3.4926420631283372
1,5,0.5,0.4301091368268816,7.034847232504377
1,5,0.25,0.39505922969264595,10.539837945927943
1,5,0.0,0.3806707444193215,11.978686473260385
1,6,1.0,0.5004576091519254,0.0
1,6,0.75,0.5217187635633881,-2.12611544114627
1,6,0.5,0.5404661607621555,-4.00085516102301
1,6,0.25,0.5553420680955666,-5.4884458943641246
1,6,0.0,0.552487428059144,-5.202981890721858
1,7,1.0,0.5004576091519254,0.0
1,7,0.75,0.5247539581284003,-2.4296348976474924
1,7,0.5,0.5400212265194233,-3.9563617367497916
1,7,0.25,0.5296121761984043,-2.9154567046478896
1,7,0.0,0.5106905836776225,-1.0232974525697158
1,8,1.0,0.5004576091519254,0.0
1,8,0.75,0.5338355205321785,-3.3377911380253145
1,8,0.5,0.5441238896449444,-4.366628049301902
1,8,0.25,0.5332291391165858,-3.2771529964660373
1,8,0.0,0.5167329302323992,-1.6275321080473804
2,0,1.0,0.8086217972476695,0.0
2,0,0.75,0.7935357783334596,1.5086018914209909
2,0,0.5,0.778814832274278,2.9806964973391525
2,0,0.25,0.7859607684894263,2.2661028758243162
2,0,0.0,0.7449002289861953,6.372156826147412
2,1,1.0,0.8086217972476695,0.0
2,1,0.75,0.7753675826453063,3.325421460236322
2,1,0.5,0.7714842598262683,3.7137537421401134
2,1,0.25,0.7468737371208725,6.174806012679701
2,1,0.0,0.7527298820945123,5.589191515315717
2,2,1.0,0.8086217972476695,0.0
2,2,0.75,0.7768603825229975,3.1761414724671977
2,2,0.5,0.7669143048740853,4.170749237358418
2,2,0.25,0.728941838103321,7.9679959144348445
2,2,0.0,0.6866061922207977,12.201560502687181
2,3,1.0,0.8086217972476695,0.0
2,3,0.75,0.7903466717972494,1.8275125450420093
2,3,0.5,0.7579613146686731,5.066048257899636
2,3,0.25,0.732628993381595,7.599280386607443
2,3,0.0,0.7158113535596766,9.281044368799286
2,4,1.0,0.8086217972476695,0.0
2,4,0.75,0.8055952837670401,0.30265134806293226
2,4,0.5,0.8048593734382672,0.3762423809402282
2,4,0.25,0.8089980799658218,-0.037628271815237646
2,4,0.0,0.7488808688336206,5.974092841404888
2,5,1.0,0.8086217972476695,0.0
2,5,0.75,0.7758936146683054,3.272818257936405
2,5,0.5,0.7421694188564397,6.645237839122975
2,5,0.25,0.7667932101102379,4.182858713743154
2,5,0.0,0.7585436273459908,5.007816990167868
2,6,1.0,0.8086217972476695,0.0
2,6,0.75,0.7787507225020235,2.9871074745645987
2,6,0.5,0.7776132469601016,3.100855028756788
2,6,0.25,0.7786605385383033,2.9961258709366168
2,6,0.0,0.7615753051741116,4.704649207355782
2,7,1.0,0.8086217972476695,0.0
2,7,0.75,0.7992671955324395,0.9354601715229949
2,7,0.5,0.7741647597254004,3.445703752226903
2,7,0.25,0.730471302087944,7.81504951597255
2,7,0.0,0.6763684996771198,13.225329757054972
2,8,1.0,0.8086217972476695,0.0
2,8,0.75,0.780949176052842,2.7672621194827496
2,8,0.5,0.7434091477852427,6.5212649462426775
2,8,0.25,0.7397917521704344,6.883004507723511
2,8,0.0,0.7407131240177962,6.790867322987326
3,0,1.0,0.8242665376559626,0.0
3,0,0.75,0.8460726907773294,-2.18061531213668
3,0,0.5,0.8696672108630754,-4.540067320711283
3,0,0.25,0.8694887164765611,-4.522217882059854
3,0,0.0,0.8309944325241561,-0.6727894868193474
3,1,1.0,0.8242665376559626,0.0
3,1,0.75,0.8108664095226246,1.3400128133338018
3,1,0.5,0.814065325249795,1.020121240616756
3,1,0.25,0.7982753493904251,2.599118826553748
3,1,0.0,0.7724156083054513,5.185092935051127
3,2,1.0,0.8242665376559626,0.0
3,2,0.75,0.8246433179113718,-0.03767802554092148
3,2,0.5,0.8130152474831164,1.1251290172846207
3,2,0.25,0.7640259080067061,6.024062964925648
3,2,0.0,0.7214060940832343,10.286044357272829
3,3,1.0,0.8242665376559626,0.0
3,3,0.75,0.8040455923879355,2.022094526802709
3,3,0.5,0.7722970450189772,5.196949263698536
3,3,0.25,0.6035974474296761,22.066909022628643
3,3,0.0,0.5763733316830661,24.789320597289645
3,4,1.0,0.8242665376559626,0.0
3,4,0.75,0.813911873215037,1.0354664440925587
3,4,0.5,0.8049604419493984,1.9306095706564164
3,4,0.25,0.7672236591914108,5.7042878464551805
3,4,0.0,0.715490771088494,10.877576656746857
3,5,1.0,0.8242665376559626,0.0
3,5,0.75,0.8355180849234558,-1.1251547267493223
3,5,0.5,0.839724603304091,-1.545806564812846
3,5,0.25,0.8091796948986123,1.5086842757350283
3,5,0.0,0.7389420457312423,8.532449192472026
3,6,1.0,0.8242665376559626,0.0
3,6,0.75,0.8275678158643187,-0.3301278208356129
3,6,0.5,0.8326607906309232,-0.8394252974960659
3,6,0.25,0.8438362799826757,-1.9569742326713158
3,6,0.0,0.8425343963967369,-1.82678587407743
3,7,1.0,0.8242665376559626,0.0
3,7,0.75,0.8144981385646686,0.9768399091294011
3,7,0.5,0.8014227461847101,2.2843791471252484
3,7,0.25,0.7602484572760746,6.401808037988799
3,7,0.0,0.706155757251555,11.811078040440758
3,8,1.0,0.8242665376559626,0.0
3,8,0.75,0.8186545943661283,0.5611943289834276
3,8,0.5,0.8178229086156027,0.6443629040359888
3,8,0.25,0.8203235621631888,0.39429754927737815
3,8,0.0,0.7749495708128801,4.9316966843082515
4,0,1.0,0.7471444441432344,0.0
4,0,0.75,0.7456253118784559,0.1519132264778511
4,0,0.5,0.7183294367322304,2.8815007411004068
4,0,0.25,0.6748192896927561,7.232515445047838
4,0,0.0,0.6364228316889361,11.072161245429834
4,1,1.0,0.7471444441432344,0.0
4,1,0.75,0.7409471492440924,0.6197294899142003
4,1,0.5,0.7271341068460124,2.0010337297222014
4,1,0.25,0.7286477904880907,1.8496653655143747
4,1,0.0,0.7179642520701647,2.9180192073069766
4,2,1.0,0.7471444441432344,0.0
4,2,0.75,0.7510497374218449,-0.39052932786104444
4,2,0.5,0.7263245707603225,2.0819873382911913
4,2,0.25,0.7030331855647273,4.411125857850717
4,2,0.0,0.6685069276564691,7.863751648676532
4,3,1.0,0.7471444441432344,0.0
4,3,0.75,0.7188349773988312,2.8309466744403267
4,3,0.5,0.6941663547978367,5.297808934539772
4,3,0.25,0.6961159775140091,5.102846662922533
4,3,0.0,0.6959549931704725,5.118945097276195
4,4,1.0,0.7471444441432344,0.0
4,4,0.75,0.8137344148122738,-6.658997066903938
4,4,0.5,0.792431671515156,-4.528722737192159
4,4,0.25,0.7562056302723996,-0.9061186129165177
4,4,0.0,0.6971377517868746,5.000669235635979
4,5,1.0,0.7471444441432344,0.0
4,5,0.75,0.7086097357108264,3.8534708432408027
4,5,0.5,0.6463836951590108,10.07607489842236
4,5,0.25,0.5681633924055423,17.898105173769217
4,5,0.0,0.48921797479798595,25.79264693452485
4,6,1.0,0.7471444441432344,0.0
4,6,0.75,0.7462158430212822,0.0928601121952255
4,6,0.5,0.7143515453756417,3.2792898767592726
4,6,0.25,0.6917403283276851,5.540411581554938
4,6,0.0,0.6794326922146471,6.7711751928587365
4,7,1.0,0.7471444441432344,0.0
4,7,0.75,0.753064885799863,-0.5920441656628528
4,7,0.5,0.7553630713070992,-0.8218627163864789
4,7,0.25,0.7289648239703734,1.817962017286101
4,7,0.0,0.7003283365343909,4.681610760884358
4,8,1.0,0.7471444441432344,0.0
4,8,0.75,0.7830042978339721,-3.585985369073763
4,8,0.5,0.8076055122397824,-6.046106809654795
4,8,0.25,0.8047012952945343,-5.755685115129983
4,8,0.0,0.7195302739765828,2.7614170166651686
5,0,1.0,0.5985705452631997,0.0
5,0,0.75,0.5881795754912882,1.0390969771911562
5,0,0.5,0.5781443066491275,2.0426238614072223
5,0,0.25,0.5700295746769278,2.854097058627192
5,0,0.0,0.5662272840795568,3.2343261183642946
5,1,1.0,0.5985705452631997,0.0
5,1,0.75,0.5980156941317206,0.05548511314791282
5,1,0.5,0.5911145261548488,0.745601910835092
5,1,0.25,0.5578555736178219,4.071497164537785
5,1,0.0,0.5226620037813999,7.590854148179982
5,2,1.0,0.5985705452631997,0.0
5,2,0.75,0.5913092463672579,0.7261298895941848
5,2,0.5,0.5732474218632717,2.532312339992804
5,2,0.25,0.5679040923086096,3.066645295459014
5,2,0.0,0.5569971079181364,4.157343734506336
5,3,1.0,0.5985705452631997,0.0
5,3,0.75,0.60218867688331,-0.36181316201102653
5,3,0.5,0.610248509609389,-1.1677964346189285
5,3,0.25,0.6143173526891017,-1.5746807425901954
5,3,0.0,0.591410673325407,0.7159871937792772
5,4,1.0,0.5985705452631997,0.0
5,4,0.75,0.5877301777986319,1.0840367464567846
5,4,0.5,0.5576963016156581,4.087424364754167
5,4,0.25,0.5199841906454388,7.858635461776098
5,4,0.0,0.49591873330291875,10.2651811960281
5,5,1.0,0.5985705452631997,0.0
5,5,0.75,0.5693656417315102,2.9204903531689586
5,5,0.5,0.5427398566333271,5.583068862987261
5,5,0.25,0.5149891340708994,8.358141119230034
5,5,0.0,0.4554941204377716,14.307642482542814
5,6,1.0,0.5985705452631997,0.0
5,6,0.75,0.594686637854988,0.3883907408211762
5,6,0.5,0.5860225880992005,1.2547957163999257
5,6,0.25,0.5636857298936642,3.4884815369535582
5,6,0.0,0.5518085738275608,4.676197143563899
5,7,1.0,0.5985705452631997,0.0
5,7,0.75,0.5888037996709318,0.9766745592267978
5,7,0.5,0.580849287299117,1.7721257964082748
5,7,0.25,0.5670102922627427,3.156025300045706
5,7,0.0,0.560908888462538,3.7661656800661802
5,8,1.0,0.5985705452631997,0.0
5,8,0.75,0.5984153125908179,0.015523267238182203
5,8,0.5,0.584397100274965,1.4173444988234696
5,8,0.25,0.551512097198804,4.705844806439574
5,8,0.0,0.5032245858380359,9.534595942516388
6,0,1.0,0.6922872242222837,0.0
6,0,0.75,0.6986247551770428,-0.6337530954759085
6,0,0.5,0.6362069785485146,5.608024567376912
6,0,0.25,0.5949697188301658,9.731750539211792
6,0,0.0,0.546638733066646,14.56484911556377
6,1,1.0,0.6922872242222837,0.0
6,1,0.75,0.6798470888000034,1.2440135422280285
6,1,0.5,0.668505287263452,2.3781936958831684
6,1,0.25,0.6647967527575235,2.7490471464760247
6,1,0.0,0.6352072316892325,5.707999253305118
6,2,1.0,0.6922872242222837,0.0
6,2,0.75,0.6981073680058967,-0.5820143783612952
6,2,0.5,0.7128000548316228,-2.051283060933906
6,2,0.25,0.7094730824099065,-1.718585818762275
6,2,0.0,0.6506107606111788,4.167646361110489
6,3,1.0,0.6922872242222837,0.0
6,3,0.75,0.705203420145971,-1.2916195923687313
6,3,0.5,0.7404255662608261,-4.813834203854239
6,3,0.25,0.7406133924291871,-4.832616820690339
6,3,0.0,0.6767706542562866,1.5516569965997151
6,4,1.0,0.6922872242222837,0.0
6,4,0.75,0.6895259575324759,0.27612666898078064
6,4,0.5,0.6537361711427252,3.855105307955853
6,4,0.25,0.6251212459771268,6.716597824515691
6,4,0.0,0.5887807506756925,10.350647354659126
6,5,1.0,0.6922872242222837,0.0
6,5,0.75,0.6769027200120281,1.5384504210255612
6,5,0.5,0.6443381923560951,4.79490318661886
6,5,0.25,0.6339104352806635,5.837678894162024
6,5,0.0,0.6313502826339987,6.0936941588285
6,6,1.0,0.6922872242222837,0.0
6,6,0.75,0.6812470989837545,1.1040125238529264
6,6,0.5,0.6645853688818876,2.7701855340396153
6,6,0.25,0.6565584745113558,3.5728749710927876
6,6,0.0,0.649462774906153,4.282444931613072
6,7,1.0,0.6922872242222837,0.0
6,7,0.75,0.6680896305263472,2.419759369593655
6,7,0.5,0.6046122817966322,8.767494242565155
6,7,0.25,0.49572480234093314,19.65624218813506
6,7,0.0,0.4438815926620805,24.840563156020323
6,8,1.0,0.6922872242222837,0.0
6,8,0.75,0.6814244004280253,1.0862823794258403
6,8,0.5,0.6545074401244999,3.777978409778382
6,8,0.25,0.6347307924984876,5.75564317237961
6,8,0.0,0.5977374922071789,9.454973201510485
7,0,1.0,0.800932733195181,0.0
7,0,0.75,0.7000961926445881,10.083654055059288
7,0,0.5,0.6860189794061282,11.491375378905278
7,0,0.25,0.643702755742986,15.722997745219502
7,0,0.0,0.6166772300027411,18.42555031924399
7,1,1.0,0.800932733195181,0.0
7,1,0.75,0.6979605912190182,10.297214197616277
7,1,0.5,0.6358943209837011,16.503841221147987
7,1,0.25,0.5961728980657914,20.475983512938956
7,1,0.0,0.5778875202972793,22.30452128979017
7,2,1.0,0.800932733195181,0.0
7,2,0.75,0.7878352184563473,1.3097514738833693
7,2,0.5,0.7459102478689421,5.502248532623888
7,2,0.25,0.7299544327774284,7.097830041775255
7,2,0.0,0.702614999983421,9.831773321175996
7,3,1.0,0.800932733195181,0.0
7,3,0.75,0.6880228361101233,11.290989708505773
7,3,0.5,0.6585415599882233,14.23911732069577
7,3,0.25,0.6581391898162718,14.279354337890915
7,3,0.0,0.6796732302074426,12.125950298773835
7,4,1.0,0.800932733195181,0.0
7,4,0.75,0.7963172934142804,0.4615439780900621
7,4,0.5,0.7474351122485435,5.349762094663745
7,4,0.25,0.7275455260586495,7.338720713653146
7,4,0.0,0.7000250442793823,10.09076889157987
7,5,1.0,0.800932733195181,0.0
7,5,0.75,0.6676727322795957,13.326000091558532
7,5,0.5,0.6312102466684035,16.972248652677745
7,5,0.25,0.6047373348749878,19.619539832019317
7,5,0.0,0.5948895480075425,20.604318518763854
7,6,1.0,0.800932733195181,0.0
7,6,0.75,0.7851941965455871,1.5738536649593904
7,6,0.5,0.672783788668773,12.814894452640802
7,6,0.25,0.6201531439797853,18.077958921539572
7,6,0.0,0.5732608432875915,22.767188990758946
7,7,1.0,0.800932733195181,0.0
7,7,0.75,0.7348823944468557,6.605033874832533
7,7,0.5,0.6309424017629844,16.999033143219656
7,7,0.25,0.5976837391981887,20.324899399699227
7,7,0.0,0.577054106161293,22.387862703388794
7,8,1.0,0.800932733195181,0.0
7,8,0.75,0.7983510732380309,0.25816599571500953
7,8,0.5,0.7733148545088964,2.7617878686284625
7,8,0.25,0.7180921258749704,8.284060732021059
7,8,0.0,0.6318566734442048,16.907605975097617
8,0,1.0,0.7693696684541003,0.0
8,0,0.75,0.796060506833206,-2.6690838379105686
8,0,0.5,0.7749000760010711,-0.5530407546970872
8,0,0.25,0.7510837702929585,1.828589816114179
8,0,0.0,0.7171862130529589,5.218345540114133
8,1,1.0,0.7693696684541003,0.0
8,1,0.75,0.7867728370705196,-1.7403168616419329
8,1,0.5,0.7925514426683681,-2.3181774214267814
8,1,0.25,0.754594045594986,1.4775622859114268
8,1,0.0,0.7212539940860975,4.81156743680028
8,2,1.0,0.7693696684541003,0.0
8,2,0.75,0.7894550297940823,-2.0085361339982066
8,2,0.5,0.7983145540318579,-2.894488557775765
8,2,0.25,0.7814235406595075,-1.2053872205407212
8,2,0.0,0.7308216577944794,3.854801065962088
8,3,1.0,0.7693696684541003,0.0
8,3,0.75,0.7666323534095432,0.2737315044557098
8,3,0.5,0.7703276799604388,-0.0958011506338563
8,3,0.25,0.7391077666072172,3.0261901846883044
8,3,0.0,0.6766020720596315,9.276759639446874
8,4,1.0,0.7693696684541003,0.0
8,4,0.75,0.759539509561811,0.983015889228922
8,4,0.5,0.7220666855992657,4.7302982854834585
8,4,0.25,0.6862827188616306,8.308694959246965
8,4,0.0,0.6674904799615062,10.187918849259404
8,5,1.0,0.7693696684541003,0.0
8,5,0.75,0.7627708594929893,0.659880896111098
8,5,0.5,0.6908599678200613,7.850970063403895
8,5,0.25,0.6188911701610054,15.04784982930949
8,5,0.0,0.5978079630853678,17.15617053687325
8,6,1.0,0.7693696684541003,0.0
8,6,0.75,0.7654301642133953,0.3939504240704994
8,6,0.5,0.7710144857414468,-0.1644817287346556
8,6,0.25,0.760315832126021,0.9053836328079212
8,6,0.0,0.7520413241307187,1.7328344323381595
8,7,1.0,0.7693696684541003,0.0
8,7,0.75,0.7847303282788778,-1.5360659824777523
8,7,0.5,0.7535294660207386,1.5840202433361705
8,7,0.25,0.7511227363995326,1.8246932054567622
8,7,0.0,0.7124629494033121,5.690671905078815
8,8,1.0,0.7693696684541003,0.0
8,8,0.75,0.7725586478633798,-0.31889794092795354
8,8,0.5,0.7764568855086321,-0.7087217054531858
8,8,0.25,0.7464076588977288,2.296200955637151
8,8,0.0,0.6621635786196681,10.720608983443213
9,0,1.0,0.8215018295530452,0.0
9,0,0.75,0.806145928437894,1.5355901115151172
9,0,0.5,0.800982842515117,2.0518987037928205
9,0,0.25,0.7932485211266713,2.8253308426373858
9,0,0.0,0.7738693430040122,4.763248654903296
9,1,1.0,0.8215018295530452,0.0
9,1,0.75,0.806161985003458,1.5339844549587145
9,1,0.5,0.7625128859131729,5.898894363987228
9,1,0.25,0.7202181542954668,10.128367525757842
9,1,0.0,0.68251188238949,13.898994716355517
9,2,1.0,0.8215018295530452,0.0
9,2,0.75,0.8171534721321626,0.4348357420882576
9,2,0.5,0.7945094004844441,2.699242906860111
9,2,0.25,0.7554481336282144,6.605369592483079
9,2,0.0,0.6672247554133193,15.427707413972591
9,3,1.0,0.8215018295530452,0.0
9,3,0.75,0.8164483871230236,0.5053442430021593
9,3,0.5,0.785457611065783,3.6044218487262136
9,3,0.25,0.7564429735499323,6.50588560031129
9,3,0.0,0.7518591948927806,6.964263466026455
9,4,1.0,0.8215018295530452,0.0
9,4,0.75,0.8306075460487226,-0.9105716495677374
9,4,0.5,0.817996549978684,0.35052795743611975
9,4,0.25,0.7742866834710642,4.721514608198096
9,4,0.0,0.7057483875029611,11.57534420500841
9,5,1.0,0.8215018295530452,0.0
9,5,0.75,0.807705721567842,1.3796107985203143
9,5,0.5,0.7588263499573111,6.267547959573405
9,5,0.25,0.6611000655005186,16.04017640525266
9,5,0.0,0.6201315595447602,20.1370270008285
9,6,1.0,0.8215018295530452,0.0
9,6,0.75,0.8378127729780461,-1.6310943425000946
9,6,0.5,0.8372565075070739,-1.575467795402874
9,6,0.25,0.8221970569200118,-0.06952273669665887
9,6,0.0,0.7965745285816457,2.49273009713995
9,7,1.0,0.8215018295530452,0.0
9,7,0.75,0.8253903840277659,-0.38885544747206957
9,7,0.5,0.80060532514078,2.0896504412265204
9,7,0.25,0.7283236345101599,9.317819504288527
9,7,0.0,0.6683175737094191,15.318425584362604
9,8,1.0,0.8215018295530452,0.0
9,8,0.75,0.8056880705589561,1.58137589940891
9,8,0.5,0.7880974961144938,3.3404333438551426
9,8,0.25,0.7531796273938581,6.832220215918705
9,8,0.0,0.6841495907429973,13.735223881004789
10,0,1.0,0.7091338337786448,0.0
10,0,0.75,0.6783546683812641,3.077916539738068
10,0,0.5,0.6385972407400958,7.053659303854898
10,0,0.25,0.5329562401700716,17.61775936085732
10,0,0.0,0.49606481380738804,21.306901997125678
10,1,1.0,0.7091338337786448,0.0
10,1,0.75,0.6974106811063333,1.1723152672311499
10,1,0.5,0.6790452597786925,3.008857399995235
10,1,0.25,0.6515586555501293,5.757517822851554
10,1,0.0,0.5820988044516063,12.703502932703847
10,2,1.0,0.7091338337786448,0.0
10,2,0.75,0.6481946617418561,6.093917203678867
10,2,0.5,0.6598274762177451,4.930635756089973
10,2,0.25,0.6639896675514996,4.514416622714523
10,2,0.0,0.646879162512342,6.22546712663028
10,3,1.0,0.7091338337786448,0.0
10,3,0.75,0.7261163445040708,-1.6982510725426003
10,3,0.5,0.7144759122514381,-0.5342078472793332
10,3,0.25,0.678204492523507,3.09293412551378
10,3,0.0,0.5682290665554021,14.090476722324274
10,4,1.0,0.7091338337786448,0.0
10,4,0.75,0.6880706938926117,2.1063139886033144
10,4,0.5,0.6167787051658018,9.2355128612843
10,4,0.25,0.5684745778714924,14.065925590715246
10,4,0.0,0.5575218973040155,15.161193647462934
10,5,1.0,0.7091338337786448,0.0
10,5,0.75,0.6840180725803574,2.51157611982874
10,5,0.5,0.6372970337163197,7.183680006232507
10,5,0.25,0.5329089810484164,17.622485273022836
10,5,0.0,0.47731096995730354,23.182286382134127
10,6,1.0,0.7091338337786448,0.0
10,6,0.75,0.6984466194501406,1.0687214328504169
10,6,0.5,0.6866511077509697,2.2482726027675093
10,6,0.25,0.6652346390460784,4.389919473256643
10,6,0.0,0.6332077572688006,7.592607650984418
10,7,1.0,0.7091338337786448,0.0
10,7,0.75,0.6758856213200287,3.324821245861609
10,7,0.5,0.6228327642993001,8.630106947934468
10,7,0.25,0.532703974008852,17.642985976979276
10,7,0.0,0.47564826995578297,23.348556382286183
10,8,1.0,0.7091338337786448,0.0
10,8,0.75,0.6871642899584077,2.196954382023708
10,8,0.5,0.6417763998946291,6.735743388401572
10,8,0.25,0.5964589459724384,11.267488780620639
10,8,0.0,0.5239344795018613,18.519935427678348
11,0,1.0,0.8679446060012862,0.0
11,0,0.75,0.8636417764067094,0.430282959457684
11,0,0.5,0.8646590633373421,0.32855426639440966
11,0,0.25,0.8346315174587461,3.3313088542540115
11,0,0.0,0.8006385723865701,6.73060336147161
11,1,1.0,0.8679446060012862,0.0
11,1,0.75,0.8743537403013687,-0.6409134300082497
11,1,0.5,0.8459155687479387,2.2029037253347483
11,1,0.25,0.8112520465534536,5.669255944783258
11,1,0.0,0.7813715296856671,8.657307631561906
11,2,1.0,0.8679446060012862,0.0
11,2,0.75,0.8675706680718105,0.03739379294757095
11,2,0.5,0.8494453616487168,1.8499244352569444
11,2,0.25,0.8223650941964963,4.557951180478992
11,2,0.0,0.7581897046478139,10.975490135347233
11,3,1.0,0.8679446060012862,0.0
11,3,0.75,0.8742920371506998,-0.6347431149413607
11,3,0.5,0.8615760235602393,0.6368582441046877
11,3,0.25,0.8320983108197214,3.584629518156479
11,3,0.0,0.805417153018274,6.252745298301221
11,4,1.0,0.8679446060012862,0.0
11,4,0.75,0.8685861832326984,-0.0641577231412227
11,4,0.5,0.8518373072807733,1.6107298720512864
11,4,0.25,0.7897198013190785,7.822480468220771
11,4,0.0,0.7443605006534069,12.358410534787934
11,5,1.0,0.8679446060012862,0.0
11,5,0.75,0.8305885512298564,3.735605477142978
11,5,0.5,0.76769259375971,10.02520122415762
11,5,0.25,0.7458459743427688,12.209863165851742
11,5,0.0,0.6885667996599547,17.937780634133148
11,6,1.0,0.8679446060012862,0.0
11,6,0.75,0.8680175587700028,-0.007295276871654988
11,6,0.5,0.8535710556190683,1.4373550382217881
11,6,0.25,0.8504652745056955,1.7479331495590666
11,6,0.0,0.847814311505099,2.0130294496187195
11,7,1.0,0.8679446060012862,0.0
11,7,0.75,0.8708788610291207,-0.2934255027834509
11,7,0.5,0.8600854225005554,0.7859183500730782
11,7,0.25,0.8106944341845871,5.725017181669911
11,7,0.0,0.7670609815877899,10.08836244134963
11,8,1.0,0.8679446060012862,0.0
11,8,0.75,0.8687408960547868,-0.07962900535005701
11,8,0.5,0.8478396348451471,2.0104971156139073
11,8,0.25,0.8184688900390125,4.947571596227373
11,8,0.0,0.8028911051090415,6.505350089224471
12,0,1.0,0.8473283869505196,0.0
12,0,0.75,0.861546285139996,-1.4217898189476386
12,0,0.5,0.8595922296222485,-1.2263842671728864
12,0,0.25,0.8363840166235194,1.0944370327000241
12,0,0.0,0.8301155225161119,1.7212864434407726
12,1,1.0,0.8473283869505196,0.0
12,1,0.75,0.8291868920312171,1.8141494919302503
12,1,0.5,0.795187346885391,5.214104006512854
12,1,0.25,0.7593849319226723,8.79434550278473
12,1,0.0,0.6926389943791449,15.468939257137471
12,2,1.0,0.8473283869505196,0.0
12,2,0.75,0.8321771888793802,1.5151198071139405
12,2,0.5,0.8110645086526719,3.626387829784772
12,2,0.25,0.7815854430186582,6.5742943931861415
12,2,0.0,0.7387387623033403,10.858962464717925
12,3,1.0,0.8473283869505196,0.0
12,3,0.75,0.8458018361092925,0.15265508412271034
12,3,0.5,0.827559433106899,1.9768953843620651
12,3,0.25,0.8135008497665761,3.382753718394349
12,3,0.0,0.7550613590633714,9.226702788714825
12,4,1.0,0.8473283869505196,0.0
12,4,0.75,0.7990803187948652,4.8248068155654416
12,4,0.5,0.692736005975676,15.459238097484363
12,4,0.25,0.6128948467483364,23.443354020218322
12,4,0.0,0.5945229585560804,25.28054283944392
12,5,1.0,0.8473283869505196,0.0
12,5,0.75,0.8307174599841174,1.6610926966402206
12,5,0.5,0.8079607400134032,3.9367646937116363
12,5,0.25,0.76660374850633,8.072463844418964
12,5,0.0,0.7016158979171178,14.571248903340184
12,6,1.0,0.8473283869505196,0.0
12,6,0.75,0.8543393789704519,-0.7010992019932272
12,6,0.5,0.8523258079460685,-0.4997420995548896
12,6,0.25,0.8469573683715478,0.03710185789718157
12,6,0.0,0.8462195815983978,0.11088053521217667
12,7,1.0,0.8473283869505196,0.0
12,7,0.75,0.8433120089067127,0.4016378043806945
12,7,0.5,0.8225262170857821,2.480216986473749
12,7,0.25,0.7746982102014008,7.263017674911875
12,7,0.0,0.7260819130946896,12.124647385582998
12,8,1.0,0.8473283869505196,0.0
12,8,0.75,0.8425186947039578,0.4809692246561803
12,8,0.5,0.8099151392387025,3.741324771181709
12,8,0.25,0.7566555059045508,9.067288104596882
12,8,0.0,0.7056676265872714,14.166076036324815
13,0,1.0,0.8790228572672082,0.0
13,0,0.75,0.8884529198396109,-0.9430062572402753
13,0,0.5,0.8905566617349676,-1.1533804467759423
13,0,0.25,0.8908216756867056,-1.179881841949737
13,0,0.0,0.8278288201688506,5.1194037098357565
13,1,1.0,0.8790228572672082,0.0
13,1,0.75,0.8922718747246305,-1.3249017457422352
13,1,0.5,0.8819907720472602,-0.29679147800519834
13,1,0.25,0.8603339214139658,1.8688935853242383
13,1,0.0,0.8054617079343687,7.356114933283953
13,2,1.0,0.8790228572672082,0.0
13,2,0.75,0.8866671875782944,-0.7644330311086245
13,2,0.5,0.8638039810766642,1.5218876190543962
13,2,0.25,0.8333781512605041,4.564470600670411
13,2,0.0,0.7882039944133624,9.081886285384577
13,3,1.0,0.8790228572672082,0.0
13,3,0.75,0.8749507364546198,0.40721208125883424
13,3,0.5,0.8783216573460264,0.07011999211817832
13,3,0.25,0.8771836244002132,0.18392328669949443
13,3,0.0,0.8483576275200371,3.066522974717112
13,4,1.0,0.8790228572672082,0.0
13,4,0.75,0.884158306947519,-0.5135449680310766
13,4,0.5,0.8620803926896783,1.6942464577529903
13,4,0.25,0.7928778866134337,8.614497065377446
13,4,0.0,0.7688722994229504,11.015055784425776
13,5,1.0,0.8790228572672082,0.0
13,5,0.75,0.8594519515572148,1.9570905709993425
13,5,0.5,0.8158181132562861,6.320474401092213
13,5,0.25,0.73096796485613,14.805489241107816
13,5,0.0,0.6549389943012065,22.40838629660017
13,6,1.0,0.8790228572672082,0.0
13,6,0.75,0.8762388640648883,0.2783993202319923
13,6,0.5,0.8688246158501159,1.0198241417092246
13,6,0.25,0.8523937957945933,2.66290614726149
13,6,0.0,0.800065825057874,7.895703220933415
13,7,1.0,0.8790228572672082,0.0
13,7,0.75,0.8841204693466604,-0.5097612079452252
13,7,0.5,0.8542621254018313,2.476073186537686
13,7,0.25,0.8306438506576506,4.837900660955762
13,7,0.0,0.7856472776588862,9.3375579608322
13,8,1.0,0.8790228572672082,0.0
13,8,0.75,0.88729610510942,-0.8273247842211839
13,8,0.5,0.8870347833733863,-0.8011926106178069
13,8,0.25,0.8822118053164403,-0.31889480492320876
13,8,0.0,0.8696367443672183,0.9386112899989918
14,0,1.0,0.8220074286345838,0.0
14,0,0.75,0.8183592487152886,0.36481799192951136
14,0,0.5,0.800597976386097,2.140945224848678
14,0,0.25,0.7547762457959086,6.723118283867513
14,0,0.0,0.7284417293900161,9.356569924456771
14,1,1.0,0.8220074286345838,0.0
14,1,0.75,0.804479936333201,1.752749230138273
14,1,0.5,0.7827889727604327,3.921845587415107
14,1,0.25,0.7597389446689534,6.2268483965630335
14,1,0.0,0.7400364816473238,8.197094698725993
14,2,1.0,0.8220074286345838,0.0
14,2,0.75,0.805613758260464,1.6393670374119762
14,2,0.5,0.7652260663789507,5.678136225563302
14,2,0.25,0.7095066368728523,11.250079176173145
14,2,0.0,0.662603519021822,15.940390961276174
14,3,1.0,0.8220074286345838,0.0
14,3,0.75,0.8197855703307169,0.2221858303866897
14,3,0.5,0.8021088116053792,1.989861702920459
14,3,0.25,0.7854908273261597,3.6516601308424046
14,3,0.0,0.752030889896006,6.997653873857779
14,4,1.0,0.8220074286345838,0.0
14,4,0.75,0.8002314655218891,2.1775963112694696
14,4,0.5,0.7595691077872337,6.2438320847350015
14,4,0.25,0.7427212548938218,7.928617374076197
14,4,0.0,0.7222796680905386,9.97277605440452
14,5,1.0,0.8220074286345838,0.0
14,5,0.75,0.775356984634958,4.665044399962581
14,5,0.5,0.6939819303001274,12.802549833445632
14,5,0.25,0.6274534586569416,19.45539699776422
14,5,0.0,0.6051487117170297,21.68587169175541
14,6,1.0,0.8220074286345838,0.0
14,6,0.75,0.8154306719524111,0.6576756682172613
14,6,0.5,0.8113658291943557,1.0641599440228022
14,6,0.25,0.8057642193198604,1.624320931472334
14,6,0.0,0.7913005696302794,3.0706859004304365
14,7,1.0,0.8220074286345838,0.0
14,7,0.75,0.8322339090376482,-1.0226480403064397
14,7,0.5,0.8191270185193043,0.2880410115279508
14,7,0.25,0.78671380324213,3.529362539245373
14,7,0.0,0.7546633846042882,6.73440440302956
14,8,1.0,0.8220074286345838,0.0
14,8,0.75,0.8193710578203306,0.2636370814253164
14,8,0.5,0.7974039578118636,2.4603470822720186
14,8,0.25,0.7583215247211467,6.368590391343709
14,8,0.0,0.6799718013511575,14.203562728342622
15,0,1.0,0.8434060331886553,0.0
15,0,0.75,0.8386108408302269,0.4795192358428402
15,0,0.5,0.8344329536135386,0.8973079575116616
15,0,0.25,0.791345110324762,5.20609228638933
15,0,0.0,0.7817979032624438,6.160812992621145
15,1,1.0,0.8434060331886553,0.0
15,1,0.75,0.8373709499571569,0.6035083231498373
15,1,0.5,0.821496845073004,2.1909188115651235
15,1,0.25,0.8013809736195957,4.202505956905956
15,1,0.0,0.7941233197217469,4.928271346690838
15,2,1.0,0.8434060331886553,0.0
15,2,0.75,0.8346341033640938,0.8771929824561431
15,2,0.5,0.7982717565971376,4.51342765915177
15,2,0.25,0.785152066289487,5.825396689916829
15,2,0.0,0.732953054947088,11.04529782415673
15,3,1.0,0.8434060331886553,0.0
15,3,0.75,0.8520291742427966,-0.8623141054141303
15,3,0.5,0.8421467503657893,0.12592828228659148
15,3,0.25,0.8441819071493036,-0.07758739606483767
15,3,0.0,0.8273430381653056,1.6062995023349624
15,4,1.0,0.8434060331886553,0.0
15,4,0.75,0.836139773371934,0.7266259816721243
15,4,0.5,0.7925229754745071,5.088305771414814
15,4,0.25,0.764980201084944,7.8425832103711235
15,4,0.0,0.746585344324706,9.682068886394923
15,5,1.0,0.8434060331886553,0.0
15,5,0.75,0.84783253096139,-0.4426497772734739
15,5,0.5,0.8226779060702294,2.0728127118425865
15,5,0.25,0.7329406849271952,11.046534826146004
15,5,0.0,0.6123319460948615,23.107408709379374
15,6,1.0,0.8434060331886553,0.0
15,6,0.75,0.841389780818093,0.20162523705622437
15,6,0.5,0.8352275644266745,0.8178468761980806
15,6,0.25,0.8039823044186045,3.9423728770050737
15,6,0.0,0.7901029056583313,5.330312753032396
15,7,1.0,0.8434060331886553,0.0
15,7,0.75,0.8388949382402787,0.4511094948376537
15,7,0.5,0.7992119147366402,4.419411845201504
15,7,0.25,0.7488499203223226,9.45561128663327
15,7,0.0,0.704080056771087,13.932597641756828
15,8,1.0,0.8434060331886553,0.0
15,8,0.75,0.8510060629026146,-0.7600029713959344
15,8,0.5,0.8524798551528399,-0.9073821964184603
15,8,0.25,0.8565706218747096,-1.3164588686054302
15,8,0.0,0.8302985813149175,1.310745187373774
16,0,1.0,0.8630782846656656,0.0
16,0,0.75,0.8742420117717593,-1.1163727106093702
16,0,0.5,0.8613590255801721,0.17192590854935297
16,0,0.25,0.8360584767118342,2.701980795383141
16,0,0.0,0.7486089074194113,11.446937724625428
16,1,1.0,0.8630782846656656,0.0
16,1,0.75,0.8705362078325496,-0.7457923166883984
16,1,0.5,0.8586912134406091,0.4387071225056549
16,1,0.25,0.8121021335064638,5.097615115920185
16,1,0.0,0.7804715396491853,8.260674501648035
16,2,1.0,0.8630782846656656,0.0
16,2,0.75,0.8527551094230421,1.0323175242623495
16,2,0.5,0.8389994308497082,2.4078853815957424
16,2,0.25,0.7845835513916156,7.849473327404999
16,2,0.0,0.7209272299085565,14.21510547571091
16,3,1.0,0.8630782846656656,0.0
16,3,0.75,0.8698566526053274,-0.67783679396618
16,3,0.5,0.8681171188325529,-0.5038834166887329
16,3,0.25,0.8487464179873488,1.4331866678316763
16,3,0.0,0.818168262645764,4.491002201990158
16,4,1.0,0.8630782846656656,0.0
16,4,0.75,0.853767208078728,0.9311076586937639
16,4,0.5,0.8268981016356186,3.6180183030046997
16,4,0.25,0.7516224848331764,11.145579983248922
16,4,0.0,0.7063957010764468,15.668258358921882
16,5,1.0,0.8630782846656656,0.0
16,5,0.75,0.8237499130847322,3.9328371580933386
16,5,0.5,0.7559997479772681,10.70785366883975
16,5,0.25,0.6812483475332594,18.182993713240624
16,5,0.0,0.5567138433855301,30.63644412801355
16,6,1.0,0.8630782846656656,0.0
16,6,0.75,0.8602898847592134,0.2788399906452188
16,6,0.5,0.8578530012435339,0.5225283422131688
16,6,0.25,0.8419537937332323,2.1124490932433293
16,6,0.0,0.8345505419770561,2.852774268860947
16,7,1.0,0.8630782846656656,0.0
16,7,0.75,0.8577242754782594,0.535400918740625
16,7,0.5,0.8193130095353327,4.37652751303329
16,7,0.25,0.7782771357490228,8.48011489166428
16,7,0.0,0.7074155554395034,15.56627292261622
16,8,1.0,0.8630782846656656,0.0
16,8,0.75,0.8728748612256465,-0.9796576559980896
16,8,0.5,0.8822875107629644,-1.9209226097298804
16,8,0.25,0.8343358824083651,2.8742402257300514
16,8,0.0,0.7513136175328913,11.176466713277433
17,0,1.0,0.8243764253759276,0.0
17,0,0.75,0.8383649361850556,-1.3988510809127996
17,0,0.5,0.8219096599187838,0.24667654571437492
17,0,0.25,0.7794003357428226,4.497608963310496
17,0,0.0,0.6925847293633632,13.179169601256435
17,1,1.0,0.8243764253759276,0.0
17,1,0.75,0.8228838931048292,0.14925322710983568
17,1,0.5,0.802308357371267,2.2068068004660546
17,1,0.25,0.7630030499509992,6.137337542492838
17,1,0.0,0.7173892597716324,10.698716560429522
17,2,1.0,0.8243764253759276,0.0
17,2,0.75,0.8114760663829278,1.2900358992999794
17,2,0.5,0.8172781555587931,0.7098269817134462
17,2,0.25,0.7999958098200255,2.4380615555902097
17,2,0.0,0.741501068319975,8.28753570559526
17,3,1.0,0.8243764253759276,0.0
17,3,0.75,0.830841029967716,-0.6464604591788436
17,3,0.5,0.815151144738771,0.9225280637156552
17,3,0.25,0.8070953063411885,1.7281119034739056
17,3,0.0,0.7731928024582053,5.118362291772227
17,4,1.0,0.8243764253759276,0.0
17,4,0.75,0.8261559045439535,-0.17794791680258992
17,4,0.5,0.8110450128423985,1.3331412533529097
17,4,0.25,0.7759225278259788,4.845389754994878
17,4,0.0,0.7475985154736863,7.677790990224132
17,5,1.0,0.8243764253759276,0.0
17,5,0.75,0.8029517917252988,2.1424633650628744
17,5,0.5,0.7595264402051123,6.4849985170815305
17,5,0.25,0.7235012776254355,10.087514775049211
17,5,0.0,0.6387684745192987,18.560795085662885
17,6,1.0,0.8243764253759276,0.0
17,6,0.75,0.8153663458640686,0.9010079511858948
17,6,0.5,0.8151616833794633,0.9214741996464326
17,6,0.25,0.7887479045995736,3.5628520776354033
17,6,0.0,0.7748582638471753,4.9518161528752325
17,7,1.0,0.8243764253759276,0.0
17,7,0.75,0.8193234483389924,0.5052977036935191
17,7,0.5,0.8053971142501339,1.8979311125793652
17,7,0.25,0.7801319693699718,4.4244456005955834
17,7,0.0,0.7516371700195229,7.273925535640469
17,8,1.0,0.8243764253759276,0.0
17,8,0.75,0.8354908383478314,-1.1114412971903853
17,8,0.5,0.8248458204938609,-0.046939511793331334
17,8,0.25,0.8156323980839334,0.8744027291994194
17,8,0.0,0.788019163129949,3.635726224597857
18,0,1.0,0.6818641047469706,0.0
18,0,0.75,0.6802883145845113,0.1575790162459234
18,0,0.5,0.6633816199445259,1.8482484802444632
18,0,0.25,0.6609646526929134,2.089945205405719
18,0,0.0,0.6646014255635682,1.7262679183402407
18,1,1.0,0.6818641047469706,0.0
18,1,0.75,0.683049797044696,-0.11856922977254714
18,1,0.5,0.6760039904459734,0.5860114300997199
18,1,0.25,0.6735937879159466,0.8270316831023972
18,1,0.0,0.6604882528429087,2.137585190406188
18,2,1.0,0.6818641047469706,0.0
18,2,0.75,0.6842970471462584,-0.24329423992878185
18,2,0.5,0.6573219904597877,2.4542114287182892
18,2,0.25,0.6531883455098986,2.8675759237071996
18,2,0.0,0.6553762300813455,2.6487874665625077
18,3,1.0,0.6818641047469706,0.0
18,3,0.75,0.6523587734594908,2.9505331287479786
18,3,0.5,0.628685525901659,5.317857884531152
18,3,0.25,0.6157881157665827,6.607598898038791
18,3,0.0,0.5927333415683124,8.91307631786582
18,4,1.0,0.6818641047469706,0.0
18,4,0.75,0.6756683554959153,0.619574925105526
18,4,0.5,0.6774085530877281,0.4455551659242496
18,4,0.25,0.6690614881814128,1.2802616565557812
18,4,0.0,0.6573625668366332,2.450153791033738
18,5,1.0,0.6818641047469706,0.0
18,5,0.75,0.6794275484237537,0.24365563232168208
18,5,0.5,0.6853771625502468,-0.3513057803276265
18,5,0.25,0.6517511481686622,3.011295657830837
18,5,0.0,0.5924522085435834,8.941189620338719
18,6,1.0,0.6818641047469706,0.0
18,6,0.75,0.7191153569280451,-3.72512521810745
18,6,0.5,0.7548691892405818,-7.3005084493611205
18,6,0.25,0.7633223212384886,-8.145821649151808
18,6,0.0,0.7712148848032733,-8.93507800563027
18,7,1.0,0.6818641047469706,0.0
18,7,0.75,0.6815052054331769,0.03588993137936258
18,7,0.5,0.666130302264088,1.5733802482882586
18,7,0.25,0.6386298600776339,4.323424466933668
18,7,0.0,0.6287425377184414,5.3121567028529215
18,8,1.0,0.6818641047469706,0.0
18,8,0.75,0.6882937722767118,-0.6429667529741279
18,8,0.5,0.6733111775987557,0.8552927148214873
18,8,0.25,0.6634930396797852,1.8371065067185333
18,8,0.0,0.642954741540471,3.8909363206499514
19,0,1.0,0.807263405448904,0.0
19,0,0.75,0.8120455906591706,-0.4782185210266632
19,0,0.5,0.7832239547379463,2.40394507109577
19,0,0.25,0.7723820988894184,3.4881306559485514
19,0,0.0,0.747248334964218,6.001507048468591
19,1,1.0,0.807263405448904,0.0
19,1,0.75,0.8036206154595774,0.3642789989326545
19,1,0.5,0.7873575034531652,1.9905901995738717
19,1,0.25,0.7471203285511402,6.014307689776377
19,1,0.0,0.7245408313369478,8.272257411195616
19,2,1.0,0.807263405448904,0.0
19,2,0.75,0.7947041205388805,1.255928491002345
19,2,0.5,0.7822586158799639,2.5004789568940033
19,2,0.25,0.7461870791521812,6.107632629672278
19,2,0.0,0.6911031206578052,11.616028479109875
19,3,1.0,0.807263405448904,0.0
19,3,0.75,0.8001188226970206,0.7144582751883344
19,3,0.5,0.718126066741389,8.913733870751495
19,3,0.25,0.6610598410839416,14.620356436496241
19,3,0.0,0.6122199110597095,19.504349438919444
19,4,1.0,0.807263405448904,0.0
19,4,0.75,0.800980377818522,0.628302763038191
19,4,0.5,0.781725653129041,2.5537752319862994
19,4,0.25,0.7047445802193446,10.251882522955935
19,4,0.0,0.6593658031444547,14.789760230444926
19,5,1.0,0.807263405448904,0.0
19,5,0.75,0.7923761513666616,1.488725408224234
19,5,0.5,0.6800384027905875,12.722500265831648
19,5,0.25,0.5828744934877829,22.43889119611211
19,5,0.0,0.527365304216769,27.9898101232135
19,6,1.0,0.807263405448904,0.0
19,6,0.75,0.8125973578485564,-0.5333952399652397
19,6,0.5,0.8120299108501883,-0.47665054012843155
19,6,0.25,0.8116537299342858,-0.43903244853817913
19,6,0.0,0.8121113386295385,-0.48479331806345893
19,7,1.0,0.807263405448904,0.0
19,7,0.75,0.8050897819712464,0.21736234776575936
19,7,0.5,0.804828283699735,0.24351217491689336
19,7,0.25,0.7714215497456144,3.584185570328957
19,7,0.0,0.7368378872030106,7.042551824589339
19,8,1.0,0.807263405448904,0.0
19,8,0.75,0.8117306580185928,-0.4467252569688829
19,8,0.5,0.7903569321954351,1.6906473253468834
19,8,0.25,0.7611936348579509,4.606977059095307
19,8,0.0,0.7054983808374425,10.176502461146143
20,0,1.0,0.7847850327906952,0.0
20,0,0.75,0.8013850898761384,-1.660005708544321
20,0,0.5,0.8089427814131311,-2.4157748622435915
20,0,0.25,0.7663470790529842,1.8437953737711066
20,0,0.0,0.7177291087261612,6.705592406453398
20,1,1.0,0.7847850327906952,0.0
20,1,0.75,0.7701248292666252,1.4660203524070048
20,1,0.5,0.728103406982263,5.668162580843228
20,1,0.25,0.6889848447815333,9.58001880091619
20,1,0.0,0.6707317325366275,11.405330025406768
20,2,1.0,0.7847850327906952,0.0
20,2,0.75,0.7730217530504138,1.1763279740281463
20,2,0.5,0.7682772192754332,1.6507813515261982
20,2,0.25,0.7450188944749089,3.976613831578635
20,2,0.0,0.7375584094706953,4.722662331999993
20,3,1.0,0.7847850327906952,0.0
20,3,0.75,0.7646502354258193,2.013479736487589
20,3,0.5,0.7500963941197825,3.4688638670912764
20,3,0.25,0.738852664811744,4.593236797895117
20,3,0.0,0.7483385439168752,3.644648887382007
20,4,1.0,0.7847850327906952,0.0
20,4,0.75,0.7825382466634078,0.2246786127287459
20,4,0.5,0.7785644094235723,0.6220623367122924
20,4,0.25,0.7568649267329784,2.7920106057716776
20,4,0.0,0.721386947667654,6.339808512304124
20,5,1.0,0.7847850327906952,0.0
20,5,0.75,0.7928539335659337,-0.8068900775238474
20,5,0.5,0.7550538677735293,2.9731165017165884
20,5,0.25,0.6985268287487347,8.62582040419605
20,5,0.0,0.6701622720431245,11.46227607475707
20,6,1.0,0.7847850327906952,0.0
20,6,0.75,0.7540346117205454,3.0750421070149803
20,6,0.5,0.7449145343596144,3.9870498431080814
20,6,0.25,0.741168721800037,4.361631099065821
20,6,0.0,0.7357765957552271,4.900843703546808
20,7,1.0,0.7847850327906952,0.0
20,7,0.75,0.7478079572419195,3.6977075548775717
20,7,0.5,0.7502089503647056,3.457608242598964
20,7,0.25,0.7062485708965556,7.853646189413965
20,7,0.0,0.6623343722435207,12.245066054717457
20,8,1.0,0.7847850327906952,0.0
20,8,0.75,0.7585282445854034,2.625678820529187
20,8,0.5,0.7534009227389418,3.1384110051753455
20,8,0.25,0.7211465717365171,6.363846105417814
20,8,0.0,0.6609203883429163,12.38646444477789
21,0,1.0,0.7774524047140854,0.0
21,0,0.75,0.7683410162708855,0.9111388443199919
21,0,0.5,0.7313140333064669,4.613837140761845
21,0,0.25,0.6449593678391433,13.249303687494207
21,0,0.0,0.5072952424962824,27.015716221780295
21,1,1.0,0.7774524047140854,0.0
21,1,0.75,0.7941692946822031,-1.671688996811771
21,1,0.5,0.7862526520202074,-0.8800247306122055
21,1,0.25,0.7836987844700021,-0.6246379755916687
21,1,0.0,0.7680940329699476,0.9358371744137783
21,2,1.0,0.7774524047140854,0.0
21,2,0.75,0.7785178746385643,-0.10654699244788679
21,2,0.5,0.7570859943976906,2.0366410316394745
21,2,0.25,0.6605935010808032,11.685890363328221
21,2,0.0,0.5688150840994968,20.86373206145886
21,3,1.0,0.7774524047140854,0.0
21,3,0.75,0.7750756695609637,0.23767351531216452
21,3,0.5,0.7589115608087768,1.8540843905308635
21,3,0.25,0.6850501410275239,9.240226368656145
21,3,0.0,0.6180305573758719,15.942184733821351
21,4,1.0,0.7774524047140854,0.0
21,4,0.75,0.7938439043394724,-1.6391499625386996
21,4,0.5,0.7899064010846488,-1.2453996370563436
21,4,0.25,0.7778049601161119,-0.03525554020264998
21,4,0.0,0.7268135410200703,5.063886369401505
21,5,1.0,0.7774524047140854,0.0
21,5,0.75,0.7750829434988885,0.23694612151968775
21,5,0.5,0.6551391939554634,12.231321075862201
21,5,0.25,0.5983930622229578,17.905934249112754
21,5,0.0,0.5675347119886227,20.991769272546268
21,6,1.0,0.7774524047140854,0.0
21,6,0.75,0.7765065734692689,0.09458312448165085
21,6,0.5,0.7827684732726399,-0.5316068558554488
21,6,0.25,0.7713580371868813,0.6094367527204048
21,6,0.0,0.7602537575999393,1.7198647114146093
21,7,1.0,0.7774524047140854,0.0
21,7,0.75,0.7799805936496934,-0.2528188935608022
21,7,0.5,0.7711455980390709,0.6306806675014487
21,7,0.25,0.738220744418444,3.92316602956414
21,7,0.0,0.7204013199914839,5.705108472260145
21,8,1.0,0.7774524047140854,0.0
21,8,0.75,0.7764303474788337,0.10220572352517276
21,8,0.5,0.7520614913688922,2.5390913345193167
21,8,0.25,0.7388359100229477,3.8616494691137704
21,8,0.0,0.6889643361166088,8.84880685974766
22,0,1.0,0.7631073352275597,0.0
22,0,0.75,0.7739416741041169,-1.083433887655716
22,0,0.5,0.7570385786774225,0.6068756550137167
22,0,0.25,0.7322448213709062,3.0862513856653506
22,0,0.0,0.6814902559527893,8.161707927477035
22,1,1.0,0.7631073352275597,0.0
22,1,0.75,0.7776660918172791,-1.455875658971939
22,1,0.5,0.7647847106179994,-0.16773753904396616
22,1,0.25,0.7312559242032362,3.185141102432354
22,1,0.0,0.6883426529367573,7.476468229080235
22,2,1.0,0.7631073352275597,0.0
22,2,0.75,0.7564021557268022,0.6705179500757441
22,2,0.5,0.7500383235574497,1.3069011670109987
22,2,0.25,0.7249418605846385,3.8165474642921193
22,2,0.0,0.6789967025313077,8.411063269625195
22,3,1.0,0.7631073352275597,0.0
22,3,0.75,0.7559917015119891,0.7115633715570557
22,3,0.5,0.7276198206437416,3.5487514583818047
22,3,0.25,0.7182644920005182,4.484284322704147
22,3,0.0,0.6612027442996421,10.190459092791759
22,4,1.0,0.7631073352275597,0.0
22,4,0.75,0.7593377635534285,0.3769571674131167
22,4,0.5,0.7169890955800332,4.611823964752649
22,4,0.25,0.6791480609496844,8.39592742778753
22,4,0.0,0.6361254421606153,12.698189306694442
22,5,1.0,0.7631073352275597,0.0
22,5,0.75,0.7635926563511919,-0.04853211236321986
22,5,0.5,0.7078691141642472,5.523822106331244
22,5,0.25,0.6541823556186167,10.892497960894298
22,5,0.0,0.5386210216193978,22.448631360816186
22,6,1.0,0.7631073352275597,0.0
22,6,0.75,0.760787923838762,0.23194113887976542
22,6,0.5,0.7495245010722359,1.3582834155323797
22,6,0.25,0.7647665249334378,-0.16591897058780836
22,6,0.0,0.7623653442300906,0.07419909974690775
22,7,1.0,0.7631073352275597,0.0
22,7,0.75,0.7481285362382473,1.4978798989312425
22,7,0.5,0.7100620442443264,5.3045290983233295
22,7,0.25,0.6870254572363336,7.608187799122613
22,7,0.0,0.6470300838929832,11.607725133457647
22,8,1.0,0.7631073352275597,0.0
22,8,0.75,0.7429171726260599,2.019016260149975
22,8,0.5,0.7119823415935089,5.112499363405076
22,8,0.25,0.6821837389320196,8.092359629554014
22,8,0.0,0.6319773968271667,13.1129938400393
23,0,1.0,0.752819076584386,0.0
23,0,0.75,0.741821175644705,1.0997900939681005
23,0,0.5,0.7178472305866428,3.4971845997743167
23,0,0.25,0.6726985406571108,8.012053592727518
23,0,0.0,0.6233082283046698,12.951084827971615
23,1,1.0,0.752819076584386,0.0
23,1,0.75,0.7637327188940093,-1.0913642309623328
23,1,0.5,0.772385124557883,-1.9566047973497036
23,1,0.25,0.7449409085892515,0.7878167995134411
23,1,0.0,0.7059091679449467,4.690990863943922
23,2,1.0,0.752819076584386,0.0
23,2,0.75,0.758943607843737,-0.6124531259351085
23,2,0.5,0.7605144794478312,-0.7695402863445278
23,2,0.25,0.7690606908270654,-1.6241614242679447
23,2,0.0,0.7182613073558035,3.4557769228582447
23,3,1.0,0.752819076584386,0.0
23,3,0.75,0.7661320254646444,-1.3312948880258468
23,3,0.5,0.7656915454353784,-1.287246885099247
23,3,0.25,0.7646776731174911,-1.185859653310517
23,3,0.0,0.7553079179072067,-0.24888413228207895
23,4,1.0,0.752819076584386,0.0
23,4,0.75,0.7547850578953842,-0.19659813109982327
23,4,0.5,0.743117300187671,0.970177639671499
23,4,0.25,0.7167925508360865,3.6026525748299454
23,4,0.0,0.6651707875953877,8.764828898899824
23,5,1.0,0.752819076584386,0.0
23,5,0.75,0.730300777376261,2.251829920812498
23,5,0.5,0.6993397645649115,5.347931201947443
23,5,0.25,0.6380252567648679,11.479381981951809
23,5,0.0,0.5642337911741893,18.85852854101967
23,6,1.0,0.752819076584386,0.0
23,6,0.75,0.739391157307406,1.342791927697995
23,6,0.5,0.7343196424712666,1.8499434113119384
23,6,0.25,0.7368598025015475,1.5959274082838482
23,6,0.0,0.7273754320335247,2.5443644550861233
23,7,1.0,0.752819076584386,0.0
23,7,0.75,0.7465260934294167,0.6292983154969289
23,7,0.5,0.7270548049798252,2.576427160456074
23,7,0.25,0.6490339011580384,10.378517542634757
23,7,0.0,0.5941543421809682,15.866473440341778
23,8,1.0,0.752819076584386,0.0
23,8,0.75,0.727150672931714,2.566840365267198
23,8,0.5,0.6995483966506684,5.3270679933717595
23,8,0.25,0.698414572203872,5.440450438051392
23,8,0.0,0.6750411743251746,7.777790225921133
24,0,1.0,0.7046431671864061,0.0
24,0,0.75,0.6825470930061397,2.209607418026638
24,0,0.5,0.6464497060659039,5.819346112050217
24,0,0.25,0.6154304210516409,8.921274613476516
24,0,0.0,0.5864563209370843,11.818684624932175
24,1,1.0,0.7046431671864061,0.0
24,1,0.75,0.6964931610059162,0.8150006180489888
24,1,0.5,0.6466036328741979,5.803953431220821
24,1,0.25,0.6246540526977123,7.998911448869372
24,1,0.0,0.6248813567842989,7.976181040210717
24,2,1.0,0.7046431671864061,0.0
24,2,0.75,0.6978796155364524,0.6763551649953681
24,2,0.5,0.6846517359257627,1.99914312606434
24,2,0.25,0.6646203281822067,4.002283900419934
24,2,0.0,0.6128016873197561,9.184147986664993
24,3,1.0,0.7046431671864061,0.0
24,3,0.75,0.7545757513289981,-4.993258414259206
24,3,0.5,0.7678561507793995,-6.321298359299343
24,3,0.25,0.7678617944431096,-6.321862725670357
24,3,0.0,0.7522896166304379,-4.764644944403185
24,4,1.0,0.7046431671864061,0.0
24,4,0.75,0.7035537127995938,0.10894543868122941
24,4,0.5,0.6595855021038619,4.505766508254416
24,4,0.25,0.6055060544547566,9.91371127316495
24,4,0.0,0.5642868965065009,14.03562706799052
24,5,1.0,0.7046431671864061,0.0
24,5,0.75,0.6310483812147474,7.35947859716587
24,5,0.5,0.5285869683728222,17.605619881358393
24,5,0.25,0.44392765220136465,26.071551498504142
24,5,0.0,0.3586836898657551,34.5959477320651
24,6,1.0,0.7046431671864061,0.0
24,6,0.75,0.6945418795944462,1.0101287591959829
24,6,0.5,0.6655151417840298,3.9128025402376254
24,6,0.25,0.6465001956568719,5.814297152953419
24,6,0.0,0.6185107011069326,8.613246607947344
24,7,1.0,0.7046431671864061,0.0
24,7,0.75,0.70780508767254,-0.3161920486133951
24,7,0.5,0.6944066054904312,1.0236561695974866
24,7,0.25,0.6283218711307396,7.632129605566651
24,7,0.0,0.5535190662291029,15.112410095730322
24,8,1.0,0.7046431671864061,0.0
24,8,0.75,0.7009482268573177,0.36949403290883476
24,8,0.5,0.7053554568181648,-0.07122896317587335
24,8,0.25,0.6859499237888353,1.8693243397570725
24,8,0.0,0.6561108319423371,4.853233524406897
25,0,1.0,0.8110978185381987,0.0
25,0,0.75,0.8136000129746087,-0.2502194436409977
25,0,0.5,0.8121200847763348,-0.10222662381360603
25,0,0.25,0.8098839441535777,0.12138743846210609
25,0,0.0,0.7842563873150811,2.684143122311766
25,1,1.0,0.8110978185381987,0.0
25,1,0.75,0.8133583195375598,-0.2260500999361037
25,1,0.5,0.7947960362383006,1.6301782299898093
25,1,0.25,0.7708595709938343,4.023824754436445
25,1,0.0,0.7498592651749452,6.123855336325357
25,2,1.0,0.8110978185381987,0.0
25,2,0.75,0.8131278321410823,-0.20300136028835736
25,2,0.5,0.8130366711362504,-0.19388525980517102
25,2,0.25,0.777563845389022,3.353397314917672
25,2,0.0,0.6975297509246268,11.356806761357197
25,3,1.0,0.8110978185381987,0.0
25,3,0.75,0.8158621492933211,-0.47643307551223923
25,3,0.5,0.7899989370036171,2.1098881534581615
25,3,0.25,0.7746005350392464,3.6497283498952315
25,3,0.0,0.7479075563285491,6.319026220964963
25,4,1.0,0.8110978185381987,0.0
25,4,0.75,0.7944710569660495,1.6626761572149262
25,4,0.5,0.7877877725089258,2.331004602927289
25,4,0.25,0.7746726698242377,3.6425148713961075
25,4,0.0,0.698363049809267,11.273476872893173
25,5,1.0,0.8110978185381987,0.0
25,5,0.75,0.7855071134851228,2.5590705053075924
25,5,0.5,0.6961732043291747,11.4924614209024
25,5,0.25,0.664646163203295,14.645165533490378
25,5,0.0,0.6267140970036464,18.43837215345523
25,6,1.0,0.8110978185381987,0.0
25,6,0.75,0.7973726856409873,1.3725132897211445
25,6,0.5,0.7934234778960707,1.7674340642128028
25,6,0.25,0.7968255389287616,1.427227960943711
25,6,0.0,0.778715440527138,3.2382378011060697
25,7,1.0,0.8110978185381987,0.0
25,7,0.75,0.8147639209120188,-0.3666102373820035
25,7,0.5,0.8017058985871828,0.9391919951015959
25,7,0.25,0.7817302197858169,2.936759875238182
25,7,0.0,0.7360866408635814,7.501117767461729
25,8,1.0,0.8110978185381987,0.0
25,8,0.75,0.8114677269887283,-0.03699084505295325
25,8,0.5,0.8220569695471537,-1.0959151008954948
25,8,0.25,0.8217183948458158,-1.0620576307617036
25,8,0.0,0.7791406959296792,3.1957122608519573
26,0,1.0,0.7283788040714018,0.0
26,0,0.75,0.7369457880090501,-0.856698393764832
26,0,0.5,0.7247365784067363,0.3642225664665433
26,0,0.25,0.7041053112678649,2.4273492803536856
26,0,0.0,0.6714721966337125,5.690660743768927
26,1,1.0,0.7283788040714018,0.0
26,1,0.75,0.7491176737587973,-2.073886968739558
26,1,0.5,0.7235412849280454,0.48375191433563947
26,1,0.25,0.6694717208023103,5.890708326909144
26,1,0.0,0.6333803573811756,9.499844669022616
26,2,1.0,0.7283788040714018,0.0
26,2,0.75,0.7241479820301577,0.4230822041244031
26,2,0.5,0.7175687560403193,1.081004803108243
26,2,0.25,0.7078434420059181,2.0535362065483675
26,2,0.0,0.675252753886232,5.31260501851698
26,3,1.0,0.7283788040714018,0.0
26,3,0.75,0.7423570299557543,-1.397822588435249
26,3,0.5,0.7322022054054392,-0.38234013340374684
26,3,0.25,0.7361857191208949,-0.7806915049493157
26,3,0.0,0.7285046637868061,-0.012585971540435281
26,4,1.0,0.7283788040714018,0.0
26,4,0.75,0.7201289848211356,0.8249819250266133
26,4,0.5,0.7046284669926909,2.375033707871088
26,4,0.25,0.6600518145645761,6.83269895068257
26,4,0.0,0.6231439232443192,10.523488082708255
26,5,1.0,0.7283788040714018,0.0
26,5,0.75,0.7102521679260481,1.8126636145353703
26,5,0.5,0.6505413349037296,7.78374691676722
26,5,0.25,0.577187113404587,15.119169066681481
26,5,0.0,0.5076330190273566,22.074578504404517
26,6,1.0,0.7283788040714018,0.0
26,6,0.75,0.7351337298214868,-0.6754925750085072
26,6,0.5,0.7248972634399264,0.34815406314753217
26,6,0.25,0.7221947970274049,0.6184007043996909
26,6,0.0,0.7041639987277648,2.421480534363696
26,7,1.0,0.7283788040714018,0.0
26,7,0.75,0.7516699847425481,-2.3291180671146328
26,7,0.5,0.752451848765658,-2.4073044694256196
26,7,0.25,0.718202730965117,1.0176073106284766
26,7,0.0,0.6839978254045026,4.438097866689916
26,8,1.0,0.7283788040714018,0.0
26,8,0.75,0.7353676231286612,-0.6988819057259454
26,8,0.5,0.7176313297091921,1.0747474362209686
26,8,0.25,0.6873866859459078,4.099211812549397
26,8,0.0,0.648487107456855,7.989169661454676
27,0,1.0,0.8385604223370715,0.0
27,0,0.75,0.8656793532592638,-2.711893092219231
27,0,0.5,0.888655309551894,-5.009488721482247
27,0,0.25,0.8787411582670204,-4.018073592994886
27,0,0.0,0.8359391826469068,0.26212396901647006
27,1,1.0,0.8385604223370715,0.0
27,1,0.75,0.829603001495933,0.8957420841138486
27,1,0.5,0.8221286703723345,1.6431751964737007
27,1,0.25,0.7950655163755034,4.349490596156813
27,1,0.0,0.7646133224408603,7.394709989621118
27,2,1.0,0.8385604223370715,0.0
27,2,0.75,0.8378604304447441,0.06999918923273896
27,2,0.5,0.8084489813091433,3.0111441027928176
27,2,0.25,0.7845702184683807,5.39902038686908
27,2,0.0,0.7316635355924697,10.689688674460186
27,3,1.0,0.8385604223370715,0.0
27,3,0.75,0.8471233360609687,-0.856291372389717
27,3,0.5,0.8445425125693092,-0.5982090232237725
27,3,0.25,0.8491094116165421,-1.0548989279470566
27,3,0.0,0.788459424877595,5.010099745947649
27,4,1.0,0.8385604223370715,0.0
27,4,0.75,0.8365770715024637,0.19833508346077666
27,4,0.5,0.8354146790241244,0.3145743312947147
27,4,0.25,0.7970303724709419,4.153004986612963
27,4,0.0,0.7300537987318018,10.850662360526975
27,5,1.0,0.8385604223370715,0.0
27,5,0.75,0.8241134032208353,1.4447019116236248
27,5,0.5,0.7821313440793676,5.6429078257703935
27,5,0.25,0.6903061614638432,14.825426087322835
27,5,0.0,0.6419369713822268,19.66234509548447
27,6,1.0,0.8385604223370715,0.0
27,6,0.75,0.8428610912513662,-0.4300668914294703
27,6,0.5,0.8241138012458116,1.4446621091259937
27,6,0.25,0.8444250903003285,-0.586466796325702
27,6,0.0,0.8109789446411103,2.75814776959612
27,7,1.0,0.8385604223370715,0.0
27,7,0.75,0.8538129866931939,-1.5252564356122433
27,7,0.5,0.8431260393629776,-0.4565617025906077
27,7,0.25,0.8305974216611776,0.796300067589395
27,7,0.0,0.8073450290620626,3.1215393275008885
27,8,1.0,0.8385604223370715,0.0
27,8,0.75,0.8473278929760377,-0.8767470638966213
27,8,0.5,0.8536818153535604,-1.5121393016488849
27,8,0.25,0.8554757974527712,-1.6915375115699738
27,8,0.0,0.8178379345185806,2.0722487818490953
28,0,1.0,0.7192849002730939,0.0
28,0,0.75,0.73056179365044,-1.1276893377346164
28,0,0.5,0.7640283276065882,-4.4743427333494346
28,0,0.25,0.7534736626047879,-3.418876233169399
28,0,0.0,0.7323610845344068,-1.3076184261312962
28,1,1.0,0.7192849002730939,0.0
28,1,0.75,0.7252933003343659,-0.6008400061272012
28,1,0.5,0.7364425886028549,-1.7157688329761056
28,1,0.25,0.7268490833335151,-0.756418306042117
28,1,0.0,0.726642002929251,-0.7357102656157077
28,2,1.0,0.7192849002730939,0.0
28,2,0.75,0.7229608001778512,-0.36758999047573626
28,2,0.5,0.7200775077121818,-0.07926074390879334
28,2,0.25,0.6934153262889288,2.5869573984165117
28,2,0.0,0.6804232133660835,3.8861686907010418
28,3,1.0,0.7192849002730939,0.0
28,3,0.75,0.7197130285401504,-0.04281282670565156
28,3,0.5,0.7121212717259137,0.7163628547180223
28,3,0.25,0.703153540623389,1.6131359649704913
28,3,0.0,0.6849359880554718,3.434891221762204
28,4,1.0,0.7192849002730939,0.0
28,4,0.75,0.6934385251658858,2.584637510720811
28,4,0.5,0.6850268817204301,3.425801855266375
28,4,0.25,0.6910773554158768,2.8207544857217104
28,4,0.0,0.6904694760808232,2.8815424192270678
28,5,1.0,0.7192849002730939,0.0
28,5,0.75,0.7121916341431713,0.709326612992256
28,5,0.5,0.6453053956069201,7.397950466617376
28,5,0.25,0.5798347914102164,13.945010886287745
28,5,0.0,0.5596453148892775,15.96395853838164
28,6,1.0,0.7192849002730939,0.0
28,6,0.75,0.7135751198671401,0.5709780405953824
28,6,0.5,0.7077339982196873,1.1550902053406586
28,6,0.25,0.6985637720393019,2.072112823379202
28,6,0.0,0.683674311314644,3.561058895844993
28,7,1.0,0.7192849002730939,0.0
28,7,0.75,0.6985859877931756,2.0698912479918286
28,7,0.5,0.6675832193028809,5.1701680970213
28,7,0.25,0.6281269581376119,9.1157942135482
28,7,0.0,0.6000474336130975,11.923746665999635
28,8,1.0,0.7192849002730939,0.0
28,8,0.75,0.7102171928993112,0.9067707373782707
28,8,0.5,0.7023650814835344,1.6919818789559504
28,8,0.25,0.6669218542753662,5.236304599772767
28,8,0.0,0.5890681043901577,13.021679588293622
29,0,1.0,0.7614117081353038,0.0
29,0,0.75,0.7613710809641013,0.00406271712024564
29,0,0.5,0.7235675990748351,3.7844109060468645
29,0,0.25,0.6963888612784305,6.502284685687332
29,0,0.0,0.6602188165920924,10.119289154321143
29,1,1.0,0.7614117081353038,0.0
29,1,0.75,0.7615777692583732,-0.016606112306938314
29,1,0.5,0.753350868653132,0.8060839482171733
29,1,0.25,0.7573383382125031,0.4073369922800718
29,1,0.0,0.7372757464307924,2.4135961704511377
29,2,1.0,0.7614117081353038,0.0
29,2,0.75,0.7583813128414814,0.303039529382243
29,2,0.5,0.7631379944582682,-0.17262863229644543
29,2,0.25,0.7617152982982888,-0.03035901629849791
29,2,0.0,0.7452158281134835,1.6195880021820264
29,3,1.0,0.7614117081353038,0.0
29,3,0.75,0.7650991346051288,-0.3687426469825006
29,3,0.5,0.7522774428437207,0.9134265291583121
29,3,0.25,0.7484425532864998,1.296915484880401
29,3,0.0,0.7397558631233977,2.1655845011906094
29,4,1.0,0.7614117081353038,0.0
29,4,0.75,0.7458167628877184,1.5594945247585423
29,4,0.5,0.7130923495924469,4.831935854285685
29,4,0.25,0.6955640798497942,6.584762828550961
29,4,0.0,0.6767897910146511,8.46219171206527
29,5,1.0,0.7614117081353038,0.0
29,5,0.75,0.763606426041491,-0.21947179061871935
29,5,0.5,0.745560776424218,1.5850931711085758
29,5,0.25,0.6830199886856364,7.839171944966738
29,5,0.0,0.6096647433374774,15.174696479782634
29,6,1.0,0.7614117081353038,0.0
29,6,0.75,0.769176713137372,-0.7765005002068226
29,6,0.5,0.780354012633558,-1.894230449825418
29,6,0.25,0.7808182881946585,-1.9406580059354694
29,6,0.0,0.7614949349662712,-0.00832268309673978
29,7,1.0,0.7614117081353038,0.0
29,7,0.75,0.7869114189696805,-2.5499710834376743
29,7,0.5,0.7747883790234003,-1.3376670888096465
29,7,0.25,0.7571285640321365,0.42831441031673245
29,7,0.0,0.7220711780700898,3.9340530065213986
29,8,1.0,0.7614117081353038,0.0
29,8,0.75,0.7528005981980292,0.8611109937274541
29,8,0.5,0.7493478767871036,1.2063831348200216
29,8,0.25,0.7199234595122279,4.148824862307587
29,8,0.0,0.6746803872397892,8.67313208955146
30,0,1.0,0.7452636148980709,0.0
30,0,0.75,0.7481599563705921,-0.2896341472521158
30,0,0.5,0.7743377643215212,-2.9074149423450324
30,0,0.25,0.7608324340868556,-1.5568819188784722
30,0,0.0,0.7308784723281865,1.4385142569884435
30,1,1.0,0.7452636148980709,0.0
30,1,0.75,0.709499429442394,3.5764185455676945
30,1,0.5,0.6826435380530809,6.262007684499005
30,1,0.25,0.6680638437792127,7.719977111885823
30,1,0.0,0.6676221640831441,7.764145081492679
30,2,1.0,0.7452636148980709,0.0
30,2,0.75,0.7329511189629774,1.2312495935093537
30,2,0.5,0.7175922338273999,2.767138107067102
30,2,0.25,0.7005300434697723,4.473357142829859
30,2,0.0,0.6948313801345216,5.04322347635493
30,3,1.0,0.7452636148980709,0.0
30,3,0.75,0.7506912956448855,-0.5427680746814545
30,3,0.5,0.7377949715854164,0.746864331265451
30,3,0.25,0.7201756305738009,2.5087984324270063
30,3,0.0,0.7037967055042186,4.146690939385234
30,4,1.0,0.7452636148980709,0.0
30,4,0.75,0.7454310093168954,-0.0167394418824518
30,4,0.5,0.7465790832151422,-0.13154683170713
30,4,0.25,0.7345697891916486,1.06938257064223
30,4,0.0,0.6902148868495944,5.504872804847649
30,5,1.0,0.7452636148980709,0.0
30,5,0.75,0.7585467102756779,-1.3283095377606968
30,5,0.5,0.7191553389328643,2.6108275965206595
30,5,0.25,0.5456111262478589,19.965248865021202
30,5,0.0,0.3223963939806596,42.28672209174113
30,6,1.0,0.7452636148980709,0.0
30,6,0.75,0.7557540336131418,-1.0490418715070837
30,6,0.5,0.7547956188110956,-0.9532003913024667
30,6,0.25,0.7633442437601752,-1.8080628862104264
30,6,0.0,0.7531044703705149,-0.7840855472443953
30,7,1.0,0.7452636148980709,0.0
30,7,0.75,0.7759358510687311,-3.067223617066017
30,7,0.5,0.7733880342729966,-2.8124419374925713
30,7,0.25,0.7404951531943658,0.47684617037051513
30,7,0.0,0.6901210864593295,5.514252843874146
30,8,1.0,0.7452636148980709,0.0
30,8,0.75,0.7564778588004534,-1.121424390238246
30,8,0.5,0.7488744377984885,-0.36108229004175874
30,8,0.25,0.7589509078585857,-1.368729296051474
30,8,0.0,0.765817129364956,-2.0553514466885137
31,0,1.0,0.6948981890150873,0.0
31,0,0.75,0.6857880085290733,0.9110180486013975
31,0,0.5,0.6708608518123291,2.4037337202758136
31,0,0.25,0.6433275868823835,5.157060213270381
31,0,0.0,0.6299502530471915,6.494793596789572
31,1,1.0,0.6948981890150873,0.0
31,1,0.75,0.6834046554471043,1.1493533567982994
31,1,0.5,0.6808889638196052,1.400922519548209
31,1,0.25,0.6694214352506133,2.5476753764474003
31,1,0.0,0.6394449675871381,5.545322142794918
31,2,1.0,0.6948981890150873,0.0
31,2,0.75,0.680981492924452,1.3916696090635283
31,2,0.5,0.6833866216605133,1.1511567354573926
31,2,0.25,0.6745147487058438,2.038344030924344
31,2,0.0,0.6324611788410148,6.243701017407243
31,3,1.0,0.6948981890150873,0.0
31,3,0.75,0.6973150312708136,-0.2416842255726359
31,3,0.5,0.6915455796435072,0.33526093715801064
31,3,0.25,0.6913732035007174,0.35249855143698605
31,3,0.0,0.697473480522443,-0.25752915073556926
31,4,1.0,0.6948981890150873,0.0
31,4,0.75,0.6911741131347774,0.3724075880309874
31,4,0.5,0.6894559372834511,0.544225173163615
31,4,0.25,0.6640566975604525,3.0841491454634773
31,4,0.0,0.6470461567479111,4.785203226717616
31,5,1.0,0.6948981890150873,0.0
31,5,0.75,0.6801656457977803,1.4732543217306993
31,5,0.5,0.6721064967398357,2.2791692275251574
31,5,0.25,0.6598861527581011,3.5012036256986123
31,5,0.0,0.6343619980739281,6.0536190941159145
31,6,1.0,0.6948981890150873,0.0
31,6,0.75,0.6838687074765992,1.102948153848804
31,6,0.5,0.6819763619134411,1.2921827101646133
31,6,0.25,0.6737990262773743,2.109916273771295
31,6,0.0,0.6425620118120863,5.233617720300099
31,7,1.0,0.6948981890150873,0.0
31,7,0.75,0.6730788041138899,2.181938490119739
31,7,0.5,0.6360114787911132,5.888671022397407
31,7,0.25,0.5803141377297562,11.458405128533112
31,7,0.0,0.5496583624363246,14.523982657876267
31,8,1.0,0.6948981890150873,0.0
31,8,0.75,0.6784704604273053,1.6427728587781965
31,8,0.5,0.6504182098883842,4.44799791267031
31,8,0.25,0.597531348865314,9.736684014977326
31,8,0.0,0.5855740435562227,10.93241454588646
32,0,1.0,0.7868692958362843,0.0
32,0,0.75,0.7873952860337332,-0.05259901974489223
32,0,0.5,0.7439655302616437,4.290376557464059
32,0,0.25,0.6950796662969602,9.178962953932412
32,0,0.0,0.6633465038134299,12.352279202285443
32,1,1.0,0.7868692958362843,0.0
32,1,0.75,0.7828729709929317,0.399632484335255
32,1,0.5,0.7421490251970124,4.472027063927186
32,1,0.25,0.7210996980922951,6.576959774398916
32,1,0.0,0.6911234913813962,9.574580445488811
32,2,1.0,0.7868692958362843,0.0
32,2,0.75,0.7741075931865404,1.2761702649743856
32,2,0.5,0.7605650767278357,2.63042191084486
32,2,0.25,0.745727594003456,4.114170183282829
32,2,0.0,0.6786190633696448,10.825023246663946
32,3,1.0,0.7868692958362843,0.0
32,3,0.75,0.7692591335423565,1.7610162293927756
32,3,0.5,0.7647073487589731,2.216194707731123
32,3,0.25,0.7450346135342203,4.183468230206399
32,3,0.0,0.7311892284629657,5.568006737331855
32,4,1.0,0.7868692958362843,0.0
32,4,0.75,0.7629803468803453,2.388894895593896
32,4,0.5,0.7375305535942422,4.933874224204205
32,4,0.25,0.6981330546529881,8.873624118329616
32,4,0.0,0.6531011383046244,13.376815753165994
32,5,1.0,0.7868692958362843,0.0
32,5,0.75,0.7797143183741122,0.7154977462172085
32,5,0.5,0.719696175942903,6.717311989338127
32,5,0.25,0.571310497509688,21.55587983265963
32,5,0.0,0.4581686107639784,32.870068507230584
32,6,1.0,0.7868692958362843,0.0
32,6,0.75,0.7781792930934825,0.8690002742801739
32,6,0.5,0.723078456593253,6.3790839243031305
32,6,0.25,0.7117905028237846,7.5078793012499645
32,6,0.0,0.6962727830759421,9.05965127603422
32,7,1.0,0.7868692958362843,0.0
32,7,0.75,0.7592202654283564,2.7649030407927877
32,7,0.5,0.7272114212672828,5.965787456900151
32,7,0.25,0.6787152671809594,10.815402865532487
32,7,0.0,0.6401846316069655,14.66846642293188
32,8,1.0,0.7868692958362843,0.0
32,8,0.75,0.7787427882258345,0.8126507610449751
32,8,0.5,0.7517508421297359,3.5118453706548425
32,8,0.25,0.7493730031039245,3.749629273235977
32,8,0.0,0.6863808498653088,10.04884459709755
33,0,1.0,0.8602815942350902,0.0
33,0,0.75,0.8607785394222378,-0.04969451871476016
33,0,0.5,0.8499747781825603,1.0306816052529921
33,0,0.25,0.8330740037325408,2.7207590502549395
33,0,0.0,0.7735568364838519,8.672475775123834
33,1,1.0,0.8602815942350902,0.0
33,1,0.75,0.8604705722845924,-0.018897804950224195
33,1,0.5,0.8534032209853664,0.6878373249723846
33,1,0.25,0.8318645654103853,2.841702882470487
33,1,0.0,0.7892255019771452,7.105609225794495
33,2,1.0,0.8602815942350902,0.0
33,2,0.75,0.8462214774223993,1.4060116812690926
33,2,0.5,0.7872896714278736,7.299192280721655
33,2,0.25,0.7454328098165423,11.484878441854796
33,2,0.0,0.7163423338516303,14.393926038345995
33,3,1.0,0.8602815942350902,0.0
33,3,0.75,0.8461186736471484,1.4162920587941774
33,3,0.5,0.8091715444097269,5.111004982536327
33,3,0.25,0.7561161955687636,10.416539866632657
33,3,0.0,0.7216138252634987,13.86677689715915
33,4,1.0,0.8602815942350902,0.0
33,4,0.75,0.8677883639801198,-0.7506769745029618
33,4,0.5,0.8672350694411747,-0.695347520608447
33,4,0.25,0.8252355398456559,3.504605438943431
33,4,0.0,0.7043847334737483,15.58968607613419
33,5,1.0,0.8602815942350902,0.0
33,5,0.75,0.8422938400503799,1.7987754184710325
33,5,0.5,0.7672279308239046,9.30536634111856
33,5,0.25,0.7121686205798354,14.811297365525478
33,5,0.0,0.6848898776640957,17.539171657099452
33,6,1.0,0.8602815942350902,0.0
33,6,0.75,0.8461836155316245,1.4097978703465741
33,6,0.5,0.8201682119502969,4.0113382284793335
33,6,0.25,0.7971429579944274,6.313863624066284
33,6,0.0,0.7427846587410212,11.749693549406903
33,7,1.0,0.8602815942350902,0.0
33,7,0.75,0.8393612665210347,2.0920327714055498
33,7,0.5,0.8229694221955686,3.731217203952164
33,7,0.25,0.7873018579053935,7.297973632969668
33,7,0.0,0.6973831582493462,16.289843598574404
33,8,1.0,0.8602815942350902,0.0
33,8,0.75,0.8484895125689317,1.1792081666158527
33,8,0.5,0.8412839290436915,1.8997665191398672
33,8,0.25,0.8025104946526194,5.777109958247085
33,8,0.0,0.7315276201179806,12.875397411710965
34,0,1.0,0.8310365189138639,0.0
34,0,0.75,0.8356608175828685,-0.46242986690046006
34,0,0.5,0.8193140807305526,1.1722438183311312
34,0,0.25,0.8041406166842342,2.6895902229629676
34,0,0.0,0.7597143597859366,7.132215912792727
34,1,1.0,0.8310365189138639,0.0
34,1,0.75,0.8190413621824475,1.1995156731416379
34,1,0.5,0.8149601883624147,1.6076330551449192
34,1,0.25,0.8070799879257091,2.3956530988154756
34,1,0.0,0.7986072853522421,3.242923356162175
34,2,1.0,0.8310365189138639,0.0
34,2,0.75,0.8413694303789129,-1.0332911465049
34,2,0.5,0.8432243251245519,-1.2187806210688046
34,2,0.25,0.838098950968684,-0.7062432054820156
34,2,0.0,0.8312761131986617,-0.02395942847978061
34,3,1.0,0.8310365189138639,0.0
34,3,0.75,0.8332482072594116,-0.22116883455477465
34,3,0.5,0.8433023625034345,-1.2265843589570613
34,3,0.25,0.8279134006948203,0.31231182190435414
34,3,0.0,0.8021682441924789,2.886827472138498
34,4,1.0,0.8310365189138639,0.0
34,4,0.75,0.8228671409043822,0.8169378009481698
34,4,0.5,0.8064404797760715,2.4596039137792403
34,4,0.25,0.7719667024325304,5.906981648133347
34,4,0.0,0.7202701718769999,11.076634703686395
34,5,1.0,0.8310365189138639,0.0
34,5,0.75,0.8250510549711163,0.5985463942747571
34,5,0.5,0.78934710010928,4.168941880458387
34,5,0.25,0.6690392017930008,16.199731712086308
34,5,0.0,0.3971267014873217,43.39098174265422
34,6,1.0,0.8310365189138639,0.0
34,6,0.75,0.822861011297007,0.8175507616856925
34,6,0.5,0.8193701048757355,1.1666414038128403
34,6,0.25,0.8101409106976445,2.0895608216219386
34,6,0.0,0.8285881633003183,0.24483556135456164
34,7,1.0,0.8310365189138639,0.0
34,7,0.75,0.8187050211232471,1.2331497790616819
34,7,0.5,0.819969342251951,1.1067176661912925
34,7,0.25,0.7826804342315449,4.8356084682319
34,7,0.0,0.6842110582946714,14.682546061919243
34,8,1.0,0.8310365189138639,0.0
34,8,0.75,0.8247078584708446,0.6328660443019274
34,8,0.5,0.8152140442318102,1.5822474682053667
34,8,0.25,0.7920747230766848,3.896179583717907
34,8,0.0,0.7588775580683994,7.215896084546447
35,0,1.0,0.7122641837634507,0.0
35,0,0.75,0.7038605817881115,0.8403601975339181
35,0,0.5,0.6913883824840122,2.0875801279438444
35,0,0.25,0.6790490886063774,3.3215095157073327
35,0,0.0,0.6215083728967687,9.075581086668194
35,1,1.0,0.7122641837634507,0.0
35,1,0.75,0.7080709955294155,0.4193188234035139
35,1,0.5,0.6962493726405725,1.601481112287817
35,1,0.25,0.6837676883736246,2.8496495389826126
35,1,0.0,0.6506081084073488,6.165607535610185
35,2,1.0,0.7122641837634507,0.0
35,2,0.75,0.7112750426326084,0.09891411308422526
35,2,0.5,0.6838076908907061,2.8456492872744543
35,2,0.25,0.6531559146321526,5.9108269131298075
35,2,0.0,0.6247988775135148,8.746530624993587
35,3,1.0,0.7122641837634507,0.0
35,3,0.75,0.6858788266327877,2.6385357130663034
35,3,0.5,0.6572593114558557,5.500487230759498
35,3,0.25,0.645115015644903,6.714916811854765
35,3,0.0,0.6231173277348897,8.914685602856098
35,4,1.0,0.7122641837634507,0.0
35,4,0.75,0.7165023487975349,-0.42381650340842514
35,4,0.5,0.7144131373866882,-0.21489536232375261
35,4,0.25,0.7099857318122187,0.22784519512319967
35,4,0.0,0.7207488177790539,-0.8484634015603176
35,5,1.0,0.7122641837634507,0.0
35,5,0.75,0.7233121203506083,-1.1047936587157636
35,5,0.5,0.7184994405872369,-0.6235256823786228
35,5,0.25,0.7164470452558372,-0.4182861492386558
35,5,0.0,0.7076997561709937,0.456442759245701
35,6,1.0,0.7122641837634507,0.0
35,6,0.75,0.706420035376808,0.5844148386642711
35,6,0.5,0.7064227279310666,0.5841455832384046
35,6,0.25,0.7044658734761966,0.7798310287254084
35,6,0.0,0.7174121594528365,-0.5147975689385853
35,7,1.0,0.7122641837634507,0.0
35,7,0.75,0.7201718709184051,-0.7907687154954379
35,7,0.5,0.7360580833760733,-2.379389961262257
35,7,0.25,0.7192370719698655,-0.697288820641484
35,7,0.0,0.6800797334892142,3.2184450274236442
35,8,1.0,0.7122641837634507,0.0
35,8,0.75,0.7151845142019919,-0.292033043854123
35,8,0.5,0.712520203606487,-0.025601984303635916
35,8,0.25,0.6974967957766028,1.4767387986847846
35,8,0.0,0.6496844636934431,6.257972007000756
36,0,1.0,0.6730821013764927,0.0
36,0,0.75,0.6558832170747909,1.71988843017018
36,0,0.5,0.6336642791008356,3.9417822275657155
36,0,0.25,0.6139407815605092,5.914131981598347
36,0,0.0,0.6128896260971732,6.019247527931948
36,1,1.0,0.6730821013764927,0.0
36,1,0.75,0.6641036234807092,0.8978477895783543
36,1,0.5,0.6714982998687009,0.15838015077918044
36,1,0.25,0.6590405455038923,1.4041555872600364
36,1,0.0,0.6348107505149574,3.8271350861535325
36,2,1.0,0.6730821013764927,0.0
36,2,0.75,0.6808781945858481,-0.779609320935537
36,2,0.5,0.6868016406773727,-1.371953930087999
36,2,0.25,0.6768400009970361,-0.37578996205434034
36,2,0.0,0.6713875275859769,0.1694573790515852
36,3,1.0,0.6730821013764927,0.0
36,3,0.75,0.664551404104234,0.8530697272258747
36,3,0.5,0.6497411036120582,2.3340997764434546
36,3,0.25,0.6464684237246145,2.6613677651878165
36,3,0.0,0.6396497209451116,3.343238043138108
36,4,1.0,0.6730821013764927,0.0
36,4,0.75,0.6804459236269034,-0.7363822250410657
36,4,0.5,0.6781192710454438,-0.5037169668951069
36,4,0.25,0.6816148493068515,-0.8532747930358742
36,4,0.0,0.682546961557957,-0.9464860181464307
36,5,1.0,0.6730821013764927,0.0
36,5,0.75,0.6852634978495196,-1.218139647302685
36,5,0.5,0.6949932362153481,-2.191113483885543
36,5,0.25,0.6885477047808428,-1.5465603404350103
36,5,0.0,0.69577368438777,-2.269158301127727
36,6,1.0,0.6730821013764927,0.0
36,6,0.75,0.6719323274219857,0.1149773954506994
36,6,0.5,0.6626203826294198,1.0461718747072912
36,6,0.25,0.6470149300834077,2.6067171293085
36,6,0.0,0.664277628240342,0.8804473136150737
36,7,1.0,0.6730821013764927,0.0
36,7,0.75,0.676920044272626,-0.3837942896133262
36,7,0.5,0.6735789299719873,-0.04968285954946028
36,7,0.25,0.6181180550998302,5.4964046276662515
36,7,0.0,0.5902914987818104,8.27906025946823
36,8,1.0,0.6730821013764927,0.0
36,8,0.75,0.6573830946183823,1.5699006758110423
36,8,0.5,0.6501943371986045,2.288776417788818
36,8,0.25,0.6280927407160333,4.498936066045944
36,8,0.0,0.6017774111058161,7.130469027067665
37,0,1.0,0.8934608079033525,0.0
37,0,0.75,0.8800672465975619,1.3393561305790613
37,0,0.5,0.8432818637471275,5.017894415622493
37,0,0.25,0.7887547402769204,10.470606762643209
37,0,0.0,0.7613684632994939,13.209234460385854
37,1,1.0,0.8934608079033525,0.0
37,1,0.75,0.8509591238894334,4.250168401391907
37,1,0.5,0.8162576308561142,7.720317704723822
37,1,0.25,0.7876345307843386,10.582627711901383
37,1,0.0,0.7516575862857542,14.180322161759829
37,2,1.0,0.8934608079033525,0.0
37,2,0.75,0.8820549985668386,1.1405809336513917
37,2,0.5,0.8761296154342998,1.733119246905268
37,2,0.25,0.8652686899289925,2.8192117974359943
37,2,0.0,0.8223678585308978,7.109294937245469
37,3,1.0,0.8934608079033525,0.0
37,3,0.75,0.893646513555821,-0.018570565246855963
37,3,0.5,0.8864040610532998,0.7056746850052642
37,3,0.25,0.8656197310611404,2.7841076842212042
37,3,0.0,0.8271758336171233,6.628497428622914
37,4,1.0,0.8934608079033525,0.0
37,4,0.75,0.8942107049513696,-0.07498970480170897
37,4,0.5,0.8994680509912764,-0.6007243087923886
37,4,0.25,0.8831166847866058,1.0344123116746706
37,4,0.0,0.8640970300030976,2.9363777900254906
37,5,1.0,0.8934608079033525,0.0
37,5,0.75,0.8961523129511254,-0.2691505047772935
37,5,0.5,0.8831498091392127,1.0310998764139767
37,5,0.25,0.8363658808773831,5.7094927025969415
37,5,0.0,0.7752979105597675,11.816289734358499
37,6,1.0,0.8934608079033525,0.0
37,6,0.75,0.8850184736257959,0.8442334277556585
37,6,0.5,0.8882235033047073,0.5237304598645132
37,6,0.25,0.8763009023150679,1.7159905588284619
37,6,0.0,0.8469500152007857,4.651079270256675
37,7,1.0,0.8934608079033525,0.0
37,7,0.75,0.8955319753455591,-0.20711674422065895
37,7,0.5,0.8665863417872341,2.6874466116118323
37,7,0.25,0.8476159422276188,4.584486567573364
37,7,0.0,0.8126150831919763,8.08457247113762
37,8,1.0,0.8934608079033525,0.0
37,8,0.75,0.8778475628061896,1.5613245097162887
37,8,0.5,0.8447671798548269,4.869362804852562
37,8,0.25,0.8195522896348999,7.390851826845257
37,8,0.0,0.7826516486889241,11.080915921442836
38,0,1.0,0.8318715998609775,0.0
38,0,0.75,0.8319773266492445,-0.010572678826703541
38,0,0.5,0.808450401463475,2.342119839750245
38,0,0.25,0.7714640651160686,6.04075347449089
38,0,0.0,0.7131076858497751,11.876391401120234
38,1,1.0,0.8318715998609775,0.0
38,1,0.75,0.8003592814043026,3.1512318456674904
38,1,0.5,0.7687982466945882,6.3073353166389285
38,1,0.25,0.7311218727357968,10.074972712518072
38,1,0.0,0.7255676046597074,10.63039952012701
38,2,1.0,0.8318715998609775,0.0
38,2,0.75,0.8179815783549474,1.3890021506030026
38,2,0.5,0.7983903517201615,3.348124814081599
38,2,0.25,0.7210114641805311,11.086013568044638
38,2,0.0,0.6604521807683582,17.141941909261927
38,3,1.0,0.8318715998609775,0.0
38,3,0.75,0.8518086203851406,-1.993702052416313
38,3,0.5,0.8458176786847712,-1.3946078823793728
38,3,0.25,0.822397456564771,0.9474143296206439
38,3,0.0,0.7806328303452947,5.123876951568274
38,4,1.0,0.8318715998609775,0.0
38,4,0.75,0.8120663314844303,1.980526837654717
38,4,0.5,0.7725348204406257,5.933677942035176
38,4,0.25,0.6965768549734623,13.529474488751514
38,4,0.0,0.626685241604662,20.51863582563155
38,5,1.0,0.8318715998609775,0.0
38,5,0.75,0.8175726831420624,1.4298916718915033
38,5,0.5,0.7466937435059423,8.517785635503516
38,5,0.25,0.6717205077595838,16.015109210139368
38,5,0.0,0.6594563279857397,17.241527187523776
38,6,1.0,0.8318715998609775,0.0
38,6,0.75,0.8498157337402459,-1.794413387926841
38,6,0.5,0.8273960192381776,0.4475580622799846
38,6,0.25,0.8060266941859995,2.584490567497799
38,6,0.0,0.8031484390229409,2.872316083803661
38,7,1.0,0.8318715998609775,0.0
38,7,0.75,0.832873564110324,-0.10019642493465097
38,7,0.5,0.7944374368499179,3.743416301105962
38,7,0.25,0.7608360877728648,7.103551208811265
38,7,0.0,0.7049552140318963,12.691638582908116
38,8,1.0,0.8318715998609775,0.0
38,8,0.75,0.8181408022871437,1.3730797573833775
38,8,0.5,0.781153559610104,5.071804025087346
38,8,0.25,0.7546436508336352,7.722794902734231
38,8,0.0,0.7365465686310335,9.532503122994395
39,0,1.0,0.745877585752978,0.0
39,0,0.75,0.689217585642123,5.6660000110855036
39,0,0.5,0.6366810824085006,10.91965033444774
39,0,0.25,0.5926679288227329,15.320965693024513
39,0,0.0,0.5626040473669627,18.327353838601535
39,1,1.0,0.745877585752978,0.0
39,1,0.75,0.7497749515180634,-0.389736576508537
39,1,0.5,0.7555119127057909,-0.9634326952812855
39,1,0.25,0.7663880238262764,-2.051043807329833
39,1,0.0,0.7382403336393643,0.7637252113613768
39,2,1.0,0.745877585752978,0.0
39,2,0.75,0.7518339561259666,-0.5956370372988573
39,2,0.5,0.7555500011783906,-0.9672415425412528
39,2,0.25,0.7499787901439352,-0.41012043909571805
39,2,0.0,0.7279255852002635,1.7952000552714509
39,3,1.0,0.745877585752978,0.0
39,3,0.75,0.689555435463364,5.632215028961407
39,3,0.5,0.6491488402873146,9.672874546566346
39,3,0.25,0.6274542987013001,11.842328705167793
39,3,0.0,0.5753607980742235,17.051678767875455
39,4,1.0,0.745877585752978,0.0
39,4,0.75,0.7821049683913462,-3.622738263836822
39,4,0.5,0.7618028392397742,-1.5925253486796187
39,4,0.25,0.7193325404730669,2.6545045279911084
39,4,0.0,0.6619113052710378,8.396628048194021
39,5,1.0,0.745877585752978,0.0
39,5,0.75,0.6580680648663417,8.780952088663629
39,5,0.5,0.6351150190181994,11.076256673477857
39,5,0.25,0.555501985144168,19.037560060881
39,5,0.0,0.4076535198251948,33.82240659277832
39,6,1.0,0.745877585752978,0.0
39,6,0.75,0.6928811087226928,5.299647703028521
39,6,0.5,0.6608419071896403,8.50356785633377
39,6,0.25,0.6530138231684572,9.286376258452078
39,6,0.0,0.6461313033606002,9.97462823923778
39,7,1.0,0.745877585752978,0.0
39,7,0.75,0.7142237932903432,3.1653792462634778
39,7,0.5,0.6898114381034012,5.606614764957685
39,7,0.25,0.6602881351798833,8.558945057309476
39,7,0.0,0.622882951377575,12.299463437540304
39,8,1.0,0.745877585752978,0.0
39,8,0.75,0.7925096762843067,-4.663209053132866
39,8,0.5,0.7725852148841386,-2.6707629131160537
39,8,0.25,0.7388876813480652,0.6989904404912872
39,8,0.0,0.6974428498598654,4.843473589311264
40,0,1.0,0.7456696436302156,0.0
40,0,0.75,0.7490799753485524,-0.3410331718336823
40,0,0.5,0.7650658019049563,-1.9396158274740727
40,0,0.25,0.7457349455147133,-0.00653018844977149
40,0,0.0,0.6970370376774087,4.863260595280694
40,1,1.0,0.7456696436302156,0.0
40,1,0.75,0.7583671700973682,-1.269752646715261
40,1,0.5,0.7505273103464128,-0.4857666716197251
40,1,0.25,0.7519743939574,-0.6304750327184361
40,1,0.0,0.7358000147627661,0.9869628867449465
40,2,1.0,0.7456696436302156,0.0
40,2,0.75,0.7528560304183367,-0.7186386788121113
40,2,0.5,0.747425444668569,-0.17558010383533773
40,2,0.25,0.7340547365405453,1.1614907089670279
40,2,0.0,0.7049847181629664,4.068492546724922
40,3,1.0,0.7456696436302156,0.0
40,3,0.75,0.7545647343634649,-0.8895090733249345
40,3,0.5,0.7550441744430987,-0.9374530812883086
40,3,0.25,0.7477801827082018,-0.21105390779861954
40,3,0.0,0.7386745744231934,0.6995069207022198
40,4,1.0,0.7456696436302156,0.0
40,4,0.75,0.7504119034845171,-0.4742259854301545
40,4,0.5,0.7391448080443999,0.6524835585815736
40,4,0.25,0.7131952871209936,3.2474356509222035
40,4,0.0,0.6801687094403542,6.550093418986136
40,5,1.0,0.7456696436302156,0.0
40,5,0.75,0.76789285622916,-2.222321259894444
40,5,0.5,0.7671586250814244,-2.148898145120881
40,5,0.25,0.7547422000220532,-0.9072556391837572
40,5,0.0,0.718505073844599,2.7164569785616544
40,6,1.0,0.7456696436302156,0.0
40,6,0.75,0.74389090077449,0.17787428557255458
40,6,0.5,0.7337218533565171,1.1947790273698522
40,6,0.25,0.7138108603958991,3.1858783234316457
40,6,0.0,0.7019052659013184,4.376437772889719
40,7,1.0,0.7456696436302156,0.0
40,7,0.75,0.7169029054802738,2.8766738149941795
40,7,0.5,0.7026505219674481,4.301912166276745
40,7,0.25,0.6658712249775497,7.97984186526659
40,7,0.0,0.5805326858875938,16.51369577426218
40,8,1.0,0.7456696436302156,0.0
40,8,0.75,0.7484508854052004,-0.2781241774984844
40,8,0.5,0.7573235156030819,-1.165387197286627
40,8,0.25,0.715295371772428,3.0374271857787627
40,8,0.0,0.6234423953858078,12.222724824440778
