subject,channel,f1_full,f1_occluded,drop_pp
1,0,0.5004576091519254,0.4784619878410241,2.199562131090127
1,1,0.5004576091519254,0.5593887245747008,-5.89311154227754
1,2,0.5004576091519254,0.4664960063127282,3.396160283919719
1,3,0.5004576091519254,0.392382717795673,10.807489135625236
1,4,0.5004576091519254,0.49475234411751884,0.5705265034406548
1,5,0.5004576091519254,0.3806707444193215,11.978686473260385
1,6,0.5004576091519254,0.552487428059144,-5.202981890721858
1,7,0.5004576091519254,0.5106905836776225,-1.0232974525697158
1,8,0.5004576091519254,0.5167329302323992,-1.6275321080473804
2,0,0.8086217972476695,0.7449002289861953,6.372156826147412
2,1,0.8086217972476695,0.7527298820945123,5.589191515315717
2,2,0.8086217972476695,0.6866061922207977,12.201560502687181
2,3,0.8086217972476695,0.7158113535596766,9.281044368799286
2,4,0.8086217972476695,0.7488808688336206,5.974092841404888
2,5,0.8086217972476695,0.7585436273459908,5.007816990167868
2,6,0.8086217972476695,0.7615753051741116,4.704649207355782
2,7,0.8086217972476695,0.6763684996771198,13.225329757054972
2,8,0.8086217972476695,0.7407131240177962,6.790867322987326
3,0,0.8242665376559626,0.8309944325241561,-0.6727894868193474
3,1,0.8242665376559626,0.7724156083054513,5.185092935051127
3,2,0.8242665376559626,0.7214060940832343,10.286044357272829
3,3,0.8242665376559626,0.5763733316830661,24.789320597289645
3,4,0.8242665376559626,0.715490771088494,10.877576656746857
3,5,0.8242665376559626,0.7389420457312423,8.532449192472026
3,6,0.8242665376559626,0.8425343963967369,-1.82678587407743
3,7,0.8242665376559626,0.706155757251555,11.811078040440758
3,8,0.8242665376559626,0.7749495708128801,4.9316966843082515
4,0,0.7471444441432344,0.6364228316889361,11.072161245429834
4,1,0.7471444441432344,0.7179642520701647,2.9180192073069766
4,2,0.7471444441432344,0.6685069276564691,7.863751648676532
4,3,0.7471444441432344,0.6959549931704725,5.118945097276195
4,4,0.7471444441432344,0.6971377517868746,5.000669235635979
4,5,0.7471444441432344,0.48921797479798595,25.79264693452485
4,6,0.7471444441432344,0.6794326922146471,6.7711751928587365
4,7,0.7471444441432344,0.7003283365343909,4.681610760884358
4,8,0.7471444441432344,0.7195302739765828,2.7614170166651686
5,0,0.5985705452631997,0.5662272840795568,3.2343261183642946
5,1,0.5985705452631997,0.5226620037813999,7.590854148179982
5,2,0.5985705452631997,0.5569971079181364,4.157343734506336
5,3,0.5985705452631997,0.591410673325407,0.7159871937792772
5,4,0.5985705452631997,0.49591873330291875,10.2651811960281
5,5,0.5985705452631997,0.4554941204377716,14.307642482542814
5,6,0.5985705452631997,0.5518085738275608,4.676197143563899
5,7,0.5985705452631997,0.560908888462538,3.7661656800661802
5,8,0.5985705452631997,0.5032245858380359,9.534595942516388
6,0,0.6922872242222837,0.546638733066646,14.56484911556377
6,1,0.6922872242222837,0.6352072316892325,5.707999253305118
6,2,0.6922872242222837,0.6506107606111788,4.167646361110489
6,3,0.6922872242222837,0.6767706542562866,1.5516569965997151
6,4,0.6922872242222837,0.5887807506756925,10.350647354659126
6,5,0.6922872242222837,0.6313502826339987,6.0936941588285
6,6,0.6922872242222837,0.649462774906153,4.282444931613072
6,7,0.6922872242222837,0.4438815926620805,24.840563156020323
6,8,0.6922872242222837,0.5977374922071789,9.454973201510485
7,0,0.800932733195181,0.6166772300027411,18.42555031924399
7,1,0.800932733195181,0.5778875202972793,22.30452128979017
7,2,0.800932733195181,0.702614999983421,9.831773321175996
7,3,0.800932733195181,0.6796732302074426,12.125950298773835
7,4,0.800932733195181,0.7000250442793823,10.09076889157987
7,5,0.800932733195181,0.5948895480075425,20.604318518763854
7,6,0.800932733195181,0.5732608432875915,22.767188990758946
7,7,0.800932733195181,0.577054106161293,22.387862703388794
7,8,0.800932733195181,0.6318566734442048,16.907605975097617
8,0,0.7693696684541003,0.7171862130529589,5.218345540114133
8,1,0.7693696684541003,0.7212539940860975,4.81156743680028
8,2,0.7693696684541003,0.7308216577944794,3.854801065962088
8,3,0.7693696684541003,0.6766020720596315,9.276759639446874
8,4,0.7693696684541003,0.6674904799615062,10.187918849259404
8,5,0.7693696684541003,0.5978079630853678,17.15617053687325
8,6,0.7693696684541003,0.7520413241307187,1.7328344323381595
8,7,0.7693696684541003,0.7124629494033121,5.690671905078815
8,8,0.7693696684541003,0.6621635786196681,10.720608983443213
9,0,0.8215018295530452,0.7738693430040122,4.763248654903296
9,1,0.8215018295530452,0.68251188238949,13.898994716355517
9,2,0.8215018295530452,0.6672247554133193,15.427707413972591
9,3,0.8215018295530452,0.7518591948927806,6.964263466026455
9,4,0.8215018295530452,0.7057483875029611,11.57534420500841
9,5,0.8215018295530452,0.6201315595447602,20.1370270008285
9,6,0.8215018295530452,0.7965745285816457,2.49273009713995
9,7,0.8215018295530452,0.6683175737094191,15.318425584362604
9,8,0.8215018295530452,0.6841495907429973,13.735223881004789
10,0,0.7091338337786448,0.49606481380738804,21.306901997125678
10,1,0.7091338337786448,0.5820988044516063,12.703502932703847
10,2,0.7091338337786448,0.646879162512342,6.22546712663028
10,3,0.7091338337786448,0.5682290665554021,14.090476722324274
10,4,0.7091338337786448,0.5575218973040155,15.161193647462934
10,5,0.7091338337786448,0.47731096995730354,23.182286382134127
10,6,0.7091338337786448,0.6332077572688006,7.592607650984418
10,7,0.7091338337786448,0.47564826995578297,23.348556382286183
10,8,0.7091338337786448,0.5239344795018613,18.519935427678348
11,0,0.8679446060012862,0.8006385723865701,6.73060336147161
11,1,0.8679446060012862,0.7813715296856671,8.657307631561906
11,2,0.8679446060012862,0.7581897046478139,10.975490135347233
11,3,0.8679446060012862,0.805417153018274,6.252745298301221
11,4,0.8679446060012862,0.7443605006534069,12.358410534787934
11,5,0.8679446060012862,0.6885667996599547,17.937780634133148
11,6,0.8679446060012862,0.847814311505099,2.0130294496187195
11,7,0.8679446060012862,0.7670609815877899,10.08836244134963
11,8,0.8679446060012862,0.8028911051090415,6.505350089224471
12,0,0.8473283869505196,0.8301155225161119,1.7212864434407726
12,1,0.8473283869505196,0.6926389943791449,15.468939257137471
12,2,0.8473283869505196,0.7387387623033403,10.858962464717925
12,3,0.8473283869505196,0.7550613590633714,9.226702788714825
12,4,0.8473283869505196,0.5945229585560804,25.28054283944392
12,5,0.8473283869505196,0.7016158979171178,14.571248903340184
12,6,0.8473283869505196,0.8462195815983978,0.11088053521217667
12,7,0.8473283869505196,0.7260819130946896,12.124647385582998
12,8,0.8473283869505196,0.7056676265872714,14.166076036324815
13,0,0.8790228572672082,0.8278288201688506,5.1194037098357565
13,1,0.8790228572672082,0.8054617079343687,7.356114933283953
13,2,0.8790228572672082,0.7882039944133624,9.081886285384577
13,3,0.8790228572672082,0.8483576275200371,3.066522974717112
13,4,0.8790228572672082,0.7688722994229504,11.015055784425776
13,5,0.8790228572672082,0.6549389943012065,22.40838629660017
13,6,0.8790228572672082,0.800065825057874,7.895703220933415
13,7,0.8790228572672082,0.7856472776588862,9.3375579608322
13,8,0.8790228572672082,0.8696367443672183,0.9386112899989918
14,0,0.8220074286345838,0.7284417293900161,9.356569924456771
14,1,0.8220074286345838,0.7400364816473238,8.197094698725993
14,2,0.8220074286345838,0.662603519021822,15.940390961276174
14,3,0.8220074286345838,0.752030889896006,6.997653873857779
14,4,0.8220074286345838,0.7222796680905386,9.97277605440452
14,5,0.8220074286345838,0.6051487117170297,21.68587169175541
14,6,0.8220074286345838,0.7913005696302794,3.0706859004304365
14,7,0.8220074286345838,0.7546633846042882,6.73440440302956
14,8,0.8220074286345838,0.6799718013511575,14.203562728342622
15,0,0.8434060331886553,0.7817979032624438,6.160812992621145
15,1,0.8434060331886553,0.7941233197217469,4.928271346690838
15,2,0.8434060331886553,0.732953054947088,11.04529782415673
15,3,0.8434060331886553,0.8273430381653056,1.6062995023349624
15,4,0.8434060331886553,0.746585344324706,9.682068886394923
15,5,0.8434060331886553,0.6123319460948615,23.107408709379374
15,6,0.8434060331886553,0.7901029056583313,5.330312753032396
15,7,0.8434060331886553,0.704080056771087,13.932597641756828
15,8,0.8434060331886553,0.8302985813149175,1.310745187373774
16,0,0.8630782846656656,0.7486089074194113,11.446937724625428
16,1,0.8630782846656656,0.7804715396491853,8.260674501648035
16,2,0.8630782846656656,0.7209272299085565,14.21510547571091
16,3,0.8630782846656656,0.818168262645764,4.491002201990158
16,4,0.8630782846656656,0.7063957010764468,15.668258358921882
16,5,0.8630782846656656,0.5567138433855301,30.63644412801355
16,6,0.8630782846656656,0.8345505419770561,2.852774268860947
16,7,0.8630782846656656,0.7074155554395034,15.56627292261622
16,8,0.8630782846656656,0.7513136175328913,11.176466713277433
17,0,0.8243764253759276,0.6925847293633632,13.179169601256435
17,1,0.8243764253759276,0.7173892597716324,10.698716560429522
17,2,0.8243764253759276,0.741501068319975,8.28753570559526
17,3,0.8243764253759276,0.7731928024582053,5.118362291772227
17,4,0.8243764253759276,0.7475985154736863,7.677790990224132
17,5,0.8243764253759276,0.6387684745192987,18.560795085662885
17,6,0.8243764253759276,0.7748582638471753,4.9518161528752325
17,7,0.8243764253759276,0.7516371700195229,7.273925535640469
17,8,0.8243764253759276,0.788019163129949,3.635726224597857
18,0,0.6818641047469706,0.6646014255635682,1.7262679183402407
18,1,0.6818641047469706,0.6604882528429087,2.137585190406188
18,2,0.6818641047469706,0.6553762300813455,2.6487874665625077
18,3,0.6818641047469706,0.5927333415683124,8.91307631786582
18,4,0.6818641047469706,0.6573625668366332,2.450153791033738
18,5,0.6818641047469706,0.5924522085435834,8.941189620338719
18,6,0.6818641047469706,0.7712148848032733,-8.93507800563027
18,7,0.6818641047469706,0.6287425377184414,5.3121567028529215
18,8,0.6818641047469706,0.642954741540471,3.8909363206499514
19,0,0.807263405448904,0.747248334964218,6.001507048468591
19,1,0.807263405448904,0.7245408313369478,8.272257411195616
19,2,0.807263405448904,0.6911031206578052,11.616028479109875
19,3,0.807263405448904,0.6122199110597095,19.504349438919444
19,4,0.807263405448904,0.6593658031444547,14.789760230444926
19,5,0.807263405448904,0.527365304216769,27.9898101232135
19,6,0.807263405448904,0.8121113386295385,-0.48479331806345893
19,7,0.807263405448904,0.7368378872030106,7.042551824589339
19,8,0.807263405448904,0.7054983808374425,10.176502461146143
20,0,0.7847850327906952,0.7177291087261612,6.705592406453398
20,1,0.7847850327906952,0.6707317325366275,11.405330025406768
20,2,0.7847850327906952,0.7375584094706953,4.722662331999993
20,3,0.7847850327906952,0.7483385439168752,3.644648887382007
20,4,0.7847850327906952,0.721386947667654,6.339808512304124
20,5,0.7847850327906952,0.6701622720431245,11.46227607475707
20,6,0.7847850327906952,0.7357765957552271,4.900843703546808
20,7,0.7847850327906952,0.6623343722435207,12.245066054717457
20,8,0.7847850327906952,0.6609203883429163,12.38646444477789
21,0,0.7774524047140854,0.5072952424962824,27.015716221780295
21,1,0.7774524047140854,0.7680940329699476,0.9358371744137783
21,2,0.7774524047140854,0.5688150840994968,20.86373206145886
21,3,0.7774524047140854,0.6180305573758719,15.942184733821351
21,4,0.7774524047140854,0.7268135410200703,5.063886369401505
21,5,0.7774524047140854,0.5675347119886227,20.991769272546268
21,6,0.7774524047140854,0.7602537575999393,1.7198647114146093
21,7,0.7774524047140854,0.7204013199914839,5.705108472260145
21,8,0.7774524047140854,0.6889643361166088,8.84880685974766
22,0,0.7631073352275597,0.6814902559527893,8.161707927477035
22,1,0.7631073352275597,0.6883426529367573,7.476468229080235
22,2,0.7631073352275597,0.6789967025313077,8.411063269625195
22,3,0.7631073352275597,0.6612027442996421,10.190459092791759
22,4,0.7631073352275597,0.6361254421606153,12.698189306694442
22,5,0.7631073352275597,0.5386210216193978,22.448631360816186
22,6,0.7631073352275597,0.7623653442300906,0.07419909974690775
22,7,0.7631073352275597,0.6470300838929832,11.607725133457647
22,8,0.7631073352275597,0.6319773968271667,13.1129938400393
23,0,0.752819076584386,0.6233082283046698,12.951084827971615
23,1,0.752819076584386,0.7059091679449467,4.690990863943922
23,2,0.752819076584386,0.7182613073558035,3.4557769228582447
23,3,0.752819076584386,0.7553079179072067,-0.24888413228207895
23,4,0.752819076584386,0.6651707875953877,8.764828898899824
23,5,0.752819076584386,0.5642337911741893,18.85852854101967
23,6,0.752819076584386,0.7273754320335247,2.5443644550861233
23,7,0.752819076584386,0.5941543421809682,15.866473440341778
23,8,0.752819076584386,0.6750411743251746,7.777790225921133
24,0,0.7046431671864061,0.5864563209370843,11.818684624932175
24,1,0.7046431671864061,0.6248813567842989,7.976181040210717
24,2,0.7046431671864061,0.6128016873197561,9.184147986664993
24,3,0.7046431671864061,0.7522896166304379,-4.764644944403185
24,4,0.7046431671864061,0.5642868965065009,14.03562706799052
24,5,0.7046431671864061,0.3586836898657551,34.5959477320651
24,6,0.7046431671864061,0.6185107011069326,8.613246607947344
24,7,0.7046431671864061,0.5535190662291029,15.112410095730322
24,8,0.7046431671864061,0.6561108319423371,4.853233524406897
25,0,0.8110978185381987,0.7842563873150811,2.684143122311766
25,1,0.8110978185381987,0.7498592651749452,6.123855336325357
25,2,0.8110978185381987,0.6975297509246268,11.356806761357197
25,3,0.8110978185381987,0.7479075563285491,6.319026220964963
25,4,0.8110978185381987,0.698363049809267,11.273476872893173
25,5,0.8110978185381987,0.6267140970036464,18.43837215345523
25,6,0.8110978185381987,0.778715440527138,3.2382378011060697
25,7,0.8110978185381987,0.7360866408635814,7.501117767461729
25,8,0.8110978185381987,0.7791406959296792,3.1957122608519573
26,0,0.7283788040714018,0.6714721966337125,5.690660743768927
26,1,0.7283788040714018,0.6333803573811756,9.499844669022616
26,2,0.7283788040714018,0.675252753886232,5.31260501851698
26,3,0.7283788040714018,0.7285046637868061,-0.012585971540435281
26,4,0.7283788040714018,0.6231439232443192,10.523488082708255
26,5,0.7283788040714018,0.5076330190273566,22.074578504404517
26,6,0.7283788040714018,0.7041639987277648,2.421480534363696
26,7,0.7283788040714018,0.6839978254045026,4.438097866689916
26,8,0.7283788040714018,0.648487107456855,7.989169661454676
27,0,0.8385604223370715,0.8359391826469068,0.26212396901647006
27,1,0.8385604223370715,0.7646133224408603,7.394709989621118
27,2,0.8385604223370715,0.7316635355924697,10.689688674460186
27,3,0.8385604223370715,0.788459424877595,5.010099745947649
27,4,0.8385604223370715,0.7300537987318018,10.850662360526975
27,5,0.8385604223370715,0.6419369713822268,19.66234509548447
27,6,0.8385604223370715,0.8109789446411103,2.75814776959612
27,7,0.8385604223370715,0.8073450290620626,3.1215393275008885
27,8,0.8385604223370715,0.8178379345185806,2.0722487818490953
28,0,0.7192849002730939,0.7323610845344068,-1.3076184261312962
28,1,0.7192849002730939,0.726642002929251,-0.7357102656157077
28,2,0.7192849002730939,0.6804232133660835,3.8861686907010418
28,3,0.7192849002730939,0.6849359880554718,3.434891221762204
28,4,0.7192849002730939,0.6904694760808232,2.8815424192270678
28,5,0.7192849002730939,0.5596453148892775,15.96395853838164
28,6,0.7192849002730939,0.683674311314644,3.561058895844993
28,7,0.7192849002730939,0.6000474336130975,11.923746665999635
28,8,0.7192849002730939,0.5890681043901577,13.021679588293622
29,0,0.7614117081353038,0.6602188165920924,10.119289154321143
29,1,0.7614117081353038,0.7372757464307924,2.4135961704511377
29,2,0.7614117081353038,0.7452158281134835,1.6195880021820264
29,3,0.7614117081353038,0.7397558631233977,2.1655845011906094
29,4,0.7614117081353038,0.6767897910146511,8.46219171206527
29,5,0.7614117081353038,0.6096647433374774,15.174696479782634
29,6,0.7614117081353038,0.7614949349662712,-0.00832268309673978
29,7,0.7614117081353038,0.7220711780700898,3.9340530065213986
29,8,0.7614117081353038,0.6746803872397892,8.67313208955146
30,0,0.7452636148980709,0.7308784723281865,1.4385142569884435
30,1,0.7452636148980709,0.6676221640831441,7.764145081492679
30,2,0.7452636148980709,0.6948313801345216,5.04322347635493
30,3,0.7452636148980709,0.7037967055042186,4.146690939385234
30,4,0.7452636148980709,0.6902148868495944,5.504872804847649
30,5,0.7452636148980709,0.3223963939806596,42.28672209174113
30,6,0.7452636148980709,0.7531044703705149,-0.7840855472443953
30,7,0.7452636148980709,0.6901210864593295,5.514252843874146
30,8,0.7452636148980709,0.765817129364956,-2.0553514466885137
31,0,0.6948981890150873,0.6299502530471915,6.494793596789572
31,1,0.6948981890150873,0.6394449675871381,5.545322142794918
31,2,0.6948981890150873,0.6324611788410148,6.243701017407243
31,3,0.6948981890150873,0.697473480522443,-0.25752915073556926
31,4,0.6948981890150873,0.6470461567479111,4.785203226717616
31,5,0.6948981890150873,0.6343619980739281,6.0536190941159145
31,6,0.6948981890150873,0.6425620118120863,5.233617720300099
31,7,0.6948981890150873,0.5496583624363246,14.523982657876267
31,8,0.6948981890150873,0.5855740435562227,10.93241454588646
32,0,0.7868692958362843,0.6633465038134299,12.352279202285443
32,1,0.7868692958362843,0.6911234913813962,9.574580445488811
32,2,0.7868692958362843,0.6786190633696448,10.825023246663946
32,3,0.7868692958362843,0.7311892284629657,5.568006737331855
32,4,0.7868692958362843,0.6531011383046244,13.376815753165994
32,5,0.7868692958362843,0.4581686107639784,32.870068507230584
32,6,0.7868692958362843,0.6962727830759421,9.05965127603422
32,7,0.7868692958362843,0.6401846316069655,14.66846642293188
32,8,0.7868692958362843,0.6863808498653088,10.04884459709755
33,0,0.8602815942350902,0.7735568364838519,8.672475775123834
33,1,0.8602815942350902,0.7892255019771452,7.105609225794495
33,2,0.8602815942350902,0.7163423338516303,14.393926038345995
33,3,0.8602815942350902,0.7216138252634987,13.86677689715915
33,4,0.8602815942350902,0.7043847334737483,15.58968607613419
33,5,0.8602815942350902,0.6848898776640957,17.539171657099452
33,6,0.8602815942350902,0.7427846587410212,11.749693549406903
33,7,0.8602815942350902,0.6973831582493462,16.289843598574404
33,8,0.8602815942350902,0.7315276201179806,12.875397411710965
34,0,0.8310365189138639,0.7597143597859366,7.132215912792727
34,1,0.8310365189138639,0.7986072853522421,3.242923356162175
34,2,0.8310365189138639,0.8312761131986617,-0.02395942847978061
34,3,0.8310365189138639,0.8021682441924789,2.886827472138498
34,4,0.8310365189138639,0.7202701718769999,11.076634703686395
34,5,0.8310365189138639,0.3971267014873217,43.39098174265422
34,6,0.8310365189138639,0.8285881633003183,0.24483556135456164
34,7,0.8310365189138639,0.6842110582946714,14.682546061919243
34,8,0.8310365189138639,0.7588775580683994,7.215896084546447
35,0,0.7122641837634507,0.6215083728967687,9.075581086668194
35,1,0.7122641837634507,0.6506081084073488,6.165607535610185
35,2,0.7122641837634507,0.6247988775135148,8.746530624993587
35,3,0.7122641837634507,0.6231173277348897,8.914685602856098
35,4,0.7122641837634507,0.7207488177790539,-0.8484634015603176
35,5,0.7122641837634507,0.7076997561709937,0.456442759245701
35,6,0.7122641837634507,0.7174121594528365,-0.5147975689385853
35,7,0.7122641837634507,0.6800797334892142,3.2184450274236442
35,8,0.7122641837634507,0.6496844636934431,6.257972007000756
36,0,0.6730821013764927,0.6128896260971732,6.019247527931948
36,1,0.6730821013764927,0.6348107505149574,3.8271350861535325
36,2,0.6730821013764927,0.6713875275859769,0.1694573790515852
36,3,0.6730821013764927,0.6396497209451116,3.343238043138108
36,4,0.6730821013764927,0.682546961557957,-0.9464860181464307
36,5,0.6730821013764927,0.69577368438777,-2.269158301127727
36,6,0.6730821013764927,0.664277628240342,0.8804473136150737
36,7,0.6730821013764927,0.5902914987818104,8.27906025946823
36,8,0.6730821013764927,0.6017774111058161,7.130469027067665
37,0,0.8934608079033525,0.7613684632994939,13.209234460385854
37,1,0.8934608079033525,0.7516575862857542,14.180322161759829
37,2,0.8934608079033525,0.8223678585308978,7.109294937245469
37,3,0.8934608079033525,0.8271758336171233,6.628497428622914
37,4,0.8934608079033525,0.8640970300030976,2.9363777900254906
37,5,0.8934608079033525,0.7752979105597675,11.816289734358499
37,6,0.8934608079033525,0.8469500152007857,4.651079270256675
37,7,0.8934608079033525,0.8126150831919763,8.08457247113762
37,8,0.8934608079033525,0.7826516486889241,11.080915921442836
38,0,0.8318715998609775,0.7131076858497751,11.876391401120234
38,1,0.8318715998609775,0.7255676046597074,10.63039952012701
38,2,0.8318715998609775,0.6604521807683582,17.141941909261927
38,3,0.8318715998609775,0.7806328303452947,5.123876951568274
38,4,0.8318715998609775,0.626685241604662,20.51863582563155
38,5,0.8318715998609775,0.6594563279857397,17.241527187523776
38,6,0.8318715998609775,0.8031484390229409,2.872316083803661
38,7,0.8318715998609775,0.7049552140318963,12.691638582908116
38,8,0.8318715998609775,0.7365465686310335,9.532503122994395
39,0,0.745877585752978,0.5626040473669627,18.327353838601535
39,1,0.745877585752978,0.7382403336393643,0.7637252113613768
39,2,0.745877585752978,0.7279255852002635,1.7952000552714509
39,3,0.745877585752978,0.5753607980742235,17.051678767875455
39,4,0.745877585752978,0.6619113052710378,8.396628048194021
39,5,0.745877585752978,0.4076535198251948,33.82240659277832
39,6,0.745877585752978,0.6461313033606002,9.97462823923778
39,7,0.745877585752978,0.622882951377575,12.299463437540304
39,8,0.745877585752978,0.6974428498598654,4.843473589311264
40,0,0.7456696436302156,0.6970370376774087,4.863260595280694
40,1,0.7456696436302156,0.7358000147627661,0.9869628867449465
40,2,0.7456696436302156,0.7049847181629664,4.068492546724922
40,3,0.7456696436302156,0.7386745744231934,0.6995069207022198
40,4,0.7456696436302156,0.6801687094403542,6.550093418986136
40,5,0.7456696436302156,0.718505073844599,2.7164569785616544
40,6,0.7456696436302156,0.7019052659013184,4.376437772889719
40,7,0.7456696436302156,0.5805326858875938,16.51369577426218
40,8,0.7456696436302156,0.6234423953858078,12.222724824440778
