subject,channel,r,f1_drop_mean,f1_drop_sd
1,0,5,0.08691373242500759,0.010088256826838088
1,1,5,0.0645846099659321,0.015039783301760474
1,2,5,0.06835713844685037,0.006156799667412283
1,3,5,0.08024000755036179,0.007792114072847446
1,4,5,-0.01690385431783703,0.01247520037300242
1,5,5,0.04244483645875892,0.014457945918899269
1,6,5,0.037533543413990976,0.010679605771073181
1,7,5,0.08906586250307352,0.012453946476988028
1,8,5,0.12418795112376457,0.012962524282298138
2,0,5,0.08295887600071236,0.013204681702126646
2,1,5,0.10255527161853992,0.012640169604262574
2,2,5,0.17581187421872585,0.020474670220733113
2,3,5,0.11806676419623499,0.009082491665737701
2,4,5,0.1051578496477471,0.017926217544363514
2,5,5,0.09860366791010515,0.019204166174909398
2,6,5,0.07107600015675304,0.010124622904642206
2,7,5,0.21161692145398417,0.01711372678908269
2,8,5,0.14375782993584926,0.008520551109098762
3,0,5,0.12492964138275646,0.012315143318791704
3,1,5,0.1374014589077071,0.014329637990960683
3,2,5,0.18224949620997766,0.018123605221566978
3,3,5,0.1717909672950415,0.008546357691849868
3,4,5,0.15651579829951928,0.011208134637972765
3,5,5,0.11220824745568847,0.004266777124816818
3,6,5,0.021883245567630726,0.007326295689362052
3,7,5,0.138236567374953,0.01102781369262634
3,8,5,0.12182420897997086,0.011749998410625318
4,0,5,0.13485636223162178,0.01714563949416686
4,1,5,0.13464734179516996,0.010300721115290165
4,2,5,0.14515849043321868,0.012149741718237272
4,3,5,0.11026771532434132,0.0122942476092917
4,4,5,0.10967434253878072,0.018082764584260523
4,5,5,0.16335043277698474,0.00837951073765009
4,6,5,0.05922744939686506,0.007938174996139682
4,7,5,0.09706934758456723,0.01027727397835121
4,8,5,0.12245767141955635,0.017665320978019122
5,0,5,0.09016909831313404,0.015256043485546615
5,1,5,0.08837860995190282,0.016097308898694634
5,2,5,0.08783010283844377,0.00645808177346283
5,3,5,0.07201615265059405,0.007156645602757162
5,4,5,0.12268432653423944,0.015845710045719632
5,5,5,0.10160696803387767,0.013982217002843828
5,6,5,0.05917459523930415,0.007535360544661104
5,7,5,0.07234133158369063,0.012381576651951094
5,8,5,0.14526567284481035,0.01286329418346236
6,0,5,0.12074999308033348,0.02082851687823026
6,1,5,0.0859652608688469,0.015139911201604793
6,2,5,0.08614114051607018,0.015531181862321686
6,3,5,0.045573266658403534,0.02194761555312458
6,4,5,0.14463150273156689,0.019222800748656985
6,5,5,0.07855483727585529,0.012105378152701119
6,6,5,0.03472274012806111,0.011991753516589659
6,7,5,0.17942918349848594,0.016401425930791316
6,8,5,0.08526640148406088,0.02255412961257357
7,0,5,0.14416263897550452,0.013555726802884239
7,1,5,0.19107036089133242,0.021775722733624037
7,2,5,0.15588661926763683,0.01481620322142675
7,3,5,0.13566943783461183,0.006703611901307163
7,4,5,0.14580444086289268,0.01772356478177271
7,5,5,0.20595723039206176,0.008456364472618006
7,6,5,0.18179183241682204,0.017270897224793642
7,7,5,0.1959837797904323,0.00882917166574907
7,8,5,0.23585011179759113,0.011702748579712116
8,0,5,0.12035893256017265,0.00766318008532
8,1,5,0.11388586495015404,0.013069447948321374
8,2,5,0.117785139348802,0.006969898566024541
8,3,5,0.12950797542433518,0.011329152841098283
8,4,5,0.14314170750994898,0.01288102619992723
8,5,5,0.1829395359876,0.018825132524694515
8,6,5,0.04152697562536103,0.008575477217778965
8,7,5,0.1805722057765025,0.015422194673576483
8,8,5,0.16682235603118192,0.019309732077566547
9,0,5,0.16348460338343856,0.010675200092225995
9,1,5,0.15565964512264335,0.017314086032205703
9,2,5,0.19901861705432916,0.018757251047588575
9,3,5,0.08268176108450154,0.01795395772743116
9,4,5,0.12967692579642232,0.006573983509346497
9,5,5,0.17775474338414704,0.023508367649233655
9,6,5,0.03411475404508631,0.014637077079724383
9,7,5,0.1941169037632266,0.010382885717825328
9,8,5,0.183319668785127,0.013465549431088958
10,0,5,0.2081009586776749,0.008360898660616116
10,1,5,0.11298818672599764,0.02024708181185359
10,2,5,0.088976603211348,0.02080990475691657
10,3,5,0.16862141243050194,0.009050736340514556
10,4,5,0.11537243045584558,0.013752600729977114
10,5,5,0.11885688310790843,0.008832540563621342
10,6,5,0.06395573698461121,0.011528398243038243
10,7,5,0.19816297544748282,0.011711976107415102
10,8,5,0.20561987507638135,0.01663189310627046
11,0,5,0.10090536352790569,0.011708334452985315
11,1,5,0.15413362586701812,0.02187565984656884
11,2,5,0.13637222249572967,0.014932943962184465
11,3,5,0.11848092592297683,0.008229833534894197
11,4,5,0.1520879545071822,0.014582504340684796
11,5,5,0.14049172931548404,0.00725007091035838
11,6,5,0.04275680856308839,0.014531770437176319
11,7,5,0.20520418875610452,0.020509450078930503
11,8,5,0.17473773401064902,0.009016215671713916
12,0,5,0.09874495774566683,0.010607209441433707
12,1,5,0.19632317394229226,0.007496647176937612
12,2,5,0.15740480547807797,0.014406243961335082
12,3,5,0.17980125745380146,0.010741663645899398
12,4,5,0.18993604225039815,0.01724312886218377
12,5,5,0.12010967378795093,0.007557984623124635
12,6,5,0.05330861449229982,0.016504503573866663
12,7,5,0.18355003529699634,0.008370487164611052
12,8,5,0.17554118480755837,0.015311447764582367
13,0,5,0.1222302491758099,0.011575502585018134
13,1,5,0.14816075106075313,0.01430899165800712
13,2,5,0.12698867152663143,0.006185518726521325
13,3,5,0.05028185120398774,0.011191205852829277
13,4,5,0.1596624107006439,0.012339336559440531
13,5,5,0.2498606393409732,0.007943931252220718
13,6,5,0.08076547446857252,0.004752602408123223
13,7,5,0.12655060966536713,0.007205121880156761
13,8,5,0.14756672674932575,0.01959895932298911
14,0,5,0.1373063697411518,0.0110255726777455
14,1,5,0.11044069113195423,0.01303530711321996
14,2,5,0.15437601726830558,0.01349400504539186
14,3,5,0.11340075771709539,0.015021668217537167
14,4,5,0.15373878551294,0.010955510094956452
14,5,5,0.13524947067911788,0.010978952569172166
14,6,5,0.0552228892655674,0.011035059359298329
14,7,5,0.1526719577575058,0.010659816213014896
14,8,5,0.200602582962322,0.008100860602693834
15,0,5,0.18493129660416957,0.015537529537417384
15,1,5,0.06971575552467135,0.008309655762961476
15,2,5,0.12186537083883557,0.006298681137960983
15,3,5,0.0750572200215051,0.014828742278059102
15,4,5,0.16645391165888135,0.01750662068855334
15,5,5,0.2503924761256161,0.014273128665415441
15,6,5,0.1182231052186683,0.013400724322279184
15,7,5,0.14823506304219153,0.016499639096356437
15,8,5,0.12186687174511704,0.015577372089065348
16,0,5,0.14064009153319615,0.017311676949564016
16,1,5,0.16677344622165197,0.010213400614227508
16,2,5,0.14685491388453292,0.010527277121819523
16,3,5,0.13533594542222485,0.017527410912952963
16,4,5,0.1764612486536912,0.0157482907847985
16,5,5,0.2183415634712635,0.009067896953213809
16,6,5,0.05684313934410055,0.0108102811928634
16,7,5,0.19060473238033868,0.01296539706982133
16,8,5,0.17611325386813126,0.015824767564677156
17,0,5,0.186358355711879,0.01140246876357408
17,1,5,0.18960746121147434,0.013664961364889035
17,2,5,0.22118138124682413,0.012036340926412079
17,3,5,0.12748247977189278,0.009637391968986633
17,4,5,0.12256880878457224,0.020190242548573586
17,5,5,0.16900337368392299,0.00816316460508431
17,6,5,0.08129211766511044,0.013420346226150287
17,7,5,0.08763271096913358,0.010982488485829075
17,8,5,0.12010973382837328,0.009748416016098542
18,0,5,0.0738859512341596,0.011762113963731124
18,1,5,0.10536098133332002,0.0167663810652065
18,2,5,0.151811346970145,0.012040111554600563
18,3,5,0.08478917121283666,0.009773590931187633
18,4,5,0.10145104432572254,0.011702157729505282
18,5,5,0.08994737147208542,0.026344349416457337
18,6,5,-0.017659699502404137,0.00513140281592605
18,7,5,0.08418584446390946,0.006600987550330914
18,8,5,0.09146127841267329,0.012643578001250065
19,0,5,0.10050278119706142,0.005842108049004447
19,1,5,0.11309264216538255,0.018436423470838306
19,2,5,0.16179842698447028,0.010070098119975815
19,3,5,0.1593801508630028,0.01212294392363902
19,4,5,0.10942352213866768,0.010117147567371344
19,5,5,0.17052987349355384,0.01063108603792315
19,6,5,0.0717084615032901,0.009718819097047702
19,7,5,0.18524561078940818,0.008716139797224569
19,8,5,0.15625878083038544,0.01260853613650565
20,0,5,0.12960345905081674,0.020364130621000523
20,1,5,0.14279558704211665,0.010239671918316493
20,2,5,0.0896984423805807,0.014899791965014779
20,3,5,0.08132450067094503,0.008554451771548155
20,4,5,0.12209143833058926,0.00843022189928538
20,5,5,0.1712487974304761,0.008548507963813868
20,6,5,0.05933790900675902,0.011074088236125226
20,7,5,0.14425069413865194,0.013040461459780071
20,8,5,0.18107221569629262,0.01827792729259751
21,0,5,0.21236904444264684,0.011420388520651035
21,1,5,0.09855471327759684,0.01926177000164143
21,2,5,0.19445508049192844,0.011813389462341754
21,3,5,0.10007483119054464,0.010031199322337918
21,4,5,0.09903658724551323,0.016490983310560453
21,5,5,0.19381168773538698,0.006874872145493898
21,6,5,0.053274133661722844,0.003725169977965654
21,7,5,0.10123124083253814,0.012238678784210848
21,8,5,0.1157743620538193,0.004202723356865977
22,0,5,0.08904221197965959,0.01441090664169628
22,1,5,0.11811418000532728,0.013776160407839305
22,2,5,0.1801823802852049,0.019544230446226586
22,3,5,0.13146114375970278,0.015439160757486216
22,4,5,0.11568727937262188,0.006979963629651204
22,5,5,0.1428574620329698,0.014996008599039377
22,6,5,0.045417383986983736,0.002902310013008907
22,7,5,0.16199387747213706,0.015504746269911112
22,8,5,0.16757655270950808,0.010430958927346516
23,0,5,0.1280438282557878,0.007661689577987282
23,1,5,0.1200312852814431,0.021137882512215857
23,2,5,0.11572711836777427,0.011829112583746826
23,3,5,0.052835674557981195,0.012759472393422858
23,4,5,0.09757985144795911,0.012469670601398903
23,5,5,0.16069394391646274,0.010447253968589356
23,6,5,0.0663212045293049,0.013122307894536188
23,7,5,0.1488438508356608,0.017257371714925314
23,8,5,0.14478215679626685,0.010119632791907541
24,0,5,0.1174063591865058,0.007070504416298306
24,1,5,0.09850239610799513,0.015519162991899116
24,2,5,0.1400615713256363,0.012531309090505517
24,3,5,0.0363614076302974,0.013306311366819978
24,4,5,0.1817080225440724,0.020917529118039367
24,5,5,0.15414522890946844,0.0107440165463284
24,6,5,0.06763948652845406,0.005751508124178066
24,7,5,0.15192862911860175,0.010785062105728029
24,8,5,0.11189855189135396,0.011154935449851619
25,0,5,0.09659602503351288,0.006571464253116455
25,1,5,0.09123570976321738,0.007325412566476977
25,2,5,0.181482760808177,0.006410580879562695
25,3,5,0.10441706626353142,0.01848955487039354
25,4,5,0.16038116145089956,0.010688254999522362
25,5,5,0.1397185969283608,0.011937448064896312
25,6,5,0.04014038232063275,0.014007023725392649
25,7,5,0.10478438093245086,0.004223347545636038
25,8,5,0.06084563914411634,0.019642630752434696
26,0,5,0.13278955868773093,0.01228502535565082
26,1,5,0.10170232379476903,0.01397379725730618
26,2,5,0.11671195378391472,0.009518713057899442
26,3,5,0.06628623199969412,0.008521944753191445
26,4,5,0.14426340953407507,0.004658297681090942
26,5,5,0.17530504815161907,0.009585835899795917
26,6,5,0.07462859465824682,0.003783548300109515
26,7,5,0.13788487894851292,0.008765448702347505
26,8,5,0.13173849837461335,0.012102934469384437
27,0,5,0.04911781758078855,0.007177870660696593
27,1,5,0.06588198480180552,0.010512795839177951
27,2,5,0.09653645983017115,0.006581376881474245
27,3,5,0.07749930424946687,0.006576897640056206
27,4,5,0.09924000702961952,0.013105468381707033
27,5,5,0.160130095405258,0.009372671455210948
27,6,5,0.04308947886106451,0.008160212024542417
27,7,5,0.17720040912956625,0.006437174430453017
27,8,5,0.09988316451540942,0.014898784242118431
28,0,5,0.09195420050090027,0.015494129591254789
28,1,5,0.062293748651969814,0.018390598635074026
28,2,5,0.0742798242509635,0.01066988906921448
28,3,5,0.08993906993651923,0.01930063205644785
28,4,5,0.09504357942773378,0.009481597326109668
28,5,5,0.1658328779228678,0.017605012517403117
28,6,5,0.06030303916982136,0.008645159097859775
28,7,5,0.11259819856478134,0.007122653913662432
28,8,5,0.158812627476059,0.007182104562099611
29,0,5,0.136272873001964,0.012861958773763475
29,1,5,0.06705838494735439,0.007884430286561305
29,2,5,0.12237484329150963,0.007457613576584371
29,3,5,0.04756319365015329,0.015318425604651801
29,4,5,0.13124347629130168,0.006178936285606465
29,5,5,0.21536586119777024,0.00756121785785043
29,6,5,0.0436280565354525,0.011431156307158791
29,7,5,0.09607351366199364,0.013644687126364172
29,8,5,0.13901272980280382,0.009726475334590099
30,0,5,0.05617157591154955,0.008890950163244113
30,1,5,0.06792384318465938,0.012479146930153335
30,2,5,0.12320314923643645,0.01123790423223309
30,3,5,0.014977735806592873,0.015290128848030975
30,4,5,0.11696078001402788,0.016275950279274403
30,5,5,0.21165889551964973,0.01355707782593757
30,6,5,0.01737925158371636,0.009431090692355362
30,7,5,0.1032836531714653,0.014040787237058063
30,8,5,0.04329086325779556,0.016186434953042714
31,0,5,0.08480400156541916,0.011156429370160913
31,1,5,0.11443442263061834,0.005607535271115372
31,2,5,0.10655127897011177,0.010068253663559141
31,3,5,0.0668354249673486,0.016888966779322147
31,4,5,0.07711555076140272,0.009149505717918756
31,5,5,0.12467885017777032,0.005877893381944537
31,6,5,0.06942721015220137,0.013044169175961273
31,7,5,0.14534542963503216,0.004900092912401198
31,8,5,0.108168057845764,0.014596197928071554
32,0,5,0.12493570789726952,0.01760642764940425
32,1,5,0.12088694993054461,0.02275666362818681
32,2,5,0.190715218155554,0.020765994722789498
32,3,5,0.05967756713843257,0.011946489480411299
32,4,5,0.19951237543152717,0.010869832045192401
32,5,5,0.26248664405126576,0.015340005595398602
32,6,5,0.08834767757120923,0.014376019797494265
32,7,5,0.16341612197998076,0.011786074902771332
32,8,5,0.15748277905761623,0.010650467222932749
33,0,5,0.1575656761879721,0.01518625449228227
33,1,5,0.12606335456965573,0.013430622070118045
33,2,5,0.19084608681838294,0.022265932444545663
33,3,5,0.08407117070989693,0.0053268583130211475
33,4,5,0.14920141988201896,0.009656598494864308
33,5,5,0.10950430792674566,0.003761627290514259
33,6,5,0.12331356301601559,0.0071789925066928365
33,7,5,0.15595899171745453,0.008564180736490472
33,8,5,0.24425126637141575,0.015770472083348964
34,0,5,0.16173133353557395,0.009194145385478407
34,1,5,0.09109666486220078,0.015226246852370843
34,2,5,0.11645994053861522,0.01528926928986842
34,3,5,0.05702731145446451,0.011341777000226193
34,4,5,0.1588159441029497,0.01543431369875628
34,5,5,0.19788711839145806,0.01599742520137175
34,6,5,0.05133302031154725,0.012066985680372613
34,7,5,0.14831021630885038,0.004589392600826324
34,8,5,0.1851188076256094,0.015040678928074343
35,0,5,0.11005468098595075,0.007968836542779183
35,1,5,0.10185309812020744,0.018448148625961086
35,2,5,0.12496019019739488,0.01504175260002818
35,3,5,0.09840467593591287,0.004604168520069753
35,4,5,0.020889164737040455,0.012168597831979435
35,5,5,0.09840639357590655,0.010620765327522494
35,6,5,0.029429406689711234,0.005073378235690001
35,7,5,0.12903143615526197,0.011728919677933056
35,8,5,0.11087424636951645,0.01683703498540431
36,0,5,0.05674875057134119,0.015136935756238269
36,1,5,0.07925914437413024,0.016001767506545566
36,2,5,0.04670776284177194,0.004032050487379424
36,3,5,0.06143269924713406,0.007768471572025189
36,4,5,0.09631811345968533,0.01137069585270699
36,5,5,0.08929616835322944,0.014706532887014647
36,6,5,0.07342571649877845,0.009415010353910984
36,7,5,0.119820508403396,0.010737383511171062
36,8,5,0.0841573163390972,0.009744812346297501
37,0,5,0.18536980073403736,0.0196885336697588
37,1,5,0.12663915725445232,0.013598569909673853
37,2,5,0.17738264716339042,0.011669232493235072
37,3,5,0.10772697919102583,0.01584375166845603
37,4,5,0.10659454979424983,0.016939712887676116
37,5,5,0.17606115792285926,0.01959755318267483
37,6,5,0.0850288920096545,0.009962256269770355
37,7,5,0.12041907337546667,0.01211259237243847
37,8,5,0.14466254039560997,0.003826596309363635
38,0,5,0.21196621116233638,0.016099792217885895
38,1,5,0.16431324213627824,0.009705856374769803
38,2,5,0.12745023514118198,0.009115973493238746
38,3,5,0.13682691469636385,0.020288806232694936
38,4,5,0.16585061897531994,0.020333709459793223
38,5,5,0.16943016810845984,0.016536408598623098
38,6,5,0.05025978622661444,0.006337745683052522
38,7,5,0.18310555494845587,0.02550413734078314
38,8,5,0.15293529703724135,0.006196690556743007
39,0,5,0.18301215056576917,0.011510564337001487
39,1,5,0.12128446852771668,0.011539262191446523
39,2,5,0.11076183641015513,0.012315333879675948
39,3,5,0.1212444251662054,0.003971963776632732
39,4,5,0.1737929997647349,0.010565465880622361
39,5,5,0.18943612745271451,0.004964543324619565
39,6,5,0.08205984776186162,0.005543193817271551
39,7,5,0.14749761751869955,0.0064457579745595605
39,8,5,0.15894093014599842,0.01144274081196583
40,0,5,0.11026458099493552,0.018774099145580824
40,1,5,0.014725815971562906,0.007267284214709953
40,2,5,0.058379308695073996,0.008588461905440683
40,3,5,0.01902433978905558,0.013202538030944724
40,4,5,0.06796368543756046,0.014358177461621009
40,5,5,0.10547305755232975,0.014029303214717315
40,6,5,0.10431858842919502,0.005762822821773903
40,7,5,0.17697367070866038,0.010820939852807075
40,8,5,0.1898030851356724,0.01287291983858558
