subject,block,block_width,feature_channel,gate_mean,gate_sd
156,0,32,0,0.599524974822998,0.05474972352385521
156,0,32,1,0.39650434255599976,0.0832715779542923
156,0,32,2,0.5255853533744812,0.0853826105594635
156,0,32,3,0.33052557706832886,0.06527079641819
156,0,32,4,0.507692277431488,0.07351049780845642
156,0,32,5,0.6268752217292786,0.03406370058655739
156,0,32,6,0.5636177659034729,0.05733897536993027
156,0,32,7,0.3661436140537262,0.11858142167329788
156,0,32,8,0.46500489115715027,0.11859780550003052
156,0,32,9,0.5370885729789734,0.07496964931488037
156,0,32,10,0.4844227135181427,0.10450167208909988
156,0,32,11,0.4077833294868469,0.04435471072793007
156,0,32,12,0.4811997711658478,0.06616499274969101
156,0,32,13,0.48920321464538574,0.11373879015445709
156,0,32,14,0.3465559780597687,0.08741051703691483
156,0,32,15,0.5215109586715698,0.05847405269742012
156,0,32,16,0.39597848057746887,0.09901858121156693
156,0,32,17,0.46782615780830383,0.05733748525381088
156,0,32,18,0.38270097970962524,0.0809769481420517
156,0,32,19,0.6501850485801697,0.10261256992816925
156,0,32,20,0.6630154848098755,0.05817919969558716
156,0,32,21,0.49675798416137695,0.07617221772670746
156,0,32,22,0.3377247452735901,0.09085748344659805
156,0,32,23,0.40926593542099,0.055014513432979584
156,0,32,24,0.36524203419685364,0.08143053203821182
156,0,32,25,0.4837999641895294,0.05430690199136734
156,0,32,26,0.3635883033275604,0.04222484678030014
156,0,32,27,0.5029057860374451,0.03807119280099869
156,0,32,28,0.44599664211273193,0.11992344260215759
156,0,32,29,0.4495794475078583,0.04413417726755142
156,0,32,30,0.5161927342414856,0.11858054995536804
156,0,32,31,0.6010283827781677,0.04262648522853851
156,1,32,0,0.404313325881958,0.08231750130653381
156,1,32,1,0.5183194875717163,0.09546612948179245
156,1,32,2,0.522976815700531,0.07075009495019913
156,1,32,3,0.4751928150653839,0.0813874751329422
156,1,32,4,0.6260514855384827,0.08561200648546219
156,1,32,5,0.5052546262741089,0.021115383133292198
156,1,32,6,0.4058276116847992,0.07859476655721664
156,1,32,7,0.6252448558807373,0.09053439646959305
156,1,32,8,0.6067157983779907,0.03360309451818466
156,1,32,9,0.42872586846351624,0.03281790018081665
156,1,32,10,0.644392728805542,0.06908082216978073
156,1,32,11,0.4463009536266327,0.0631786361336708
156,1,32,12,0.5674939751625061,0.030253758653998375
156,1,32,13,0.6061397194862366,0.08287805318832397
156,1,32,14,0.41973456740379333,0.04849489778280258
156,1,32,15,0.44037073850631714,0.01995924301445484
156,1,32,16,0.48173078894615173,0.054822131991386414
156,1,32,17,0.47605615854263306,0.025550831109285355
156,1,32,18,0.4741484522819519,0.04343991354107857
156,1,32,19,0.5456749200820923,0.09590757638216019
156,1,32,20,0.47312793135643005,0.062108028680086136
156,1,32,21,0.38738977909088135,0.02104504406452179
156,1,32,22,0.48463505506515503,0.040147002786397934
156,1,32,23,0.5097719430923462,0.042015209794044495
156,1,32,24,0.36264142394065857,0.06536498665809631
156,1,32,25,0.36418259143829346,0.09314635396003723
156,1,32,26,0.63588547706604,0.06611498445272446
156,1,32,27,0.41751629114151,0.05007924884557724
156,1,32,28,0.5696765780448914,0.02657008171081543
156,1,32,29,0.5658464431762695,0.05109390988945961
156,1,32,30,0.4604429006576538,0.035355497151613235
156,1,32,31,0.34127381443977356,0.04635826125741005
156,2,64,0,0.38211268186569214,0.08911992609500885
156,2,64,1,0.44387751817703247,0.17446210980415344
156,2,64,2,0.4457334876060486,0.16287674009799957
156,2,64,3,0.5356132388114929,0.11422571539878845
156,2,64,4,0.6481033563613892,0.11776584386825562
156,2,64,5,0.4285297095775604,0.15281809866428375
156,2,64,6,0.5324899554252625,0.06536541134119034
156,2,64,7,0.6440905928611755,0.07424603402614594
156,2,64,8,0.4760385751724243,0.08656200021505356
156,2,64,9,0.6865197420120239,0.0781068205833435
156,2,64,10,0.4894684851169586,0.10836296528577805
156,2,64,11,0.4390028417110443,0.06564527004957199
156,2,64,12,0.32564759254455566,0.16560547053813934
156,2,64,13,0.4415343403816223,0.08710357546806335
156,2,64,14,0.5986619591712952,0.13013403117656708
156,2,64,15,0.3301593065261841,0.08459845930337906
156,2,64,16,0.4826900362968445,0.09096240997314453
156,2,64,17,0.5213632583618164,0.13498564064502716
156,2,64,18,0.5657379031181335,0.15632550418376923
156,2,64,19,0.7179676294326782,0.111935093998909
156,2,64,20,0.531722903251648,0.07550587505102158
156,2,64,21,0.5773535966873169,0.22287587821483612
156,2,64,22,0.7143205404281616,0.16264431178569794
156,2,64,23,0.4829586446285248,0.1803051233291626
156,2,64,24,0.5059138536453247,0.12992006540298462
156,2,64,25,0.4979442059993744,0.15907561779022217
156,2,64,26,0.483445942401886,0.14340607821941376
156,2,64,27,0.4407966434955597,0.14920398592948914
156,2,64,28,0.5125364661216736,0.10541994869709015
156,2,64,29,0.47582975029945374,0.1583496332168579
156,2,64,30,0.4011235237121582,0.08629627525806427
156,2,64,31,0.6750645637512207,0.13992296159267426
156,2,64,32,0.5967038869857788,0.23766984045505524
156,2,64,33,0.5896605849266052,0.07314842939376831
156,2,64,34,0.5365865230560303,0.22044511139392853
156,2,64,35,0.3784875273704529,0.19211345911026
156,2,64,36,0.522419810295105,0.20347954332828522
156,2,64,37,0.4254887104034424,0.11298970878124237
156,2,64,38,0.5199088454246521,0.06745549291372299
156,2,64,39,0.49734190106391907,0.173821821808815
156,2,64,40,0.420632541179657,0.20301510393619537
156,2,64,41,0.41671594977378845,0.17875146865844727
156,2,64,42,0.4138185679912567,0.18523341417312622
156,2,64,43,0.6148666143417358,0.1301780641078949
156,2,64,44,0.3268235921859741,0.09910348802804947
156,2,64,45,0.4816339612007141,0.10153035819530487
156,2,64,46,0.44615641236305237,0.17245113849639893
156,2,64,47,0.37092819809913635,0.12722590565681458
156,2,64,48,0.4297657012939453,0.1517481505870819
156,2,64,49,0.5115004777908325,0.08428975939750671
156,2,64,50,0.44636794924736023,0.14715252816677094
156,2,64,51,0.6071742177009583,0.08295873552560806
156,2,64,52,0.5354720950126648,0.1108931452035904
156,2,64,53,0.5276507139205933,0.13483978807926178
156,2,64,54,0.5616748929023743,0.13144303858280182
156,2,64,55,0.6296412348747253,0.08410978317260742
156,2,64,56,0.5130512118339539,0.11877166479825974
156,2,64,57,0.4779283106327057,0.07208728790283203
156,2,64,58,0.6418728232383728,0.10112418979406357
156,2,64,59,0.47186610102653503,0.13896450400352478
156,2,64,60,0.5450891256332397,0.20025508105754852
156,2,64,61,0.464944452047348,0.22970949113368988
156,2,64,62,0.4160075783729553,0.2264918088912964
156,2,64,63,0.4323032796382904,0.16069142520427704
156,3,64,0,0.449131041765213,0.09737499803304672
156,3,64,1,0.5288338661193848,0.09339997172355652
156,3,64,2,0.45230066776275635,0.0702344998717308
156,3,64,3,0.40329715609550476,0.07322755455970764
156,3,64,4,0.6285780668258667,0.05924803391098976
156,3,64,5,0.5446168184280396,0.07477861642837524
156,3,64,6,0.41727057099342346,0.04958599805831909
156,3,64,7,0.5617297887802124,0.08776690065860748
156,3,64,8,0.5036234259605408,0.037367772310972214
156,3,64,9,0.49777689576148987,0.09865415841341019
156,3,64,10,0.4788982570171356,0.11742407828569412
156,3,64,11,0.46832630038261414,0.12366846948862076
156,3,64,12,0.5444985032081604,0.10212837904691696
156,3,64,13,0.47040635347366333,0.05283669754862785
156,3,64,14,0.5726132988929749,0.08734472841024399
156,3,64,15,0.4575088918209076,0.12244150042533875
156,3,64,16,0.6208174228668213,0.129166841506958
156,3,64,17,0.4770265519618988,0.030141858384013176
156,3,64,18,0.6199732422828674,0.14479126036167145
156,3,64,19,0.4691309630870819,0.09107731282711029
156,3,64,20,0.5092374682426453,0.10238087922334671
156,3,64,21,0.528900682926178,0.11072204262018204
156,3,64,22,0.38554105162620544,0.155964657664299
156,3,64,23,0.5936875343322754,0.0530335009098053
156,3,64,24,0.5158613920211792,0.0901593342423439
156,3,64,25,0.5723942518234253,0.08916262537240982
156,3,64,26,0.49678122997283936,0.09731010347604752
156,3,64,27,0.4668829143047333,0.12711119651794434
156,3,64,28,0.40438491106033325,0.10810751467943192
156,3,64,29,0.3856937289237976,0.10720596462488174
156,3,64,30,0.5684307217597961,0.12825734913349152
156,3,64,31,0.5985347032546997,0.0916019082069397
156,3,64,32,0.548884928226471,0.11411884427070618
156,3,64,33,0.4450876712799072,0.11187981069087982
156,3,64,34,0.4382154941558838,0.0675927996635437
156,3,64,35,0.5745272040367126,0.03715454787015915
156,3,64,36,0.4328692555427551,0.06110461428761482
156,3,64,37,0.5875554084777832,0.06926991790533066
156,3,64,38,0.5433315634727478,0.07952267676591873
156,3,64,39,0.455212265253067,0.06317645311355591
156,3,64,40,0.6511305570602417,0.10817862302064896
156,3,64,41,0.41521942615509033,0.13788791000843048
156,3,64,42,0.6308802962303162,0.06954248994588852
156,3,64,43,0.41441503167152405,0.0735846683382988
156,3,64,44,0.5424797534942627,0.12576624751091003
156,3,64,45,0.47917893528938293,0.1273377388715744
156,3,64,46,0.5213972926139832,0.0693213939666748
156,3,64,47,0.4838000535964966,0.1006261557340622
156,3,64,48,0.5576509237289429,0.09198843687772751
156,3,64,49,0.564544141292572,0.1444694846868515
156,3,64,50,0.5201417803764343,0.07558392733335495
156,3,64,51,0.4581676423549652,0.0619388148188591
156,3,64,52,0.4947088360786438,0.07972098141908646
156,3,64,53,0.3178732097148895,0.09054956585168839
156,3,64,54,0.42490053176879883,0.10608513653278351
156,3,64,55,0.3998648524284363,0.07877232134342194
156,3,64,56,0.6005564332008362,0.10430588573217392
156,3,64,57,0.3634864389896393,0.1116407960653305
156,3,64,58,0.5705165266990662,0.07633285224437714
156,3,64,59,0.4286080002784729,0.12516029179096222
156,3,64,60,0.3595719635486603,0.10140634328126907
156,3,64,61,0.5604891777038574,0.09287244081497192
156,3,64,62,0.5678839087486267,0.0994156077504158
156,3,64,63,0.5119285583496094,0.08006849884986877
156,4,128,0,0.5853098630905151,0.1324739307165146
156,4,128,1,0.5979354381561279,0.1845242828130722
156,4,128,2,0.38061872124671936,0.1931358128786087
156,4,128,3,0.42437776923179626,0.14723727107048035
156,4,128,4,0.7058115601539612,0.10421532392501831
156,4,128,5,0.6414223313331604,0.14996276795864105
156,4,128,6,0.48025384545326233,0.12495355308055878
156,4,128,7,0.6294384598731995,0.12271054089069366
156,4,128,8,0.6858971118927002,0.13139821588993073
156,4,128,9,0.4297592043876648,0.144908145070076
156,4,128,10,0.5724127888679504,0.25692787766456604
156,4,128,11,0.42775776982307434,0.07851721346378326
156,4,128,12,0.6208083033561707,0.16575811803340912
156,4,128,13,0.511073648929596,0.12132860720157623
156,4,128,14,0.6233313679695129,0.11571749299764633
156,4,128,15,0.6105875372886658,0.1666351705789566
156,4,128,16,0.32886338233947754,0.13792628049850464
156,4,128,17,0.4456399381160736,0.17491143941879272
156,4,128,18,0.6158510446548462,0.20591746270656586
156,4,128,19,0.4581746459007263,0.08559179306030273
156,4,128,20,0.42545226216316223,0.275668203830719
156,4,128,21,0.46401122212409973,0.14747188985347748
156,4,128,22,0.5777953267097473,0.1763843297958374
156,4,128,23,0.5695683360099792,0.13870860636234283
156,4,128,24,0.5945151448249817,0.098349928855896
156,4,128,25,0.4714316427707672,0.15800762176513672
156,4,128,26,0.5095956325531006,0.13865600526332855
156,4,128,27,0.6963999271392822,0.13725416362285614
156,4,128,28,0.6140412092208862,0.08964141458272934
156,4,128,29,0.5872905254364014,0.22873573005199432
156,4,128,30,0.5107241868972778,0.15691055357456207
156,4,128,31,0.48108571767807007,0.21038739383220673
156,4,128,32,0.5811867117881775,0.12719471752643585
156,4,128,33,0.6603255271911621,0.20604823529720306
156,4,128,34,0.5707861185073853,0.155088409781456
156,4,128,35,0.5370116829872131,0.2056909203529358
156,4,128,36,0.5131880044937134,0.07823336869478226
156,4,128,37,0.4388664960861206,0.12342588603496552
156,4,128,38,0.42126020789146423,0.15013323724269867
156,4,128,39,0.5503770112991333,0.1432887762784958
156,4,128,40,0.5886753797531128,0.27711328864097595
156,4,128,41,0.36749783158302307,0.17215684056282043
156,4,128,42,0.3029117286205292,0.09024040400981903
156,4,128,43,0.7550981640815735,0.10662241280078888
156,4,128,44,0.6321653127670288,0.10248978435993195
156,4,128,45,0.6823049187660217,0.20925761759281158
156,4,128,46,0.5339418649673462,0.04802003502845764
156,4,128,47,0.5945648550987244,0.07439552247524261
156,4,128,48,0.5417103171348572,0.18045009672641754
156,4,128,49,0.36077880859375,0.19050036370754242
156,4,128,50,0.5820482969284058,0.2479838877916336
156,4,128,51,0.5188753008842468,0.14545388519763947
156,4,128,52,0.45309770107269287,0.1109863892197609
156,4,128,53,0.4195142388343811,0.04811136797070503
156,4,128,54,0.360044926404953,0.16102264821529388
156,4,128,55,0.5784012675285339,0.17948029935359955
156,4,128,56,0.5808427333831787,0.14126621186733246
156,4,128,57,0.3161476254463196,0.07236805558204651
156,4,128,58,0.5535096526145935,0.14013303816318512
156,4,128,59,0.44387051463127136,0.11356671154499054
156,4,128,60,0.6223421096801758,0.2571457326412201
156,4,128,61,0.7025905251502991,0.15662652254104614
156,4,128,62,0.6886322498321533,0.244509756565094
156,4,128,63,0.36525464057922363,0.0619901642203331
156,4,128,64,0.6833217740058899,0.17990657687187195
156,4,128,65,0.5445063710212708,0.1276237666606903
156,4,128,66,0.5225585103034973,0.08776123076677322
156,4,128,67,0.6546962857246399,0.11762178689241409
156,4,128,68,0.6378484964370728,0.1351596564054489
156,4,128,69,0.42031750082969666,0.14380097389221191
156,4,128,70,0.5398536920547485,0.14346040785312653
156,4,128,71,0.5332410931587219,0.05988185852766037
156,4,128,72,0.6721277832984924,0.18605263531208038
156,4,128,73,0.463588684797287,0.19106800854206085
156,4,128,74,0.469687819480896,0.11884628981351852
156,4,128,75,0.3377331495285034,0.098107248544693
156,4,128,76,0.4745435118675232,0.1503569781780243
156,4,128,77,0.4809422492980957,0.06379171460866928
156,4,128,78,0.6823248863220215,0.18194784224033356
156,4,128,79,0.668987512588501,0.14108212292194366
156,4,128,80,0.47609782218933105,0.0680714026093483
156,4,128,81,0.627074658870697,0.2248775213956833
156,4,128,82,0.5860852599143982,0.23782706260681152
156,4,128,83,0.5548709630966187,0.212217777967453
156,4,128,84,0.47168704867362976,0.05632159486413002
156,4,128,85,0.47676143050193787,0.1286313533782959
156,4,128,86,0.611120343208313,0.0905853807926178
156,4,128,87,0.5671035647392273,0.14076633751392365
156,4,128,88,0.5418830513954163,0.23531334102153778
156,4,128,89,0.5266892910003662,0.14388205111026764
156,4,128,90,0.4423268437385559,0.1025451198220253
156,4,128,91,0.3815947473049164,0.12642726302146912
156,4,128,92,0.6011776924133301,0.07683052867650986
156,4,128,93,0.4806962311267853,0.14273227751255035
156,4,128,94,0.4504229724407196,0.06276226788759232
156,4,128,95,0.6120356321334839,0.058419086039066315
156,4,128,96,0.5286482572555542,0.04564209282398224
156,4,128,97,0.5637547969818115,0.12274283915758133
156,4,128,98,0.46017688512802124,0.1243399828672409
156,4,128,99,0.4850583076477051,0.09190623462200165
156,4,128,100,0.561347484588623,0.06035749614238739
156,4,128,101,0.4009978473186493,0.14642935991287231
156,4,128,102,0.5763329863548279,0.060329336673021317
156,4,128,103,0.4772556722164154,0.10295002907514572
156,4,128,104,0.7431811094284058,0.19374723732471466
156,4,128,105,0.6238146424293518,0.10914702713489532
156,4,128,106,0.399593710899353,0.23147177696228027
156,4,128,107,0.6087413430213928,0.14453884959220886
156,4,128,108,0.5481404066085815,0.2571825087070465
156,4,128,109,0.6301311254501343,0.18561603128910065
156,4,128,110,0.4542270004749298,0.20394600927829742
156,4,128,111,0.6504505276679993,0.09208699315786362
156,4,128,112,0.5600366592407227,0.19205933809280396
156,4,128,113,0.40979328751564026,0.10305538773536682
156,4,128,114,0.4835986793041229,0.23882828652858734
156,4,128,115,0.6456653475761414,0.12465541809797287
156,4,128,116,0.6647964715957642,0.2223270684480667
156,4,128,117,0.32606127858161926,0.09853114187717438
156,4,128,118,0.4378012716770172,0.09986798465251923
156,4,128,119,0.570647120475769,0.12847581505775452
156,4,128,120,0.4711996912956238,0.1585436910390854
156,4,128,121,0.6126288771629333,0.14286698400974274
156,4,128,122,0.4373922049999237,0.15530169010162354
156,4,128,123,0.7050240635871887,0.130503311753273
156,4,128,124,0.4897913932800293,0.20507456362247467
156,4,128,125,0.5995596647262573,0.18449625372886658
156,4,128,126,0.5037698745727539,0.11815052479505539
156,4,128,127,0.5655087828636169,0.06318305432796478
156,5,128,0,0.6160450577735901,0.13512034714221954
156,5,128,1,0.5365111827850342,0.09008723497390747
156,5,128,2,0.6907601356506348,0.09423752129077911
156,5,128,3,0.5059323906898499,0.057068802416324615
156,5,128,4,0.6787463426589966,0.1528845578432083
156,5,128,5,0.6194011569023132,0.177679181098938
156,5,128,6,0.5119048357009888,0.05965779349207878
156,5,128,7,0.43939080834388733,0.1425108164548874
156,5,128,8,0.597251296043396,0.1641390323638916
156,5,128,9,0.5378965139389038,0.16088542342185974
156,5,128,10,0.31857746839523315,0.12341500073671341
156,5,128,11,0.47079432010650635,0.06633491814136505
156,5,128,12,0.45329126715660095,0.04575918987393379
156,5,128,13,0.6264979243278503,0.1543784737586975
156,5,128,14,0.6241101622581482,0.13046692311763763
156,5,128,15,0.5151335000991821,0.1938369870185852
156,5,128,16,0.5998773574829102,0.1453012228012085
156,5,128,17,0.5318554043769836,0.159834086894989
156,5,128,18,0.5498607754707336,0.17238807678222656
156,5,128,19,0.5390593409538269,0.09057542681694031
156,5,128,20,0.5961948037147522,0.11417292803525925
156,5,128,21,0.4039744734764099,0.15913265943527222
156,5,128,22,0.38783788681030273,0.14822089672088623
156,5,128,23,0.6118580102920532,0.17239664494991302
156,5,128,24,0.5754173994064331,0.16476570069789886
156,5,128,25,0.4874759614467621,0.18832169473171234
156,5,128,26,0.49022388458251953,0.09760742634534836
156,5,128,27,0.5737643241882324,0.10321985185146332
156,5,128,28,0.4266431927680969,0.08211738616228104
156,5,128,29,0.5427212715148926,0.14567139744758606
156,5,128,30,0.611308217048645,0.10861192643642426
156,5,128,31,0.62373948097229,0.22626055777072906
156,5,128,32,0.5221688151359558,0.10303353518247604
156,5,128,33,0.42801421880722046,0.16657871007919312
156,5,128,34,0.34541046619415283,0.10560648888349533
156,5,128,35,0.6397894620895386,0.10000410676002502
156,5,128,36,0.642913818359375,0.22181756794452667
156,5,128,37,0.2936321198940277,0.13268065452575684
156,5,128,38,0.5436340570449829,0.057951606810092926
156,5,128,39,0.5326914191246033,0.059066031128168106
156,5,128,40,0.5465114712715149,0.17079144716262817
156,5,128,41,0.5728542804718018,0.11497864127159119
156,5,128,42,0.5944344997406006,0.15980516374111176
156,5,128,43,0.5244633555412292,0.06270594149827957
156,5,128,44,0.4838463068008423,0.07718231528997421
156,5,128,45,0.5348176956176758,0.25036364793777466
156,5,128,46,0.44000643491744995,0.1699802726507187
156,5,128,47,0.6005823612213135,0.11268357187509537
156,5,128,48,0.6644838452339172,0.15002986788749695
156,5,128,49,0.5192720293998718,0.12704573571681976
156,5,128,50,0.6671209335327148,0.184287890791893
156,5,128,51,0.6884328722953796,0.1441890299320221
156,5,128,52,0.5280117392539978,0.2879805266857147
156,5,128,53,0.4681602418422699,0.049254290759563446
156,5,128,54,0.5663810968399048,0.19882351160049438
156,5,128,55,0.4353022575378418,0.24813982844352722
156,5,128,56,0.4896492660045624,0.0826929435133934
156,5,128,57,0.5415522456169128,0.17651675641536713
156,5,128,58,0.505290687084198,0.03775438666343689
156,5,128,59,0.5511875748634338,0.16370214521884918
156,5,128,60,0.5015159845352173,0.23947466909885406
156,5,128,61,0.5173552632331848,0.1444825828075409
156,5,128,62,0.6272174715995789,0.19112461805343628
156,5,128,63,0.5876563191413879,0.11943307518959045
156,5,128,64,0.5455742478370667,0.06962798535823822
156,5,128,65,0.5802168846130371,0.21140490472316742
156,5,128,66,0.6004475951194763,0.18813663721084595
156,5,128,67,0.5024079084396362,0.08643050491809845
156,5,128,68,0.5811769366264343,0.1742071509361267
156,5,128,69,0.5351223349571228,0.08453233540058136
156,5,128,70,0.6791292428970337,0.13731509447097778
156,5,128,71,0.4812201261520386,0.14765030145645142
156,5,128,72,0.47797560691833496,0.09384259581565857
156,5,128,73,0.5523903965950012,0.28530800342559814
156,5,128,74,0.34109410643577576,0.14298023283481598
156,5,128,75,0.4419599771499634,0.04939194396138191
156,5,128,76,0.5440435409545898,0.1554424911737442
156,5,128,77,0.5290605425834656,0.08945872634649277
156,5,128,78,0.47606122493743896,0.25836679339408875
156,5,128,79,0.6514590382575989,0.11957552284002304
156,5,128,80,0.3232339024543762,0.14391551911830902
156,5,128,81,0.5133790969848633,0.10784951597452164
156,5,128,82,0.6058734059333801,0.2397235482931137
156,5,128,83,0.5979685187339783,0.1261063516139984
156,5,128,84,0.4901820123195648,0.13887912034988403
156,5,128,85,0.41443324089050293,0.12960396707057953
156,5,128,86,0.500357985496521,0.05498547479510307
156,5,128,87,0.5598902702331543,0.1774788349866867
156,5,128,88,0.5623903870582581,0.19165430963039398
156,5,128,89,0.5946013927459717,0.2197229266166687
156,5,128,90,0.565954327583313,0.12686240673065186
156,5,128,91,0.4679532051086426,0.23863521218299866
156,5,128,92,0.35253387689590454,0.09207017719745636
156,5,128,93,0.6654790043830872,0.1244870275259018
156,5,128,94,0.6050516963005066,0.17107559740543365
156,5,128,95,0.6171431541442871,0.08273427933454514
156,5,128,96,0.6652754545211792,0.08503762632608414
156,5,128,97,0.47029632329940796,0.08284954726696014
156,5,128,98,0.4622638523578644,0.1750846654176712
156,5,128,99,0.5407469868659973,0.11557143926620483
156,5,128,100,0.5761681199073792,0.17547674477100372
156,5,128,101,0.5580279231071472,0.16161391139030457
156,5,128,102,0.5207597017288208,0.24798429012298584
156,5,128,103,0.6219664812088013,0.1377764791250229
156,5,128,104,0.6786693930625916,0.19847328960895538
156,5,128,105,0.6182390451431274,0.12633675336837769
156,5,128,106,0.49903762340545654,0.08708934485912323
156,5,128,107,0.5589632987976074,0.2053074985742569
156,5,128,108,0.42120903730392456,0.07925600558519363
156,5,128,109,0.3489159643650055,0.10173656791448593
156,5,128,110,0.46679750084877014,0.09609426558017731
156,5,128,111,0.7539910674095154,0.12996098399162292
156,5,128,112,0.6973445415496826,0.11587008833885193
156,5,128,113,0.40968838334083557,0.11973808705806732
156,5,128,114,0.5110103487968445,0.31307923793792725
156,5,128,115,0.6510118842124939,0.07946766167879105
156,5,128,116,0.6994665861129761,0.17147833108901978
156,5,128,117,0.38407665491104126,0.12941236793994904
156,5,128,118,0.6211990118026733,0.14629292488098145
156,5,128,119,0.5922625660896301,0.13290630280971527
156,5,128,120,0.659654438495636,0.08931726962327957
156,5,128,121,0.6645656824111938,0.14101941883563995
156,5,128,122,0.5058264136314392,0.09613648802042007
156,5,128,123,0.40636658668518066,0.08806899189949036
156,5,128,124,0.5578751564025879,0.1434662789106369
156,5,128,125,0.6178728342056274,0.150673046708107
156,5,128,126,0.4548504650592804,0.13017703592777252
156,5,128,127,0.5820630192756653,0.09472113102674484
185,0,32,0,0.42452362179756165,0.08468444645404816
185,0,32,1,0.48192763328552246,0.09988725930452347
185,0,32,2,0.4673668444156647,0.11182497441768646
185,0,32,3,0.5024030804634094,0.07109827548265457
185,0,32,4,0.28696706891059875,0.0841352567076683
185,0,32,5,0.41028380393981934,0.13439682126045227
185,0,32,6,0.5205811858177185,0.06719748675823212
185,0,32,7,0.4664340913295746,0.08934596925973892
185,0,32,8,0.5572021007537842,0.07605422288179398
185,0,32,9,0.4858796298503876,0.04021868854761124
185,0,32,10,0.40421485900878906,0.14322598278522491
185,0,32,11,0.45023268461227417,0.11476457864046097
185,0,32,12,0.4329584538936615,0.046379540115594864
185,0,32,13,0.5219178795814514,0.08148735761642456
185,0,32,14,0.3589821457862854,0.08911292254924774
185,0,32,15,0.5335183143615723,0.13128602504730225
185,0,32,16,0.5267459750175476,0.06790468841791153
185,0,32,17,0.401578426361084,0.06592591106891632
185,0,32,18,0.47122684121131897,0.11188732087612152
185,0,32,19,0.423740029335022,0.0733543187379837
185,0,32,20,0.4545891582965851,0.04418358951807022
185,0,32,21,0.3994559049606323,0.1088872179389
185,0,32,22,0.6241391897201538,0.07184865325689316
185,0,32,23,0.5295778512954712,0.10573804378509521
185,0,32,24,0.6559064984321594,0.07352909445762634
185,0,32,25,0.6065845489501953,0.08776841312646866
185,0,32,26,0.4786239266395569,0.0711476281285286
185,0,32,27,0.5585625767707825,0.08018580824136734
185,0,32,28,0.49259400367736816,0.04110095649957657
185,0,32,29,0.5113755464553833,0.07296942919492722
185,0,32,30,0.5362358093261719,0.0781845897436142
185,0,32,31,0.4263232350349426,0.04361284524202347
185,1,32,0,0.34504780173301697,0.08352270722389221
185,1,32,1,0.47890299558639526,0.06847871094942093
185,1,32,2,0.5408722162246704,0.07049538195133209
185,1,32,3,0.4284173250198364,0.04263729229569435
185,1,32,4,0.41999730467796326,0.084861621260643
185,1,32,5,0.5191932916641235,0.07778967171907425
185,1,32,6,0.44892218708992004,0.06607390195131302
185,1,32,7,0.49746689200401306,0.049396686255931854
185,1,32,8,0.5474802255630493,0.04029237851500511
185,1,32,9,0.47512876987457275,0.040000349283218384
185,1,32,10,0.5333123207092285,0.05970786511898041
185,1,32,11,0.4651971459388733,0.04620251804590225
185,1,32,12,0.3882656395435333,0.07876352965831757
185,1,32,13,0.5677740573883057,0.021932220086455345
185,1,32,14,0.4983600378036499,0.09073475748300552
185,1,32,15,0.5434485077857971,0.08928558975458145
185,1,32,16,0.39904502034187317,0.058429595082998276
185,1,32,17,0.5838193297386169,0.055346500128507614
185,1,32,18,0.5675230026245117,0.058615297079086304
185,1,32,19,0.5548542737960815,0.06576605141162872
185,1,32,20,0.4037475883960724,0.08664010465145111
185,1,32,21,0.4081901013851166,0.06318338215351105
185,1,32,22,0.4812190532684326,0.06669879704713821
185,1,32,23,0.4385315477848053,0.052105337381362915
185,1,32,24,0.5049668550491333,0.06538993865251541
185,1,32,25,0.4373472332954407,0.056095197796821594
185,1,32,26,0.4243468642234802,0.08564355224370956
185,1,32,27,0.48910969495773315,0.05584545060992241
185,1,32,28,0.5946987271308899,0.056470178067684174
185,1,32,29,0.645436704158783,0.07357366383075714
185,1,32,30,0.5865050554275513,0.057391148060560226
185,1,32,31,0.4996725022792816,0.05965054780244827
185,2,64,0,0.4261127710342407,0.20202307403087616
185,2,64,1,0.496960312128067,0.30342715978622437
185,2,64,2,0.6591060757637024,0.11240356415510178
185,2,64,3,0.3808906376361847,0.215387761592865
185,2,64,4,0.29960694909095764,0.09125140309333801
185,2,64,5,0.5512630939483643,0.22319087386131287
185,2,64,6,0.577674150466919,0.25161483883857727
185,2,64,7,0.4132198691368103,0.16951431334018707
185,2,64,8,0.5448619723320007,0.1015147715806961
185,2,64,9,0.5898725390434265,0.14938832819461823
185,2,64,10,0.5267542600631714,0.24670004844665527
185,2,64,11,0.4693703353404999,0.18825674057006836
185,2,64,12,0.40739303827285767,0.24335335195064545
185,2,64,13,0.5893295407295227,0.168490931391716
185,2,64,14,0.48056408762931824,0.06187144294381142
185,2,64,15,0.48436182737350464,0.21702498197555542
185,2,64,16,0.480719655752182,0.2830621898174286
185,2,64,17,0.4947512745857239,0.2528800368309021
185,2,64,18,0.5122231841087341,0.25460168719291687
185,2,64,19,0.3622394800186157,0.11108959466218948
185,2,64,20,0.4655141234397888,0.2610147297382355
185,2,64,21,0.38077521324157715,0.16844943165779114
185,2,64,22,0.3934749960899353,0.1696861833333969
185,2,64,23,0.43282610177993774,0.17868514358997345
185,2,64,24,0.3650149703025818,0.13639460504055023
185,2,64,25,0.6875443458557129,0.08956385403871536
185,2,64,26,0.2974170744419098,0.10716914385557175
185,2,64,27,0.5148300528526306,0.14778542518615723
185,2,64,28,0.5889761447906494,0.19094151258468628
185,2,64,29,0.6438596844673157,0.16227489709854126
185,2,64,30,0.5217546224594116,0.34504786133766174
185,2,64,31,0.5110618472099304,0.13736028969287872
185,2,64,32,0.44913607835769653,0.0708145722746849
185,2,64,33,0.5528400540351868,0.12515601515769958
185,2,64,34,0.48471516370773315,0.27390748262405396
185,2,64,35,0.5169228315353394,0.12398233264684677
185,2,64,36,0.6370682716369629,0.1862170249223709
185,2,64,37,0.5748862624168396,0.14284130930900574
185,2,64,38,0.4226819574832916,0.1564105600118637
185,2,64,39,0.4009750485420227,0.15366709232330322
185,2,64,40,0.4187615215778351,0.27748048305511475
185,2,64,41,0.5936707258224487,0.20509248971939087
185,2,64,42,0.5689457058906555,0.2561277747154236
185,2,64,43,0.46606242656707764,0.222655788064003
185,2,64,44,0.5064170360565186,0.16944855451583862
185,2,64,45,0.4329899549484253,0.17273540794849396
185,2,64,46,0.3922973573207855,0.16481299698352814
185,2,64,47,0.5914478302001953,0.24456460773944855
185,2,64,48,0.4920576214790344,0.14149034023284912
185,2,64,49,0.5211561322212219,0.24541300535202026
185,2,64,50,0.4678412973880768,0.22494195401668549
185,2,64,51,0.3098195493221283,0.13538698852062225
185,2,64,52,0.5780600309371948,0.16669316589832306
185,2,64,53,0.4914056062698364,0.17491424083709717
185,2,64,54,0.5471672415733337,0.10542981326580048
185,2,64,55,0.5021715760231018,0.2563048303127289
185,2,64,56,0.46626895666122437,0.14947815239429474
185,2,64,57,0.48303914070129395,0.1343337744474411
185,2,64,58,0.6411094069480896,0.11902938038110733
185,2,64,59,0.4362424314022064,0.18996378779411316
185,2,64,60,0.6728147864341736,0.13345718383789062
185,2,64,61,0.4681192636489868,0.317191481590271
185,2,64,62,0.5015438795089722,0.050408653914928436
185,2,64,63,0.4708873927593231,0.261284202337265
185,3,64,0,0.48063862323760986,0.21785224974155426
185,3,64,1,0.4442365765571594,0.21002867817878723
185,3,64,2,0.5329791307449341,0.19307298958301544
185,3,64,3,0.4088568091392517,0.18856649100780487
185,3,64,4,0.48752647638320923,0.20220603048801422
185,3,64,5,0.48150837421417236,0.23054754734039307
185,3,64,6,0.704315721988678,0.11141417920589447
185,3,64,7,0.4648059010505676,0.1392587125301361
185,3,64,8,0.38977086544036865,0.12856929004192352
185,3,64,9,0.5043202042579651,0.15438224375247955
185,3,64,10,0.42931345105171204,0.14174063503742218
185,3,64,11,0.4527476727962494,0.19457277655601501
185,3,64,12,0.41077566146850586,0.172568678855896
185,3,64,13,0.6572353839874268,0.07951445877552032
185,3,64,14,0.3800069987773895,0.11997673660516739
185,3,64,15,0.587717592716217,0.15795601904392242
185,3,64,16,0.5348275303840637,0.2752935290336609
185,3,64,17,0.45112940669059753,0.2053828239440918
185,3,64,18,0.5034582614898682,0.06621795147657394
185,3,64,19,0.533392608165741,0.14448925852775574
185,3,64,20,0.4253941774368286,0.22150200605392456
185,3,64,21,0.5736386775970459,0.2533363699913025
185,3,64,22,0.5581414103507996,0.26525139808654785
185,3,64,23,0.6323361396789551,0.2668338716030121
185,3,64,24,0.47606587409973145,0.18459853529930115
185,3,64,25,0.4600057601928711,0.1583574116230011
185,3,64,26,0.48811089992523193,0.13544724881649017
185,3,64,27,0.4043251574039459,0.10391202569007874
185,3,64,28,0.508715808391571,0.24863071739673615
185,3,64,29,0.5624753832817078,0.2077823430299759
185,3,64,30,0.3176313638687134,0.15857505798339844
185,3,64,31,0.3304142355918884,0.09416958689689636
185,3,64,32,0.48706239461898804,0.2557656466960907
185,3,64,33,0.3730506896972656,0.19713594019412994
185,3,64,34,0.42180508375167847,0.10616320371627808
185,3,64,35,0.5372193455696106,0.2219921201467514
185,3,64,36,0.41484352946281433,0.18554149568080902
185,3,64,37,0.5069596171379089,0.09460781514644623
185,3,64,38,0.5250451564788818,0.19472025334835052
185,3,64,39,0.4598296880722046,0.26689383387565613
185,3,64,40,0.5486443042755127,0.24350248277187347
185,3,64,41,0.4666721224784851,0.026523984968662262
185,3,64,42,0.4106568694114685,0.1461910456418991
185,3,64,43,0.5791624188423157,0.13047169148921967
185,3,64,44,0.2831900715827942,0.13681811094284058
185,3,64,45,0.3182674050331116,0.20553255081176758
185,3,64,46,0.4103655517101288,0.16534054279327393
185,3,64,47,0.4948550760746002,0.23926062881946564
185,3,64,48,0.3949889838695526,0.2254205197095871
185,3,64,49,0.5820618867874146,0.16856789588928223
185,3,64,50,0.5845402479171753,0.25593969225883484
185,3,64,51,0.46796929836273193,0.19378764927387238
185,3,64,52,0.54491126537323,0.1990852802991867
185,3,64,53,0.381344735622406,0.08627206832170486
185,3,64,54,0.5311861038208008,0.2672313153743744
185,3,64,55,0.45647022128105164,0.20895130932331085
185,3,64,56,0.38152095675468445,0.09062623977661133
185,3,64,57,0.5715950727462769,0.17335817217826843
185,3,64,58,0.44549325108528137,0.1320391595363617
185,3,64,59,0.6093876361846924,0.22743895649909973
185,3,64,60,0.48550984263420105,0.2629471719264984
185,3,64,61,0.40606802701950073,0.16574281454086304
185,3,64,62,0.508762776851654,0.1800810843706131
185,3,64,63,0.47598797082901,0.1962466686964035
185,4,128,0,0.5541893839836121,0.14760401844978333
185,4,128,1,0.5775356292724609,0.17325735092163086
185,4,128,2,0.3626406788825989,0.15143488347530365
185,4,128,3,0.4373535215854645,0.1860101968050003
185,4,128,4,0.5615776181221008,0.14890247583389282
185,4,128,5,0.5581516027450562,0.16462023556232452
185,4,128,6,0.5837941765785217,0.18793611228466034
185,4,128,7,0.4473198652267456,0.1344083994626999
185,4,128,8,0.49378150701522827,0.20813260972499847
185,4,128,9,0.4614262878894806,0.05984368175268173
185,4,128,10,0.5517750382423401,0.19914358854293823
185,4,128,11,0.5863289833068848,0.17153483629226685
185,4,128,12,0.4474898874759674,0.1379244029521942
185,4,128,13,0.59571373462677,0.28335413336753845
185,4,128,14,0.6935075521469116,0.1573963761329651
185,4,128,15,0.6346808671951294,0.12290117144584656
185,4,128,16,0.44898465275764465,0.244231179356575
185,4,128,17,0.6480900049209595,0.1493564248085022
185,4,128,18,0.5227851867675781,0.17294521629810333
185,4,128,19,0.5278298258781433,0.05584440380334854
185,4,128,20,0.5983855128288269,0.12333113700151443
185,4,128,21,0.5086053013801575,0.12010614573955536
185,4,128,22,0.5647481083869934,0.13308589160442352
185,4,128,23,0.7171087861061096,0.09655383974313736
185,4,128,24,0.5428943037986755,0.1667948216199875
185,4,128,25,0.4751608073711395,0.16943293809890747
185,4,128,26,0.3229486048221588,0.13168713450431824
185,4,128,27,0.4801012873649597,0.08170849084854126
185,4,128,28,0.5942074656486511,0.09527359157800674
185,4,128,29,0.4486016035079956,0.08066406846046448
185,4,128,30,0.6617329120635986,0.12701894342899323
185,4,128,31,0.5834082961082458,0.1804640144109726
185,4,128,32,0.5276260375976562,0.2464526891708374
185,4,128,33,0.42900505661964417,0.157468780875206
185,4,128,34,0.5544715523719788,0.13250745832920074
185,4,128,35,0.5034325122833252,0.11552346497774124
185,4,128,36,0.6249409914016724,0.1898188591003418
185,4,128,37,0.4737772047519684,0.21685601770877838
185,4,128,38,0.5496554970741272,0.16584226489067078
185,4,128,39,0.42760613560676575,0.15301822125911713
185,4,128,40,0.46558666229248047,0.12504969537258148
185,4,128,41,0.5352441668510437,0.1774061769247055
185,4,128,42,0.5940085649490356,0.13294583559036255
185,4,128,43,0.5109452605247498,0.1330607831478119
185,4,128,44,0.5657594203948975,0.25917360186576843
185,4,128,45,0.5289528965950012,0.20250806212425232
185,4,128,46,0.5937038064002991,0.18962018191814423
185,4,128,47,0.5453888177871704,0.1834103763103485
185,4,128,48,0.42806804180145264,0.16530661284923553
185,4,128,49,0.5351808071136475,0.0989576056599617
185,4,128,50,0.6387194991111755,0.17896923422813416
185,4,128,51,0.6480454206466675,0.13563978672027588
185,4,128,52,0.3455226719379425,0.10758395493030548
185,4,128,53,0.5652952194213867,0.1406061053276062
185,4,128,54,0.4576418399810791,0.16231970489025116
185,4,128,55,0.5745899677276611,0.2265501469373703
185,4,128,56,0.6064879298210144,0.18522201478481293
185,4,128,57,0.5054934024810791,0.08264715224504471
185,4,128,58,0.6168932914733887,0.1887306571006775
185,4,128,59,0.6006116271018982,0.10010453313589096
185,4,128,60,0.3723870515823364,0.15624690055847168
185,4,128,61,0.489175945520401,0.1496465504169464
185,4,128,62,0.6114457845687866,0.18097463250160217
185,4,128,63,0.6208109259605408,0.16954350471496582
185,4,128,64,0.497702032327652,0.21021628379821777
185,4,128,65,0.4793109893798828,0.1839582771062851
185,4,128,66,0.544468343257904,0.2500624358654022
185,4,128,67,0.34286028146743774,0.16296245157718658
185,4,128,68,0.5827151536941528,0.11297174543142319
185,4,128,69,0.6096983551979065,0.2497677356004715
185,4,128,70,0.49309003353118896,0.11508356779813766
185,4,128,71,0.5848094820976257,0.12034770101308823
185,4,128,72,0.6260266304016113,0.09999324381351471
185,4,128,73,0.39969879388809204,0.13236506283283234
185,4,128,74,0.5296126008033752,0.11401325464248657
185,4,128,75,0.6748791933059692,0.20726533234119415
185,4,128,76,0.48220551013946533,0.10942304134368896
185,4,128,77,0.4250293970108032,0.24367286264896393
185,4,128,78,0.5246288180351257,0.09732744097709656
185,4,128,79,0.5114144682884216,0.14843739569187164
185,4,128,80,0.5175436735153198,0.2996276319026947
185,4,128,81,0.4832468628883362,0.11956704407930374
185,4,128,82,0.5502158403396606,0.12584690749645233
185,4,128,83,0.5055966377258301,0.09459532797336578
185,4,128,84,0.5145633816719055,0.24693500995635986
185,4,128,85,0.6194577813148499,0.1624729484319687
185,4,128,86,0.5709764361381531,0.19726131856441498
185,4,128,87,0.35531970858573914,0.15624210238456726
185,4,128,88,0.49035102128982544,0.11750593036413193
185,4,128,89,0.5723269581794739,0.1484145224094391
185,4,128,90,0.47126176953315735,0.14280785620212555
185,4,128,91,0.6010684370994568,0.15414823591709137
185,4,128,92,0.4488200843334198,0.11683707684278488
185,4,128,93,0.4718412458896637,0.13699962198734283
185,4,128,94,0.41734403371810913,0.1571374237537384
185,4,128,95,0.42812398076057434,0.19138145446777344
185,4,128,96,0.5850673317909241,0.07550843805074692
185,4,128,97,0.574130654335022,0.09724901616573334
185,4,128,98,0.41947999596595764,0.14293698966503143
185,4,128,99,0.5632018446922302,0.10595457255840302
185,4,128,100,0.5750214457511902,0.22266653180122375
185,4,128,101,0.3367689251899719,0.12416277080774307
185,4,128,102,0.6620132923126221,0.09219004958868027
185,4,128,103,0.5715320110321045,0.18352967500686646
185,4,128,104,0.46438464522361755,0.18116503953933716
185,4,128,105,0.5289392471313477,0.057574305683374405
185,4,128,106,0.4606574475765228,0.140678271651268
185,4,128,107,0.471332311630249,0.21273793280124664
185,4,128,108,0.5320993661880493,0.15827667713165283
185,4,128,109,0.5208763480186462,0.11131982505321503
185,4,128,110,0.6463923454284668,0.20449356734752655
185,4,128,111,0.5778672695159912,0.23611359298229218
185,4,128,112,0.55818772315979,0.08378229290246964
185,4,128,113,0.5501680374145508,0.10414783656597137
185,4,128,114,0.6165930032730103,0.1906232237815857
185,4,128,115,0.567830502986908,0.15748357772827148
185,4,128,116,0.5794737339019775,0.27255651354789734
185,4,128,117,0.5669004321098328,0.15038292109966278
185,4,128,118,0.42415663599967957,0.12625573575496674
185,4,128,119,0.465834379196167,0.09410125762224197
185,4,128,120,0.35430392622947693,0.13094884157180786
185,4,128,121,0.4990985691547394,0.06518776714801788
185,4,128,122,0.5241045355796814,0.12955966591835022
185,4,128,123,0.458950400352478,0.24791347980499268
185,4,128,124,0.5390030741691589,0.1767890751361847
185,4,128,125,0.4753050208091736,0.10684127360582352
185,4,128,126,0.5215837359428406,0.2731786072254181
185,4,128,127,0.3948833644390106,0.1115448847413063
185,5,128,0,0.5117281675338745,0.2605796158313751
185,5,128,1,0.4130646586418152,0.2364313304424286
185,5,128,2,0.6336214542388916,0.10592488944530487
185,5,128,3,0.6086583733558655,0.19585682451725006
185,5,128,4,0.6421602964401245,0.2142300009727478
185,5,128,5,0.6458998918533325,0.19658434391021729
185,5,128,6,0.44853055477142334,0.1681983470916748
185,5,128,7,0.42557576298713684,0.28431323170661926
185,5,128,8,0.5531724691390991,0.1648969203233719
185,5,128,9,0.6130616664886475,0.10341338813304901
185,5,128,10,0.37049049139022827,0.10441132634878159
185,5,128,11,0.6221256852149963,0.23082485795021057
185,5,128,12,0.7461311221122742,0.16879034042358398
185,5,128,13,0.42113155126571655,0.2546278238296509
185,5,128,14,0.6285119652748108,0.2202046811580658
185,5,128,15,0.5681968927383423,0.16269594430923462
185,5,128,16,0.41904914379119873,0.21345646679401398
185,5,128,17,0.7478790879249573,0.15362916886806488
185,5,128,18,0.6986088752746582,0.15031343698501587
185,5,128,19,0.7625581622123718,0.12617753446102142
185,5,128,20,0.6064989566802979,0.15819551050662994
185,5,128,21,0.6778205633163452,0.16726328432559967
185,5,128,22,0.44795292615890503,0.18794043362140656
185,5,128,23,0.5329012274742126,0.28143808245658875
185,5,128,24,0.62418532371521,0.1359405517578125
185,5,128,25,0.47548946738243103,0.14952020347118378
185,5,128,26,0.388839989900589,0.22643990814685822
185,5,128,27,0.6666083335876465,0.21748577058315277
185,5,128,28,0.772538959980011,0.1183176040649414
185,5,128,29,0.5517466068267822,0.14747236669063568
185,5,128,30,0.5879263877868652,0.18897011876106262
185,5,128,31,0.5224624872207642,0.21725821495056152
185,5,128,32,0.7025235891342163,0.1568647027015686
185,5,128,33,0.4706716239452362,0.21056486666202545
185,5,128,34,0.6159570813179016,0.17410680651664734
185,5,128,35,0.5230466723442078,0.2401086837053299
185,5,128,36,0.5199217200279236,0.17881974577903748
185,5,128,37,0.6488927006721497,0.3240775167942047
185,5,128,38,0.47922444343566895,0.20121614634990692
185,5,128,39,0.6752178072929382,0.14499974250793457
185,5,128,40,0.63017338514328,0.15437644720077515
185,5,128,41,0.676406979560852,0.14008024334907532
185,5,128,42,0.6211418509483337,0.12348747253417969
185,5,128,43,0.6907245516777039,0.23598292469978333
185,5,128,44,0.7432287335395813,0.1533147692680359
185,5,128,45,0.7945969700813293,0.12108104676008224
185,5,128,46,0.6911971569061279,0.1025138795375824
185,5,128,47,0.4842745065689087,0.2510014772415161
185,5,128,48,0.5748012065887451,0.16147582232952118
185,5,128,49,0.5211228132247925,0.24378758668899536
185,5,128,50,0.5999012589454651,0.2293381690979004
185,5,128,51,0.5074244141578674,0.09349656105041504
185,5,128,52,0.6726431846618652,0.17965009808540344
185,5,128,53,0.5727737545967102,0.14569735527038574
185,5,128,54,0.6149075627326965,0.11942417919635773
185,5,128,55,0.5410751104354858,0.1440923660993576
185,5,128,56,0.40466198325157166,0.2079845368862152
185,5,128,57,0.708095133304596,0.11114345490932465
185,5,128,58,0.6365684866905212,0.3049170672893524
185,5,128,59,0.6456040143966675,0.13086476922035217
185,5,128,60,0.5456911325454712,0.10520375519990921
185,5,128,61,0.7305774092674255,0.07169405370950699
185,5,128,62,0.49056461453437805,0.213537335395813
185,5,128,63,0.6544525027275085,0.24949228763580322
185,5,128,64,0.7149444222450256,0.13853099942207336
185,5,128,65,0.4307980537414551,0.1234452947974205
185,5,128,66,0.5524125695228577,0.23007658123970032
185,5,128,67,0.5313447713851929,0.20066459476947784
185,5,128,68,0.7718873023986816,0.09155328571796417
185,5,128,69,0.6667657494544983,0.24491377174854279
185,5,128,70,0.6350188255310059,0.12694606184959412
185,5,128,71,0.6987770795822144,0.1313208043575287
185,5,128,72,0.5689793229103088,0.18668252229690552
185,5,128,73,0.6290988922119141,0.25842157006263733
185,5,128,74,0.647556722164154,0.15282121300697327
185,5,128,75,0.6324284076690674,0.31042182445526123
185,5,128,76,0.6517981290817261,0.1731870472431183
185,5,128,77,0.6694633364677429,0.10905764251947403
185,5,128,78,0.679621696472168,0.16301806271076202
185,5,128,79,0.7474595308303833,0.1253049522638321
185,5,128,80,0.6445698738098145,0.15662658214569092
185,5,128,81,0.5408572554588318,0.18745975196361542
185,5,128,82,0.6835010647773743,0.16633808612823486
185,5,128,83,0.5475111603736877,0.10251808911561966
185,5,128,84,0.5664471983909607,0.14447088539600372
185,5,128,85,0.720596194267273,0.12056543678045273
185,5,128,86,0.742978572845459,0.14511188864707947
185,5,128,87,0.5215656757354736,0.09574396908283234
185,5,128,88,0.6520344018936157,0.10995297878980637
185,5,128,89,0.5414725542068481,0.18971160054206848
185,5,128,90,0.6922246217727661,0.13161630928516388
185,5,128,91,0.6331114768981934,0.1449328511953354
185,5,128,92,0.5444126129150391,0.10158564150333405
185,5,128,93,0.6631027460098267,0.19173301756381989
185,5,128,94,0.5433325171470642,0.17526552081108093
185,5,128,95,0.612354576587677,0.19926141202449799
185,5,128,96,0.5544141530990601,0.235433429479599
185,5,128,97,0.76865154504776,0.16460686922073364
185,5,128,98,0.7724977731704712,0.10828520357608795
185,5,128,99,0.735364556312561,0.16464735567569733
185,5,128,100,0.7416185140609741,0.13468819856643677
185,5,128,101,0.583717405796051,0.15464091300964355
185,5,128,102,0.6419754028320312,0.19705840945243835
185,5,128,103,0.5362350344657898,0.20003996789455414
185,5,128,104,0.5467703342437744,0.17216816544532776
185,5,128,105,0.4889754056930542,0.25026649236679077
185,5,128,106,0.5005030035972595,0.06691371649503708
185,5,128,107,0.40025463700294495,0.12685991823673248
185,5,128,108,0.5789315700531006,0.15863607823848724
185,5,128,109,0.7016483545303345,0.13249114155769348
185,5,128,110,0.4757883846759796,0.2560611665248871
185,5,128,111,0.7882648706436157,0.11817467212677002
185,5,128,112,0.5440634489059448,0.21359626948833466
185,5,128,113,0.607895016670227,0.18252477049827576
185,5,128,114,0.6347965002059937,0.17635388672351837
185,5,128,115,0.5786457061767578,0.2373768538236618
185,5,128,116,0.6212784647941589,0.291311651468277
185,5,128,117,0.7624412178993225,0.12574273347854614
185,5,128,118,0.6287276148796082,0.08393707126379013
185,5,128,119,0.5572752952575684,0.11121067404747009
185,5,128,120,0.4844355583190918,0.08252830058336258
185,5,128,121,0.7197791337966919,0.12031102180480957
185,5,128,122,0.6011296510696411,0.20462749898433685
185,5,128,123,0.7174256443977356,0.10762494802474976
185,5,128,124,0.6439676284790039,0.1347649097442627
185,5,128,125,0.6227957606315613,0.20953933894634247
185,5,128,126,0.706047534942627,0.1969970464706421
185,5,128,127,0.6793311238288879,0.11657384037971497
186,0,32,0,0.4179280698299408,0.08329411596059799
186,0,32,1,0.6110082864761353,0.19043779373168945
186,0,32,2,0.4636038541793823,0.12251049280166626
186,0,32,3,0.48871910572052,0.10310431569814682
186,0,32,4,0.3406287133693695,0.10602844506502151
186,0,32,5,0.7244274616241455,0.09549904614686966
186,0,32,6,0.5906108617782593,0.11204340308904648
186,0,32,7,0.47479233145713806,0.18477362394332886
186,0,32,8,0.5353511571884155,0.1847541332244873
186,0,32,9,0.5467129945755005,0.11965148150920868
186,0,32,10,0.4994061589241028,0.10083528608083725
186,0,32,11,0.4516145586967468,0.091511070728302
186,0,32,12,0.4107217490673065,0.09284475445747375
186,0,32,13,0.433817595243454,0.16226059198379517
186,0,32,14,0.5278691053390503,0.14210914075374603
186,0,32,15,0.5505486726760864,0.13439291715621948
186,0,32,16,0.4222237467765808,0.14802801609039307
186,0,32,17,0.6241472959518433,0.0958695039153099
186,0,32,18,0.4691077470779419,0.11949774622917175
186,0,32,19,0.5904804468154907,0.0536576472222805
186,0,32,20,0.2909550070762634,0.1167791560292244
186,0,32,21,0.6784652471542358,0.09831313788890839
186,0,32,22,0.5427039861679077,0.15981025993824005
186,0,32,23,0.32133743166923523,0.09760629385709763
186,0,32,24,0.5595260858535767,0.10248270630836487
186,0,32,25,0.5808757543563843,0.1726817786693573
186,0,32,26,0.3649098575115204,0.14752846956253052
186,0,32,27,0.5323949456214905,0.11464269459247589
186,0,32,28,0.5903763771057129,0.013981395401060581
186,0,32,29,0.5556011199951172,0.18572141230106354
186,0,32,30,0.5818797945976257,0.09171410650014877
186,0,32,31,0.4633800983428955,0.07869163155555725
186,1,32,0,0.5893204808235168,0.06431326270103455
186,1,32,1,0.5589755177497864,0.1163666769862175
186,1,32,2,0.42703747749328613,0.08582000434398651
186,1,32,3,0.522975504398346,0.09426230937242508
186,1,32,4,0.4781300127506256,0.09209990501403809
186,1,32,5,0.3784150183200836,0.0608397014439106
186,1,32,6,0.5608160495758057,0.15583859384059906
186,1,32,7,0.4509611129760742,0.05564138665795326
186,1,32,8,0.48566657304763794,0.06899242848157883
186,1,32,9,0.4941001832485199,0.12984099984169006
186,1,32,10,0.42886245250701904,0.08929306268692017
186,1,32,11,0.6002878546714783,0.055627595633268356
186,1,32,12,0.5715964436531067,0.1118711605668068
186,1,32,13,0.600806474685669,0.040411561727523804
186,1,32,14,0.3647403120994568,0.11055485904216766
186,1,32,15,0.3958340883255005,0.11113369464874268
186,1,32,16,0.4620400667190552,0.12067849189043045
186,1,32,17,0.4382525384426117,0.11312343180179596
186,1,32,18,0.4478362500667572,0.1023382842540741
186,1,32,19,0.6557846665382385,0.07264134287834167
186,1,32,20,0.6175050139427185,0.07481309771537781
186,1,32,21,0.4047817587852478,0.11246050894260406
186,1,32,22,0.4575023651123047,0.0959080308675766
186,1,32,23,0.48167726397514343,0.06937912106513977
186,1,32,24,0.4992988109588623,0.07402735203504562
186,1,32,25,0.39607977867126465,0.11282139271497726
186,1,32,26,0.4431226849555969,0.08869174122810364
186,1,32,27,0.4330821633338928,0.04625866934657097
186,1,32,28,0.5707271695137024,0.07630734890699387
186,1,32,29,0.4521682560443878,0.12388478964567184
186,1,32,30,0.49552902579307556,0.037616752088069916
186,1,32,31,0.5662373304367065,0.031201336532831192
186,2,64,0,0.6101672053337097,0.1293562650680542
186,2,64,1,0.43624457716941833,0.1142941489815712
186,2,64,2,0.5602315664291382,0.22139449417591095
186,2,64,3,0.4397597312927246,0.19038593769073486
186,2,64,4,0.5949515104293823,0.19286437332630157
186,2,64,5,0.45653727650642395,0.20413994789123535
186,2,64,6,0.5618859529495239,0.1721665859222412
186,2,64,7,0.5765318870544434,0.07074534893035889
186,2,64,8,0.6482322216033936,0.17020857334136963
186,2,64,9,0.4379604458808899,0.11054367572069168
186,2,64,10,0.596865177154541,0.18486928939819336
186,2,64,11,0.4878394603729248,0.22504502534866333
186,2,64,12,0.5007948875427246,0.11147666722536087
186,2,64,13,0.3707960844039917,0.16404806077480316
186,2,64,14,0.4745359420776367,0.22115539014339447
186,2,64,15,0.4470524489879608,0.2586425542831421
186,2,64,16,0.537651002407074,0.18684321641921997
186,2,64,17,0.4522168040275574,0.1943456381559372
186,2,64,18,0.4048386216163635,0.06486355513334274
186,2,64,19,0.6672313213348389,0.14997908473014832
186,2,64,20,0.40118682384490967,0.10969886183738708
186,2,64,21,0.5588119029998779,0.17471621930599213
186,2,64,22,0.3996690809726715,0.15064945816993713
186,2,64,23,0.47163963317871094,0.10799042880535126
186,2,64,24,0.5316078662872314,0.07423195242881775
186,2,64,25,0.47802743315696716,0.18300779163837433
186,2,64,26,0.5450933575630188,0.0943986251950264
186,2,64,27,0.4317139983177185,0.07156568765640259
186,2,64,28,0.4766930043697357,0.14857934415340424
186,2,64,29,0.5461826920509338,0.11140630394220352
186,2,64,30,0.524095356464386,0.19662527740001678
186,2,64,31,0.450693815946579,0.07925448566675186
186,2,64,32,0.37854042649269104,0.11362314224243164
186,2,64,33,0.6740144491195679,0.07889876514673233
186,2,64,34,0.3949292302131653,0.11029024422168732
186,2,64,35,0.5571218132972717,0.07122672349214554
186,2,64,36,0.42793306708335876,0.11338967084884644
186,2,64,37,0.43451154232025146,0.1362990438938141
186,2,64,38,0.4168672561645508,0.13694195449352264
186,2,64,39,0.6510293483734131,0.0923263356089592
186,2,64,40,0.6026573181152344,0.14541731774806976
186,2,64,41,0.4101319909095764,0.14160069823265076
186,2,64,42,0.4189760088920593,0.10615068674087524
186,2,64,43,0.4941035807132721,0.13567110896110535
186,2,64,44,0.5038419365882874,0.17681625485420227
186,2,64,45,0.5530769228935242,0.09824260324239731
186,2,64,46,0.5845449566841125,0.12146259844303131
186,2,64,47,0.4911136329174042,0.2050357609987259
186,2,64,48,0.5856261849403381,0.12656831741333008
186,2,64,49,0.4570101797580719,0.1848016232252121
186,2,64,50,0.5004486441612244,0.13752134144306183
186,2,64,51,0.4304177165031433,0.15101292729377747
186,2,64,52,0.5808110237121582,0.13024909794330597
186,2,64,53,0.43834778666496277,0.16422681510448456
186,2,64,54,0.4177129566669464,0.16274841129779816
186,2,64,55,0.5407227873802185,0.15689358115196228
186,2,64,56,0.5371285080909729,0.22515887022018433
186,2,64,57,0.5091071128845215,0.20031701028347015
186,2,64,58,0.5945371389389038,0.2338419258594513
186,2,64,59,0.5025233030319214,0.19641193747520447
186,2,64,60,0.4554181694984436,0.19165368378162384
186,2,64,61,0.4390794336795807,0.13721562922000885
186,2,64,62,0.46552830934524536,0.21665874123573303
186,2,64,63,0.517925500869751,0.22610335052013397
186,3,64,0,0.38311123847961426,0.17115800082683563
186,3,64,1,0.4733487665653229,0.27120858430862427
186,3,64,2,0.44979241490364075,0.13246284425258636
186,3,64,3,0.47534194588661194,0.27129116654396057
186,3,64,4,0.5335385203361511,0.19123798608779907
186,3,64,5,0.465963751077652,0.1834670603275299
186,3,64,6,0.42712077498435974,0.10693196207284927
186,3,64,7,0.48022809624671936,0.22436842322349548
186,3,64,8,0.5567017197608948,0.2749359607696533
186,3,64,9,0.4563514292240143,0.12653256952762604
186,3,64,10,0.5346034169197083,0.2629542648792267
186,3,64,11,0.4425070583820343,0.24616031348705292
186,3,64,12,0.3984334468841553,0.2221537083387375
186,3,64,13,0.46643003821372986,0.22463585436344147
186,3,64,14,0.547859787940979,0.18467631936073303
186,3,64,15,0.5005483627319336,0.18423037230968475
186,3,64,16,0.45603564381599426,0.19778047502040863
186,3,64,17,0.6468396186828613,0.20692138373851776
186,3,64,18,0.4142921566963196,0.09726543724536896
186,3,64,19,0.3858487606048584,0.17424650490283966
186,3,64,20,0.5808746218681335,0.06412568688392639
186,3,64,21,0.6218103170394897,0.18861012160778046
186,3,64,22,0.44669467210769653,0.2300804704427719
186,3,64,23,0.42312243580818176,0.21119661629199982
186,3,64,24,0.615104079246521,0.15526504814624786
186,3,64,25,0.42744097113609314,0.15825694799423218
186,3,64,26,0.4974241256713867,0.20987418293952942
186,3,64,27,0.5151032209396362,0.07657191902399063
186,3,64,28,0.5076086521148682,0.09388100355863571
186,3,64,29,0.5203078985214233,0.20331819355487823
186,3,64,30,0.46454688906669617,0.15638069808483124
186,3,64,31,0.5366741418838501,0.2910061478614807
186,3,64,32,0.5196506977081299,0.21199844777584076
186,3,64,33,0.5167475938796997,0.17028965055942535
186,3,64,34,0.4407070279121399,0.16096661984920502
186,3,64,35,0.5508148670196533,0.10413143038749695
186,3,64,36,0.3877372145652771,0.14385096728801727
186,3,64,37,0.34618890285491943,0.1121264100074768
186,3,64,38,0.47331708669662476,0.11099180579185486
186,3,64,39,0.6125076413154602,0.116987444460392
186,3,64,40,0.47705158591270447,0.28648102283477783
186,3,64,41,0.6750869750976562,0.10612740367650986
186,3,64,42,0.5109536647796631,0.23752163350582123
186,3,64,43,0.46148401498794556,0.20417676866054535
186,3,64,44,0.5032405853271484,0.23275282979011536
186,3,64,45,0.3223641514778137,0.09567946195602417
186,3,64,46,0.6854459047317505,0.10286912322044373
186,3,64,47,0.44340381026268005,0.16903959214687347
186,3,64,48,0.4836142063140869,0.09843263030052185
186,3,64,49,0.4376426637172699,0.186064675450325
186,3,64,50,0.51710045337677,0.15192291140556335
186,3,64,51,0.6634082198143005,0.20323200523853302
186,3,64,52,0.472805917263031,0.16129563748836517
186,3,64,53,0.3654462695121765,0.2809434235095978
186,3,64,54,0.44498395919799805,0.16539469361305237
186,3,64,55,0.42094212770462036,0.09806925058364868
186,3,64,56,0.5316681861877441,0.24381323158740997
186,3,64,57,0.5606932640075684,0.14469881355762482
186,3,64,58,0.6973296999931335,0.2351571023464203
186,3,64,59,0.554380476474762,0.17134660482406616
186,3,64,60,0.3701018989086151,0.1020740270614624
186,3,64,61,0.5057606101036072,0.21544353663921356
186,3,64,62,0.4705025255680084,0.176582932472229
186,3,64,63,0.4806910753250122,0.15989349782466888
186,4,128,0,0.6199761629104614,0.12354767322540283
186,4,128,1,0.6023761034011841,0.08486708253622055
186,4,128,2,0.33304885029792786,0.08910983800888062
186,4,128,3,0.6417343020439148,0.23872895538806915
186,4,128,4,0.5272449254989624,0.24040783941745758
186,4,128,5,0.6035811901092529,0.17343705892562866
186,4,128,6,0.4011911451816559,0.14948433637619019
186,4,128,7,0.4639798700809479,0.2211020439863205
186,4,128,8,0.5379399657249451,0.15964628756046295
186,4,128,9,0.6851117014884949,0.23296144604682922
186,4,128,10,0.6714258193969727,0.1382022202014923
186,4,128,11,0.6271355748176575,0.13594499230384827
186,4,128,12,0.3556637763977051,0.2391497790813446
186,4,128,13,0.4484744071960449,0.10873939096927643
186,4,128,14,0.5025041699409485,0.10747265070676804
186,4,128,15,0.44616183638572693,0.17416585981845856
186,4,128,16,0.44625124335289,0.11500456184148788
186,4,128,17,0.36673370003700256,0.20424151420593262
186,4,128,18,0.7088212370872498,0.11601924151182175
186,4,128,19,0.45924946665763855,0.22096839547157288
186,4,128,20,0.331070214509964,0.19757087528705597
186,4,128,21,0.5530878305435181,0.1910683959722519
186,4,128,22,0.6620546579360962,0.11838315427303314
186,4,128,23,0.5811547040939331,0.181326225399971
186,4,128,24,0.4173765480518341,0.20768257975578308
186,4,128,25,0.5601323843002319,0.12506328523159027
186,4,128,26,0.6611477732658386,0.09677907079458237
186,4,128,27,0.5538789629936218,0.23178599774837494
186,4,128,28,0.3586914837360382,0.1782579869031906
186,4,128,29,0.42592212557792664,0.0928274467587471
186,4,128,30,0.5230405330657959,0.18780723214149475
186,4,128,31,0.562303364276886,0.10094839334487915
186,4,128,32,0.4588472545146942,0.18348966538906097
186,4,128,33,0.6565042734146118,0.07542548328638077
186,4,128,34,0.6562343239784241,0.06641323119401932
186,4,128,35,0.45510414242744446,0.20833387970924377
186,4,128,36,0.5083944201469421,0.22081735730171204
186,4,128,37,0.5010995268821716,0.20005638897418976
186,4,128,38,0.5172103047370911,0.2466798573732376
186,4,128,39,0.40425416827201843,0.14592787623405457
186,4,128,40,0.681129515171051,0.19059914350509644
186,4,128,41,0.6996055841445923,0.22170253098011017
186,4,128,42,0.47238755226135254,0.2696005702018738
186,4,128,43,0.5050933957099915,0.22365641593933105
186,4,128,44,0.41154277324676514,0.2299984246492386
186,4,128,45,0.6579843759536743,0.1803429126739502
186,4,128,46,0.6031340956687927,0.21449437737464905
186,4,128,47,0.49563366174697876,0.1080140471458435
186,4,128,48,0.6614940762519836,0.1566050797700882
186,4,128,49,0.723732054233551,0.22569502890110016
186,4,128,50,0.7078520059585571,0.20705285668373108
186,4,128,51,0.5965338349342346,0.20423685014247894
186,4,128,52,0.5758914351463318,0.13703781366348267
186,4,128,53,0.5683070421218872,0.14269784092903137
186,4,128,54,0.5663005113601685,0.09484963864088058
186,4,128,55,0.4507860541343689,0.20948955416679382
186,4,128,56,0.38154733180999756,0.23508472740650177
186,4,128,57,0.676459550857544,0.14551125466823578
186,4,128,58,0.7245535850524902,0.17988483607769012
186,4,128,59,0.4857347011566162,0.15516817569732666
186,4,128,60,0.6301966905593872,0.23688043653964996
186,4,128,61,0.493282288312912,0.13824716210365295
186,4,128,62,0.5791016221046448,0.0994720384478569
186,4,128,63,0.5694215893745422,0.2885962724685669
186,4,128,64,0.48315703868865967,0.2403436154127121
186,4,128,65,0.5840251445770264,0.07821150124073029
186,4,128,66,0.5826793909072876,0.19814613461494446
186,4,128,67,0.6003726124763489,0.1220894306898117
186,4,128,68,0.5279017686843872,0.23058617115020752
186,4,128,69,0.47800904512405396,0.22999805212020874
186,4,128,70,0.5551040172576904,0.26461026072502136
186,4,128,71,0.6205477714538574,0.18033812940120697
186,4,128,72,0.7744698524475098,0.08081076294183731
186,4,128,73,0.644149124622345,0.2621840834617615
186,4,128,74,0.6591187119483948,0.1881287544965744
186,4,128,75,0.5028284788131714,0.11670871078968048
186,4,128,76,0.48875901103019714,0.26472237706184387
186,4,128,77,0.5553697347640991,0.16813768446445465
186,4,128,78,0.35697343945503235,0.25099116563796997
186,4,128,79,0.47878390550613403,0.15482155978679657
186,4,128,80,0.6595340371131897,0.11703342199325562
186,4,128,81,0.5469349026679993,0.23365674912929535
186,4,128,82,0.5185373425483704,0.14754953980445862
186,4,128,83,0.6513159871101379,0.2619796395301819
186,4,128,84,0.7092990875244141,0.14030304551124573
186,4,128,85,0.5470030307769775,0.19314779341220856
186,4,128,86,0.6573169231414795,0.17566122114658356
186,4,128,87,0.5474465489387512,0.21746350824832916
186,4,128,88,0.3159562945365906,0.16302411258220673
186,4,128,89,0.5181162357330322,0.18177516758441925
186,4,128,90,0.5032638907432556,0.17914335429668427
186,4,128,91,0.5802876353263855,0.2024124711751938
186,4,128,92,0.7720129489898682,0.07444760203361511
186,4,128,93,0.4836336076259613,0.19970914721488953
186,4,128,94,0.4607382118701935,0.1636810004711151
186,4,128,95,0.6062667965888977,0.22452659904956818
186,4,128,96,0.5907695293426514,0.19841700792312622
186,4,128,97,0.6090643405914307,0.24262382090091705
186,4,128,98,0.5493178963661194,0.32124659419059753
186,4,128,99,0.4318641424179077,0.19239364564418793
186,4,128,100,0.46896469593048096,0.2460174560546875
186,4,128,101,0.6752369999885559,0.22512775659561157
186,4,128,102,0.3169291913509369,0.09474986046552658
186,4,128,103,0.6067557334899902,0.1713566929101944
186,4,128,104,0.3745138347148895,0.16982975602149963
186,4,128,105,0.531578004360199,0.06186644360423088
186,4,128,106,0.5448029637336731,0.11114800721406937
186,4,128,107,0.7478047013282776,0.10007669031620026
186,4,128,108,0.7516183257102966,0.20440222322940826
186,4,128,109,0.48997098207473755,0.2325378656387329
186,4,128,110,0.39496976137161255,0.23124706745147705
186,4,128,111,0.3077080547809601,0.15913639962673187
186,4,128,112,0.6694046258926392,0.2189231663942337
186,4,128,113,0.4469699561595917,0.11027662456035614
186,4,128,114,0.5538240075111389,0.20032267272472382
186,4,128,115,0.5561715364456177,0.2041727602481842
186,4,128,116,0.4764503538608551,0.19024552404880524
186,4,128,117,0.3562380373477936,0.22621600329875946
186,4,128,118,0.5076127648353577,0.10466145724058151
186,4,128,119,0.29869163036346436,0.15710298717021942
186,4,128,120,0.4337121546268463,0.11372347921133041
186,4,128,121,0.5624160170555115,0.11374854296445847
186,4,128,122,0.35858154296875,0.22716167569160461
186,4,128,123,0.558553159236908,0.188060462474823
186,4,128,124,0.7019405364990234,0.25327324867248535
186,4,128,125,0.46572333574295044,0.1766480654478073
186,4,128,126,0.444882869720459,0.21326659619808197
186,4,128,127,0.6067644953727722,0.29850924015045166
186,5,128,0,0.4926334023475647,0.23168303072452545
186,5,128,1,0.6188022494316101,0.22628700733184814
186,5,128,2,0.7812338471412659,0.16142383217811584
186,5,128,3,0.8051671385765076,0.1328492909669876
186,5,128,4,0.7100765109062195,0.19022375345230103
186,5,128,5,0.4125913977622986,0.2945851683616638
186,5,128,6,0.5890610218048096,0.20291484892368317
186,5,128,7,0.7918286323547363,0.26735109090805054
186,5,128,8,0.38685789704322815,0.31424835324287415
186,5,128,9,0.7817108035087585,0.2970326840877533
186,5,128,10,0.7755765318870544,0.10187623649835587
186,5,128,11,0.805992603302002,0.18278542160987854
186,5,128,12,0.6473547220230103,0.14308620989322662
186,5,128,13,0.5665046572685242,0.18189696967601776
186,5,128,14,0.8996666073799133,0.13265842199325562
186,5,128,15,0.6558327674865723,0.0969700887799263
186,5,128,16,0.7022804021835327,0.17199386656284332
186,5,128,17,0.6556005477905273,0.1947532445192337
186,5,128,18,0.5303298234939575,0.11022865772247314
186,5,128,19,0.6989721059799194,0.18642932176589966
186,5,128,20,0.8697472214698792,0.20206068456172943
186,5,128,21,0.7391868233680725,0.13682548701763153
186,5,128,22,0.8626689314842224,0.08438042551279068
186,5,128,23,0.7587413191795349,0.16383838653564453
186,5,128,24,0.8281615972518921,0.08731900155544281
186,5,128,25,0.6969708204269409,0.14716573059558868
186,5,128,26,0.7066939473152161,0.15851706266403198
186,5,128,27,0.8355002403259277,0.15130141377449036
186,5,128,28,0.6968905925750732,0.1251286268234253
186,5,128,29,0.8038976192474365,0.10107047855854034
186,5,128,30,0.6008808016777039,0.17155635356903076
186,5,128,31,0.8626322150230408,0.08297818899154663
186,5,128,32,0.8083298206329346,0.1356370449066162
186,5,128,33,0.7740607261657715,0.1836576759815216
186,5,128,34,0.609499990940094,0.23312422633171082
186,5,128,35,0.6514981389045715,0.16687129437923431
186,5,128,36,0.44051387906074524,0.24899104237556458
186,5,128,37,0.660778284072876,0.2226109802722931
186,5,128,38,0.693061351776123,0.1785057634115219
186,5,128,39,0.558560311794281,0.23503664135932922
186,5,128,40,0.7595468163490295,0.11617954820394516
186,5,128,41,0.7100579142570496,0.18704181909561157
186,5,128,42,0.6214599609375,0.1901746243238449
186,5,128,43,0.7507233619689941,0.20798109471797943
186,5,128,44,0.7592018842697144,0.31837812066078186
186,5,128,45,0.8322920799255371,0.2174469381570816
186,5,128,46,0.5343397259712219,0.2848166525363922
186,5,128,47,0.5253621935844421,0.27217936515808105
186,5,128,48,0.6206663846969604,0.2710324823856354
186,5,128,49,0.8355230689048767,0.08343057334423065
186,5,128,50,0.7366381287574768,0.26032865047454834
186,5,128,51,0.7608182430267334,0.14945924282073975
186,5,128,52,0.6369168162345886,0.2077666074037552
186,5,128,53,0.6170384883880615,0.20264552533626556
186,5,128,54,0.7047986388206482,0.19692106544971466
186,5,128,55,0.7283418774604797,0.14710356295108795
186,5,128,56,0.8055720925331116,0.2586634159088135
186,5,128,57,0.8383374214172363,0.1239677369594574
186,5,128,58,0.7296993136405945,0.2859962284564972
186,5,128,59,0.6308569312095642,0.30659541487693787
186,5,128,60,0.8665423393249512,0.1909068524837494
186,5,128,61,0.5829359889030457,0.22766609489917755
186,5,128,62,0.8532763719558716,0.08790963888168335
186,5,128,63,0.6377999186515808,0.17029736936092377
186,5,128,64,0.8516384363174438,0.1385476142168045
186,5,128,65,0.8309467434883118,0.12360760569572449
186,5,128,66,0.7177318930625916,0.2092220038175583
186,5,128,67,0.8214077353477478,0.11534461379051208
186,5,128,68,0.45997363328933716,0.2617926597595215
186,5,128,69,0.7779544591903687,0.228903129696846
186,5,128,70,0.8732601404190063,0.13081039488315582
186,5,128,71,0.670423150062561,0.17321734130382538
186,5,128,72,0.4820215106010437,0.2591244876384735
186,5,128,73,0.837708055973053,0.21069809794425964
186,5,128,74,0.8276013731956482,0.24827803671360016
186,5,128,75,0.6822803616523743,0.14733467996120453
186,5,128,76,0.6592357754707336,0.16105763614177704
186,5,128,77,0.78425133228302,0.28682270646095276
186,5,128,78,0.6307423710823059,0.21410296857357025
186,5,128,79,0.7709807753562927,0.11950657516717911
186,5,128,80,0.4824758768081665,0.2601560652256012
186,5,128,81,0.8847659230232239,0.07654011994600296
186,5,128,82,0.6313926577568054,0.2573935091495514
186,5,128,83,0.5898064970970154,0.1655787080526352
186,5,128,84,0.842224657535553,0.20272254943847656
186,5,128,85,0.6974630355834961,0.12819278240203857
186,5,128,86,0.8763014078140259,0.09439142793416977
186,5,128,87,0.41653889417648315,0.21660402417182922
186,5,128,88,0.8524366021156311,0.07496616244316101
186,5,128,89,0.6942910552024841,0.2083844244480133
186,5,128,90,0.36381739377975464,0.24282832443714142
186,5,128,91,0.7080358266830444,0.25164905190467834
186,5,128,92,0.6608521342277527,0.22956977784633636
186,5,128,93,0.3850571811199188,0.2555459141731262
186,5,128,94,0.7926154732704163,0.1194491758942604
186,5,128,95,0.8457714319229126,0.0980692058801651
186,5,128,96,0.7985538840293884,0.10485780984163284
186,5,128,97,0.8645308017730713,0.12525519728660583
186,5,128,98,0.7186475992202759,0.2025335282087326
186,5,128,99,0.8091614246368408,0.26210397481918335
186,5,128,100,0.6546863317489624,0.17779475450515747
186,5,128,101,0.6469677686691284,0.19876989722251892
186,5,128,102,0.687019944190979,0.1597195565700531
186,5,128,103,0.770012617111206,0.15156744420528412
186,5,128,104,0.2878342866897583,0.09834104776382446
186,5,128,105,0.8528751730918884,0.10845741629600525
186,5,128,106,0.7430130243301392,0.12987057864665985
186,5,128,107,0.24212177097797394,0.243902325630188
186,5,128,108,0.7138417959213257,0.20303477346897125
186,5,128,109,0.5487547516822815,0.09059615433216095
186,5,128,110,0.3409934639930725,0.2845703065395355
186,5,128,111,0.3053930401802063,0.15414977073669434
186,5,128,112,0.6635239124298096,0.14809539914131165
186,5,128,113,0.9117465615272522,0.08962041884660721
186,5,128,114,0.8689746856689453,0.12636172771453857
186,5,128,115,0.6347588300704956,0.19402910768985748
186,5,128,116,0.6267219185829163,0.16701805591583252
186,5,128,117,0.6995949745178223,0.17199808359146118
186,5,128,118,0.7524560689926147,0.25902536511421204
186,5,128,119,0.286596417427063,0.2793077230453491
186,5,128,120,0.7315471768379211,0.2816401422023773
186,5,128,121,0.41548463702201843,0.18019291758537292
186,5,128,122,0.32486647367477417,0.28780657052993774
186,5,128,123,0.7898706793785095,0.18303579092025757
186,5,128,124,0.8179078102111816,0.1046721339225769
186,5,128,125,0.6688512563705444,0.21751779317855835
186,5,128,126,0.5719107985496521,0.3068445920944214
186,5,128,127,0.713736355304718,0.16361452639102936
188,0,32,0,0.5188043117523193,0.10868597775697708
188,0,32,1,0.4411678612232208,0.10933446139097214
188,0,32,2,0.3681480884552002,0.05703667178750038
188,0,32,3,0.5920103788375854,0.11538516730070114
188,0,32,4,0.5371991991996765,0.06297232210636139
188,0,32,5,0.4445802569389343,0.1467892825603485
188,0,32,6,0.46172618865966797,0.06826353073120117
188,0,32,7,0.5588730573654175,0.12586183845996857
188,0,32,8,0.4711921811103821,0.07545766979455948
188,0,32,9,0.4237246513366699,0.08037693053483963
188,0,32,10,0.5131378173828125,0.09903387725353241
188,0,32,11,0.5759080648422241,0.14405237138271332
188,0,32,12,0.48403051495552063,0.12206002324819565
188,0,32,13,0.47443974018096924,0.12956443428993225
188,0,32,14,0.6133293509483337,0.033317554742097855
188,0,32,15,0.5420329570770264,0.03601698949933052
188,0,32,16,0.44065210223197937,0.12936624884605408
188,0,32,17,0.5036913156509399,0.08027263730764389
188,0,32,18,0.542796790599823,0.0835440382361412
188,0,32,19,0.3477758765220642,0.13604196906089783
188,0,32,20,0.48090097308158875,0.0484900064766407
188,0,32,21,0.47728151082992554,0.16774648427963257
188,0,32,22,0.6698462963104248,0.04698657989501953
188,0,32,23,0.46056997776031494,0.06162576749920845
188,0,32,24,0.40928709506988525,0.11110153049230576
188,0,32,25,0.4797246754169464,0.05600282549858093
188,0,32,26,0.39123398065567017,0.08652302622795105
188,0,32,27,0.3409974277019501,0.06850928068161011
188,0,32,28,0.41552382707595825,0.08918268978595734
188,0,32,29,0.5325693488121033,0.08427967131137848
188,0,32,30,0.5612273812294006,0.10582160204648972
188,0,32,31,0.4259147047996521,0.07712045311927795
188,1,32,0,0.36775538325309753,0.08908358961343765
188,1,32,1,0.5308729410171509,0.07346830517053604
188,1,32,2,0.5970540046691895,0.07626008242368698
188,1,32,3,0.44271284341812134,0.07699979096651077
188,1,32,4,0.49438315629959106,0.07323791086673737
188,1,32,5,0.4919354319572449,0.06258222460746765
188,1,32,6,0.45097383856773376,0.10050168633460999
188,1,32,7,0.6088261604309082,0.05197431892156601
188,1,32,8,0.35324952006340027,0.08560072630643845
188,1,32,9,0.465905100107193,0.09117960929870605
188,1,32,10,0.39747729897499084,0.08718975633382797
188,1,32,11,0.5841125845909119,0.0745619386434555
188,1,32,12,0.34167757630348206,0.0943082794547081
188,1,32,13,0.45648816227912903,0.10179146379232407
188,1,32,14,0.4633100628852844,0.12288648635149002
188,1,32,15,0.5188735127449036,0.11435473710298538
188,1,32,16,0.46668559312820435,0.1377238929271698
188,1,32,17,0.4498106837272644,0.14237302541732788
188,1,32,18,0.46405914425849915,0.08968648314476013
188,1,32,19,0.4548933804035187,0.12774768471717834
188,1,32,20,0.42761287093162537,0.06602132320404053
188,1,32,21,0.4631018340587616,0.08929596096277237
188,1,32,22,0.6341235637664795,0.07417301833629608
188,1,32,23,0.4030044972896576,0.08674459159374237
188,1,32,24,0.3639281988143921,0.1300661712884903
188,1,32,25,0.45704132318496704,0.16924184560775757
188,1,32,26,0.6044175028800964,0.103878915309906
188,1,32,27,0.5898401141166687,0.07164650410413742
188,1,32,28,0.45182591676712036,0.09439166635274887
188,1,32,29,0.5024080872535706,0.11252281814813614
188,1,32,30,0.4227815270423889,0.13998378813266754
188,1,32,31,0.43811753392219543,0.12182632088661194
188,2,64,0,0.47177550196647644,0.1524641066789627
188,2,64,1,0.31878769397735596,0.12471871078014374
188,2,64,2,0.5997152924537659,0.18873488903045654
188,2,64,3,0.34212660789489746,0.08679618686437607
188,2,64,4,0.5646468997001648,0.12202829122543335
188,2,64,5,0.3341439962387085,0.09260999411344528
188,2,64,6,0.6038337349891663,0.22105684876441956
188,2,64,7,0.4196721911430359,0.17469681799411774
188,2,64,8,0.6211702823638916,0.0618397481739521
188,2,64,9,0.4427276849746704,0.20819053053855896
188,2,64,10,0.6344445943832397,0.17757299542427063
188,2,64,11,0.642573356628418,0.12405065447092056
188,2,64,12,0.4791255593299866,0.11316695064306259
188,2,64,13,0.40403157472610474,0.18377017974853516
188,2,64,14,0.32448065280914307,0.27452918887138367
188,2,64,15,0.5374995470046997,0.17107926309108734
188,2,64,16,0.5287224650382996,0.1485244482755661
188,2,64,17,0.4961974620819092,0.12498115748167038
188,2,64,18,0.6365193724632263,0.10604492574930191
188,2,64,19,0.3008296489715576,0.08135530352592468
188,2,64,20,0.4133846163749695,0.2158716768026352
188,2,64,21,0.5949890613555908,0.1272844523191452
188,2,64,22,0.48199114203453064,0.1255091279745102
188,2,64,23,0.5154864192008972,0.11565911769866943
188,2,64,24,0.26670631766319275,0.1847207248210907
188,2,64,25,0.4730578064918518,0.13433103263378143
188,2,64,26,0.5563523173332214,0.21358752250671387
188,2,64,27,0.3926801383495331,0.12727414071559906
188,2,64,28,0.5632913708686829,0.1432812362909317
188,2,64,29,0.5383242964744568,0.12446393072605133
188,2,64,30,0.2575453519821167,0.18679314851760864
188,2,64,31,0.547723650932312,0.1425095647573471
188,2,64,32,0.40288659930229187,0.2132209986448288
188,2,64,33,0.3650612235069275,0.14499056339263916
188,2,64,34,0.4874347150325775,0.13314175605773926
188,2,64,35,0.4216681718826294,0.10361018031835556
188,2,64,36,0.39988821744918823,0.20073971152305603
188,2,64,37,0.6583138108253479,0.21082335710525513
188,2,64,38,0.4846143424510956,0.11313629150390625
188,2,64,39,0.7780017256736755,0.10095895826816559
188,2,64,40,0.41040608286857605,0.2224794626235962
188,2,64,41,0.5164720416069031,0.19482217729091644
188,2,64,42,0.36854812502861023,0.17634455859661102
188,2,64,43,0.3605831563472748,0.0530647337436676
188,2,64,44,0.31994184851646423,0.21451939642429352
188,2,64,45,0.624901533126831,0.07528369873762131
188,2,64,46,0.4507739245891571,0.13376711308956146
188,2,64,47,0.5708958506584167,0.19602692127227783
188,2,64,48,0.4094949960708618,0.1849052608013153
188,2,64,49,0.3840230703353882,0.12654004991054535
188,2,64,50,0.503105640411377,0.14293640851974487
188,2,64,51,0.7122126221656799,0.13501788675785065
188,2,64,52,0.361382395029068,0.23968568444252014
188,2,64,53,0.6259846091270447,0.11595578491687775
188,2,64,54,0.3838746249675751,0.14212046563625336
188,2,64,55,0.5556973218917847,0.0802917331457138
188,2,64,56,0.44115757942199707,0.13895685970783234
188,2,64,57,0.2685428261756897,0.08206634223461151
188,2,64,58,0.45038244128227234,0.12372207641601562
188,2,64,59,0.513180673122406,0.1743321567773819
188,2,64,60,0.6555218696594238,0.21188795566558838
188,2,64,61,0.4445936679840088,0.07936710119247437
188,2,64,62,0.3035430312156677,0.21209946274757385
188,2,64,63,0.3341178297996521,0.1591164618730545
188,3,64,0,0.5626654624938965,0.16793175041675568
188,3,64,1,0.6392320990562439,0.08448360115289688
188,3,64,2,0.4362044334411621,0.1203698068857193
188,3,64,3,0.49283134937286377,0.14537180960178375
188,3,64,4,0.5716712474822998,0.0909973680973053
188,3,64,5,0.41183802485466003,0.11412787437438965
188,3,64,6,0.39315709471702576,0.11236242204904556
188,3,64,7,0.5807521343231201,0.24038748443126678
188,3,64,8,0.5171842575073242,0.11710143089294434
188,3,64,9,0.3664804697036743,0.09803902357816696
188,3,64,10,0.49820616841316223,0.09729280322790146
188,3,64,11,0.508299708366394,0.08881080895662308
188,3,64,12,0.40687912702560425,0.1026846244931221
188,3,64,13,0.5709863305091858,0.06993458420038223
188,3,64,14,0.6035616993904114,0.21404379606246948
188,3,64,15,0.5441414713859558,0.09342343360185623
188,3,64,16,0.5137982368469238,0.08996683359146118
188,3,64,17,0.6133034229278564,0.16023045778274536
188,3,64,18,0.53154456615448,0.09554781019687653
188,3,64,19,0.4340183734893799,0.1636231392621994
188,3,64,20,0.4723343551158905,0.0598573163151741
188,3,64,21,0.3920285999774933,0.207119420170784
188,3,64,22,0.5589298009872437,0.1310524046421051
188,3,64,23,0.46518564224243164,0.16839513182640076
188,3,64,24,0.33091631531715393,0.1107330247759819
188,3,64,25,0.47005125880241394,0.055099476128816605
188,3,64,26,0.5941809415817261,0.10516609996557236
188,3,64,27,0.5299992561340332,0.26022353768348694
188,3,64,28,0.539256751537323,0.13382089138031006
188,3,64,29,0.5419812202453613,0.14180219173431396
188,3,64,30,0.39354339241981506,0.06405703723430634
188,3,64,31,0.4560283124446869,0.0653456375002861
188,3,64,32,0.5133882761001587,0.2392013967037201
188,3,64,33,0.6103655099868774,0.07173286378383636
188,3,64,34,0.35705670714378357,0.06973420083522797
188,3,64,35,0.3710913360118866,0.1478942185640335
188,3,64,36,0.5800316333770752,0.15375052392482758
188,3,64,37,0.4354228973388672,0.09164179861545563
188,3,64,38,0.5853230953216553,0.11963336169719696
188,3,64,39,0.47193828225135803,0.25394684076309204
188,3,64,40,0.4359259009361267,0.10498978942632675
188,3,64,41,0.47563865780830383,0.12776125967502594
188,3,64,42,0.42643630504608154,0.09785080701112747
188,3,64,43,0.6522279977798462,0.08662287890911102
188,3,64,44,0.5107795596122742,0.05827716365456581
188,3,64,45,0.5960931181907654,0.09125625342130661
188,3,64,46,0.5183343291282654,0.11839933693408966
188,3,64,47,0.4921669363975525,0.10817082971334457
188,3,64,48,0.44838133454322815,0.12377552688121796
188,3,64,49,0.4408741593360901,0.11380435526371002
188,3,64,50,0.5379433631896973,0.17690438032150269
188,3,64,51,0.39703577756881714,0.046601951122283936
188,3,64,52,0.42711517214775085,0.12285885959863663
188,3,64,53,0.5551015138626099,0.14169317483901978
188,3,64,54,0.5429911613464355,0.11239638179540634
188,3,64,55,0.5104444622993469,0.07061149179935455
188,3,64,56,0.5841326117515564,0.1255183219909668
188,3,64,57,0.38700544834136963,0.09425744414329529
188,3,64,58,0.6331126689910889,0.0666874349117279
188,3,64,59,0.49132636189460754,0.0851656123995781
188,3,64,60,0.43018394708633423,0.1303616315126419
188,3,64,61,0.5415022373199463,0.18124663829803467
188,3,64,62,0.5741973519325256,0.09171155840158463
188,3,64,63,0.484669029712677,0.16721545159816742
188,4,128,0,0.3569570481777191,0.11456600576639175
188,4,128,1,0.5397407412528992,0.18387582898139954
188,4,128,2,0.42228004336357117,0.0986117422580719
188,4,128,3,0.6216903328895569,0.12434151023626328
188,4,128,4,0.7320452332496643,0.13783001899719238
188,4,128,5,0.510465145111084,0.24136891961097717
188,4,128,6,0.632308840751648,0.1218886598944664
188,4,128,7,0.5898075103759766,0.10798565298318863
188,4,128,8,0.5708876848220825,0.10832305997610092
188,4,128,9,0.4357295632362366,0.07944144308567047
188,4,128,10,0.45200371742248535,0.16414165496826172
188,4,128,11,0.4805832505226135,0.19655968248844147
188,4,128,12,0.6364343166351318,0.13187305629253387
188,4,128,13,0.46107012033462524,0.21164672076702118
188,4,128,14,0.5501741766929626,0.25909924507141113
188,4,128,15,0.37990331649780273,0.19375433027744293
188,4,128,16,0.575289249420166,0.10116013884544373
188,4,128,17,0.5311061143875122,0.17218337953090668
188,4,128,18,0.4950109124183655,0.20768964290618896
188,4,128,19,0.654380738735199,0.2416152060031891
188,4,128,20,0.49209916591644287,0.20676463842391968
188,4,128,21,0.6700549721717834,0.2083771973848343
188,4,128,22,0.49414992332458496,0.11991482228040695
188,4,128,23,0.5369325280189514,0.21588853001594543
188,4,128,24,0.6084082126617432,0.15841172635555267
188,4,128,25,0.5787951350212097,0.19469478726387024
188,4,128,26,0.649734377861023,0.1824425309896469
188,4,128,27,0.4340793192386627,0.13529549539089203
188,4,128,28,0.4882045090198517,0.13031814992427826
188,4,128,29,0.4228436350822449,0.21771453320980072
188,4,128,30,0.5327918529510498,0.20368631184101105
188,4,128,31,0.47285082936286926,0.15436261892318726
188,4,128,32,0.5920100212097168,0.2351406067609787
188,4,128,33,0.547950029373169,0.13672742247581482
188,4,128,34,0.5072919726371765,0.12574027478694916
188,4,128,35,0.5287294983863831,0.20572081208229065
188,4,128,36,0.5754930973052979,0.184933140873909
188,4,128,37,0.5585306882858276,0.22012759745121002
188,4,128,38,0.5238887071609497,0.21472138166427612
188,4,128,39,0.5482129454612732,0.11538057029247284
188,4,128,40,0.5756993293762207,0.211516335606575
188,4,128,41,0.5468894839286804,0.24905386567115784
188,4,128,42,0.6429431438446045,0.15491250157356262
188,4,128,43,0.6117852926254272,0.21469932794570923
188,4,128,44,0.5654959082603455,0.2015666961669922
188,4,128,45,0.4248880445957184,0.12829235196113586
188,4,128,46,0.46862316131591797,0.2135956585407257
188,4,128,47,0.6181913018226624,0.09568853676319122
188,4,128,48,0.6685853600502014,0.13913017511367798
188,4,128,49,0.3867681920528412,0.22954781353473663
188,4,128,50,0.4499804973602295,0.09286510944366455
188,4,128,51,0.5265166163444519,0.1321023851633072
188,4,128,52,0.6013695001602173,0.21683570742607117
188,4,128,53,0.6145448684692383,0.23065343499183655
188,4,128,54,0.49411478638648987,0.17185452580451965
188,4,128,55,0.4088454246520996,0.18558582663536072
188,4,128,56,0.5224550366401672,0.19134986400604248
188,4,128,57,0.3012225925922394,0.17292270064353943
188,4,128,58,0.6170588731765747,0.24771256744861603
188,4,128,59,0.5944940447807312,0.05923944711685181
188,4,128,60,0.645396888256073,0.23242886364459991
188,4,128,61,0.5127670168876648,0.10611375421285629
188,4,128,62,0.6933984756469727,0.0782591849565506
188,4,128,63,0.5313727259635925,0.12140244245529175
188,4,128,64,0.6746299862861633,0.10417795181274414
188,4,128,65,0.595576822757721,0.12132994085550308
188,4,128,66,0.5857415199279785,0.18656978011131287
188,4,128,67,0.6053586006164551,0.09396912902593613
188,4,128,68,0.5454626083374023,0.20725184679031372
188,4,128,69,0.3873084485530853,0.1638708859682083
188,4,128,70,0.6044653654098511,0.20712922513484955
188,4,128,71,0.5188944339752197,0.14175370335578918
188,4,128,72,0.7151548266410828,0.10947972536087036
188,4,128,73,0.5202385783195496,0.19834941625595093
188,4,128,74,0.4956439137458801,0.14659978449344635
188,4,128,75,0.5170812010765076,0.18116526305675507
188,4,128,76,0.3634272813796997,0.20459727942943573
188,4,128,77,0.5315024852752686,0.09848602861166
188,4,128,78,0.39824196696281433,0.13119648396968842
188,4,128,79,0.34418371319770813,0.17900004982948303
188,4,128,80,0.5714104175567627,0.2604067921638489
188,4,128,81,0.43591925501823425,0.18997350335121155
188,4,128,82,0.4868476092815399,0.18067660927772522
188,4,128,83,0.6148858666419983,0.1403687447309494
188,4,128,84,0.49119848012924194,0.1287493109703064
188,4,128,85,0.6279999613761902,0.09570484608411789
188,4,128,86,0.5731121301651001,0.19090048968791962
188,4,128,87,0.6382368803024292,0.26261258125305176
188,4,128,88,0.44536858797073364,0.20514875650405884
188,4,128,89,0.5291412472724915,0.1464553326368332
188,4,128,90,0.3994133472442627,0.1896217316389084
188,4,128,91,0.3448701500892639,0.13007999956607819
188,4,128,92,0.5061459541320801,0.1471622884273529
188,4,128,93,0.40088996291160583,0.27491945028305054
188,4,128,94,0.5930208563804626,0.11528696119785309
188,4,128,95,0.5365345478057861,0.17919011414051056
188,4,128,96,0.6218549609184265,0.20516248047351837
188,4,128,97,0.638239324092865,0.10657946765422821
188,4,128,98,0.6004160642623901,0.19779212772846222
188,4,128,99,0.6907615661621094,0.09328518807888031
188,4,128,100,0.40993380546569824,0.10885955393314362
188,4,128,101,0.6460084319114685,0.14079131186008453
188,4,128,102,0.5400521755218506,0.07109425961971283
188,4,128,103,0.6242994070053101,0.27649423480033875
188,4,128,104,0.5307415127754211,0.1385902762413025
188,4,128,105,0.43484804034233093,0.2391359806060791
188,4,128,106,0.5426634550094604,0.11641889810562134
188,4,128,107,0.45034661889076233,0.11410334706306458
188,4,128,108,0.6526820659637451,0.2270563840866089
188,4,128,109,0.47012487053871155,0.1909620761871338
188,4,128,110,0.47050967812538147,0.11646272242069244
188,4,128,111,0.41180872917175293,0.17785227298736572
188,4,128,112,0.5948144793510437,0.22371023893356323
188,4,128,113,0.5740390419960022,0.07896454632282257
188,4,128,114,0.5184959173202515,0.22215411067008972
188,4,128,115,0.6304969191551208,0.1721721738576889
188,4,128,116,0.4141358435153961,0.2002558410167694
188,4,128,117,0.4761292636394501,0.30238351225852966
188,4,128,118,0.39650970697402954,0.12841345369815826
188,4,128,119,0.5891486406326294,0.2479303628206253
188,4,128,120,0.3300068974494934,0.12235932797193527
188,4,128,121,0.44582733511924744,0.22489678859710693
188,4,128,122,0.44484803080558777,0.1288474202156067
188,4,128,123,0.35475578904151917,0.1037607491016388
188,4,128,124,0.609737753868103,0.17344747483730316
188,4,128,125,0.5849376916885376,0.2392423450946808
188,4,128,126,0.36484211683273315,0.2633993923664093
188,4,128,127,0.5173549056053162,0.05365766957402229
188,5,128,0,0.7382622957229614,0.11782862991094589
188,5,128,1,0.6539718508720398,0.17594636976718903
188,5,128,2,0.5211091637611389,0.05670144781470299
188,5,128,3,0.6561177968978882,0.23442576825618744
188,5,128,4,0.6117080450057983,0.22537493705749512
188,5,128,5,0.5046176910400391,0.10924538224935532
188,5,128,6,0.5734967589378357,0.11611606925725937
188,5,128,7,0.6206807494163513,0.15584781765937805
188,5,128,8,0.5344470143318176,0.27210649847984314
188,5,128,9,0.6141347289085388,0.16649530827999115
188,5,128,10,0.739376425743103,0.15320676565170288
188,5,128,11,0.7254634499549866,0.09600372612476349
188,5,128,12,0.6976190805435181,0.18906675279140472
188,5,128,13,0.4543994963169098,0.21960602700710297
188,5,128,14,0.6634582281112671,0.09564469009637833
188,5,128,15,0.6360998153686523,0.16202715039253235
188,5,128,16,0.6623512506484985,0.16742917895317078
188,5,128,17,0.49264413118362427,0.29656001925468445
188,5,128,18,0.5934444665908813,0.2405664175748825
188,5,128,19,0.47235414385795593,0.17748740315437317
188,5,128,20,0.5325181484222412,0.23545236885547638
188,5,128,21,0.7460667490959167,0.12256055325269699
188,5,128,22,0.7519828081130981,0.12333373725414276
188,5,128,23,0.5306563377380371,0.20870853960514069
188,5,128,24,0.6225742101669312,0.09359049797058105
188,5,128,25,0.44580432772636414,0.18292300403118134
188,5,128,26,0.6091904044151306,0.1497388482093811
188,5,128,27,0.7222661972045898,0.17070677876472473
188,5,128,28,0.4416784942150116,0.07638368755578995
188,5,128,29,0.6818193793296814,0.14755241572856903
188,5,128,30,0.4712049067020416,0.23137569427490234
188,5,128,31,0.5137789845466614,0.11799661070108414
188,5,128,32,0.7381147742271423,0.13659051060676575
188,5,128,33,0.5897588729858398,0.199836865067482
188,5,128,34,0.6040653586387634,0.14352041482925415
188,5,128,35,0.6645758152008057,0.1727140247821808
188,5,128,36,0.5382929444313049,0.10518088936805725
188,5,128,37,0.662052571773529,0.13497944176197052
188,5,128,38,0.6810848712921143,0.1867854744195938
188,5,128,39,0.6126046180725098,0.19733911752700806
188,5,128,40,0.674160897731781,0.24169641733169556
188,5,128,41,0.6244093775749207,0.17854848504066467
188,5,128,42,0.5301403403282166,0.2767614722251892
188,5,128,43,0.6309712529182434,0.2262236475944519
188,5,128,44,0.7461435794830322,0.11181586235761642
188,5,128,45,0.6006008386611938,0.15830937027931213
188,5,128,46,0.6218799948692322,0.13207405805587769
188,5,128,47,0.4917469918727875,0.10879294574260712
188,5,128,48,0.5914422869682312,0.1423971801996231
188,5,128,49,0.6093904972076416,0.19234958291053772
188,5,128,50,0.5713357925415039,0.14936937391757965
188,5,128,51,0.7199852466583252,0.11514466255903244
188,5,128,52,0.6676177382469177,0.14832165837287903
188,5,128,53,0.7563268542289734,0.13877341151237488
188,5,128,54,0.6062288880348206,0.19581490755081177
188,5,128,55,0.6952966451644897,0.1287211924791336
188,5,128,56,0.7510033845901489,0.11685077846050262
188,5,128,57,0.67962646484375,0.2613082528114319
188,5,128,58,0.6950981616973877,0.19604600965976715
188,5,128,59,0.6744753122329712,0.15722906589508057
188,5,128,60,0.6899683475494385,0.17336402833461761
188,5,128,61,0.7196102142333984,0.14049816131591797
188,5,128,62,0.7449545860290527,0.13392245769500732
188,5,128,63,0.6072143316268921,0.19352294504642487
188,5,128,64,0.7002773880958557,0.11247865110635757
188,5,128,65,0.6099573969841003,0.1688956916332245
188,5,128,66,0.7040292024612427,0.12618879973888397
188,5,128,67,0.6558541059494019,0.24974225461483002
188,5,128,68,0.6520751714706421,0.23351924121379852
188,5,128,69,0.6794238686561584,0.16239218413829803
188,5,128,70,0.693350076675415,0.22277823090553284
188,5,128,71,0.6633848547935486,0.16443639993667603
188,5,128,72,0.5922497510910034,0.1530756801366806
188,5,128,73,0.6437917351722717,0.16607247292995453
188,5,128,74,0.6890584826469421,0.16183625161647797
188,5,128,75,0.6888898015022278,0.16613033413887024
188,5,128,76,0.6561049818992615,0.13311047852039337
188,5,128,77,0.7051849961280823,0.18045806884765625
188,5,128,78,0.6170443892478943,0.21785329282283783
188,5,128,79,0.5159539580345154,0.26705750823020935
188,5,128,80,0.7488021850585938,0.15127238631248474
188,5,128,81,0.6803842782974243,0.13023509085178375
188,5,128,82,0.6202861666679382,0.22412823140621185
188,5,128,83,0.5397330522537231,0.12075762450695038
188,5,128,84,0.45820677280426025,0.10282444953918457
188,5,128,85,0.6957583427429199,0.13880832493305206
188,5,128,86,0.743270993232727,0.09228062629699707
188,5,128,87,0.6255747079849243,0.2608809173107147
188,5,128,88,0.7177572846412659,0.12991176545619965
188,5,128,89,0.6741818189620972,0.18088367581367493
188,5,128,90,0.6925414204597473,0.17034363746643066
188,5,128,91,0.5439826250076294,0.16856911778450012
188,5,128,92,0.6186444759368896,0.13178496062755585
188,5,128,93,0.621163547039032,0.18907283246517181
188,5,128,94,0.6515651345252991,0.23261786997318268
188,5,128,95,0.49245238304138184,0.15325763821601868
188,5,128,96,0.6407364010810852,0.24973627924919128
188,5,128,97,0.5094477534294128,0.26237550377845764
188,5,128,98,0.620385468006134,0.1574895977973938
188,5,128,99,0.5659178495407104,0.10923406481742859
188,5,128,100,0.6589682698249817,0.13570891320705414
188,5,128,101,0.7086015939712524,0.13324560225009918
188,5,128,102,0.5594490766525269,0.20986221730709076
188,5,128,103,0.7044523358345032,0.1323321908712387
188,5,128,104,0.5291573405265808,0.28293412923812866
188,5,128,105,0.48123395442962646,0.29700765013694763
188,5,128,106,0.5696194171905518,0.17791636288166046
188,5,128,107,0.6371511816978455,0.19649648666381836
188,5,128,108,0.6778232455253601,0.21540382504463196
188,5,128,109,0.6731462478637695,0.16573138535022736
188,5,128,110,0.6761717796325684,0.09188885986804962
188,5,128,111,0.6841181516647339,0.10440853983163834
188,5,128,112,0.5526396036148071,0.22839416563510895
188,5,128,113,0.5569020509719849,0.21530403196811676
188,5,128,114,0.5563453435897827,0.28588372468948364
188,5,128,115,0.7792186737060547,0.10999197512865067
188,5,128,116,0.6584274172782898,0.18663431704044342
188,5,128,117,0.6369145512580872,0.24058139324188232
188,5,128,118,0.5784589052200317,0.24787431955337524
188,5,128,119,0.5567296147346497,0.24086874723434448
188,5,128,120,0.5557461977005005,0.13276039063930511
188,5,128,121,0.633327305316925,0.11281664669513702
188,5,128,122,0.6438208222389221,0.21689331531524658
188,5,128,123,0.4922000765800476,0.13230130076408386
188,5,128,124,0.4638066589832306,0.17294853925704956
188,5,128,125,0.6408482789993286,0.1839364618062973
188,5,128,126,0.6239363551139832,0.19023701548576355
188,5,128,127,0.7327123284339905,0.12385772168636322
189,0,32,0,0.5858874917030334,0.09430693089962006
189,0,32,1,0.5532480478286743,0.042406558990478516
189,0,32,2,0.5973612666130066,0.048737507313489914
189,0,32,3,0.5510270595550537,0.06889773160219193
189,0,32,4,0.39958426356315613,0.03716899827122688
189,0,32,5,0.42189958691596985,0.04462159425020218
189,0,32,6,0.42133569717407227,0.06808950006961823
189,0,32,7,0.566753625869751,0.06625659018754959
189,0,32,8,0.51382976770401,0.0897197276353836
189,0,32,9,0.4521443247795105,0.10244068503379822
189,0,32,10,0.6252451539039612,0.07123053818941116
189,0,32,11,0.42240166664123535,0.08345657587051392
189,0,32,12,0.3695148229598999,0.04173098877072334
189,0,32,13,0.5441381335258484,0.10983629524707794
189,0,32,14,0.6460562348365784,0.11551817506551743
189,0,32,15,0.5235739946365356,0.013963032513856888
189,0,32,16,0.3364684283733368,0.07901088148355484
189,0,32,17,0.6375670433044434,0.11128505319356918
189,0,32,18,0.660919725894928,0.060905639082193375
189,0,32,19,0.45243850350379944,0.12578518688678741
189,0,32,20,0.41015011072158813,0.04341086745262146
189,0,32,21,0.3602229654788971,0.03523079678416252
189,0,32,22,0.5843214392662048,0.05444464832544327
189,0,32,23,0.5542284846305847,0.10499975085258484
189,0,32,24,0.379024475812912,0.03397928923368454
189,0,32,25,0.5160782337188721,0.03237244486808777
189,0,32,26,0.4583489000797272,0.05362959951162338
189,0,32,27,0.4940674901008606,0.0737808346748352
189,0,32,28,0.5853713750839233,0.07058099657297134
189,0,32,29,0.5791032910346985,0.07661386579275131
189,0,32,30,0.3939361572265625,0.059294626116752625
189,0,32,31,0.5598766803741455,0.1042858138680458
189,1,32,0,0.5822491645812988,0.05667676031589508
189,1,32,1,0.56760174036026,0.06330607086420059
189,1,32,2,0.40219977498054504,0.04208046570420265
189,1,32,3,0.4843115210533142,0.0430167056620121
189,1,32,4,0.5750086903572083,0.07628647983074188
189,1,32,5,0.5746021866798401,0.0402279756963253
189,1,32,6,0.6012857556343079,0.07331930845975876
189,1,32,7,0.49800997972488403,0.0769047960639
189,1,32,8,0.5082424879074097,0.07499081641435623
189,1,32,9,0.4565467834472656,0.04466613382101059
189,1,32,10,0.6127141714096069,0.0499875433743
189,1,32,11,0.46798527240753174,0.06761153787374496
189,1,32,12,0.4909440577030182,0.08113353699445724
189,1,32,13,0.41781142354011536,0.054922088980674744
189,1,32,14,0.3541301190853119,0.02831936627626419
189,1,32,15,0.5248942375183105,0.0650714635848999
189,1,32,16,0.5054214596748352,0.04299305006861687
189,1,32,17,0.5129200220108032,0.07860951870679855
189,1,32,18,0.5734977722167969,0.06499271094799042
189,1,32,19,0.3934563100337982,0.029051542282104492
189,1,32,20,0.46872398257255554,0.0550701804459095
189,1,32,21,0.5481585264205933,0.036379776895046234
189,1,32,22,0.4083426296710968,0.04630183428525925
189,1,32,23,0.3905438780784607,0.02422725409269333
189,1,32,24,0.5674076080322266,0.04985848441720009
189,1,32,25,0.564935564994812,0.039815787225961685
189,1,32,26,0.3742803633213043,0.05443048104643822
189,1,32,27,0.4747103452682495,0.0574956052005291
189,1,32,28,0.4132693111896515,0.03328118473291397
189,1,32,29,0.4800528585910797,0.041863247752189636
189,1,32,30,0.5371166467666626,0.07164543867111206
189,1,32,31,0.4698587954044342,0.03241430222988129
189,2,64,0,0.5232502222061157,0.07958252727985382
189,2,64,1,0.6338246464729309,0.08194628357887268
189,2,64,2,0.44484323263168335,0.08715900778770447
189,2,64,3,0.5898279547691345,0.04673103988170624
189,2,64,4,0.39120927453041077,0.10202037543058395
189,2,64,5,0.4657091200351715,0.08338436484336853
189,2,64,6,0.6202550530433655,0.149152472615242
189,2,64,7,0.4675648510456085,0.09621475636959076
189,2,64,8,0.5193367600440979,0.10614282637834549
189,2,64,9,0.4048689603805542,0.1252470165491104
189,2,64,10,0.5214199423789978,0.0940999910235405
189,2,64,11,0.34378960728645325,0.09062322974205017
189,2,64,12,0.3909194767475128,0.09560491144657135
189,2,64,13,0.554158091545105,0.10674434155225754
189,2,64,14,0.4468156099319458,0.13220281898975372
189,2,64,15,0.5704143047332764,0.05549761280417442
189,2,64,16,0.355002224445343,0.09134853631258011
189,2,64,17,0.6590595245361328,0.09164135158061981
189,2,64,18,0.5277979969978333,0.12450297921895981
189,2,64,19,0.39706286787986755,0.08750498294830322
189,2,64,20,0.5766758322715759,0.06728275865316391
189,2,64,21,0.4265650510787964,0.06515225768089294
189,2,64,22,0.46058106422424316,0.07165280729532242
189,2,64,23,0.5039885640144348,0.11077958345413208
189,2,64,24,0.40185701847076416,0.09252674877643585
189,2,64,25,0.4936119318008423,0.056798987090587616
189,2,64,26,0.5734267234802246,0.08772038668394089
189,2,64,27,0.4738905131816864,0.07279472053050995
189,2,64,28,0.4270133078098297,0.0637885183095932
189,2,64,29,0.6081476807594299,0.07636907696723938
189,2,64,30,0.5461071133613586,0.05762927979230881
189,2,64,31,0.4906729757785797,0.10165972262620926
189,2,64,32,0.3501172363758087,0.06804388016462326
189,2,64,33,0.5762023329734802,0.05815056711435318
189,2,64,34,0.42832982540130615,0.0927739217877388
189,2,64,35,0.45515725016593933,0.12028650939464569
189,2,64,36,0.6564518213272095,0.08492548018693924
189,2,64,37,0.5056925415992737,0.060969751328229904
189,2,64,38,0.4467319846153259,0.11015978455543518
189,2,64,39,0.32597336173057556,0.06821581721305847
189,2,64,40,0.4935503900051117,0.15259864926338196
189,2,64,41,0.6205872297286987,0.07333212345838547
189,2,64,42,0.44544681906700134,0.08811653405427933
189,2,64,43,0.4382925033569336,0.08848223835229874
189,2,64,44,0.443758100271225,0.10812203586101532
189,2,64,45,0.4832642078399658,0.10561046004295349
189,2,64,46,0.6020156145095825,0.11441740393638611
189,2,64,47,0.5462411046028137,0.09802281856536865
189,2,64,48,0.6408969163894653,0.07972799986600876
189,2,64,49,0.5522285103797913,0.14446157217025757
189,2,64,50,0.4095473885536194,0.10823294520378113
189,2,64,51,0.5193203091621399,0.09071724116802216
189,2,64,52,0.44362422823905945,0.0810975581407547
189,2,64,53,0.43705248832702637,0.10649321973323822
189,2,64,54,0.5464798212051392,0.07507943361997604
189,2,64,55,0.46266719698905945,0.06656280159950256
189,2,64,56,0.47851651906967163,0.09041116386651993
189,2,64,57,0.4450853765010834,0.13465829193592072
189,2,64,58,0.5146991014480591,0.04514135792851448
189,2,64,59,0.38135531544685364,0.10795821249485016
189,2,64,60,0.4926244914531708,0.10327785462141037
189,2,64,61,0.46195799112319946,0.050421323627233505
189,2,64,62,0.5380083918571472,0.10195473581552505
189,2,64,63,0.3713899552822113,0.08588175475597382
189,3,64,0,0.3912254869937897,0.13160757720470428
189,3,64,1,0.5538689494132996,0.14409537613391876
189,3,64,2,0.5306610465049744,0.17870499193668365
189,3,64,3,0.5104022026062012,0.11060023307800293
189,3,64,4,0.4377724826335907,0.12583333253860474
189,3,64,5,0.4853772222995758,0.10905952006578445
189,3,64,6,0.4807770848274231,0.14683648943901062
189,3,64,7,0.5281633734703064,0.07030271738767624
189,3,64,8,0.3810737431049347,0.053010646253824234
189,3,64,9,0.6153697371482849,0.09440739452838898
189,3,64,10,0.5292786955833435,0.03210236877202988
189,3,64,11,0.627309262752533,0.10967769473791122
189,3,64,12,0.4849708080291748,0.16312436759471893
189,3,64,13,0.6297256350517273,0.11270994693040848
189,3,64,14,0.38671693205833435,0.07770712673664093
189,3,64,15,0.5274597406387329,0.12219005823135376
189,3,64,16,0.5646438002586365,0.08590863645076752
189,3,64,17,0.6319199800491333,0.09986008703708649
189,3,64,18,0.367769330739975,0.054746441543102264
189,3,64,19,0.418986976146698,0.14754922688007355
189,3,64,20,0.37003764510154724,0.05080408975481987
189,3,64,21,0.4126497209072113,0.06285833567380905
189,3,64,22,0.5159176588058472,0.16726559400558472
189,3,64,23,0.4795868694782257,0.10712522268295288
189,3,64,24,0.3809366822242737,0.07243155688047409
189,3,64,25,0.6163197755813599,0.07088308036327362
189,3,64,26,0.5387925505638123,0.11360146105289459
189,3,64,27,0.43341633677482605,0.13487394154071808
189,3,64,28,0.5203320980072021,0.13018910586833954
189,3,64,29,0.5396060943603516,0.11790584772825241
189,3,64,30,0.4609363079071045,0.07034919410943985
189,3,64,31,0.5284769535064697,0.17010881006717682
189,3,64,32,0.5535140633583069,0.1259489506483078
189,3,64,33,0.42185667157173157,0.08517389744520187
189,3,64,34,0.43804964423179626,0.12300026416778564
189,3,64,35,0.5988574624061584,0.059086624532938004
189,3,64,36,0.38501042127609253,0.09556856006383896
189,3,64,37,0.5950912833213806,0.0777544230222702
189,3,64,38,0.5547538995742798,0.1725820004940033
189,3,64,39,0.42187798023223877,0.08252996951341629
189,3,64,40,0.47602617740631104,0.13274651765823364
189,3,64,41,0.37246695160865784,0.09914637356996536
189,3,64,42,0.5287117958068848,0.1081462875008583
189,3,64,43,0.38023173809051514,0.045364197343587875
189,3,64,44,0.514228105545044,0.10063571482896805
189,3,64,45,0.43703216314315796,0.08740466833114624
189,3,64,46,0.36131560802459717,0.08656135946512222
189,3,64,47,0.5218719840049744,0.15348728001117706
189,3,64,48,0.48773765563964844,0.15430326759815216
189,3,64,49,0.5201929807662964,0.11771111935377121
189,3,64,50,0.3751456141471863,0.10985615104436874
189,3,64,51,0.48582664132118225,0.1527431458234787
189,3,64,52,0.5299714803695679,0.038041431456804276
189,3,64,53,0.4930562973022461,0.12003228068351746
189,3,64,54,0.5276973247528076,0.08761253207921982
189,3,64,55,0.5124988555908203,0.06005601957440376
189,3,64,56,0.4943384528160095,0.11793943494558334
189,3,64,57,0.4180023670196533,0.04179380089044571
189,3,64,58,0.504186749458313,0.11012569814920425
189,3,64,59,0.5547571778297424,0.10857152193784714
189,3,64,60,0.48782920837402344,0.12388269603252411
189,3,64,61,0.3219340443611145,0.0662982314825058
189,3,64,62,0.4921691417694092,0.088561050593853
189,3,64,63,0.5137810111045837,0.064951591193676
189,4,128,0,0.302511602640152,0.0798165425658226
189,4,128,1,0.4348515272140503,0.14463163912296295
189,4,128,2,0.5632648468017578,0.10718414932489395
189,4,128,3,0.5411159992218018,0.17706692218780518
189,4,128,4,0.44341546297073364,0.18381670117378235
189,4,128,5,0.528194785118103,0.17993372678756714
189,4,128,6,0.4546782076358795,0.14386820793151855
189,4,128,7,0.5617594122886658,0.17143511772155762
189,4,128,8,0.5598134398460388,0.1303294152021408
189,4,128,9,0.72212815284729,0.12223875522613525
189,4,128,10,0.46776410937309265,0.07517987489700317
189,4,128,11,0.3174667954444885,0.15099535882472992
189,4,128,12,0.5252178311347961,0.07840458303689957
189,4,128,13,0.4483053386211395,0.08026760071516037
189,4,128,14,0.5833364725112915,0.11076229065656662
189,4,128,15,0.5981060862541199,0.17271113395690918
189,4,128,16,0.541883647441864,0.10309415310621262
189,4,128,17,0.622773289680481,0.10473397374153137
189,4,128,18,0.4774475693702698,0.12870731949806213
189,4,128,19,0.4743267595767975,0.06018241494894028
189,4,128,20,0.5576573014259338,0.23910178244113922
189,4,128,21,0.582819402217865,0.16224075853824615
189,4,128,22,0.5243570804595947,0.14113196730613708
189,4,128,23,0.5148130059242249,0.04388820379972458
189,4,128,24,0.6256829500198364,0.1585082858800888
189,4,128,25,0.6500287055969238,0.11063027381896973
189,4,128,26,0.5163177847862244,0.1298171579837799
189,4,128,27,0.49983176589012146,0.11472433060407639
189,4,128,28,0.40884265303611755,0.10991809517145157
189,4,128,29,0.5264619588851929,0.12193536013364792
189,4,128,30,0.5380091071128845,0.2682485580444336
189,4,128,31,0.5474902391433716,0.15697352588176727
189,4,128,32,0.5876410007476807,0.1889416128396988
189,4,128,33,0.4456509053707123,0.10518670082092285
189,4,128,34,0.381866455078125,0.08367836475372314
189,4,128,35,0.5409632325172424,0.042953647673130035
189,4,128,36,0.5086979269981384,0.12044363468885422
189,4,128,37,0.4130714535713196,0.08777783066034317
189,4,128,38,0.5293282866477966,0.11607615649700165
189,4,128,39,0.4136248826980591,0.09077583253383636
189,4,128,40,0.45762819051742554,0.13539132475852966
189,4,128,41,0.6949962973594666,0.08877532184123993
189,4,128,42,0.5352239012718201,0.17479775846004486
189,4,128,43,0.4125313460826874,0.1656801551580429
189,4,128,44,0.6027218103408813,0.10857252776622772
189,4,128,45,0.5885099768638611,0.10657967627048492
189,4,128,46,0.48485037684440613,0.12276662886142731
189,4,128,47,0.40883946418762207,0.1442297250032425
189,4,128,48,0.37747833132743835,0.09230893850326538
189,4,128,49,0.372601717710495,0.1257522702217102
189,4,128,50,0.49811846017837524,0.10798022896051407
189,4,128,51,0.5159330368041992,0.17731203138828278
189,4,128,52,0.5633333325386047,0.15649840235710144
189,4,128,53,0.5711601376533508,0.11848051100969315
189,4,128,54,0.517661452293396,0.1451670080423355
189,4,128,55,0.559429943561554,0.08592697232961655
189,4,128,56,0.6688048839569092,0.10395453870296478
189,4,128,57,0.5242262482643127,0.15576446056365967
189,4,128,58,0.5665849447250366,0.17911431193351746
189,4,128,59,0.5161427855491638,0.08099976927042007
189,4,128,60,0.5245689153671265,0.14748117327690125
189,4,128,61,0.37798839807510376,0.09568433463573456
189,4,128,62,0.6387783288955688,0.0894070416688919
189,4,128,63,0.4895550310611725,0.1420036405324936
189,4,128,64,0.3783816695213318,0.10706715285778046
189,4,128,65,0.5130806565284729,0.1465783417224884
189,4,128,66,0.5831265449523926,0.14840823411941528
189,4,128,67,0.515760064125061,0.15383824706077576
189,4,128,68,0.49565908312797546,0.10972487181425095
189,4,128,69,0.6557916402816772,0.15886695683002472
189,4,128,70,0.4672999083995819,0.04346999526023865
189,4,128,71,0.4652542769908905,0.08257493376731873
189,4,128,72,0.5234195590019226,0.06911467760801315
189,4,128,73,0.6282229423522949,0.07917430251836777
189,4,128,74,0.34897178411483765,0.12023810297250748
189,4,128,75,0.5689370036125183,0.18395771086215973
189,4,128,76,0.6010928153991699,0.06885049492120743
189,4,128,77,0.42100679874420166,0.12504565715789795
189,4,128,78,0.6471428275108337,0.07640129327774048
189,4,128,79,0.531586766242981,0.11179166287183762
189,4,128,80,0.361644446849823,0.0965132936835289
189,4,128,81,0.39538106322288513,0.13129685819149017
189,4,128,82,0.37505656480789185,0.0797194167971611
189,4,128,83,0.5009090304374695,0.13666778802871704
189,4,128,84,0.5192886590957642,0.14552393555641174
189,4,128,85,0.599773108959198,0.11564845591783524
189,4,128,86,0.517960250377655,0.07959849387407303
189,4,128,87,0.5163012742996216,0.07572869211435318
189,4,128,88,0.6045225262641907,0.15743069350719452
189,4,128,89,0.5328412055969238,0.11379143595695496
189,4,128,90,0.49795886874198914,0.05967064946889877
189,4,128,91,0.4926186800003052,0.043387312442064285
189,4,128,92,0.4435674846172333,0.11890678852796555
189,4,128,93,0.5488641262054443,0.13707350194454193
189,4,128,94,0.599642813205719,0.12098853290081024
189,4,128,95,0.39078521728515625,0.1404588520526886
189,4,128,96,0.495720773935318,0.07729616016149521
189,4,128,97,0.3771536350250244,0.12561386823654175
189,4,128,98,0.3961934745311737,0.1012769266963005
189,4,128,99,0.47041192650794983,0.09507773816585541
189,4,128,100,0.30794116854667664,0.10743024945259094
189,4,128,101,0.49594542384147644,0.09952487051486969
189,4,128,102,0.5769280195236206,0.09390326589345932
189,4,128,103,0.5303641557693481,0.1621140092611313
189,4,128,104,0.659559965133667,0.1432572901248932
189,4,128,105,0.6642681956291199,0.1513359695672989
189,4,128,106,0.5208911895751953,0.06225212663412094
189,4,128,107,0.5261846780776978,0.2166757732629776
189,4,128,108,0.5536433458328247,0.1870862990617752
189,4,128,109,0.39457303285598755,0.09118618816137314
189,4,128,110,0.5497051477432251,0.23405888676643372
189,4,128,111,0.5521720051765442,0.09937655180692673
189,4,128,112,0.5080115795135498,0.18826176226139069
189,4,128,113,0.6044937372207642,0.05404912680387497
189,4,128,114,0.5588624477386475,0.11110085248947144
189,4,128,115,0.5003710985183716,0.13274794816970825
189,4,128,116,0.583942174911499,0.07030468434095383
189,4,128,117,0.5528936386108398,0.1105293408036232
189,4,128,118,0.4708276689052582,0.08138306438922882
189,4,128,119,0.587051272392273,0.17951321601867676
189,4,128,120,0.503028392791748,0.08467572927474976
189,4,128,121,0.4330541789531708,0.06698006391525269
189,4,128,122,0.33933958411216736,0.10396313667297363
189,4,128,123,0.5250305533409119,0.08777453750371933
189,4,128,124,0.47907185554504395,0.18207170069217682
189,4,128,125,0.575016438961029,0.21656230092048645
189,4,128,126,0.45752549171447754,0.08633513003587723
189,4,128,127,0.4693918824195862,0.20326963067054749
189,5,128,0,0.518139660358429,0.09621625393629074
189,5,128,1,0.3810094892978668,0.08721538633108139
189,5,128,2,0.48864641785621643,0.029602447524666786
189,5,128,3,0.5897757411003113,0.09784797579050064
189,5,128,4,0.4395217299461365,0.08352325856685638
189,5,128,5,0.4889352023601532,0.04909255728125572
189,5,128,6,0.5615416765213013,0.18501801788806915
189,5,128,7,0.5616133809089661,0.0897614061832428
189,5,128,8,0.5085383057594299,0.052187781780958176
189,5,128,9,0.44501256942749023,0.05099814757704735
189,5,128,10,0.42989829182624817,0.1619052290916443
189,5,128,11,0.6230788230895996,0.09349384158849716
189,5,128,12,0.48563647270202637,0.06064200773835182
189,5,128,13,0.5545551776885986,0.11163389682769775
189,5,128,14,0.5183923840522766,0.09244760125875473
189,5,128,15,0.6180941462516785,0.14012768864631653
189,5,128,16,0.5012805461883545,0.1299019306898117
189,5,128,17,0.5342476963996887,0.12321930378675461
189,5,128,18,0.5638360977172852,0.164337620139122
189,5,128,19,0.5986407995223999,0.09273763746023178
189,5,128,20,0.4473155736923218,0.12459571659564972
189,5,128,21,0.5251040458679199,0.1483643501996994
189,5,128,22,0.6286569833755493,0.13548396527767181
189,5,128,23,0.5651332139968872,0.07026045769453049
189,5,128,24,0.4077110290527344,0.07668028026819229
189,5,128,25,0.5458661913871765,0.09717679023742676
189,5,128,26,0.4495670795440674,0.050553303211927414
189,5,128,27,0.41847091913223267,0.050713758915662766
189,5,128,28,0.5256029963493347,0.07690395414829254
189,5,128,29,0.45842668414115906,0.10455652326345444
189,5,128,30,0.5008047223091125,0.15957796573638916
189,5,128,31,0.40992096066474915,0.08561231940984726
189,5,128,32,0.5583980083465576,0.07202960550785065
189,5,128,33,0.47788292169570923,0.05716205760836601
189,5,128,34,0.5228782892227173,0.07862145453691483
189,5,128,35,0.5134038925170898,0.05104585364460945
189,5,128,36,0.6616036295890808,0.06267599761486053
189,5,128,37,0.4854294955730438,0.0916866660118103
189,5,128,38,0.6065645813941956,0.07821720838546753
189,5,128,39,0.5361647009849548,0.08945097774267197
189,5,128,40,0.5783621668815613,0.09874767065048218
189,5,128,41,0.45584604144096375,0.06152568757534027
189,5,128,42,0.5450125932693481,0.16570191085338593
189,5,128,43,0.43024101853370667,0.1438022404909134
189,5,128,44,0.47495874762535095,0.18969593942165375
189,5,128,45,0.5436540842056274,0.09103512763977051
189,5,128,46,0.6896578669548035,0.10825597494840622
189,5,128,47,0.45913365483283997,0.09377691149711609
189,5,128,48,0.46016427874565125,0.12381210178136826
189,5,128,49,0.5693283677101135,0.08035818487405777
189,5,128,50,0.4019072353839874,0.10725194960832596
189,5,128,51,0.4844408631324768,0.18516980111598969
189,5,128,52,0.4451344311237335,0.13219206035137177
189,5,128,53,0.5785006284713745,0.10903405398130417
189,5,128,54,0.5867024064064026,0.15563444793224335
189,5,128,55,0.5284719467163086,0.06461331248283386
189,5,128,56,0.5342808365821838,0.05333884432911873
189,5,128,57,0.4551105499267578,0.17316734790802002
189,5,128,58,0.6206751465797424,0.05626039579510689
189,5,128,59,0.5343217849731445,0.06492140144109726
189,5,128,60,0.558650553226471,0.12938085198402405
189,5,128,61,0.5096588730812073,0.042338356375694275
189,5,128,62,0.6051228642463684,0.10209303349256516
189,5,128,63,0.5301366448402405,0.08040712773799896
189,5,128,64,0.537818431854248,0.11852791160345078
189,5,128,65,0.6029243469238281,0.051037002354860306
189,5,128,66,0.6664817929267883,0.08433976769447327
189,5,128,67,0.5756452679634094,0.12364795804023743
189,5,128,68,0.5695810317993164,0.07228681445121765
189,5,128,69,0.5029110312461853,0.14215217530727386
189,5,128,70,0.49568361043930054,0.0624016635119915
189,5,128,71,0.5710601210594177,0.07730310410261154
189,5,128,72,0.6906101703643799,0.10838975757360458
189,5,128,73,0.5168773531913757,0.12969331443309784
189,5,128,74,0.5583207607269287,0.09777145832777023
189,5,128,75,0.5023879408836365,0.12211056053638458
189,5,128,76,0.6151593327522278,0.07701046764850616
189,5,128,77,0.41637924313545227,0.0734693855047226
189,5,128,78,0.4169778525829315,0.06536082923412323
189,5,128,79,0.6095622181892395,0.06763329356908798
189,5,128,80,0.6633706092834473,0.09292301535606384
189,5,128,81,0.46886110305786133,0.16103073954582214
189,5,128,82,0.6309259533882141,0.07855493575334549
189,5,128,83,0.4360789358615875,0.08015798032283783
189,5,128,84,0.6179016828536987,0.07609869539737701
189,5,128,85,0.5075429081916809,0.08715184032917023
189,5,128,86,0.4513603746891022,0.11703664064407349
189,5,128,87,0.49416860938072205,0.17430531978607178
189,5,128,88,0.5087313652038574,0.03944645822048187
189,5,128,89,0.47664475440979004,0.10466919094324112
189,5,128,90,0.5661102533340454,0.09951452910900116
189,5,128,91,0.47685855627059937,0.08361854404211044
189,5,128,92,0.5947300791740417,0.19889795780181885
189,5,128,93,0.5933389067649841,0.12999193370342255
189,5,128,94,0.6621968150138855,0.0762753039598465
189,5,128,95,0.5370179414749146,0.06154070422053337
189,5,128,96,0.601621687412262,0.08944670855998993
189,5,128,97,0.49143093824386597,0.11085416376590729
189,5,128,98,0.4767034947872162,0.1348143070936203
189,5,128,99,0.5555617213249207,0.07103079557418823
189,5,128,100,0.3971094489097595,0.0999579057097435
189,5,128,101,0.39519208669662476,0.1494322270154953
189,5,128,102,0.3972850739955902,0.04989485815167427
189,5,128,103,0.5391380786895752,0.1305859535932541
189,5,128,104,0.5028630495071411,0.20944561064243317
189,5,128,105,0.4527474641799927,0.14487358927726746
189,5,128,106,0.5116879343986511,0.1426985263824463
189,5,128,107,0.4319347143173218,0.09272035211324692
189,5,128,108,0.47560182213783264,0.07777217030525208
189,5,128,109,0.4726458191871643,0.06494159251451492
189,5,128,110,0.5009609460830688,0.09454858303070068
189,5,128,111,0.5702903270721436,0.14242637157440186
189,5,128,112,0.5472766757011414,0.12247947603464127
189,5,128,113,0.48430126905441284,0.15282702445983887
189,5,128,114,0.5456415414810181,0.13882645964622498
189,5,128,115,0.5311151742935181,0.13195888698101044
189,5,128,116,0.6075624823570251,0.06839237362146378
189,5,128,117,0.4627966582775116,0.062480803579092026
189,5,128,118,0.5084809064865112,0.02964630350470543
189,5,128,119,0.44715428352355957,0.17421934008598328
189,5,128,120,0.45821860432624817,0.06783219426870346
189,5,128,121,0.5610596537590027,0.08545546233654022
189,5,128,122,0.4091891050338745,0.10089040547609329
189,5,128,123,0.5612683892250061,0.02701115608215332
189,5,128,124,0.4818565845489502,0.16377411782741547
189,5,128,125,0.6209007501602173,0.12168139219284058
189,5,128,126,0.5759338140487671,0.06118873506784439
189,5,128,127,0.4703713059425354,0.1471613496541977
190,0,32,0,0.6921330094337463,0.08812741935253143
190,0,32,1,0.547243058681488,0.06432928144931793
190,0,32,2,0.49190160632133484,0.0601242259144783
190,0,32,3,0.47706520557403564,0.1422489583492279
190,0,32,4,0.29138216376304626,0.10562605410814285
190,0,32,5,0.6168326735496521,0.09613854438066483
190,0,32,6,0.38194581866264343,0.18085184693336487
190,0,32,7,0.42082297801971436,0.1261981725692749
190,0,32,8,0.48334693908691406,0.16301700472831726
190,0,32,9,0.5512052774429321,0.059592776000499725
190,0,32,10,0.334839791059494,0.06711101531982422
190,0,32,11,0.33698558807373047,0.09087464958429337
190,0,32,12,0.42101413011550903,0.11781661212444305
190,0,32,13,0.5494186878204346,0.1654902696609497
190,0,32,14,0.5979514122009277,0.06305452436208725
190,0,32,15,0.4212076663970947,0.07703956216573715
190,0,32,16,0.4301355481147766,0.17346252501010895
190,0,32,17,0.5205138325691223,0.09824238717556
190,0,32,18,0.37749290466308594,0.12550611793994904
190,0,32,19,0.5818816423416138,0.11418354511260986
190,0,32,20,0.4855586886405945,0.06827517598867416
190,0,32,21,0.519910454750061,0.13920561969280243
190,0,32,22,0.4772792458534241,0.10847198963165283
190,0,32,23,0.6494801640510559,0.07721436023712158
190,0,32,24,0.411002516746521,0.1164543554186821
190,0,32,25,0.47871801257133484,0.08378652483224869
190,0,32,26,0.4266831576824188,0.12771134078502655
190,0,32,27,0.46842285990715027,0.10195137560367584
190,0,32,28,0.5021370649337769,0.15125203132629395
190,0,32,29,0.49830755591392517,0.10067224502563477
190,0,32,30,0.5626345872879028,0.055879149585962296
190,0,32,31,0.5018193125724792,0.14456267654895782
190,1,32,0,0.42273521423339844,0.06322856992483139
190,1,32,1,0.5841109156608582,0.042631056159734726
190,1,32,2,0.40579599142074585,0.10898011177778244
190,1,32,3,0.45722490549087524,0.1178109273314476
190,1,32,4,0.5847838521003723,0.1113017126917839
190,1,32,5,0.4086397886276245,0.030869025737047195
190,1,32,6,0.3721393048763275,0.07667293399572372
190,1,32,7,0.47935980558395386,0.09731914103031158
190,1,32,8,0.5404857397079468,0.11231761425733566
190,1,32,9,0.47114744782447815,0.1322452872991562
190,1,32,10,0.394655704498291,0.12557518482208252
190,1,32,11,0.5716809034347534,0.06387236714363098
190,1,32,12,0.3327520489692688,0.0889415517449379
190,1,32,13,0.49260610342025757,0.0485636405646801
190,1,32,14,0.5566477179527283,0.06437359005212784
190,1,32,15,0.48896992206573486,0.0484011135995388
190,1,32,16,0.5440574288368225,0.08510760217905045
190,1,32,17,0.470684289932251,0.06420230120420456
190,1,32,18,0.4390767514705658,0.040536895394325256
190,1,32,19,0.5695556998252869,0.05423027649521828
190,1,32,20,0.518724262714386,0.10401669889688492
190,1,32,21,0.5567236542701721,0.06571492552757263
190,1,32,22,0.421022891998291,0.03906349465250969
190,1,32,23,0.6109558343887329,0.02533785067498684
190,1,32,24,0.5685403347015381,0.07178135216236115
190,1,32,25,0.5909759998321533,0.04877270385622978
190,1,32,26,0.49680230021476746,0.08646486699581146
190,1,32,27,0.46243816614151,0.02584804780781269
190,1,32,28,0.4394494295120239,0.09270702302455902
190,1,32,29,0.4471680521965027,0.09816041588783264
190,1,32,30,0.5610930919647217,0.12306216359138489
190,1,32,31,0.40847235918045044,0.03151374310255051
190,2,64,0,0.6217802166938782,0.2417358011007309
190,2,64,1,0.3640774190425873,0.14508992433547974
190,2,64,2,0.45862168073654175,0.12223231047391891
190,2,64,3,0.6686294078826904,0.0701926201581955
190,2,64,4,0.35165610909461975,0.16796596348285675
190,2,64,5,0.40977343916893005,0.14957517385482788
190,2,64,6,0.4753299653530121,0.17833492159843445
190,2,64,7,0.5926175713539124,0.11977961659431458
190,2,64,8,0.37511709332466125,0.14886042475700378
190,2,64,9,0.591501772403717,0.18408805131912231
190,2,64,10,0.31340381503105164,0.11640514433383942
190,2,64,11,0.48440831899642944,0.12009849399328232
190,2,64,12,0.4728766679763794,0.15910325944423676
190,2,64,13,0.5391320586204529,0.09976738691329956
190,2,64,14,0.6201127171516418,0.16533522307872772
190,2,64,15,0.6293274164199829,0.20311464369297028
190,2,64,16,0.5812981128692627,0.11915263533592224
190,2,64,17,0.6044040322303772,0.14909934997558594
190,2,64,18,0.427820086479187,0.1909552663564682
190,2,64,19,0.6158419847488403,0.13578000664710999
190,2,64,20,0.3869655430316925,0.1010746955871582
190,2,64,21,0.40369173884391785,0.12787705659866333
190,2,64,22,0.2946659028530121,0.1334531456232071
190,2,64,23,0.5560368299484253,0.14564771950244904
190,2,64,24,0.38117289543151855,0.09628099948167801
190,2,64,25,0.5237407088279724,0.17919734120368958
190,2,64,26,0.45883461833000183,0.13769285380840302
190,2,64,27,0.4361647665500641,0.08583373576402664
