subject,model,f1_sd,bal_acc_sd,acc_sd,f1_loso,bal_acc_loso,acc_loso,delta_f1,delta_bal_acc,delta_acc
1,RF,0.9156496131869464,0.9055464848252016,0.9318840579710144,0.4244719302484797,0.4193844570178091,0.5942028985507246,0.4911776829384667,0.48616202780739254,0.33768115942028976
2,RF,0.9024414646552074,0.9001293151936034,0.9365384615384617,0.7888253638319952,0.7877462801301559,0.8673076923076923,0.11361610082321216,0.11238303506344749,0.06923076923076932
3,RF,0.8108461677209935,0.7863892872550049,0.8787878787878788,0.7293101411536833,0.7057288933972274,0.835016835016835,0.08153602656731018,0.08066039385777746,0.043771043771043794
4,RF,0.8312001548370394,0.8229495678165417,0.8830935251798561,0.6360772198395307,0.6659637638897133,0.710431654676259,0.19512293499750866,0.15698580392682837,0.17266187050359705
5,RF,0.7594439508312556,0.7659577866268092,0.807909604519774,0.5250138663256095,0.5461028586976533,0.5353107344632768,0.23443008450564606,0.21985492792915595,0.2725988700564972
6,RF,0.7798181548680785,0.7725158245660535,0.8319039451114922,0.699018829547103,0.695039967538621,0.7787307032590052,0.08079932532097545,0.07747585702743254,0.05317324185248706
7,RF,0.9148679046809888,0.9138634420070528,0.935,0.6784551137528183,0.690616764880695,0.7483333333333333,0.23641279092817047,0.22324667712635782,0.18666666666666676
8,RF,0.7772572015857421,0.7725630958189098,0.8658536585365854,0.6651032270972994,0.6745607106072222,0.794425087108014,0.11215397448844266,0.09800238521168758,0.0714285714285714
9,RF,0.835294319532571,0.823076327272814,0.8629441624365483,0.734867379721895,0.7248639969876144,0.7901861252115059,0.10042693981067607,0.0982123302851996,0.07275803722504237
10,RF,0.78213592100104,0.7833827356853673,0.8722986247544204,0.5506051572212768,0.6050166938324834,0.6856581532416502,0.23153076377976323,0.17836604185288396,0.1866404715127702
11,RF,0.9210807111551198,0.9259178032806584,0.944015444015444,0.8257828021228495,0.8486320575216808,0.862934362934363,0.09529790903227031,0.07728574575897762,0.08108108108108103
12,RF,0.7851471793340074,0.7495941558441559,0.8500986193293886,0.6485721536922777,0.6168831168831168,0.7790927021696252,0.13657502564172963,0.13271103896103909,0.07100591715976334
13,RF,0.8798537935162141,0.8752692615962863,0.9308510638297872,0.8198306335963698,0.8156858774613501,0.8949468085106383,0.060023159919844304,0.059583384134936135,0.03590425531914887
14,RF,0.8316212625409477,0.829101791485551,0.8890322580645161,0.7151039692328178,0.7244380109489996,0.8270967741935484,0.11651729330812988,0.10466378053655134,0.0619354838709677
15,RF,0.8209095625648887,0.8238375963748039,0.8934426229508197,0.7169230990126512,0.7275932520837187,0.8295081967213115,0.1039864635522375,0.0962443442910852,0.06393442622950818
16,RF,0.8803947750003555,0.8702755577755578,0.919236417033774,0.8274899851876842,0.8086420523920523,0.8839941262848752,0.052904789812671216,0.06163350538350543,0.03524229074889884
17,RF,0.8350254244427551,0.8258226867982965,0.8947368421052632,0.7418135713974416,0.7328089254918523,0.8406827880512091,0.09321185304531343,0.09301376130644423,0.05405405405405406
18,RF,0.8624847528112822,0.8625678100968799,0.9109375,0.7672428207487914,0.7595220912808122,0.8546875,0.09524193206249087,0.10304571881606772,0.05624999999999991
19,RF,0.8169710366415649,0.8117612537144647,0.8743016759776536,0.7398205196354635,0.7364027888613999,0.8226256983240223,0.07715051700610143,0.07535846485306485,0.0516759776536313
20,RF,0.7768628419072097,0.7757353416408035,0.8747913188647746,0.6888198048192545,0.7039933391543919,0.8163606010016694,0.08804303708795513,0.0717420024864116,0.058430717863105164
21,RF,0.8250640739201986,0.8258767485572994,0.8962108731466227,0.7353950684232352,0.7377722129311723,0.8451400329489291,0.08966900549696344,0.08810453562612708,0.05107084019769359
22,RF,0.8270924963693004,0.8231210999858212,0.8767313019390581,0.6796865945850759,0.673643754678505,0.7867036011080333,0.14740590178422452,0.14947734530731616,0.09002770083102485
23,RF,0.880006149548949,0.8801718675505411,0.90625,0.7290606198132801,0.7484741801608705,0.7997159090909091,0.15094552973566888,0.13169768738967058,0.10653409090909094
24,RF,0.8805714320427578,0.8907918021800167,0.9310872894333844,0.7308889040153079,0.7630326755933686,0.8392036753445635,0.14968252802744986,0.12775912658664812,0.09188361408882084
25,RF,0.8268124392507554,0.8419497203549056,0.8993506493506493,0.696560892015101,0.7427100551802203,0.7435064935064936,0.13025154723565446,0.0992396651746853,0.15584415584415579
26,RF,0.8182768825342726,0.8184385047476818,0.8821292775665399,0.6820463112938842,0.6989946103555631,0.7782002534854245,0.1362305712403884,0.11944389439211867,0.10392902408111537
27,RF,0.8660500607781918,0.8612299758613123,0.9236311239193083,0.7717689026708487,0.76637590520079,0.8717579250720461,0.09428115810734305,0.09485407066052232,0.05187319884726227
28,RF,0.8443206663209741,0.8327464981348793,0.9014285714285716,0.7354245292418042,0.7230517569535193,0.8357142857142857,0.1088961370791699,0.10969474118136002,0.06571428571428584
29,RF,0.8018793923153057,0.7920403465142856,0.8777173913043478,0.7353123566026012,0.7264309382164171,0.8383152173913043,0.0665670357127045,0.06560940829786843,0.03940217391304346
30,RF,0.8654432815054126,0.8538018998545316,0.9235474006116208,0.6954600071736012,0.6999917375857226,0.8425076452599388,0.16998327433181137,0.15381016226880895,0.08103975535168195
31,RF,0.7410324703745386,0.7471085651936715,0.8443271767810027,0.6289474009175632,0.6454173486088379,0.7783641160949868,0.11208506945697538,0.1016912165848336,0.06596306068601587
32,RF,0.817954002269609,0.8146773146814892,0.8862973760932945,0.7595207950259852,0.7585234320515177,0.8440233236151603,0.058433207243623775,0.05615388262997145,0.042274052478134205
33,RF,0.9122604141936216,0.9156561662777634,0.9465317919075144,0.8009433980336332,0.7960016420361248,0.8815028901734104,0.11131701615998835,0.11965452424163858,0.06502890173410392
34,RF,0.8649135023581509,0.8674799746821806,0.9129746835443038,0.7892103918850752,0.7973953552574876,0.8670886075949367,0.07570311047307565,0.07008461942469302,0.04588607594936711
35,RF,0.7802067074738548,0.7841774080445383,0.8392018779342723,0.6689460392475081,0.690182334984885,0.7664319248826291,0.11126066822634673,0.09399507305965327,0.07276995305164313
36,RF,0.8277520770906126,0.8267804373522459,0.8869209809264306,0.7025865184783591,0.7205378250591017,0.8147138964577657,0.12516555861225354,0.10624261229314425,0.07220708446866486
37,RF,0.8842975654757151,0.8715988988244375,0.9323529411764706,0.812952474022901,0.8022980581587522,0.8955882352941177,0.07134509145281409,0.06930084066568531,0.03676470588235292
38,RF,0.8818568106811273,0.8724631870111456,0.932935916542474,0.7346218941336603,0.7221428529921086,0.8584202682563339,0.147234916547467,0.150320334019037,0.0745156482861401
39,RF,0.8599601063527931,0.8518217893217894,0.935064935064935,0.721654205873116,0.7219534632034631,0.8744588744588745,0.13830590047967706,0.12986832611832633,0.06060606060606055
40,RF,0.8488262599771923,0.8422297386247805,0.9228395061728396,0.7435841400115946,0.7411490951166578,0.8672839506172839,0.10524211996559774,0.10108064350812263,0.05555555555555569
1,SVM,0.916040376481204,0.9186132570823682,0.9347826086956522,0.5707287163538226,0.5555841348284978,0.6521739130434783,0.34531166012738135,0.3630291222538704,0.28260869565217395
2,SVM,0.9220391577835398,0.929898344702005,0.946153846153846,0.7174299353076767,0.7346708885281803,0.8134615384615385,0.2046092224758631,0.19522745617382475,0.13269230769230755
3,SVM,0.8782887996982569,0.8644138683707594,0.925925925925926,0.7900020681804211,0.7639487083940486,0.8703703703703703,0.08828673151783584,0.1004651599767108,0.05555555555555569
4,SVM,0.8302702747131457,0.8554096384405262,0.8705035971223022,0.6210204411719984,0.659900905355359,0.6924460431654677,0.20924983354114735,0.19550873308516725,0.17805755395683454
5,SVM,0.8199073506499214,0.8374602404208665,0.847457627118644,0.6265527779045328,0.6589171927892126,0.6581920903954802,0.1933545727453886,0.17854304763165396,0.18926553672316382
6,SVM,0.768408180035557,0.7820153557427998,0.823327615780446,0.654848474228193,0.6681441011632232,0.7221269296740995,0.11355970580736396,0.11387125457957659,0.10120068610634647
7,SVM,0.911556369631578,0.9184402294543254,0.9316666666666666,0.7045708929457513,0.7162933160926878,0.7333333333333333,0.20698547668582679,0.2021469133616376,0.19833333333333336
8,SVM,0.8557547360794425,0.8600828435130761,0.902439024390244,0.6683085514781051,0.6769245289594127,0.7770034843205574,0.18744618460133744,0.18315831455366338,0.1254355400696866
9,SVM,0.8746398025481548,0.8774221009959462,0.9052453468697124,0.7214513261959759,0.72809259510821,0.7631133671742809,0.15318847635217892,0.1493295058877362,0.14213197969543145
10,SVM,0.8818396284868295,0.8837741206162258,0.925343811394892,0.6303188451788809,0.6626186313686314,0.7465618860510805,0.2515207833079486,0.22115548924759443,0.17878192534381143
11,SVM,0.9059991837464916,0.9162293313648238,0.9305019305019304,0.7618901818665134,0.8066485838462045,0.7876447876447876,0.14410900187997822,0.10958074751861924,0.1428571428571428
12,SVM,0.8796590629611412,0.8738136863136863,0.9171597633136096,0.7267812218269535,0.7229645354645355,0.8165680473372781,0.15287784113418768,0.15084915084915074,0.10059171597633154
13,SVM,0.911501905224922,0.9177574344894952,0.9454787234042552,0.8347520415106737,0.8417967163064071,0.898936170212766,0.0767498637142483,0.07596071818308814,0.046542553191489255
14,SVM,0.8672505534109975,0.8734609553825374,0.9148387096774192,0.7174024767611928,0.7515400260462571,0.8270967741935484,0.1498480766498047,0.12192092933628029,0.08774193548387077
15,SVM,0.829228912859602,0.8407209050104161,0.90327868852459,0.7338132651218405,0.7622915242131194,0.839344262295082,0.09541564773776146,0.07842938079729667,0.06393442622950807
16,SVM,0.8870779843802893,0.8927385114885115,0.9295154185022028,0.7625690490412669,0.7796959984459985,0.8458149779735683,0.12450893533902241,0.113042513042513,0.08370044052863446
17,SVM,0.8360006161486407,0.8389161651356772,0.8975817923186344,0.7507655025440478,0.7535388730510681,0.8477951635846372,0.0852351136045929,0.08537729208460909,0.049786628733997196
18,SVM,0.8497635561253757,0.8535300455358595,0.90625,0.7057180268748326,0.7237019521176498,0.8234375,0.14404552925054304,0.12982809341820978,0.08281249999999996
19,SVM,0.8528802288435862,0.8567073053677352,0.9064245810055864,0.7146522180222579,0.7474425267867848,0.7849162011173184,0.1382280108213283,0.1092647785809504,0.12150837988826801
20,SVM,0.789481201547251,0.795765243210842,0.8714524207011686,0.6484884622437158,0.6653805527640101,0.7879799666110183,0.14099273930353518,0.13038469044683187,0.08347245409015025
21,SVM,0.8642866074473745,0.8757586379781513,0.914332784184514,0.7387310513412639,0.7645012145270615,0.8319604612850082,0.12555555610611058,0.1112574234510898,0.0823723228995058
22,SVM,0.8305520500545642,0.8393848295324445,0.8767313019390581,0.6277176958730973,0.6372991545044648,0.724376731301939,0.2028343541814669,0.2020856750279797,0.1523545706371191
23,SVM,0.8833808928980416,0.8921792410666145,0.9105113636363636,0.6844347884526456,0.7153552335094934,0.7471590909090909,0.19894610444539595,0.17682400755712113,0.1633522727272727
24,SVM,0.8917627190191264,0.9011514996810736,0.9326186830015314,0.7100034612643716,0.7621848708287959,0.8131699846860643,0.18175925775475477,0.13896662885227762,0.11944869831546712
25,SVM,0.7909998865055046,0.8203806611517647,0.8668831168831169,0.6444066174035437,0.692302069117859,0.7094155844155844,0.1465932691019609,0.1280785920339057,0.15746753246753253
26,SVM,0.8380527124935234,0.8449265741888587,0.8973384030418251,0.6326016040801323,0.6891061322100018,0.6831432192648923,0.2054511084133911,0.15582044197885692,0.2141951837769328
27,SVM,0.8835754278943647,0.8822627477426849,0.9337175792507204,0.824314155210103,0.8159425060346719,0.899135446685879,0.059261272684261734,0.06632024170801298,0.03458213256484144
28,SVM,0.8666322632465454,0.8702018716705401,0.9128571428571428,0.6820636706359846,0.6915085838878268,0.7957142857142857,0.1845685926105608,0.17869328778271332,0.1171428571428571
29,SVM,0.8455281586153529,0.8498664202598313,0.8967391304347826,0.7665294779906677,0.7674077116796625,0.8519021739130435,0.07899868062468518,0.0824587085801688,0.044836956521739135
30,SVM,0.8931440230127693,0.8925814160776566,0.9403669724770642,0.6709890717353404,0.6828196865790851,0.8333333333333334,0.2221549512774289,0.20976172949857153,0.10703363914373087
31,SVM,0.7540863275194519,0.7742533573645913,0.8535620052770448,0.6370231826871574,0.6948481790223062,0.7823218997361477,0.11706314483229452,0.07940517834228511,0.0712401055408971
32,SVM,0.8602077102378709,0.8641930304533831,0.912536443148688,0.7590755160054381,0.7594821480616631,0.8454810495626822,0.1011321942324328,0.10471088239172,0.06705539358600576
33,SVM,0.8749181671939148,0.8785748854895861,0.9277456647398844,0.7290783645435871,0.7372772448362285,0.8251445086705202,0.1458398026503277,0.1412976406533576,0.10260115606936415
34,SVM,0.8759068904080247,0.8979849776449041,0.9256329113924052,0.7336709179663732,0.7752033303706097,0.8449367088607594,0.14223597244165154,0.12278164727429441,0.08069620253164578
35,SVM,0.7983522788670732,0.8108135744862862,0.8556338028169014,0.684066675467838,0.718641860224595,0.7723004694835681,0.11428560339923521,0.09217171426169124,0.08333333333333326
36,SVM,0.860136263725583,0.862454581979527,0.9073569482288828,0.674589825379299,0.7068347570135904,0.7929155313351499,0.18554643834628404,0.15561982496593652,0.11444141689373288
37,SVM,0.8732441257049159,0.8759665113567159,0.9264705882352942,0.7574030860288699,0.7744693965736362,0.8544117647058823,0.11584103967604609,0.10149711478307966,0.07205882352941184
38,SVM,0.906327079893387,0.9100044454516928,0.9463487332339792,0.7015993166348302,0.7233530037306928,0.8137108792846498,0.2047277632585568,0.186651441721,0.13263785394932937
39,SVM,0.8700718965168097,0.8750919913419912,0.937950937950938,0.6981120277057993,0.7191215728715729,0.8455988455988456,0.17195986881101044,0.15597041847041837,0.09235209235209241
40,SVM,0.8813544705714356,0.8827095275574262,0.9382716049382716,0.7206023939321565,0.7384383239676073,0.8410493827160493,0.16075207663927904,0.14427120358981882,0.09722222222222221
