subject,channel,alpha,f1,drop_pp
156,0,1.0,0.6817796111136087,0.0
156,0,0.75,0.707931669003011,-2.6152057889402225
156,0,0.5,0.7107355092731182,-2.8955898159509497
156,0,0.25,0.6954550695763583,-1.3675458462749535
156,0,0.0,0.6759589245009638,0.5820686612644899
156,1,1.0,0.6817796111136087,0.0
156,1,0.75,0.659667654739408,2.2111956374200714
156,1,0.5,0.631275428247225,5.05041828663837
156,1,0.25,0.604994736409426,7.678487470418272
156,1,0.0,0.5852954327879747,9.648417832563405
156,2,1.0,0.6817796111136087,0.0
156,2,0.75,0.6880444684861935,-0.6264857372584753
156,2,0.5,0.6691414985941623,1.2638112519446465
156,2,0.25,0.6366823273177882,4.509728379582056
156,2,0.0,0.6073114368866107,7.446817422699803
156,3,1.0,0.6817796111136087,0.0
156,3,0.75,0.6820144034051523,-0.023479229154355075
156,3,0.5,0.6791513538618583,0.2628257251750421
156,3,0.25,0.659138538948672,2.2641072164936715
156,3,0.0,0.621530523526207,6.024908758740177
156,4,1.0,0.6817796111136087,0.0
156,4,0.75,0.670116785179933,1.1662825933675736
156,4,0.5,0.655301600106092,2.647801100751679
156,4,0.25,0.6351312817292073,4.664832938440144
156,4,0.0,0.6085826867885986,7.319692432501013
156,5,1.0,0.6817796111136087,0.0
156,5,0.75,0.6652794020817808,1.6500209031827917
156,5,0.5,0.6376422905727134,4.413732054089536
156,5,0.25,0.571153937685773,11.06256734278357
156,5,0.0,0.478124041828371,20.365556928523777
156,6,1.0,0.6817796111136087,0.0
156,6,0.75,0.6781668258247002,0.36127852889085155
156,6,0.5,0.6720723630745171,0.970724803909162
156,6,0.25,0.663220475330744,1.8559135782864722
156,6,0.0,0.6496758192129748,3.210379190063395
185,0,1.0,0.5897276857306079,0.0
185,0,0.75,0.583343353797089,0.6384331933518839
185,0,0.5,0.5649595821450795,2.476810358552839
185,0,0.25,0.5411276336798605,4.860005205074735
185,0,0.0,0.5261597438585451,6.356794187206272
185,1,1.0,0.5897276857306079,0.0
185,1,0.75,0.6287698408413576,-3.904215511074971
185,1,0.5,0.6383846279622467,-4.865694223163885
185,1,0.25,0.5784838670759802,1.1243818654627646
185,1,0.0,0.4512226110417431,13.850507468886475
185,2,1.0,0.5897276857306079,0.0
185,2,0.75,0.5753884638813427,1.4339221849265171
185,2,0.5,0.5455675242061968,4.416016152441104
185,2,0.25,0.5031400768852208,8.658760884538708
185,2,0.0,0.44810455882613254,14.162312690447532
185,3,1.0,0.5897276857306079,0.0
185,3,0.75,0.5836653430285521,0.6062342702055745
185,3,0.5,0.5752195490085636,1.4508136722044207
185,3,0.25,0.5630613630353272,2.6666322695280686
185,3,0.0,0.5360862601509857,5.364142557962214
185,4,1.0,0.5897276857306079,0.0
185,4,0.75,0.5778346734526422,1.1893012277965687
185,4,0.5,0.5674906339697016,2.223705176090629
185,4,0.25,0.5545144124194541,3.521327331115376
185,4,0.0,0.5433659427985307,4.636174293207718
185,5,1.0,0.5897276857306079,0.0
185,5,0.75,0.5881558293444394,0.15718563861684132
185,5,0.5,0.571436706501843,1.829097922876488
185,5,0.25,0.534814597561425,5.491308816918283
185,5,0.0,0.4316838757531293,15.804380997747858
185,6,1.0,0.5897276857306079,0.0
185,6,0.75,0.5797485772668876,0.9979108463720299
185,6,0.5,0.5559127972358151,3.381488849479275
185,6,0.25,0.5254017598178562,6.432592591275165
185,6,0.0,0.5113653080416704,7.83623776889375
186,0,1.0,0.7087821973377016,0.0
186,0,0.75,0.7030332266220954,0.5748970715606205
186,0,0.5,0.6980467844310808,1.0735412906620834
186,0,0.25,0.6550621516224104,5.372004571529121
186,0,0.0,0.6070826774618159,10.169951987588577
186,1,1.0,0.7087821973377016,0.0
186,1,0.75,0.6972947730642773,1.1487424273424307
186,1,0.5,0.656405808257319,5.237638908038267
186,1,0.25,0.5899411648265953,11.884103251110634
186,1,0.0,0.4936482629410356,21.513393439666608
186,2,1.0,0.7087821973377016,0.0
186,2,0.75,0.7030359433113061,0.5746254026395503
186,2,0.5,0.6755962157440247,3.3185981593676916
186,2,0.25,0.630944317178708,7.783788015899362
186,2,0.0,0.5805756175460397,12.820657979166194
186,3,1.0,0.7087821973377016,0.0
186,3,0.75,0.7115623318936531,-0.27801345559514967
186,3,0.5,0.697170216881238,1.161198045646361
186,3,0.25,0.670782605583029,3.79995917546726
186,3,0.0,0.6431214785274527,6.566071881024893
186,4,1.0,0.7087821973377016,0.0
186,4,0.75,0.7075677878464234,0.12144094912782677
186,4,0.5,0.697146986514051,1.16352108236506
186,4,0.25,0.673902241626404,3.487995571129765
186,4,0.0,0.6379571088657956,7.082508847190605
186,5,1.0,0.7087821973377016,0.0
186,5,0.75,0.7054871997954504,0.32949975422512656
186,5,0.5,0.6672536995426659,4.152849779503576
186,5,0.25,0.5921540102116065,11.662818712609512
186,5,0.0,0.49455821489283597,21.42239824448657
186,6,1.0,0.7087821973377016,0.0
186,6,0.75,0.7047407883058437,0.4041409031857901
186,6,0.5,0.7003005428484695,0.8481654489232104
186,6,0.25,0.6917515104160603,1.7030686921641336
186,6,0.0,0.6865816635556247,2.220053378207698
188,0,1.0,0.5111930858383232,0.0
188,0,0.75,0.5071784038378635,0.4014682000459735
188,0,0.5,0.50378852439874,0.7404561439583235
188,0,0.25,0.5003809965295547,1.0812089308768535
188,0,0.0,0.49104235574186694,2.0150730096456293
188,1,1.0,0.5111930858383232,0.0
188,1,0.75,0.49510174993922673,1.6091335899096504
188,1,0.5,0.47870219419037335,3.249089164794988
188,1,0.25,0.474408576914763,3.678450892356022
188,1,0.0,0.45159286809977184,5.960021773855139
188,2,1.0,0.5111930858383232,0.0
188,2,0.75,0.5069228024456822,0.42702833926410166
188,2,0.5,0.4953060967794435,1.5886989058879752
188,2,0.25,0.47035999351279045,4.083309232553278
188,2,0.0,0.45002864162419254,6.116444421413069
188,3,1.0,0.5111930858383232,0.0
188,3,0.75,0.49852747708812784,1.26656087501954
188,3,0.5,0.4880536559818893,2.3139429856433913
188,3,0.25,0.46906375233071124,4.2129333507612
188,3,0.0,0.45689833254927414,5.429475328904909
188,4,1.0,0.5111930858383232,0.0
188,4,0.75,0.505651922575947,0.5541163262376192
188,4,0.5,0.5039009639841019,0.7292121854221345
188,4,0.25,0.49815368714421016,1.303939869411308
188,4,0.0,0.48308567183037565,2.8107414007947584
188,5,1.0,0.5111930858383232,0.0
188,5,0.75,0.5489734010525132,-3.778031521419001
188,5,0.5,0.5671154362536266,-5.592235041530335
188,5,0.25,0.5323710671973869,-2.117798135906368
188,5,0.0,0.4577666619137432,5.342642392458003
188,6,1.0,0.5111930858383232,0.0
188,6,0.75,0.506916246955829,0.4276838882494194
188,6,0.5,0.5020919358133664,0.9101150024956817
188,6,0.25,0.5022556255914498,0.8937460246873474
188,6,0.0,0.5039003294020705,0.7292756436252712
189,0,1.0,0.6271527233732745,0.0
189,0,0.75,0.6139890349601818,1.316368841309279
189,0,0.5,0.6033078173270527,2.3844906046221803
189,0,0.25,0.5793748235396681,4.777789983360647
189,0,0.0,0.5513782137576425,7.577450961563203
189,1,1.0,0.6271527233732745,0.0
189,1,0.75,0.6231720390750097,0.3980684298264814
189,1,0.5,0.6171998541501285,0.9952869223146088
189,1,0.25,0.6063870781949021,2.0765645178372427
189,1,0.0,0.55584758736865,7.130513600462452
189,2,1.0,0.6271527233732745,0.0
189,2,0.75,0.6581282256162604,-3.097550224298584
189,2,0.5,0.6615895752136924,-3.4436851840417892
189,2,0.25,0.606326999891257,2.08257234820175
189,2,0.0,0.5434013839373429,8.37513394359316
189,3,1.0,0.6271527233732745,0.0
189,3,0.75,0.6224412535739714,0.47114697993031474
189,3,0.5,0.6192365020807498,0.7916221292524783
189,3,0.25,0.6193370627149166,0.7815660658357926
189,3,0.0,0.6148864840887508,1.226623928452375
189,4,1.0,0.6271527233732745,0.0
189,4,0.75,0.6198388264085165,0.7313896964758038
189,4,0.5,0.6108141088440016,1.6338614529272988
189,4,0.25,0.6040582694122067,2.3094453961067796
189,4,0.0,0.5836095180960421,4.354320527723243
189,5,1.0,0.6271527233732745,0.0
189,5,0.75,0.6235111214913828,0.3641601881891776
189,5,0.5,0.5858452932644602,4.1307430108814325
189,5,0.25,0.491078543720052,13.607417965322256
189,5,0.0,0.40367929984202033,22.34734235312542
189,6,1.0,0.6271527233732745,0.0
189,6,0.75,0.6388918518911431,-1.1739128517868513
189,6,0.5,0.6378813551044673,-1.0728631731192761
189,6,0.25,0.6395018196424281,-1.2349096269153592
189,6,0.0,0.6468391804271213,-1.968645705384675
190,0,1.0,0.5860182958029306,0.0
190,0,0.75,0.579319636649076,0.6698659153854591
190,0,0.5,0.5692111204592611,1.680717534366949
190,0,0.25,0.5491224201162317,3.6895875686698942
190,0,0.0,0.5318154285930522,5.420286720987844
190,1,1.0,0.5860182958029306,0.0
190,1,0.75,0.5548960091877906,3.112228661514005
190,1,0.5,0.5138336394378742,7.218465636505645
190,1,0.25,0.4748509270160635,11.116736878686712
190,1,0.0,0.45670605392220376,12.931224188072687
190,2,1.0,0.5860182958029306,0.0
190,2,0.75,0.5835842386725225,0.24340571304081182
190,2,0.5,0.5701727370859022,1.5845558717028418
190,2,0.25,0.5170593453011647,6.895895050176593
190,2,0.0,0.4764547676389884,10.956352816394222
190,3,1.0,0.5860182958029306,0.0
190,3,0.75,0.6388850453418565,-5.2866749538925895
190,3,0.5,0.6474092134265319,-6.1390917623601275
190,3,0.25,0.6437395560788315,-5.772126027590085
190,3,0.0,0.6290650029076017,-4.304670710467107
190,4,1.0,0.5860182958029306,0.0
190,4,0.75,0.5779902551965875,0.8028040606343101
190,4,0.5,0.5711205700572045,1.489772574572612
190,4,0.25,0.5588738825520595,2.7144413250871136
190,4,0.0,0.5472902790988088,3.872801670412185
190,5,1.0,0.5860182958029306,0.0
190,5,0.75,0.5822854974227414,0.37327983801892506
190,5,0.5,0.548025576843203,3.7992718959727667
190,5,0.25,0.5010678098849165,8.495048591801414
190,5,0.0,0.4602280360503679,12.579025975256275
190,6,1.0,0.5860182958029306,0.0
190,6,0.75,0.5822253374436506,0.3792958359280063
190,6,0.5,0.570548874924147,1.5469420878783668
190,6,0.25,0.5466155411161207,3.940275468680998
190,6,0.0,0.521938927451231,6.407936835169958
191,0,1.0,0.6368904520310816,0.0
191,0,0.75,0.6435404249057555,-0.6649972874673837
191,0,0.5,0.6291206948801751,0.7769757150906553
191,0,0.25,0.5807932266679896,5.609722536309203
191,0,0.0,0.5254846925140176,11.1405759517064
191,1,1.0,0.6368904520310816,0.0
191,1,0.75,0.6553645169478515,-1.847406491676984
191,1,0.5,0.6507263362208529,-1.383588418977122
191,1,0.25,0.6320131955138362,0.4877256517245465
191,1,0.0,0.5888132907413804,4.807716128970119
191,2,1.0,0.6368904520310816,0.0
191,2,0.75,0.6282810947781582,0.8609357252923444
191,2,0.5,0.6037842255789827,3.310622645209893
191,2,0.25,0.5488188959435012,8.807155608758045
191,2,0.0,0.5215394705993837,11.535098143169797
191,3,1.0,0.6368904520310816,0.0
191,3,0.75,0.6475926700109489,-1.0702217979867257
191,3,0.5,0.6564917036306476,-1.9601251599565939
191,3,0.25,0.6597750056127645,-2.2884553581682843
191,3,0.0,0.6643233197162881,-2.7432867685206475
191,4,1.0,0.6368904520310816,0.0
191,4,0.75,0.6326000311946984,0.4290420836383202
191,4,0.5,0.6245995645935681,1.2290887437513498
191,4,0.25,0.5964982901518733,4.039216187920836
191,4,0.0,0.5553159890184796,8.157446301260208
191,5,1.0,0.6368904520310816,0.0
191,5,0.75,0.628855384764377,0.8035067266704665
191,5,0.5,0.6101504185680486,2.6740033463032997
191,5,0.25,0.5697024029650382,6.718804906604348
191,5,0.0,0.5292867030485553,10.760374898252634
191,6,1.0,0.6368904520310816,0.0
191,6,0.75,0.6339742954984733,0.29161565326083494
191,6,0.5,0.6292450879071207,0.7645364123960885
191,6,0.25,0.6172212455229937,1.96692065080879
191,6,0.0,0.5984858558541049,3.840459617697678
192,0,1.0,0.42642246474597734,0.0
192,0,0.75,0.44014521029652565,-1.372274555054831
192,0,0.5,0.4439678292108711,-1.7545364464893742
192,0,0.25,0.42442431903759664,0.19981457083806942
192,0,0.0,0.4191993844671163,0.7223080278861038
192,1,1.0,0.42642246474597734,0.0
192,1,0.75,0.4195236971924529,0.6898767553524421
192,1,0.5,0.4056629646666738,2.075950007930355
192,1,0.25,0.3805132656741244,4.590919907185293
192,1,0.0,0.35358518364605007,7.283728109992726
192,2,1.0,0.42642246474597734,0.0
192,2,0.75,0.415644766163931,1.0777698582046358
192,2,0.5,0.3914176429444185,3.500482180155884
192,2,0.25,0.3583414940767983,6.808097066917906
192,2,0.0,0.3216243381716103,10.479812657436705
192,3,1.0,0.42642246474597734,0.0
192,3,0.75,0.43000292511302407,-0.3580460367046734
192,3,0.5,0.424929545448218,0.14929192977593542
192,3,0.25,0.4217165492108176,0.4705915535159755
192,3,0.0,0.41633564691831776,1.0086817827659578
192,4,1.0,0.42642246474597734,0.0
192,4,0.75,0.4281404854908927,-0.17180207449153384
192,4,0.5,0.4313058223803664,-0.4883357634389074
192,4,0.25,0.43110744421330316,-0.46849794673258227
192,4,0.0,0.3978121972156265,2.861026753035084
192,5,1.0,0.42642246474597734,0.0
192,5,0.75,0.4365785124097611,-1.0156047663783752
192,5,0.5,0.44935356065704324,-2.29310959110659
192,5,0.25,0.4481235228036964,-2.1701058057719047
192,5,0.0,0.42862565310665446,-0.2203188360677122
192,6,1.0,0.42642246474597734,0.0
192,6,0.75,0.4240618435445629,0.2360621201414448
192,6,0.5,0.4309886953216493,-0.4566230575671959
192,6,0.25,0.4342277717868229,-0.7805307040845588
192,6,0.0,0.4345580919214286,-0.8135627175451243
193,0,1.0,0.5190901371141963,0.0
193,0,0.75,0.5053686917131728,1.372144540102349
193,0,0.5,0.48470548193447366,3.4384655179722614
193,0,0.25,0.44458335517774916,7.450678193644711
193,0,0.0,0.4113756918074327,10.771444530676355
193,1,1.0,0.5190901371141963,0.0
193,1,0.75,0.510943666544506,0.8146470569690312
193,1,0.5,0.4995512925963702,1.953884451782606
193,1,0.25,0.47678238024540515,4.230775686879112
193,1,0.0,0.4507380761593283,6.835206095486796
193,2,1.0,0.5190901371141963,0.0
193,2,0.75,0.4890571868643825,3.0032950249813783
193,2,0.5,0.4615205632097974,5.756957390439887
193,2,0.25,0.44787366134672235,7.121647576747392
193,2,0.0,0.44850527548360475,7.058486163059152
193,3,1.0,0.5190901371141963,0.0
193,3,0.75,0.5197027056447842,-0.061256853058788696
193,3,0.5,0.5153322811090499,0.37578560051463317
193,3,0.25,0.5162309914327081,0.2859145681488151
193,3,0.0,0.5130653141212007,0.602482299299556
193,4,1.0,0.5190901371141963,0.0
193,4,0.75,0.5283960807466588,-0.930594363246251
193,4,0.5,0.541094306253215,-2.2004169139018703
193,4,0.25,0.5513323474395782,-3.224221032538188
193,4,0.0,0.5426892916011896,-2.3599154486993346
193,5,1.0,0.5190901371141963,0.0
193,5,0.75,0.49653983594180023,2.2550301172396034
193,5,0.5,0.46456002162317367,5.453011549102261
193,5,0.25,0.4340098417963436,8.508029531785265
193,5,0.0,0.40210763312846304,11.698250398573323
193,6,1.0,0.5190901371141963,0.0
193,6,0.75,0.5270814568457316,-0.7991319731535329
193,6,0.5,0.5373206968246942,-1.8230559710497918
193,6,0.25,0.5286678403781495,-0.9577703263953241
193,6,0.0,0.5259523336713605,-0.6862196557164246
194,0,1.0,0.66975156851866,0.0
194,0,0.75,0.6813175324780869,-1.1565963959426884
194,0,0.5,0.6672376045127161,0.2513964005943947
194,0,0.25,0.6123743923064748,5.737717621218518
194,0,0.0,0.5732730565587281,9.647851195993196
194,1,1.0,0.66975156851866,0.0
194,1,0.75,0.67557736172807,-0.5825793209410013
194,1,0.5,0.6695601341792463,0.01914343394137097
194,1,0.25,0.6284001781119705,4.135139040668956
194,1,0.0,0.5458589569156181,12.389261160304187
194,2,1.0,0.66975156851866,0.0
194,2,0.75,0.6812972738235947,-1.1545705304934706
194,2,0.5,0.6870674032437982,-1.7315834725138202
194,2,0.25,0.6490930448404904,2.065852367816967
194,2,0.0,0.5638436553829101,10.590791313574988
194,3,1.0,0.66975156851866,0.0
194,3,0.75,0.6664434260131121,0.3308142505547895
194,3,0.5,0.6587081728677157,1.1043395650944365
194,3,0.25,0.650612069179128,1.9139499339532073
194,3,0.0,0.6392598597486341,3.049170877002594
194,4,1.0,0.66975156851866,0.0
194,4,0.75,0.670392444294609,-0.0640875775948957
194,4,0.5,0.6663562964431388,0.33952720755212606
194,4,0.25,0.6498058006144232,1.9945767904236855
194,4,0.0,0.6216634872336738,4.808808128498621
194,5,1.0,0.66975156851866,0.0
194,5,0.75,0.6515735941631109,1.8177974355549131
194,5,0.5,0.6284830780527986,4.126849046586145
194,5,0.25,0.5964784663416987,7.327310217696137
194,5,0.0,0.5277877591823807,14.196380933627928
194,6,1.0,0.66975156851866,0.0
194,6,0.75,0.6748969415325509,-0.5145373013890842
194,6,0.5,0.6824009556755191,-1.2649387156859038
194,6,0.25,0.681899149701354,-1.214758118269399
194,6,0.0,0.6750100698783081,-0.5258501359648116
