subject,channel,alpha,f1,drop_pp
1,0,1.0,0.5716909995855107,0.0
1,0,0.75,0.5577264366738051,1.396456291170567
1,0,0.5,0.5327398404375544,3.8951159147956327
1,0,0.25,0.5080787184388639,6.361228114664685
1,0,0.0,0.4802418097931967,9.144918979231404
1,1,1.0,0.5716909995855107,0.0
1,1,0.75,0.6010310144351554,-2.9340014849644658
1,1,0.5,0.6222697216951848,-5.057872210967407
1,1,0.25,0.613245702198523,-4.155470261301231
1,1,0.0,0.5749237807474872,-0.323278116197645
1,2,1.0,0.5716909995855107,0.0
1,2,0.75,0.5741206014979638,-0.24296019124531165
1,2,0.5,0.5611310232595063,1.0559976326004472
1,2,0.25,0.5565089354485129,1.5182064136997853
1,2,0.0,0.49482842723486087,7.686257235064986
1,3,1.0,0.5716909995855107,0.0
1,3,0.75,0.5556155546827841,1.607544490272661
1,3,0.5,0.5459063959023673,2.5784603683143392
1,3,0.25,0.504093718155604,6.759728142990673
1,3,0.0,0.47823724121665423,9.34537583688565
1,4,1.0,0.5716909995855107,0.0
1,4,0.75,0.5601447607753416,1.154623881016914
1,4,0.5,0.5628312433218012,0.8859756263709495
1,4,0.25,0.5716938921770598,-0.0002892591549064072
1,4,0.0,0.5591888940074838,1.250210557802689
1,5,1.0,0.5716909995855107,0.0
1,5,0.75,0.503434253512285,6.825674607322574
1,5,0.5,0.44423664634102134,12.74543532444894
1,5,0.25,0.4164555912022822,15.523540838322852
1,5,0.0,0.3936585313422569,17.80324682432538
1,6,1.0,0.5716909995855107,0.0
1,6,0.75,0.5735436944008662,-0.1852694815355438
1,6,0.5,0.5874840793566724,-1.5793079771161622
1,6,0.25,0.6060089321457374,-3.431793256022664
1,6,0.0,0.6039624879899332,-3.227148840442251
1,7,1.0,0.5716909995855107,0.0
1,7,0.75,0.6035808851875862,-3.1889885602075507
1,7,0.5,0.6114837995767008,-3.979279999119012
1,7,0.25,0.6128158549682261,-4.112485538271537
1,7,0.0,0.6099577870810813,-3.8266787495570553
1,8,1.0,0.5716909995855107,0.0
1,8,0.75,0.5996233752379311,-2.793237565242035
1,8,0.5,0.6075860926147062,-3.589509302919547
1,8,0.25,0.6036825492551465,-3.19915496696358
1,8,0.0,0.5570666972730683,1.4624302312442383
2,0,1.0,0.7775171328614289,0.0
2,0,0.75,0.7689157664919253,0.8601366369503594
2,0,0.5,0.7511248948326852,2.6392238028743686
2,0,0.25,0.745218832023737,3.229830083769192
2,0,0.0,0.7326663703815574,4.485076247987152
2,1,1.0,0.7775171328614289,0.0
2,1,0.75,0.7702857184402844,0.72314144211445
2,1,0.5,0.7480889851449273,2.9428147716501596
2,1,0.25,0.7144147338638482,6.310239899758063
2,1,0.0,0.6857491128950841,9.176801996634476
2,2,1.0,0.7775171328614289,0.0
2,2,0.75,0.7822697640799612,-0.47526312185323105
2,2,0.5,0.77972867736951,-0.22115445080811424
2,2,0.25,0.7454726129379686,3.2044519923460246
2,2,0.0,0.6842837781822733,9.32333546791556
2,3,1.0,0.7775171328614289,0.0
2,3,0.75,0.7664419636688754,1.107516919255347
2,3,0.5,0.7579810901001113,1.9536042761317596
2,3,0.25,0.726635366088962,5.088176677246691
2,3,0.0,0.690700611303148,8.68165215582809
2,4,1.0,0.7775171328614289,0.0
2,4,0.75,0.7916653273337664,-1.4148194472337505
2,4,0.5,0.7988318656156712,-2.131473275424234
2,4,0.25,0.7863553275707541,-0.8838194709325231
2,4,0.0,0.7435620551964748,3.395507766495409
2,5,1.0,0.7775171328614289,0.0
2,5,0.75,0.7855186600794268,-0.8001527217997961
2,5,0.5,0.7481165274031767,2.9400605458252183
2,5,0.25,0.7288733673908091,4.864376547061977
2,5,0.0,0.5116118805257144,26.590525233571448
2,6,1.0,0.7775171328614289,0.0
2,6,0.75,0.7827700426722745,-0.5252909810845585
2,6,0.5,0.766451128544866,1.1066004316562905
2,6,0.25,0.74104526425955,3.64718686018789
2,6,0.0,0.7085379693182752,6.89791635431537
2,7,1.0,0.7775171328614289,0.0
2,7,0.75,0.7754960986165937,0.20210342448351293
2,7,0.5,0.7411938724659691,3.6323260395459744
2,7,0.25,0.7043496249841191,7.3167507877309745
2,7,0.0,0.686059282644418,9.14578502170109
2,8,1.0,0.7775171328614289,0.0
2,8,0.75,0.8015126504814523,-2.3995517620023388
2,8,0.5,0.7827915400643387,-0.5274407202909837
2,8,0.25,0.7362432113854398,4.127392147598908
2,8,0.0,0.7090932037738615,6.842392908756734
3,0,1.0,0.8551699406750304,0.0
3,0,0.75,0.8588632704056312,-0.36933297306007695
3,0,0.5,0.8781302380781637,-2.2960297403133323
3,0,0.25,0.8758668676725644,-2.0696926997534004
3,0,0.0,0.843341760854847,1.182817982018336
3,1,1.0,0.8551699406750304,0.0
3,1,0.75,0.8565159242509095,-0.13459835758791172
3,1,0.5,0.8354728029760209,1.9697137699009493
3,1,0.25,0.8102126914175849,4.495724925744549
3,1,0.0,0.7769787768009788,7.819116387405156
3,2,1.0,0.8551699406750304,0.0
3,2,0.75,0.8619678932178932,-0.6797952542862862
3,2,0.5,0.8370235256595873,1.8146415015443118
3,2,0.25,0.7997033824060558,5.546655826897462
3,2,0.0,0.7585276687033848,9.664227197164553
3,3,1.0,0.8551699406750304,0.0
3,3,0.75,0.7671719539084901,8.799798676654024
3,3,0.5,0.6449238477367363,21.02460929382941
3,3,0.25,0.6230887760035965,23.20811646714339
3,3,0.0,0.5892334501863581,26.593649048867228
3,4,1.0,0.8551699406750304,0.0
3,4,0.75,0.8531549512417305,0.20149894332999185
3,4,0.5,0.837639018506401,1.7530922168629393
3,4,0.25,0.7637659877614206,9.140395291360981
3,4,0.0,0.7201970600668688,13.49728806081616
3,5,1.0,0.8551699406750304,0.0
3,5,0.75,0.8460862872676328,0.9083653407397585
3,5,0.5,0.8079810077307518,4.718893294427861
3,5,0.25,0.7626279092034944,9.254203147153595
3,5,0.0,0.6873727925602156,16.779714811481483
3,6,1.0,0.8551699406750304,0.0
3,6,0.75,0.8524695313247759,0.2700409350254507
3,6,0.5,0.8504802747202393,0.46896659547910335
3,6,0.25,0.8272342982491132,2.7935642425917173
3,6,0.0,0.7602936371804296,9.487630349460074
3,7,1.0,0.8551699406750304,0.0
3,7,0.75,0.8395041768417284,1.5665763833301982
3,7,0.5,0.787743846109585,6.742609456544535
3,7,0.25,0.7336024588899976,12.156748178503275
3,7,0.0,0.6426503155715285,21.251962510350186
3,8,1.0,0.8551699406750304,0.0
3,8,0.75,0.8414593924997545,1.3710548175275838
3,8,0.5,0.8326987520520817,2.2471188622948723
3,8,0.25,0.8147255740586941,4.0444366616336325
3,8,0.0,0.6318294950264752,22.334044564855514
4,0,1.0,0.8271598780047666,0.0
4,0,0.75,0.8105859388945398,1.6573939110226865
4,0,0.5,0.7913179116996851,3.584196630508152
4,0,0.25,0.7494507761005956,7.770910190417101
4,0,0.0,0.6479966639005541,17.916321410421254
4,1,1.0,0.8271598780047666,0.0
4,1,0.75,0.7973269221000894,2.983295590467727
4,1,0.5,0.7667985386311582,6.036133937360844
4,1,0.25,0.7276025909438664,9.955728706090028
4,1,0.0,0.6633235217377612,16.383635626700542
4,2,1.0,0.8271598780047666,0.0
4,2,0.75,0.8004152023297906,2.674467567497607
4,2,0.5,0.780298656843805,4.68612211609617
4,2,0.25,0.7289630595420039,9.819681846276273
4,2,0.0,0.6561228426078602,17.103703539690642
4,3,1.0,0.8271598780047666,0.0
4,3,0.75,0.8339299072122496,-0.677002920748293
4,3,0.5,0.8214571613040933,0.5702716700673349
4,3,0.25,0.8043916601368575,2.276821786790917
4,3,0.0,0.7803603303243236,4.679954768044303
4,4,1.0,0.8271598780047666,0.0
4,4,0.75,0.7971364987206477,3.002337928411891
4,4,0.5,0.7406292319992067,8.653064600555993
4,4,0.25,0.6837408801464742,14.341899785829249
4,4,0.0,0.6701572152580296,15.700266274673702
4,5,1.0,0.8271598780047666,0.0
4,5,0.75,0.7936949158468318,3.346496215793482
4,5,0.5,0.6815018448646057,14.56580331401609
4,5,0.25,0.5565045062593674,27.065537174539923
4,5,0.0,0.4218983376579833,40.526154034678335
4,6,1.0,0.8271598780047666,0.0
4,6,0.75,0.8278068429382195,-0.06469649334528427
4,6,0.5,0.8125774584523061,1.4582419552460535
4,6,0.25,0.8043623023184614,2.279757568630525
4,6,0.0,0.7771480052928642,5.001187271190243
4,7,1.0,0.8271598780047666,0.0
4,7,0.75,0.7988668274177599,2.8293050587006707
4,7,0.5,0.7881538652895488,3.9006012715217864
4,7,0.25,0.7750856708503793,5.2074207154387375
4,7,0.0,0.7647552858299529,6.2404592174813756
4,8,1.0,0.8271598780047666,0.0
4,8,0.75,0.8191916477801947,0.7968230224571937
4,8,0.5,0.8188161823368711,0.8343695667895501
4,8,0.25,0.7998964861692772,2.7263391835489426
4,8,0.0,0.755053487569086,7.210639043568068
5,0,1.0,0.580054078317719,0.0
5,0,0.75,0.5966303241881665,-1.6576245870447481
5,0,0.5,0.5998738064765514,-1.9819728158832373
5,0,0.25,0.6015462773842173,-2.149219906649824
5,0,0.0,0.5725666004238761,0.7487477893842964
5,1,1.0,0.580054078317719,0.0
5,1,0.75,0.5865112493399947,-0.645717102227561
5,1,0.5,0.5758051996511904,0.4248878666528677
5,1,0.25,0.5588256298537867,2.122844846393235
5,1,0.0,0.5190828058774405,6.097127244027856
5,2,1.0,0.580054078317719,0.0
5,2,0.75,0.5802080012739798,-0.015392295626071029
5,2,0.5,0.5685377997078084,1.1516278609910668
5,2,0.25,0.5711138045767745,0.8940273740944527
5,2,0.0,0.5562562540903397,2.3797824227379305
5,3,1.0,0.580054078317719,0.0
5,3,0.75,0.6379189095847146,-5.78648312669956
5,3,0.5,0.6461241530740401,-6.607007475632109
5,3,0.25,0.6380828761815664,-5.80287978638474
5,3,0.0,0.5895620743361152,-0.9507996018396137
5,4,1.0,0.580054078317719,0.0
5,4,0.75,0.5601775848613104,1.9876493456408628
5,4,0.5,0.5431469201290173,3.6907158188701716
5,4,0.25,0.5130709522272805,6.698312609043855
5,4,0.0,0.5023877726731091,7.766630564460996
5,5,1.0,0.580054078317719,0.0
5,5,0.75,0.563259112321755,1.6794965995964084
5,5,0.5,0.5303707321027864,4.968334621493264
5,5,0.25,0.4998591799517089,8.019489836601013
5,5,0.0,0.4899813420592357,9.007273625848333
5,6,1.0,0.580054078317719,0.0
5,6,0.75,0.5783204102195201,0.17336680981989705
5,6,0.5,0.5702362271015365,0.9817851216182505
5,6,0.25,0.5650527195340642,1.5001358783654828
5,6,0.0,0.5516895728497581,2.8364505467960988
5,7,1.0,0.580054078317719,0.0
5,7,0.75,0.5761771273614226,0.38769509562964766
5,7,0.5,0.5724331008487346,0.7620977468984491
5,7,0.25,0.5516166276540587,2.8437450663660324
5,7,0.0,0.5198925621900178,6.016151612770127
5,8,1.0,0.580054078317719,0.0
5,8,0.75,0.5814497747388556,-0.1395696421136572
5,8,0.5,0.5654013775887573,1.4652700728961743
5,8,0.25,0.5374373797981953,4.261669851952377
5,8,0.0,0.49093039388397275,8.91236844337463
6,0,1.0,0.6175460365365708,0.0
6,0,0.75,0.6049309620724911,1.2615074464079723
6,0,0.5,0.5854392010253988,3.2106835511171994
6,0,0.25,0.5481573409174372,6.938869561913363
6,0,0.0,0.5324524016923843,8.509363484418653
6,1,1.0,0.6175460365365708,0.0
6,1,0.75,0.6205708242389929,-0.30247877024220937
6,1,0.5,0.670063273536365,-5.251723699979416
6,1,0.25,0.6560549332506749,-3.850889671410407
6,1,0.0,0.6237196101166933,-0.6173573580122493
6,2,1.0,0.6175460365365708,0.0
6,2,0.75,0.6205113569091557,-0.2965320372584901
6,2,0.5,0.613415314554557,0.41307219820138075
6,2,0.25,0.6016186834856363,1.5927353050934512
6,2,0.0,0.602976481799734,1.4569554736836854
6,3,1.0,0.6175460365365708,0.0
6,3,0.75,0.6041424916613176,1.3403544875253193
6,3,0.5,0.6014461320658799,1.6099904470690873
6,3,0.25,0.6095736680001841,0.797236853638672
6,3,0.0,0.609550857985813,0.799517855075782
6,4,1.0,0.6175460365365708,0.0
6,4,0.75,0.6768928210780388,-5.934678454146802
6,4,0.5,0.6667547491918202,-4.92087126552494
6,4,0.25,0.6589415629694325,-4.139552643286171
6,4,0.0,0.6458718932835941,-2.832585674702326
6,5,1.0,0.6175460365365708,0.0
6,5,0.75,0.5906006167034574,2.694541983311338
6,5,0.5,0.5560531539820174,6.1492882554553425
6,5,0.25,0.5073980307871826,11.014800574938821
6,5,0.0,0.44792880654128425,16.961722999528657
6,6,1.0,0.6175460365365708,0.0
6,6,0.75,0.5978272174491209,1.971881908744988
6,6,0.5,0.5688163365563051,4.872969998026566
6,6,0.25,0.5445098574815419,7.3036179055028905
6,6,0.0,0.5289409354306013,8.860510110596953
6,7,1.0,0.6175460365365708,0.0
6,7,0.75,0.5739357053449237,4.3610331191647145
6,7,0.5,0.5583857699118657,5.916026662470508
6,7,0.25,0.5456126440564287,7.193339248014208
6,7,0.0,0.5256870772549077,9.18589592816631
6,8,1.0,0.6175460365365708,0.0
6,8,0.75,0.6892797916694927,-7.173375513292191
6,8,0.5,0.6518919938872505,-3.434595735067969
6,8,0.25,0.6296789860146731,-1.2132949478102284
6,8,0.0,0.6061124755288206,1.143356100775017
7,0,1.0,0.6368779069852004,0.0
7,0,0.75,0.6388780419249194,-0.2000134939718956
7,0,0.5,0.5852169089790333,5.166099800616708
7,0,0.25,0.5665369608271786,7.034094615802178
7,0,0.0,0.5485830779214729,8.829482906372753
7,1,1.0,0.6368779069852004,0.0
7,1,0.75,0.6171208367705675,1.975707021463291
7,1,0.5,0.5967902784776271,4.00876285075733
7,1,0.25,0.6113026199676996,2.557528701750078
7,1,0.0,0.6516491739967349,-1.4771267011534528
7,2,1.0,0.6368779069852004,0.0
7,2,0.75,0.6288518020675944,0.8026104917606025
7,2,0.5,0.6267392010690511,1.0138705916149293
7,2,0.25,0.6163549557329977,2.0522951252202715
7,2,0.0,0.5849079903526906,5.196991663250983
7,3,1.0,0.6368779069852004,0.0
7,3,0.75,0.6360218457531804,0.08560612320199779
7,3,0.5,0.6315679262171574,0.530998076804301
7,3,0.25,0.6156148547329681,2.126305225223235
7,3,0.0,0.5960746220138116,4.080328497138885
7,4,1.0,0.6368779069852004,0.0
7,4,0.75,0.7315014117759789,-9.462350479077852
7,4,0.5,0.6910225654772999,-5.4144658492099484
7,4,0.25,0.6591417508774685,-2.22638438922681
7,4,0.0,0.627613575976336,0.9264331008864368
7,5,1.0,0.6368779069852004,0.0
7,5,0.75,0.6531014284541781,-1.6223521468977653
7,5,0.5,0.6306563020799275,0.6221604905272904
7,5,0.25,0.5928001855104077,4.407772147479272
7,5,0.0,0.5554900926381412,8.138781434705923
7,6,1.0,0.6368779069852004,0.0
7,6,0.75,0.6108151223581607,2.6062784627039703
7,6,0.5,0.5941228973498132,4.275500963538725
7,6,0.25,0.5648995530612165,7.197835392398389
7,6,0.0,0.5424442115666623,9.443369541853809
7,7,1.0,0.6368779069852004,0.0
7,7,0.75,0.6358004448343731,0.10774621508272686
7,7,0.5,0.6424938846593318,-0.5615977674131356
7,7,0.25,0.6354200199612792,0.1457887023921245
7,7,0.0,0.6306791737158848,0.6198733269315637
7,8,1.0,0.6368779069852004,0.0
7,8,0.75,0.7214243648915121,-8.454645790631165
7,8,0.5,0.7082069198917025,-7.1329012906502065
7,8,0.25,0.6741204491203565,-3.72425421351561
7,8,0.0,0.6029742725191262,3.390363446607425
8,0,1.0,0.7615743528067073,0.0
8,0,0.75,0.7576403533350047,0.3933999471702587
8,0,0.5,0.7589477551027319,0.2626597703975331
8,0,0.25,0.7126089698761412,4.896538293056607
8,0,0.0,0.6226784771681425,13.889587563856477
8,1,1.0,0.7615743528067073,0.0
8,1,0.75,0.7759067833583609,-1.4332430551653674
8,1,0.5,0.7993717964831929,-3.779744367648563
8,1,0.25,0.7781009267077379,-1.6526573901030628
8,1,0.0,0.737469771486741,2.410458131996629
8,2,1.0,0.7615743528067073,0.0
8,2,0.75,0.7695286041210819,-0.7954251314374661
8,2,0.5,0.7871888197066024,-2.5614466899895105
8,2,0.25,0.8010163131595118,-3.944196035280456
8,2,0.0,0.7946166936939754,-3.3042340887268096
8,3,1.0,0.7615743528067073,0.0
8,3,0.75,0.7723592876113261,-1.078493480461884
8,3,0.5,0.7725115310221693,-1.093717821546203
8,3,0.25,0.744750618489167,1.682373431754025
8,3,0.0,0.7132370271719222,4.8337325634785095
8,4,1.0,0.7615743528067073,0.0
8,4,0.75,0.7492114088491177,1.2362943957589523
8,4,0.5,0.7362615819260724,2.5312770880634883
8,4,0.25,0.7199255670958424,4.164878571086483
8,4,0.0,0.6955827391929192,6.599161361378803
8,5,1.0,0.7615743528067073,0.0
8,5,0.75,0.7522313367654497,0.9343016041257535
8,5,0.5,0.7270569228583168,3.4517429948390466
8,5,0.25,0.6375303525361209,12.404400027058637
8,5,0.0,0.5426713443776635,21.890300842904374
8,6,1.0,0.7615743528067073,0.0
8,6,0.75,0.7580730800299049,0.35012727768023444
8,6,0.5,0.7564777531249716,0.5096599681735703
8,6,0.25,0.7456498519529824,1.5924500853724877
8,6,0.0,0.737937655855975,2.3636696950732228
8,7,1.0,0.7615743528067073,0.0
8,7,0.75,0.7629881617840348,-0.14138089773275686
8,7,0.5,0.7664709178678356,-0.4896565061128344
8,7,0.25,0.7147964729570947,4.677787984961257
8,7,0.0,0.7061563598948534,5.54179929118539
8,8,1.0,0.7615743528067073,0.0
8,8,0.75,0.743883946805758,1.7690406000949288
8,8,0.5,0.7141888733795871,4.738547942712012
8,8,0.25,0.6697537977133723,9.182055509333498
8,8,0.0,0.6457961137997463,11.577823900696094
9,0,1.0,0.8049463314730363,0.0
9,0,0.75,0.8075349006006931,-0.25885691276568146
9,0,0.5,0.7902804936637637,1.4665837809272553
9,0,0.25,0.8017979603301888,0.3148371142847495
9,0,0.0,0.7689164320640365,3.602989940899981
9,1,1.0,0.8049463314730363,0.0
9,1,0.75,0.7882019210043527,1.674441046868358
9,1,0.5,0.7557138623445494,4.923246912848689
9,1,0.25,0.6983441280817984,10.660220339123793
9,1,0.0,0.6687611916517932,13.618513982124314
9,2,1.0,0.8049463314730363,0.0
9,2,0.75,0.8163336219414501,-1.1387290468413802
9,2,0.5,0.8104423506471574,-0.5496019174121125
9,2,0.25,0.800596116374263,0.43502150987733135
9,2,0.0,0.7428608967003076,6.208543477272865
9,3,1.0,0.8049463314730363,0.0
9,3,0.75,0.8114229742117105,-0.647664273867421
9,3,0.5,0.7923204557989016,1.2625875674134646
9,3,0.25,0.7213148844398048,8.363144703323144
9,3,0.0,0.676060530614409,12.888580085862733
9,4,1.0,0.8049463314730363,0.0
9,4,0.75,0.799576292982535,0.5370038490501328
9,4,0.5,0.7975003436485995,0.7445987824436839
9,4,0.25,0.7897889583767206,1.5157373096315707
9,4,0.0,0.7668867853659957,3.8059546107040543
9,5,1.0,0.8049463314730363,0.0
9,5,0.75,0.8057329718199283,-0.07866403468920202
9,5,0.5,0.7457874938453602,5.915883762767605
9,5,0.25,0.6733881939682761,13.15581375047602
9,5,0.0,0.5906518960850891,21.42944353879472
9,6,1.0,0.8049463314730363,0.0
9,6,0.75,0.7978936717705861,0.705265970245017
9,6,0.5,0.8012177650222596,0.37285664507766825
9,6,0.25,0.7995548331716182,0.5391498301418052
9,6,0.0,0.7662925912156398,3.865374025739654
9,7,1.0,0.8049463314730363,0.0
9,7,0.75,0.8051448799500462,-0.019854847700995215
9,7,0.5,0.7819484324395855,2.299789903345084
9,7,0.25,0.745194659491385,5.975167198165132
9,7,0.0,0.6360230750287148,16.892325644432148
9,8,1.0,0.8049463314730363,0.0
9,8,0.75,0.7985217977423376,0.6424533730698734
9,8,0.5,0.7885965326676141,1.63497988054222
9,8,0.25,0.7582284407172963,4.6717890755739955
9,8,0.0,0.6975126285388216,10.743370293421473
10,0,1.0,0.6823464067217896,0.0
10,0,0.75,0.6461308274929048,3.6215579228884742
10,0,0.5,0.6356732348111659,4.66731719106237
10,0,0.25,0.6335357705003598,4.881063622142978
10,0,0.0,0.5954563388969885,8.689006782480114
10,1,1.0,0.6823464067217896,0.0
10,1,0.75,0.7345454886349201,-5.219908191313049
10,1,0.5,0.7165604912612438,-3.421408453945418
10,1,0.25,0.67679237473502,0.5554031986769625
10,1,0.0,0.6289512209050754,5.33951858167142
10,2,1.0,0.6823464067217896,0.0
10,2,0.75,0.7246385426504044,-4.2292135928614805
10,2,0.5,0.6933523789776177,-1.1005972255828111
10,2,0.25,0.6109654624812182,7.13809442405714
10,2,0.0,0.5678690717182893,11.447733500350033
10,3,1.0,0.6823464067217896,0.0
10,3,0.75,0.6566950642222621,2.5651342499527496
10,3,0.5,0.5827382640325405,9.960814268924912
10,3,0.25,0.5446063444822626,13.774006223952695
10,3,0.0,0.5211622266417762,16.118418008001335
10,4,1.0,0.6823464067217896,0.0
10,4,0.75,0.6678816761924763,1.4464730529313297
10,4,0.5,0.6907181551281073,-0.8371748406317714
10,4,0.25,0.6872739018087854,-0.4927495086995859
10,4,0.0,0.6701089379891446,1.2237468732644974
10,5,1.0,0.6823464067217896,0.0
10,5,0.75,0.666712065121714,1.5634341600075596
10,5,0.5,0.6563067511647194,2.603965555707022
10,5,0.25,0.6346358401182962,4.771056660349338
10,5,0.0,0.6104016314464454,7.194477527534415
10,6,1.0,0.6823464067217896,0.0
10,6,0.75,0.6713868002873694,1.0959606434420177
10,6,0.5,0.6663363702968567,1.6010036424932927
10,6,0.25,0.6311104426665067,5.123596405528286
10,6,0.0,0.6381196397646521,4.422676695713745
10,7,1.0,0.6823464067217896,0.0
10,7,0.75,0.665075850331473,1.7270556390316605
10,7,0.5,0.6325950647984546,4.975134192333497
10,7,0.25,0.5699286025774656,11.241780414432402
10,7,0.0,0.4865637261604172,19.578268056137237
10,8,1.0,0.6823464067217896,0.0
10,8,0.75,0.7040790002680246,-2.1732593546235024
10,8,0.5,0.7023513440637739,-2.0004937341984275
10,8,0.25,0.6987015962283386,-1.6355189506549017
10,8,0.0,0.6728007129495571,0.9545693772232466
11,0,1.0,0.90880638265927,0.0
11,0,0.75,0.8968796916644909,1.1926690994779166
11,0,0.5,0.8944295351369388,1.437684752233126
11,0,0.25,0.8602658882670833,4.854049439218677
11,0,0.0,0.8364775370456631,7.232884561360697
11,1,1.0,0.90880638265927,0.0
11,1,0.75,0.9025798307648358,0.6226551894434218
11,1,0.5,0.8632422707097454,4.55641119495247
11,1,0.25,0.8319059112821952,7.69004713770749
11,1,0.0,0.7691522535352184,13.965412912405162
11,2,1.0,0.90880638265927,0.0
11,2,0.75,0.9035942495075315,0.5212133151738518
11,2,0.5,0.8837481793086677,2.505820335060238
11,2,0.25,0.8681450924983535,4.066129016091658
11,2,0.0,0.8490227269349091,5.978365572436095
11,3,1.0,0.90880638265927,0.0
11,3,0.75,0.9061428970023242,0.2663485656945852
11,3,0.5,0.8994552575329768,0.9351125126293214
11,3,0.25,0.8738224024578607,3.498398020140936
11,3,0.0,0.8186708022197502,9.013558043951985
11,4,1.0,0.90880638265927,0.0
11,4,0.75,0.9003351157442615,0.8471266915008546
11,4,0.5,0.8867172778396606,2.208910481960946
11,4,0.25,0.8372395833333334,7.1566799325936685
11,4,0.0,0.8181831884945567,9.062319416471333
11,5,1.0,0.90880638265927,0.0
11,5,0.75,0.9010426328702634,0.7763749789006624
11,5,0.5,0.8700830506487457,3.872333201052436
11,5,0.25,0.8214144528280762,8.73919298311938
11,5,0.0,0.7851513089149206,12.365507374434948
11,6,1.0,0.90880638265927,0.0
11,6,0.75,0.9041233577438801,0.4683024915389966
11,6,0.5,0.8949909086762535,1.3815473983016524
11,6,0.25,0.886273349082316,2.253303357695402
11,6,0.0,0.8835057133595365,2.5300669299733514
11,7,1.0,0.90880638265927,0.0
11,7,0.75,0.9175484342752052,-0.8742051615935109
11,7,0.5,0.900178151215761,0.8628231443509105
11,7,0.25,0.8408857407218645,6.792064193740554
11,7,0.0,0.7097230211712767,19.908336148799332
11,8,1.0,0.90880638265927,0.0
11,8,0.75,0.8998962908646859,0.891009179458413
11,8,0.5,0.8693786670152746,3.94277156439955
11,8,0.25,0.8291860329153146,7.962034974395548
11,8,0.0,0.7858490807282749,12.29573019309952
12,0,1.0,0.8602259483037257,0.0
12,0,0.75,0.8605054715227447,-0.027952321901902888
12,0,0.5,0.8439921434095108,1.6233804894214887
12,0,0.25,0.8166102713367909,4.361567696693481
12,0,0.0,0.7465556684513595,11.367027985236621
12,1,1.0,0.8602259483037257,0.0
12,1,0.75,0.8531200342330273,0.7105914070698383
12,1,0.5,0.8239584005626199,3.6267547741105743
12,1,0.25,0.7977902738562298,6.243567444749587
12,1,0.0,0.7332197667887344,12.700618151499132
12,2,1.0,0.8602259483037257,0.0
12,2,0.75,0.8530548801735243,0.7171068130201408
12,2,0.5,0.830509038709155,2.971690959457063
12,2,0.25,0.7852689649479536,7.495698335577206
12,2,0.0,0.7386545186842935,12.157142961943212
12,3,1.0,0.8602259483037257,0.0
12,3,0.75,0.8577862460120524,0.24397022916732292
12,3,0.5,0.8332705015414155,2.695544676231021
12,3,0.25,0.8180071759955398,4.221877230818583
12,3,0.0,0.7212884383676463,13.893750993607934
12,4,1.0,0.8602259483037257,0.0
12,4,0.75,0.824492153992838,3.5733794310887634
12,4,0.5,0.7717301409164323,8.849580738729335
12,4,0.25,0.6917746912743761,16.84512570293496
12,4,0.0,0.6172142938344558,24.301165446926987
12,5,1.0,0.8602259483037257,0.0
12,5,0.75,0.8226773675442752,3.7548580759450445
12,5,0.5,0.7936143595783174,6.661158872540829
12,5,0.25,0.7018762244966149,15.834972380711076
12,5,0.0,0.6368351303362749,22.339081796745074
12,6,1.0,0.8602259483037257,0.0
12,6,0.75,0.861493890518084,-0.12679422143583308
12,6,0.5,0.8585250430555982,0.17009052481274933
12,6,0.25,0.8419368967132608,1.82890515904649
12,6,0.0,0.8311736650700082,2.9052283233717446
12,7,1.0,0.8602259483037257,0.0
12,7,0.75,0.870238178851393,-1.0012230547667311
12,7,0.5,0.8581862034470189,0.2039744856706771
12,7,0.25,0.8060713973643325,5.415455093939315
12,7,0.0,0.7631906854856058,9.703526281811993
12,8,1.0,0.8602259483037257,0.0
12,8,0.75,0.8422985502767573,1.792739802696841
12,8,0.5,0.8104090773445248,4.981687095920084
12,8,0.25,0.7893497700311696,7.08761782725561
12,8,0.0,0.7321131297170358,12.811281858668988
13,0,1.0,0.884413188980651,0.0
13,0,0.75,0.878093108242416,0.6320080738234979
13,0,0.5,0.840165138043887,4.424805093676398
13,0,0.25,0.792275097077381,9.213809190327005
13,0,0.0,0.7351119373054887,14.930125167516229
13,1,1.0,0.884413188980651,0.0
13,1,0.75,0.8773480110800734,0.706517790057759
13,1,0.5,0.8764047848869279,0.8008404093723165
13,1,0.25,0.8558984496076467,2.8514739373004305
13,1,0.0,0.8288937980086173,5.551939097203373
13,2,1.0,0.884413188980651,0.0
13,2,0.75,0.8815155533194274,0.28976356612235854
13,2,0.5,0.8812193735592206,0.31938154214303793
13,2,0.25,0.8567578967835818,2.7655292197069192
13,2,0.0,0.8237645091734636,6.064867980718747
13,3,1.0,0.884413188980651,0.0
13,3,0.75,0.8831100265846029,0.13031623960481076
13,3,0.5,0.8714809027264769,1.2932286254174086
13,3,0.25,0.831460619382328,5.295256959832306
13,3,0.0,0.7899248571696428,9.448833181100824
13,4,1.0,0.884413188980651,0.0
13,4,0.75,0.8784677450198983,0.5945443960752694
13,4,0.5,0.8778372683226245,0.657592065802648
13,4,0.25,0.8567186136736088,2.7694575307042224
13,4,0.0,0.8072292760660758,7.718391291457527
13,5,1.0,0.884413188980651,0.0
13,5,0.75,0.879564708482858,0.4848480497793073
13,5,0.5,0.8696900000656531,1.472318891499791
13,5,0.25,0.7564311290201443,12.79820599605067
13,5,0.0,0.5823273202065709,30.208586877408017
13,6,1.0,0.884413188980651,0.0
13,6,0.75,0.8797137171623733,0.46994718182776785
13,6,0.5,0.8681199468658564,1.629324211479466
13,6,0.25,0.860775279404951,2.36379095757
13,6,0.0,0.8354035644900599,4.90096244905911
13,7,1.0,0.884413188980651,0.0
13,7,0.75,0.8849387327552389,-0.0525543774587911
13,7,0.5,0.881201188397684,0.32120005829670006
13,7,0.25,0.8591109863983499,2.530220258230109
13,7,0.0,0.821369573341084,6.304361563956706
13,8,1.0,0.884413188980651,0.0
13,8,0.75,0.8893667370990613,-0.49535481184103114
13,8,0.5,0.8702123995149607,1.4200789465690367
13,8,0.25,0.8330304963705173,5.138269261013373
13,8,0.0,0.8027583745031805,8.165481447747048
14,0,1.0,0.7959287381451827,0.0
14,0,0.75,0.7859280818830895,1.0000656262093233
14,0,0.5,0.7907558175601499,0.5172920585032825
14,0,0.25,0.7759212666727986,2.000747147238413
14,0,0.0,0.7569958616492138,3.8932876495968882
14,1,1.0,0.7959287381451827,0.0
14,1,0.75,0.7813504234014431,1.4578314743739607
14,1,0.5,0.7655246198733181,3.040411827186462
14,1,0.25,0.7475196233282355,4.840911481694721
14,1,0.0,0.7198852057694853,7.604353237569739
14,2,1.0,0.7959287381451827,0.0
14,2,0.75,0.786760827192161,0.9167910953021718
14,2,0.5,0.7402923249997718,5.563641314541091
14,2,0.25,0.7055160391324061,9.04126990127766
14,2,0.0,0.6784978083797468,11.74309297654359
14,3,1.0,0.7959287381451827,0.0
14,3,0.75,0.7927515830815111,0.3177155063671666
14,3,0.5,0.782499815464194,1.342892268098872
14,3,0.25,0.7283383272877615,6.7590410857421235
14,3,0.0,0.6985292922387983,9.739944590638439
14,4,1.0,0.7959287381451827,0.0
14,4,0.75,0.7889056721700036,0.7023065975179099
14,4,0.5,0.7841298128394903,1.1798925305692376
14,4,0.25,0.7388536904670255,5.707504767815719
14,4,0.0,0.7181239640663574,7.780477407882536
14,5,1.0,0.7959287381451827,0.0
14,5,0.75,0.7867499720060283,0.9178766139154471
14,5,0.5,0.7471548424602757,4.877389568490697
14,5,0.25,0.6946559739758329,10.127276416934983
14,5,0.0,0.6271145060195785,16.88142321256042
14,6,1.0,0.7959287381451827,0.0
14,6,0.75,0.7886844923433595,0.7244245801823257
14,6,0.5,0.7889419421791339,0.6986795966048787
14,6,0.25,0.7840349571047468,1.1893781040435925
14,6,0.0,0.7914410121497488,0.44877259954339
14,7,1.0,0.7959287381451827,0.0
14,7,0.75,0.800317943362407,-0.4389205217224301
14,7,0.5,0.7858326861217623,1.0096052023420454
14,7,0.25,0.7647650902913019,3.1163647853880816
14,7,0.0,0.7219871311614627,7.394160698371999
14,8,1.0,0.7959287381451827,0.0
14,8,0.75,0.7926006616142922,0.33280765308905114
14,8,0.5,0.7872204586880106,0.8708279457172119
14,8,0.25,0.7551135183154679,4.081521982971481
14,8,0.0,0.7013075106812868,9.46212274638959
15,0,1.0,0.8325595416170283,0.0
15,0,0.75,0.8478916933462388,-1.5332151729210541
15,0,0.5,0.827828139747202,0.4731401869826235
15,0,0.25,0.7995688506661405,3.29906909508878
15,0,0.0,0.7304816780103391,10.207786360668914
15,1,1.0,0.8325595416170283,0.0
15,1,0.75,0.8261155332921155,0.6444008324912764
15,1,0.5,0.8334987515052471,-0.09392098882188282
15,1,0.25,0.8206244454303461,1.1935096186682204
15,1,0.0,0.7817994068999508,5.076013471707752
15,2,1.0,0.8325595416170283,0.0
15,2,0.75,0.8159675727657592,1.6591968851269123
15,2,0.5,0.7971576649139602,3.5401876703068047
15,2,0.25,0.773336636041554,5.922290557547427
15,2,0.0,0.745034742198992,8.752479941803626
15,3,1.0,0.8325595416170283,0.0
15,3,0.75,0.8256223155239933,0.6937226093034932
15,3,0.5,0.7964861187000721,3.6073422916956144
15,3,0.25,0.7785636261385905,5.399591547843774
15,3,0.0,0.7403043564845182,9.225518513251007
15,4,1.0,0.8325595416170283,0.0
15,4,0.75,0.8275378209676147,0.502172064941353
15,4,0.5,0.8287159143076561,0.3843627309372155
15,4,0.25,0.769275595091014,6.328394652601432
15,4,0.0,0.6888475240688525,14.371201754817575
15,5,1.0,0.8325595416170283,0.0
15,5,0.75,0.8126712022187446,1.9888339398283716
15,5,0.5,0.7769788172112073,5.558072440582096
15,5,0.25,0.7072991126628788,12.526042895414946
15,5,0.0,0.5586573710395392,27.390217057748913
15,6,1.0,0.8325595416170283,0.0
15,6,0.75,0.8217480907272263,1.0811450889801955
15,6,0.5,0.8024471880470098,3.0112353570018513
15,6,0.25,0.7826962121811326,4.9863329435895665
15,6,0.0,0.7455595788289046,8.699996278812371
15,7,1.0,0.8325595416170283,0.0
15,7,0.75,0.8190016540962035,1.3557887520824763
15,7,0.5,0.8146533768344787,1.7906164782549583
15,7,0.25,0.8103334888364966,2.222605278053169
15,7,0.0,0.7645325203252031,6.802702129182514
15,8,1.0,0.8325595416170283,0.0
15,8,0.75,0.84227159901502,-0.9712057397991747
15,8,0.5,0.8079268858642786,2.4632655752749644
15,8,0.25,0.7913621530124402,4.11973886045881
15,8,0.0,0.759613743000435,7.294579861659322
16,0,1.0,0.8153878291750215,0.0
16,0,0.75,0.8054920606199755,0.9895768555046036
16,0,0.5,0.7950631394374389,2.0324689737582613
16,0,0.25,0.7565171637321748,5.88706654428467
16,0,0.0,0.7011869898363076,11.420083933871394
16,1,1.0,0.8153878291750215,0.0
16,1,0.75,0.8108819103894199,0.45059187856015814
16,1,0.5,0.7878999029358461,2.7487926239175398
16,1,0.25,0.786860848702954,2.8526980472067476
16,1,0.0,0.7792145927871721,3.6173236387849417
16,2,1.0,0.8153878291750215,0.0
16,2,0.75,0.8358626418054937,-2.047481263047224
16,2,0.5,0.834835171001034,-1.9447341826012488
16,2,0.25,0.8138865152620115,0.1501313913010005
16,2,0.0,0.7496988154480488,6.568901372697267
16,3,1.0,0.8153878291750215,0.0
16,3,0.75,0.8264923296554395,-1.1104500480418
16,3,0.5,0.8319768395397561,-1.658901036473459
16,3,0.25,0.8251549594651083,-0.9767130290086801
16,3,0.0,0.8115045447107357,0.38832844642857633
16,4,1.0,0.8153878291750215,0.0
16,4,0.75,0.7888006817767091,2.658714739831236
16,4,0.5,0.7576181897733316,5.776963940168988
16,4,0.25,0.7348932805815465,8.049454859347504
16,4,0.0,0.7109955064638969,10.439232271112465
16,5,1.0,0.8153878291750215,0.0
16,5,0.75,0.7606954747511756,5.469235442384591
16,5,0.5,0.716988017621696,9.839981155332556
16,5,0.25,0.6531093356386686,16.227849353635293
16,5,0.0,0.6217412289889184,19.364660018610312
16,6,1.0,0.8153878291750215,0.0
16,6,0.75,0.7938347055994115,2.155312357561001
16,6,0.5,0.780652796130046,3.4735033044975494
16,6,0.25,0.770220909095981,4.516692007904055
16,6,0.0,0.7709516464473067,4.443618272771477
16,7,1.0,0.8153878291750215,0.0
16,7,0.75,0.8324869927109587,-1.7099163535937212
16,7,0.5,0.8153508425313699,0.00369866436515931
16,7,0.25,0.7736640539904598,4.172377518456171
16,7,0.0,0.7470632331747934,6.832459600022811
16,8,1.0,0.8153878291750215,0.0
16,8,0.75,0.7932868628320767,2.2100966342944783
16,8,0.5,0.7872716396238038,2.811618955121775
16,8,0.25,0.7996755943775811,1.5712234797440439
16,8,0.0,0.7456590300801725,6.972879909484897
17,0,1.0,0.7846825158494393,0.0
17,0,0.75,0.7719216058246867,1.2760910024752548
17,0,0.5,0.7541759337214471,3.0506582127992177
17,0,0.25,0.6991119195797173,8.557059626972197
17,0,0.0,0.6544874193806125,13.019509646882677
17,1,1.0,0.7846825158494393,0.0
17,1,0.75,0.7871405760356516,-0.24580601862123075
17,1,0.5,0.7653686944745718,1.931382137486748
17,1,0.25,0.7289606241337536,5.5721891715685645
17,1,0.0,0.6724916265323087,11.219088931713062
17,2,1.0,0.7846825158494393,0.0
17,2,0.75,0.8020598391496194,-1.7377323300180159
17,2,0.5,0.7994338029622535,-1.475128711281426
17,2,0.25,0.6942712299185363,9.041128593090297
17,2,0.0,0.6052034854666213,17.947903038281797
17,3,1.0,0.7846825158494393,0.0
17,3,0.75,0.8014928966940691,-1.6810380844629824
17,3,0.5,0.8010598191852946,-1.6377303335855298
17,3,0.25,0.665485042073622,11.919747377581725
17,3,0.0,0.6522039730328973,13.247854281654192
17,4,1.0,0.7846825158494393,0.0
17,4,0.75,0.7777956438320325,0.6886872017406787
17,4,0.5,0.7505060606398727,3.417645520956658
17,4,0.25,0.7311281117176859,5.355440413175339
17,4,0.0,0.7169746593054696,6.770785654396971
17,5,1.0,0.7846825158494393,0.0
17,5,0.75,0.7584359372991104,2.624657855032886
17,5,0.5,0.7186482570837993,6.603425876563995
17,5,0.25,0.6765821239130029,10.81003919364364
17,5,0.0,0.633914936188582,15.07675796608573
17,6,1.0,0.7846825158494393,0.0
17,6,0.75,0.7814501923353117,0.3232323514127611
17,6,0.5,0.7787057446696001,0.5976771179839191
17,6,0.25,0.7806108141377164,0.4071701711722886
17,6,0.0,0.7759004901726181,0.8782025676821181
17,7,1.0,0.7846825158494393,0.0
17,7,0.75,0.7944278142327761,-0.974529838333682
17,7,0.5,0.7764190165557718,0.8263499293667431
17,7,0.25,0.7403088146665222,4.437370118291706
17,7,0.0,0.7030387177287738,8.164379812066546
17,8,1.0,0.7846825158494393,0.0
17,8,0.75,0.7912885826723947,-0.6606066822955392
17,8,0.5,0.7808497780020224,0.38327378474168894
17,8,0.25,0.7690567834880633,1.5625732361375988
17,8,0.0,0.7335506975865556,5.113181826288371
18,0,1.0,0.7198853004998593,0.0
18,0,0.75,0.7035008730465226,1.638442745333668
18,0,0.5,0.6965023751828209,2.338292531703845
18,0,0.25,0.6843497292664852,3.553557123337414
18,0,0.0,0.6744674068576897,4.541789364216964
18,1,1.0,0.7198853004998593,0.0
18,1,0.75,0.7164984157112122,0.33868847886471265
18,1,0.5,0.6827811317342709,3.710416876558842
18,1,0.25,0.66965740949155,5.022789100830938
18,1,0.0,0.6669881756833314,5.289712481652797
18,2,1.0,0.7198853004998593,0.0
18,2,0.75,0.7371113248807475,-1.722602438088816
18,2,0.5,0.7240737685899756,-0.4188468090116304
18,2,0.25,0.7087160900472973,1.1169210452562028
18,2,0.0,0.6801757973645128,3.970950313534649
18,3,1.0,0.7198853004998593,0.0
18,3,0.75,0.6958606251139836,2.4024675385875716
18,3,0.5,0.6800743284792286,3.9810972020630775
18,3,0.25,0.6253347941863422,9.455050631351714
18,3,0.0,0.5738147922257205,14.60705082741388
18,4,1.0,0.7198853004998593,0.0
18,4,0.75,0.719657399972511,0.022790052734833477
18,4,0.5,0.6953472191680363,2.4538081331823003
18,4,0.25,0.6562170627169125,6.366823778294684
18,4,0.0,0.6039321570088233,11.595314349103603
18,5,1.0,0.7198853004998593,0.0
18,5,0.75,0.7220251898129106,-0.2139889313051313
18,5,0.5,0.6716356200996905,4.824968040016886
18,5,0.25,0.5768353558937396,14.304994460611976
18,5,0.0,0.5176741228812226,20.22111776186367
18,6,1.0,0.7198853004998593,0.0
18,6,0.75,0.7353042137457955,-1.5418913245936139
18,6,0.5,0.733937348751093,-1.4052048251233629
18,6,0.25,0.7419942823240372,-2.2108981824177865
18,6,0.0,0.7404071192442555,-2.052181874439618
18,7,1.0,0.7198853004998593,0.0
18,7,0.75,0.7241096826583203,-0.4224382158460993
18,7,0.5,0.6957061064158534,2.417919408400593
18,7,0.25,0.6716929596352118,4.819234086464752
18,7,0.0,0.6556778675154029,6.420743298445641
18,8,1.0,0.7198853004998593,0.0
18,8,0.75,0.7226931122929701,-0.2807811793110737
18,8,0.5,0.6998260206182716,2.0059279881587733
18,8,0.25,0.6985275884584745,2.1357712041384813
18,8,0.0,0.6802043324430893,3.9680968056770016
19,0,1.0,0.8087404583074932,0.0
19,0,0.75,0.8130748624486603,-0.43344041411671475
19,0,0.5,0.7957115661747316,1.3028892132761594
19,0,0.25,0.7727777885138821,3.596266979361107
19,0,0.0,0.7555199906904748,5.322046761701838
19,1,1.0,0.8087404583074932,0.0
19,1,0.75,0.807225284247637,0.1515174059856239
19,1,0.5,0.8029078780776931,0.5832580229800044
19,1,0.25,0.7619544479041985,4.678601040329466
19,1,0.0,0.7363532648953218,7.238719341217137
19,2,1.0,0.8087404583074932,0.0
19,2,0.75,0.8090744107267855,-0.03339524192923493
19,2,0.5,0.7983835411345813,1.0356917172911873
19,2,0.25,0.7794725032842819,2.9267955023211334
19,2,0.0,0.7615309666146425,4.720949169285071
19,3,1.0,0.8087404583074932,0.0
19,3,0.75,0.7839659175877318,2.4774540719761373
19,3,0.5,0.681923310105312,12.681714820218115
19,3,0.25,0.5910770311002808,21.766342720721244
19,3,0.0,0.5480418564732291,26.069860183426407
19,4,1.0,0.8087404583074932,0.0
19,4,0.75,0.8185342686134344,-0.9793810305941175
19,4,0.5,0.801523915461624,0.7216542845869145
19,4,0.25,0.7510553364878768,5.768512181961638
19,4,0.0,0.6700163960032381,13.872406230425504
19,5,1.0,0.8087404583074932,0.0
19,5,0.75,0.8011353706072488,0.7605087700244373
19,5,0.5,0.6703746795795351,13.836577872795807
19,5,0.25,0.5436864892751592,26.505396903233404
19,5,0.0,0.4415747439255223,36.716571438197086
19,6,1.0,0.8087404583074932,0.0
19,6,0.75,0.8061432631890036,0.2597195118489548
19,6,0.5,0.8148175260980768,-0.607706779058359
19,6,0.25,0.8026949089408808,0.604554936661239
19,6,0.0,0.7864288233610539,2.2311634946439285
19,7,1.0,0.8087404583074932,0.0
19,7,0.75,0.8160313862040205,-0.72909278965273
19,7,0.5,0.8024825852493195,0.6257873058173713
19,7,0.25,0.7785589660635852,3.018149224390798
19,7,0.0,0.7454045784850891,6.333587982240408
19,8,1.0,0.8087404583074932,0.0
19,8,0.75,0.7886349323611359,2.0105525946357283
19,8,0.5,0.789968123386452,1.8772334921041245
19,8,0.25,0.7774405727227776,3.1299885584715637
19,8,0.0,0.7376268496060163,7.111360870147687
20,0,1.0,0.7833283199318877,0.0
20,0,0.75,0.7840583202966678,-0.07300003647801034
20,0,0.5,0.7944624308101554,-1.1134110878267767
20,0,0.25,0.777696576924121,0.5631743007766699
20,0,0.0,0.7228879264811258,6.044039345076191
20,1,1.0,0.7833283199318877,0.0
20,1,0.75,0.77847102525912,0.48572946727676314
20,1,0.5,0.7760454071850398,0.7282912746847892
20,1,0.25,0.7503517134676541,3.2976606464233615
20,1,0.0,0.7261398350116472,5.718848492024042
20,2,1.0,0.7833283199318877,0.0
20,2,0.75,0.7849048409169123,-0.15765209850245876
20,2,0.5,0.753122291918251,3.02060280136367
20,2,0.25,0.7259232545386457,5.740506539324198
20,2,0.0,0.7106390060983561,7.268931383353161
20,3,1.0,0.7833283199318877,0.0
20,3,0.75,0.78232420743348,0.10041124984077054
20,3,0.5,0.7711489643952517,1.217935553663596
20,3,0.25,0.7744185014795744,0.8909818452313312
20,3,0.0,0.7630653958255476,2.026292410634012
20,4,1.0,0.7833283199318877,0.0
20,4,0.75,0.7890161143472391,-0.5687794415351388
20,4,0.5,0.8019440024530522,-1.8615682521164523
20,4,0.25,0.7617973149695341,2.1531004962353606
20,4,0.0,0.7162884422923549,6.703987763953279
20,5,1.0,0.7833283199318877,0.0
20,5,0.75,0.79238956811766,-0.9061248185772364
20,5,0.5,0.7952859046617582,-1.1957584729870518
20,5,0.25,0.751138257202946,3.219006272894165
20,5,0.0,0.7070807149951355,7.62476049367522
20,6,1.0,0.7833283199318877,0.0
20,6,0.75,0.7759682826759224,0.7360037255965235
20,6,0.5,0.7582831480399013,2.5045171891986406
20,6,0.25,0.7669836922992069,1.6344627632680742
20,6,0.0,0.7602590530818629,2.306926685002475
20,7,1.0,0.7833283199318877,0.0
20,7,0.75,0.7646507475740235,1.8677572357864158
20,7,0.5,0.744976287429738,3.835203250214969
20,7,0.25,0.6869562939526728,9.63720259792149
20,7,0.0,0.6631496098090517,12.0178710122836
20,8,1.0,0.7833283199318877,0.0
20,8,0.75,0.7738435906043858,0.9484729327501884
20,8,0.5,0.7741767571222659,0.9151562809621816
20,8,0.25,0.740747819942854,4.258049998903369
20,8,0.0,0.7047526985574838,7.857562137440388
21,0,1.0,0.7528082231669675,0.0
21,0,0.75,0.7191515816962432,3.3656641470724336
21,0,0.5,0.6688787065638337,8.392951660313376
21,0,0.25,0.5281667793577192,22.464144380924832
21,0,0.0,0.4864907304183323,26.63174927486352
21,1,1.0,0.7528082231669675,0.0
21,1,0.75,0.7666496877040025,-1.3841464537035053
21,1,0.5,0.786231778844569,-3.342355567760147
21,1,0.25,0.8021336735257286,-4.932545035876112
21,1,0.0,0.7990494064046674,-4.624118323769988
21,2,1.0,0.7528082231669675,0.0
21,2,0.75,0.7662939232186021,-1.348570005163463
21,2,0.5,0.7670579489936794,-1.4249725826711912
21,2,0.25,0.7672657493384194,-1.4457526171451907
21,2,0.0,0.7427547020780219,1.0053521088945638
21,3,1.0,0.7528082231669675,0.0
21,3,0.75,0.7452258173085347,0.7582405858432839
21,3,0.5,0.7510671652663674,0.17410579006000848
21,3,0.25,0.7346002444780537,1.8207978688913773
21,3,0.0,0.6277569332551426,12.50512899118249
21,4,1.0,0.7528082231669675,0.0
21,4,0.75,0.7545023575397176,-0.16941343727501224
21,4,0.5,0.7536644083197842,-0.0856185152816713
21,4,0.25,0.7174399797408012,3.536824342616629
21,4,0.0,0.6809961495629517,7.181207360401576
21,5,1.0,0.7528082231669675,0.0
21,5,0.75,0.7561819122240439,-0.33736890570763567
21,5,0.5,0.7105488381880366,4.22593849789309
21,5,0.25,0.6042667806191186,14.854144254784885
21,5,0.0,0.5165847761845668,23.62234469824007
21,6,1.0,0.7528082231669675,0.0
21,6,0.75,0.7490743210689524,0.37339020980150517
21,6,0.5,0.7502074367822023,0.2600786384765241
21,6,0.25,0.7504577110960089,0.23505120709585992
21,6,0.0,0.7462737872348857,0.6534435932081806
21,7,1.0,0.7528082231669675,0.0
21,7,0.75,0.7399686103524292,1.283961281453827
21,7,0.5,0.7293346510705583,2.347357209640921
21,7,0.25,0.7217444117148937,3.106381145207382
21,7,0.0,0.6820279694771818,7.078025368978569
21,8,1.0,0.7528082231669675,0.0
21,8,0.75,0.7354233595035904,1.7384863663377104
21,8,0.5,0.7045508231125306,4.8257400054436905
21,8,0.25,0.6885512006364453,6.425702253052224
21,8,0.0,0.6788661547632435,7.394206840372397
22,0,1.0,0.6925861181623543,0.0
22,0,0.75,0.7108643401323734,-1.827822197001916
22,0,0.5,0.7082818478873786,-1.569572972502431
22,0,0.25,0.6940465025666118,-0.1460384404257553
22,0,0.0,0.6895024674201303,0.30836507422239423
22,1,1.0,0.6925861181623543,0.0
22,1,0.75,0.7115956319719903,-1.9009513809636003
22,1,0.5,0.7020066880503641,-0.9420569888009878
22,1,0.25,0.6702322446538624,2.235387350849183
22,1,0.0,0.6412165997747304,5.136951838762382
22,2,1.0,0.6925861181623543,0.0
22,2,0.75,0.6756232989726486,1.6962819189705658
22,2,0.5,0.6526970548393461,3.9889063323008123
22,2,0.25,0.6263807667940668,6.620535136828742
22,2,0.0,0.600691579515003,9.189453864735132
22,3,1.0,0.6925861181623543,0.0
22,3,0.75,0.6873346861426889,0.5251432019665381
22,3,0.5,0.6916805066948104,0.09056114675438653
22,3,0.25,0.6694584490645914,2.312766909776287
22,3,0.0,0.6391093961036572,5.347672205869703
22,4,1.0,0.6925861181623543,0.0
22,4,0.75,0.695055281490649,-0.24691633282947212
22,4,0.5,0.6629808589791393,2.9605259183214994
22,4,0.25,0.6292299108083602,6.335620735399406
22,4,0.0,0.6145387681281519,7.804735003420237
22,5,1.0,0.6925861181623543,0.0
22,5,0.75,0.6909583642220715,0.16277539402828056
22,5,0.5,0.6670362903225806,2.5549827839773664
22,5,0.25,0.6191148076815021,7.34713104808522
22,5,0.0,0.5750698028861738,11.751631527618045
22,6,1.0,0.6925861181623543,0.0
22,6,0.75,0.7041542137918656,-1.1568095629511332
22,6,0.5,0.7214861158557094,-2.889999769335516
22,6,0.25,0.7120075695891982,-1.9421451426843928
22,6,0.0,0.7002338189402006,-0.7647700777846378
22,7,1.0,0.6925861181623543,0.0
22,7,0.75,0.6612442330047914,3.1341885157562865
22,7,0.5,0.636143553203995,5.644256495835931
22,7,0.25,0.6051449226799779,8.744119548237638
22,7,0.0,0.5777124765038073,11.487364165854697
22,8,1.0,0.6925861181623543,0.0
22,8,0.75,0.6838613060263103,0.8724812136043925
22,8,0.5,0.6566897268083157,3.589639135403855
22,8,0.25,0.6190367382446038,7.354937991775046
22,8,0.0,0.5873304292151679,10.52556889471864
23,0,1.0,0.6686381247420874,0.0
23,0,0.75,0.6500177823781575,1.8620342363929843
23,0,0.5,0.627164138381914,4.147398636017341
23,0,0.25,0.5754490488313415,9.318907591074588
23,0,0.0,0.562236008066656,10.640211667543142
23,1,1.0,0.6686381247420874,0.0
23,1,0.75,0.6633790850247836,0.5259039717303793
23,1,0.5,0.6531102029589171,1.5527921783170306
23,1,0.25,0.6459255918983107,2.2712532843776723
23,1,0.0,0.6240649625883965,4.457316215369089
23,2,1.0,0.6686381247420874,0.0
23,2,0.75,0.680537459408945,-1.1899334666857553
23,2,0.5,0.6846496083652336,-1.6011483623146194
23,2,0.25,0.6691350958009126,-0.04969710588251797
23,2,0.0,0.6623656558064244,0.6272468935663023
23,3,1.0,0.6686381247420874,0.0
23,3,0.75,0.6883271591029385,-1.968903436085112
23,3,0.5,0.6889460402110391,-2.030791546895172
23,3,0.25,0.670633250554082,-0.19951258119945692
23,3,0.0,0.6507399226726998,1.7898202069387636
23,4,1.0,0.6686381247420874,0.0
23,4,0.75,0.66286408429689,0.5774040445197359
23,4,0.5,0.6298854224666262,3.8752702275461237
23,4,0.25,0.5776353282963124,9.100279644577503
23,4,0.0,0.5363334034062799,13.23047213358075
23,5,1.0,0.6686381247420874,0.0
23,5,0.75,0.652758425119839,1.5879699622248444
23,5,0.5,0.5890812806571096,7.955684408497776
23,5,0.25,0.49419165531510056,17.444646942698682
23,5,0.0,0.4191242182344649,24.95139065076225
23,6,1.0,0.6686381247420874,0.0
23,6,0.75,0.6775569454817029,-0.8918820739615474
23,6,0.5,0.6806065029903624,-1.1968378248275013
23,6,0.25,0.6722566604129394,-0.3618535670852019
23,6,0.0,0.6403341520045145,2.83039727375729
23,7,1.0,0.6686381247420874,0.0
23,7,0.75,0.660411600498177,0.8226524243910349
23,7,0.5,0.6555432921707176,1.3094832571369786
23,7,0.25,0.5949830963253184,7.365502841676896
23,7,0.0,0.56044600869323,10.819211604885737
23,8,1.0,0.6686381247420874,0.0
23,8,0.75,0.6575398411266551,1.1098283615432303
23,8,0.5,0.6279479624127247,4.069016232936273
23,8,0.25,0.6271772541279268,4.146087061416059
23,8,0.0,0.586116600749753,8.252152399233436
24,0,1.0,0.7222903976351954,0.0
24,0,0.75,0.6797469567426887,4.254344089250672
24,0,0.5,0.6290823863998567,9.320801123533872
24,0,0.25,0.5967895224377557,12.550087519743968
24,0,0.0,0.5852231575063835,13.706724012881189
24,1,1.0,0.7222903976351954,0.0
24,1,0.75,0.707729939675577,1.4560457959618467
24,1,0.5,0.7017275139826358,2.056288365255965
24,1,0.25,0.6671927334145066,5.509766422068885
24,1,0.0,0.6340968851197469,8.819351251544848
24,2,1.0,0.7222903976351954,0.0
24,2,0.75,0.7222967018803574,-0.0006304245162014332
24,2,0.5,0.6978241923326365,2.446620530255894
24,2,0.25,0.6835143550611653,3.877604257403011
24,2,0.0,0.640795757691529,8.149463994366645
24,3,1.0,0.7222903976351954,0.0
24,3,0.75,0.7401999035294439,-1.7909505894248445
24,3,0.5,0.770021990750108,-4.773159311491259
24,3,0.25,0.7767178644483115,-5.442746681311606
24,3,0.0,0.7593392852337657,-3.704888759857028
24,4,1.0,0.7222903976351954,0.0
24,4,0.75,0.7408659584873645,-1.8575560852169049
24,4,0.5,0.6959148966550283,2.6375500980167166
24,4,0.25,0.6352647054259958,8.702569220919965
24,4,0.0,0.5528430573663624,16.944734026883303
24,5,1.0,0.7222903976351954,0.0
24,5,0.75,0.6364704790634133,8.581991857178217
24,5,0.5,0.5163025093030198,20.59878883321756
24,5,0.25,0.42260740092520244,29.9682996709993
24,5,0.0,0.372350089577433,34.99403080577624
24,6,1.0,0.7222903976351954,0.0
24,6,0.75,0.6928800486250735,2.941034901012196
24,6,0.5,0.6779618790357538,4.432851859944165
24,6,0.25,0.6518041513376587,7.048624629753675
24,6,0.0,0.6320992691824877,9.019112845270772
24,7,1.0,0.7222903976351954,0.0
24,7,0.75,0.706598267788656,1.5692129846539449
24,7,0.5,0.6834910849951509,3.8799312640044548
24,7,0.25,0.619852894841235,10.243750279396046
24,7,0.0,0.5617315874053744,16.0558810229821
24,8,1.0,0.7222903976351954,0.0
24,8,0.75,0.7157726042109502,0.6517793424245188
24,8,0.5,0.7211037146316557,0.11866830035397458
24,8,0.25,0.7118449175009542,1.044548013424118
24,8,0.0,0.6894715442814796,3.2818853353715816
25,0,1.0,0.7726283789451485,0.0
25,0,0.75,0.7566440957321956,1.5984283212952866
25,0,0.5,0.7411508303830683,3.147754856208018
25,0,0.25,0.7160364802797256,5.659189866542292
25,0,0.0,0.6910666635305382,8.15617154146102
25,1,1.0,0.7726283789451485,0.0
25,1,0.75,0.7762509892801822,-0.3622610335033749
25,1,0.5,0.7855706558361402,-1.29422768909917
25,1,0.25,0.7494841412266288,2.31442377185197
25,1,0.0,0.7211927458104592,5.143563313468924
25,2,1.0,0.7726283789451485,0.0
25,2,0.75,0.7642579308462736,0.8370448098874883
25,2,0.5,0.7471890484869628,2.5439330458185694
25,2,0.25,0.682587436143555,9.004094280159347
25,2,0.0,0.6428058667298069,12.982251221534158
25,3,1.0,0.7726283789451485,0.0
25,3,0.75,0.7797510469216142,-0.7122667976465769
25,3,0.5,0.7726718829577334,-0.0043504012584905105
25,3,0.25,0.7432480031582627,2.9380375786885793
25,3,0.0,0.7055745020784008,6.705387686674769
25,4,1.0,0.7726283789451485,0.0
25,4,0.75,0.7604829882905544,1.214539065459408
25,4,0.5,0.7302963064174288,4.233207252771964
25,4,0.25,0.646362760296572,12.626561864857644
25,4,0.0,0.600742543045143,17.18858359000055
25,5,1.0,0.7726283789451485,0.0
25,5,0.75,0.7292449736415674,4.338340530358109
25,5,0.5,0.6779943951630698,9.463398378207867
25,5,0.25,0.6381758753066495,13.445250363849892
25,5,0.0,0.4912334282110675,28.139495073408092
25,6,1.0,0.7726283789451485,0.0
25,6,0.75,0.7634263654755458,0.9202013469602699
25,6,0.5,0.7610389531193313,1.1589425825817123
25,6,0.25,0.7600418423861919,1.2586536558956585
25,6,0.0,0.7593636306848242,1.326474826032431
25,7,1.0,0.7726283789451485,0.0
25,7,0.75,0.7680278413955588,0.4600537549589667
25,7,0.5,0.7582818352287437,1.4346543716404758
25,7,0.25,0.7277504443540288,4.487793459111966
25,7,0.0,0.673912167511147,9.871621143400144
25,8,1.0,0.7726283789451485,0.0
25,8,0.75,0.7886054865087123,-1.5977107563563853
25,8,0.5,0.7898762487761121,-1.7247869830963602
25,8,0.25,0.7607386433860293,1.1889735559119208
25,8,0.0,0.7322310987194152,4.03972802257333
26,0,1.0,0.6832270145833993,0.0
26,0,0.75,0.6666978208411579,1.6529193742241377
26,0,0.5,0.6440047029623691,3.922231162103018
26,0,0.25,0.6354109275027179,4.781608708068141
26,0,0.0,0.5928167735316381,9.04102410517612
26,1,1.0,0.6832270145833993,0.0
26,1,0.75,0.6846943269908385,-0.14673124074392474
26,1,0.5,0.686425430333439,-0.31984157500396515
26,1,0.25,0.6653262106899385,1.7900803893460826
26,1,0.0,0.6227443006782392,6.048271390516014
26,2,1.0,0.6832270145833993,0.0
26,2,0.75,0.6840382645030585,-0.0811249919659196
26,2,0.5,0.685919046022932,-0.26920314395326717
26,2,0.25,0.6873724239658343,-0.4145409382435017
26,2,0.0,0.6747395950241343,0.8487419559265019
26,3,1.0,0.6832270145833993,0.0
26,3,0.75,0.6807293567320638,0.24976578513354886
26,3,0.5,0.6681203455880544,1.5106668995344852
26,3,0.25,0.6567657988890865,2.646121569431281
26,3,0.0,0.6479153416460807,3.5311672937318628
26,4,1.0,0.6832270145833993,0.0
26,4,0.75,0.664366003425345,1.8861011158054275
26,4,0.5,0.6562741767879694,2.6952837795429896
26,4,0.25,0.6251659537877823,5.806106079561701
26,4,0.0,0.592684064282488,9.054295030091131
26,5,1.0,0.6832270145833993,0.0
26,5,0.75,0.672549930188765,1.0677084394634329
26,5,0.5,0.6516245943225554,3.160242026084392
26,5,0.25,0.5310306779096147,15.219633667378464
26,5,0.0,0.42718959181563776,25.603742276776153
26,6,1.0,0.6832270145833993,0.0
26,6,0.75,0.6945095353607957,-1.1282520777396443
26,6,0.5,0.6904930217155177,-0.7266007132118446
26,6,0.25,0.6976513784615215,-1.4424363878122182
26,6,0.0,0.6801368169427966,0.3090197640602699
26,7,1.0,0.6832270145833993,0.0
26,7,0.75,0.6852008179034093,-0.19738033200099592
26,7,0.5,0.6691973549219997,1.4029659661399574
26,7,0.25,0.6604759726193317,2.275104196406763
26,7,0.0,0.643624747187059,3.960226739634032
26,8,1.0,0.6832270145833993,0.0
26,8,0.75,0.6675153257720614,1.5711688811337887
26,8,0.5,0.6467574216781772,3.6469592905222115
26,8,0.25,0.6355648500154106,4.766216456798866
26,8,0.0,0.5774958901406214,10.573112444277788
27,0,1.0,0.8557857985175689,0.0
27,0,0.75,0.8691776007682811,-1.3391802250712237
27,0,0.5,0.8832117623501816,-2.7425963832612754
27,0,0.25,0.855433480792845,0.03523177247238829
27,0,0.0,0.7967617553342379,5.902404318333099
27,1,1.0,0.8557857985175689,0.0
27,1,0.75,0.8560653028515947,-0.0279504334025793
27,1,0.5,0.8557157604688617,0.007003804870719943
27,1,0.25,0.8647182465415397,-0.8932448023970863
27,1,0.0,0.8617400934287632,-0.5954294911194369
27,2,1.0,0.8557857985175689,0.0
27,2,0.75,0.8481830446056398,0.7602753911929105
27,2,0.5,0.833614838642208,2.2170959875360885
27,2,0.25,0.8021233782939468,5.366242022362211
27,2,0.0,0.713839678499605,14.194612001796392
27,3,1.0,0.8557857985175689,0.0
27,3,0.75,0.868229587092687,-1.2443788575118186
27,3,0.5,0.8690911578245608,-1.3305359306991948
27,3,0.25,0.8663547693980769,-1.056897088050801
27,3,0.0,0.6954585663715299,16.032723214603894
27,4,1.0,0.8557857985175689,0.0
27,4,0.75,0.8564109627930925,-0.06251642755236153
27,4,0.5,0.8653976311845601,-0.9611832666991282
27,4,0.25,0.8244801647776299,3.1305633739939
27,4,0.0,0.7527958037565365,10.298999476103232
27,5,1.0,0.8557857985175689,0.0
27,5,0.75,0.847123214731859,0.8662583785709832
27,5,0.5,0.8156599576798376,4.012584083773129
27,5,0.25,0.7538081971362744,10.197760138129441
27,5,0.0,0.6881124153697353,16.767338314783352
27,6,1.0,0.8557857985175689,0.0
27,6,0.75,0.8502862520339788,0.5499546483590079
27,6,0.5,0.8583624394124647,-0.2576640894895843
27,6,0.25,0.8515106327497407,0.42751657678281596
27,6,0.0,0.8355966671074901,2.018913141007872
27,7,1.0,0.8557857985175689,0.0
27,7,0.75,0.8569274451552009,-0.11416466376320544
27,7,0.5,0.8435811849530048,1.2204613564564037
27,7,0.25,0.8142637757810635,4.15220227365054
27,7,0.0,0.7715269073504384,8.425889116713048
27,8,1.0,0.8557857985175689,0.0
27,8,0.75,0.8684865946538847,-1.2700796136315806
27,8,0.5,0.8684131127203285,-1.2627314202759643
27,8,0.25,0.862773475409887,-0.6987676892318162
27,8,0.0,0.7897424577191454,6.604334079842344
28,0,1.0,0.722573517443186,0.0
28,0,0.75,0.7320223773923779,-0.9448859949191868
28,0,0.5,0.7242779965544004,-0.17044791112144075
28,0,0.25,0.7092779269802325,1.3295590462953477
28,0,0.0,0.673518901208611,4.905461623457496
28,1,1.0,0.722573517443186,0.0
28,1,0.75,0.7617790676174719,-3.9205550174285952
28,1,0.5,0.7735268764117476,-5.095335896856157
28,1,0.25,0.7641411155070096,-4.156759806382359
28,1,0.0,0.70792444168862,1.4649075754565977
28,2,1.0,0.722573517443186,0.0
28,2,0.75,0.7296942044270522,-0.7120686983866253
28,2,0.5,0.7297352234316516,-0.7161705988465661
28,2,0.25,0.7172591151150114,0.5314402328174594
28,2,0.0,0.6638879849578558,5.868553248533015
28,3,1.0,0.722573517443186,0.0
28,3,0.75,0.7239025464177593,-0.13290289745733208
28,3,0.5,0.7246049912464646,-0.20314738032786162
28,3,0.25,0.690524583817147,3.2048933626039
28,3,0.0,0.6954365390676607,2.713697837552531
28,4,1.0,0.722573517443186,0.0
28,4,0.75,0.7501949118376483,-2.7621394394462317
28,4,0.5,0.741207644249681,-1.863412680649501
28,4,0.25,0.7206130785718865,0.19604388712994858
28,4,0.0,0.7023728234810234,2.020069396216262
28,5,1.0,0.722573517443186,0.0
28,5,0.75,0.6441010991131191,7.847241833006691
28,5,0.5,0.5936723851333108,12.89011323098752
28,5,0.25,0.5528977870434911,16.967573039969487
28,5,0.0,0.5354736549293001,18.70998625138859
28,6,1.0,0.722573517443186,0.0
28,6,0.75,0.7200961719813709,0.24773454618151058
28,6,0.5,0.7157297385037036,0.6843778939482403
28,6,0.25,0.7086375693272247,1.3935948115961327
28,6,0.0,0.7038747800393763,1.8698737403809673
28,7,1.0,0.722573517443186,0.0
28,7,0.75,0.7032649402929606,1.9308577150225381
28,7,0.5,0.6694168439499633,5.315667349322273
28,7,0.25,0.6458092768656579,7.676424057752806
28,7,0.0,0.6147613704700096,10.781214697317642
28,8,1.0,0.722573517443186,0.0
28,8,0.75,0.7588023774332455,-3.6228859990059536
28,8,0.5,0.7717048951501615,-4.913137770697551
28,8,0.25,0.7642054183597884,-4.1631900916602405
28,8,0.0,0.6456426551881291,7.693086225505685
29,0,1.0,0.759310221468024,0.0
29,0,0.75,0.7507174741426238,0.8592747325400163
29,0,0.5,0.7248065417664019,3.4503679701622048
29,0,0.25,0.6973239769584004,6.198624450962353
29,0,0.0,0.6495988909748297,10.971133049319427
29,1,1.0,0.759310221468024,0.0
29,1,0.75,0.7633158807516683,-0.40056592836443805
29,1,0.5,0.7573001015457831,0.20101199222408717
29,1,0.25,0.7371431352656503,2.216708620237362
29,1,0.0,0.7301030776973048,2.92071437707192
29,2,1.0,0.759310221468024,0.0
29,2,0.75,0.7675985634363274,-0.8288341968303414
29,2,0.5,0.7569156988149963,0.2394522653027642
29,2,0.25,0.7511670650955078,0.8143156372516169
29,2,0.0,0.71382318046735,4.548704100067392
29,3,1.0,0.759310221468024,0.0
29,3,0.75,0.7571802785305497,0.21299429374742607
29,3,0.5,0.7497930417313863,0.9517179736637682
29,3,0.25,0.7468657374551223,1.2444484012901658
29,3,0.0,0.7471914994528011,1.2118722015222905
29,4,1.0,0.759310221468024,0.0
29,4,0.75,0.7485335607108965,1.0776660757127465
29,4,0.5,0.7357707380623824,2.3539483405641604
29,4,0.25,0.7250599592465209,3.425026222150307
29,4,0.0,0.7169522887940897,4.235793267393428
29,5,1.0,0.759310221468024,0.0
29,5,0.75,0.7709736644538007,-1.1663442985776706
29,5,0.5,0.7495658002316383,0.9744421236385636
29,5,0.25,0.5733252641552318,18.59849573127922
29,5,0.0,0.4368881366130445,32.24220848549795
29,6,1.0,0.759310221468024,0.0
29,6,0.75,0.76953882191534,-1.0228600447315994
29,6,0.5,0.7763103545818476,-1.7000133113823646
29,6,0.25,0.7680415624020952,-0.8731340934071241
29,6,0.0,0.7508154996758356,0.8494721792188353
29,7,1.0,0.759310221468024,0.0
29,7,0.75,0.776368761741124,-1.7058540273100053
29,7,0.5,0.7753373462426285,-1.602712477460455
29,7,0.25,0.7682553403730565,-0.8945118905032579
29,7,0.0,0.7148531055343211,4.445711593370283
29,8,1.0,0.759310221468024,0.0
29,8,0.75,0.7464225320036656,1.2887689464358365
29,8,0.5,0.7312486505171816,2.8061570950842385
29,8,0.25,0.6867956235267586,7.251459794126536
29,8,0.0,0.6415631293736523,11.774709209437162
30,0,1.0,0.7745836493029226,0.0
30,0,0.75,0.7906447270298781,-1.606107772695553
30,0,0.5,0.8026354542850846,-2.8051804982162087
30,0,0.25,0.7791697866697866,-0.4586137366864085
30,0,0.0,0.738297599482046,3.6286049820876576
30,1,1.0,0.7745836493029226,0.0
30,1,0.75,0.7451687023506154,2.9414946952307175
30,1,0.5,0.7198861756918122,5.4697473611110325
30,1,0.25,0.6753485413612098,9.923510794171275
30,1,0.0,0.6512088761173628,12.337477318555978
30,2,1.0,0.7745836493029226,0.0
30,2,0.75,0.7599942298942911,1.4589419408631454
30,2,0.5,0.7321104677961358,4.24731815067868
30,2,0.25,0.7031236948638889,7.145995443903363
30,2,0.0,0.6661201385082897,10.84635107946329
30,3,1.0,0.7745836493029226,0.0
30,3,0.75,0.753198183473902,2.1385465829020567
30,3,0.5,0.7464058197074959,2.8177829595426696
30,3,0.25,0.7236357860946367,5.0947863208285815
30,3,0.0,0.6998826961100604,7.4700953192862185
30,4,1.0,0.7745836493029226,0.0
30,4,0.75,0.7610809710758705,1.350267822705209
30,4,0.5,0.7502599380964303,2.432371120649224
30,4,0.25,0.744711458954532,2.9872190348390615
30,4,0.0,0.7180784342520585,5.650521505086403
30,5,1.0,0.7745836493029226,0.0
30,5,0.75,0.7723936960582137,0.2189953244708831
30,5,0.5,0.7207198507923908,5.38637985105318
30,5,0.25,0.6022460455787663,17.23376037241563
30,5,0.0,0.5795311474145917,19.505250188833088
30,6,1.0,0.7745836493029226,0.0
30,6,0.75,0.7794457384594735,-0.4862089156550953
30,6,0.5,0.7936825847783242,-1.9098935475401646
30,6,0.25,0.805945990485966,-3.1362341183043485
30,6,0.0,0.8069618880620681,-3.2378238759145583
30,7,1.0,0.7745836493029226,0.0
30,7,0.75,0.7867952095520927,-1.221156024917014
30,7,0.5,0.7781988502475494,-0.3615200944626862
30,7,0.25,0.7689696556783976,0.5613993624524971
30,7,0.0,0.7010771338247208,7.350651547820175
30,8,1.0,0.7745836493029226,0.0
30,8,0.75,0.7668559798625586,0.772766944036396
30,8,0.5,0.7776327687918595,-0.30491194889369355
30,8,0.25,0.7702391540244504,0.4344495278472138
30,8,0.0,0.7406609058608705,3.392274344205204
31,0,1.0,0.699700531217571,0.0
31,0,0.75,0.7012244065788553,-0.1523875361284288
31,0,0.5,0.6936971602714492,0.60033709461218
31,0,0.25,0.6494246631951658,5.027586802240524
31,0,0.0,0.5518690666361679,14.783146458140317
31,1,1.0,0.699700531217571,0.0
31,1,0.75,0.6961813090141341,0.35192222034369225
31,1,0.5,0.6789877295131251,2.0712801704445893
31,1,0.25,0.6660103569168585,3.3690174300712528
31,1,0.0,0.6612908681448257,3.8409663072745293
31,2,1.0,0.699700531217571,0.0
31,2,0.75,0.7021645931810597,-0.2464061963488695
31,2,0.5,0.6995185529089161,0.0181978308654962
31,2,0.25,0.6622572084460795,3.744332277149154
31,2,0.0,0.6152574298964999,8.444310132107113
31,3,1.0,0.699700531217571,0.0
31,3,0.75,0.7139335859044698,-1.4233054686898727
31,3,0.5,0.7144869076294886,-1.47863764119176
31,3,0.25,0.7186424663694517,-1.8941935151880696
31,3,0.0,0.6707383547129324,2.8962176504638615
31,4,1.0,0.699700531217571,0.0
31,4,0.75,0.7120877803561936,-1.2387249138622547
31,4,0.5,0.7045462682680728,-0.48457370505017305
31,4,0.25,0.6668177901836556,3.288274103391542
31,4,0.0,0.6435492370554584,5.615129416211262
31,5,1.0,0.699700531217571,0.0
31,5,0.75,0.7159418154692698,-1.6241284251698795
31,5,0.5,0.6690404083565678,3.066012286100328
31,5,0.25,0.6578542557373827,4.184627548018838
31,5,0.0,0.5817974568810398,11.790307433653124
31,6,1.0,0.699700531217571,0.0
31,6,0.75,0.704398897650709,-0.4698366433137924
31,6,0.5,0.7143748511240051,-1.4674319906434086
31,6,0.25,0.6922014922211,0.7499038996471086
31,6,0.0,0.6783881248297307,2.1312406387840377
31,7,1.0,0.699700531217571,0.0
31,7,0.75,0.6881713531072555,1.1529178110315508
31,7,0.5,0.6665271796139887,3.317335160358237
31,7,0.25,0.6106054643659731,8.909506685159796
31,7,0.0,0.5699856266536738,12.971490456389724
31,8,1.0,0.699700531217571,0.0
31,8,0.75,0.694159826753618,0.554070446395305
31,8,0.5,0.6837129949155639,1.598753630200711
31,8,0.25,0.6344555570144261,6.52449742031449
31,8,0.0,0.5900000623064032,10.97004689111678
32,0,1.0,0.6931874788744096,0.0
32,0,0.75,0.7066894494095406,-1.3501970535131025
32,0,0.5,0.6957972423882747,-0.26097635138651043
32,0,0.25,0.6760193501060687,1.716812876834084
32,0,0.0,0.6331119433983861,6.007553547602351
32,1,1.0,0.6931874788744096,0.0
32,1,0.75,0.6871185222364743,0.6068956637935274
32,1,0.5,0.6806571617504977,1.2530317123911838
32,1,0.25,0.6563404092441352,3.68470696302744
32,1,0.0,0.5763028230750331,11.688465579937645
32,2,1.0,0.6931874788744096,0.0
32,2,0.75,0.7163610423456389,-2.317356347122934
32,2,0.5,0.7263668541930901,-3.3179375318680537
32,2,0.25,0.7008267897094836,-0.7639310835074076
32,2,0.0,0.6864109988524209,0.6776480021988718
32,3,1.0,0.6931874788744096,0.0
32,3,0.75,0.6930982642641242,0.00892146102853264
32,3,0.5,0.6972448177674233,-0.405733889301374
32,3,0.25,0.6854505737903697,0.7736905084039902
32,3,0.0,0.6776136577262899,1.557382114811967
32,4,1.0,0.6931874788744096,0.0
32,4,0.75,0.7009406275992057,-0.7753148724796155
32,4,0.5,0.6756806695168547,1.7506809357554887
32,4,0.25,0.6027065728341751,9.04809060402345
32,4,0.0,0.5709475028023415,12.223997607206805
32,5,1.0,0.6931874788744096,0.0
32,5,0.75,0.7054329916631681,-1.2245512788758517
32,5,0.5,0.6982143473096858,-0.5026868435276222
32,5,0.25,0.6866410909305679,0.6546387943841658
32,5,0.0,0.6222153465346535,7.097213233975608
32,6,1.0,0.6931874788744096,0.0
32,6,0.75,0.6973111810947693,-0.41237022203597373
32,6,0.5,0.695039443301933,-0.18519644275234448
32,6,0.25,0.7056914576108253,-1.2503978736415733
32,6,0.0,0.6861491272113034,0.7038351663106179
32,7,1.0,0.6931874788744096,0.0
32,7,0.75,0.6819046727805852,1.1282806093824371
32,7,0.5,0.6888758996970418,0.4311579177367797
32,7,0.25,0.6721215690030391,2.106590987137047
32,7,0.0,0.6569296396208586,3.625783925355097
32,8,1.0,0.6931874788744096,0.0
32,8,0.75,0.7083265253101902,-1.5139046435780679
32,8,0.5,0.6901925653246075,0.29949135498020807
32,8,0.25,0.6817290362443237,1.1458442630085885
32,8,0.0,0.6784776947318865,1.4709784142523108
33,0,1.0,0.8972350510716166,0.0
33,0,0.75,0.903720238095238,-0.6485187023621442
33,0,0.5,0.8892386437841366,0.7996407287479967
33,0,0.25,0.8630595419117454,3.417550915987122
33,0,0.0,0.7688363072175621,12.839874385405448
33,1,1.0,0.8972350510716166,0.0
33,1,0.75,0.891576622294501,0.5658428777115643
33,1,0.5,0.8732790881312871,2.3955962940329534
33,1,0.25,0.831869939861558,6.536511121005861
33,1,0.0,0.8102769785316161,8.695807254000055
33,2,1.0,0.8972350510716166,0.0
33,2,0.75,0.8715629728271859,2.567207824443074
33,2,0.5,0.8592734993668822,3.7961551704734364
33,2,0.25,0.8274732412663447,6.976180980527191
33,2,0.0,0.8131211420340544,8.411390903756221
33,3,1.0,0.8972350510716166,0.0
33,3,0.75,0.8691074482755724,2.8127602796044204
33,3,0.5,0.8417726610393503,5.546239003226628
33,3,0.25,0.8271160971572219,7.011895391439471
33,3,0.0,0.7729756043031246,12.425944676849198
33,4,1.0,0.8972350510716166,0.0
33,4,0.75,0.8999591069577785,-0.2724055886161869
33,4,0.5,0.8772438246806031,1.9991226391013472
33,4,0.25,0.8414104245842484,5.5824626487368185
33,4,0.0,0.8046855142663359,9.254953680528066
33,5,1.0,0.8972350510716166,0.0
33,5,0.75,0.8984060620184068,-0.11710109467901741
33,5,0.5,0.8990727672255306,-0.18377161539140374
33,5,0.25,0.8634456386290985,3.3789412442518096
33,5,0.0,0.8362074703362796,6.102758073533698
33,6,1.0,0.8972350510716166,0.0
33,6,0.75,0.8784006580570561,1.8834393014560469
33,6,0.5,0.8538205031895881,4.341454788202848
33,6,0.25,0.828137548558148,6.909750251346858
33,6,0.0,0.7810075890989211,11.622746197269551
33,7,1.0,0.8972350510716166,0.0
33,7,0.75,0.8668880631129801,3.034698795863655
33,7,0.5,0.8326907844074178,6.454426666419877
33,7,0.25,0.7773231980055818,11.99118530660348
33,7,0.0,0.7318827914088598,16.53522596627568
33,8,1.0,0.8972350510716166,0.0
33,8,0.75,0.8813440110250248,1.589104004659181
33,8,0.5,0.8559674653346702,4.126758573694644
33,8,0.25,0.846103263594663,5.113178747695358
33,8,0.0,0.7881376320070588,10.909741906455784
34,0,1.0,0.8480412581353622,0.0
34,0,0.75,0.8511402277782315,-0.3098969642869265
34,0,0.5,0.8340457857297321,1.399547240563015
34,0,0.25,0.7835710394015349,6.44702187338273
34,0,0.0,0.6970758863879575,15.096537174740476
34,1,1.0,0.8480412581353622,0.0
34,1,0.75,0.8412163130854521,0.6824945049910158
34,1,0.5,0.8228578890808809,2.5183369054481375
34,1,0.25,0.7797885424467703,6.8252715688591925
34,1,0.0,0.7740276060645814,7.401365207078081
34,2,1.0,0.8480412581353622,0.0
34,2,0.75,0.8642285100048624,-1.6187251869500208
34,2,0.5,0.8609839746369388,-1.2942716501576523
34,2,0.25,0.8430228330424665,0.501842509289574
34,2,0.0,0.8136916615506469,3.434959658471537
34,3,1.0,0.8480412581353622,0.0
34,3,0.75,0.8582102727974017,-1.0169014662039455
34,3,0.5,0.8510508630578263,-0.30096049224640486
34,3,0.25,0.8264230694576222,2.1618188677740013
34,3,0.0,0.8071957753798911,4.084548275547117
34,4,1.0,0.8480412581353622,0.0
34,4,0.75,0.8492807350511191,-0.12394769157568764
34,4,0.5,0.8251775446652643,2.286371347009797
34,4,0.25,0.8060308578183506,4.201040031701164
34,4,0.0,0.789472391114183,5.856886702117925
34,5,1.0,0.8480412581353622,0.0
34,5,0.75,0.867861023522819,-1.9819765387456778
34,5,0.5,0.8514884412438071,-0.3447183108444829
34,5,0.25,0.8207310073226969,2.731025081266536
34,5,0.0,0.7905037071735628,5.753755096179947
34,6,1.0,0.8480412581353622,0.0
34,6,0.75,0.8452399687549618,0.28012893804004735
34,6,0.5,0.833054549182146,1.4986708953216188
34,6,0.25,0.824410955419904,2.3630302715458296
34,6,0.0,0.8033767124422068,4.466454569315548
34,7,1.0,0.8480412581353622,0.0
34,7,0.75,0.8487651918601707,-0.0723933724808501
34,7,0.5,0.8195655370144438,2.847572112091845
34,7,0.25,0.8043022388594868,4.373901927587543
34,7,0.0,0.7717366932794264,7.630456485593584
34,8,1.0,0.8480412581353622,0.0
34,8,0.75,0.8567562473005851,-0.8714989165222842
34,8,0.5,0.8414387800857295,0.6602478049632765
34,8,0.25,0.8456002379258933,0.24410202094689026
34,8,0.0,0.7716774355898326,7.636382254552965
35,0,1.0,0.7166765698142441,0.0
35,0,0.75,0.7190549327470548,-0.23783629328106848
35,0,0.5,0.709969967575069,0.6706602239175075
35,0,0.25,0.685682905949105,3.099366386513913
35,0,0.0,0.661941273154538,5.473529665970611
35,1,1.0,0.7166765698142441,0.0
35,1,0.75,0.7084391185739178,0.8237451240326266
35,1,0.5,0.6930965116992815,2.3580058114962554
35,1,0.25,0.6712981133387771,4.5378456475467015
35,1,0.0,0.6445456997872098,7.213087002703434
35,2,1.0,0.7166765698142441,0.0
35,2,0.75,0.7136610465126747,0.30155233015694005
35,2,0.5,0.7072416032573436,0.9434966556900459
35,2,0.25,0.7006430571048431,1.603351270940101
35,2,0.0,0.68643010524444,3.0246464569804066
35,3,1.0,0.7166765698142441,0.0
35,3,0.75,0.7096643690134934,0.7012200800750712
35,3,0.5,0.6894969534641401,2.717961635010402
35,3,0.25,0.6559336444159383,6.074292539830584
35,3,0.0,0.64579812521673,7.087844459751413
35,4,1.0,0.7166765698142441,0.0
35,4,0.75,0.7144417559842526,0.22348138299914666
35,4,0.5,0.7030145939012609,1.3661975912983237
35,4,0.25,0.6956005458094121,2.1076024004831995
35,4,0.0,0.6773521462632368,3.9324423551007293
35,5,1.0,0.7166765698142441,0.0
35,5,0.75,0.7209513927080519,-0.42748228938077615
35,5,0.5,0.7160932078945683,0.058336191967578443
35,5,0.25,0.7106447695800123,0.6031800234231777
35,5,0.0,0.6996967382528874,1.697983156135674
35,6,1.0,0.7166765698142441,0.0
35,6,0.75,0.7178949049484468,-0.12183351342026638
35,6,0.5,0.7134227168408394,0.3253852973404747
35,6,0.25,0.6977508743904519,1.8925695423792188
35,6,0.0,0.7019697870518954,1.4706782762348714
35,7,1.0,0.7166765698142441,0.0
35,7,0.75,0.7312165581795753,-1.4539988365331213
35,7,0.5,0.7280678647950585,-1.139129498081437
35,7,0.25,0.7220782295986103,-0.5401659784366242
35,7,0.0,0.6875879757075742,2.9088594106669863
35,8,1.0,0.7166765698142441,0.0
35,8,0.75,0.7247126314781563,-0.8036061663912242
35,8,0.5,0.7207621560254067,-0.40855862111626173
35,8,0.25,0.7034981986283712,1.317837118587295
35,8,0.0,0.6769848950469057,3.969167476733837
36,0,1.0,0.6972719579309536,0.0
36,0,0.75,0.6738778589181501,2.3394099012803538
36,0,0.5,0.6539980472153797,4.327391071557396
36,0,0.25,0.6467280020262959,5.054395590465777
36,0,0.0,0.6499472976778475,4.732466025310611
36,1,1.0,0.6972719579309536,0.0
36,1,0.75,0.6973595383275262,-0.008758039657252858
36,1,0.5,0.6693081068017435,2.796385112921018
36,1,0.25,0.6471263359712818,5.014562195967187
36,1,0.0,0.6347754536143162,6.249650431663745
36,2,1.0,0.6972719579309536,0.0
36,2,0.75,0.6861806000182932,1.109135791266047
36,2,0.5,0.66037663285274,3.689532507821369
36,2,0.25,0.6385375111990808,5.873444673187289
36,2,0.0,0.6369842608555215,6.028769707543214
36,3,1.0,0.6972719579309536,0.0
36,3,0.75,0.6929897000948021,0.42822578361515484
36,3,0.5,0.681730449398374,1.5541508532579629
36,3,0.25,0.6809648962915279,1.6307061639425746
36,3,0.0,0.6532751211013396,4.399683682961408
36,4,1.0,0.6972719579309536,0.0
36,4,0.75,0.6957439795022795,0.1527978428674137
36,4,0.5,0.7093370078771402,-1.2065049946186512
36,4,0.25,0.718002185594943,-2.0730227663989353
36,4,0.0,0.6938090924775707,0.3462865453382924
36,5,1.0,0.6972719579309536,0.0
36,5,0.75,0.721020548642203,-2.374859071124935
36,5,0.5,0.7325343615538633,-3.5262403622909666
36,5,0.25,0.7228978988076763,-2.5625940876722653
36,5,0.0,0.7112850592737244,-1.4013101342770784
36,6,1.0,0.6972719579309536,0.0
36,6,0.75,0.6937743450674485,0.34976128635051396
36,6,0.5,0.6761068476636016,2.1165110267352016
36,6,0.25,0.6584883529810203,3.878360494993338
36,6,0.0,0.6505148020152294,4.675715591572427
36,7,1.0,0.6972719579309536,0.0
36,7,0.75,0.6863886858828956,1.0883272048058057
36,7,0.5,0.6590642704237859,3.8207687507167742
36,7,0.25,0.604431893397275,9.284006453367866
36,7,0.0,0.5851801599614512,11.209179796950242
36,8,1.0,0.6972719579309536,0.0
36,8,0.75,0.6723193444039591,2.4952613526994516
36,8,0.5,0.6516494646647061,4.562249326624757
36,8,0.25,0.6189171509111815,7.8354807019772155
36,8,0.0,0.6217332565869642,7.553870134398943
37,0,1.0,0.8657073024647037,0.0
37,0,0.75,0.8493728629244723,1.6334439540231394
37,0,0.5,0.838019431530211,2.7687870934492764
37,0,0.25,0.8099812507867915,5.572605167791222
37,0,0.0,0.7725922412340851,9.311506123061864
37,1,1.0,0.8657073024647037,0.0
37,1,0.75,0.8659040539889283,-0.019675152422460318
37,1,0.5,0.8459695594581305,1.9737743006573272
37,1,0.25,0.8138483440759001,5.185895838880361
37,1,0.0,0.7846890630918322,8.101823937287156
37,2,1.0,0.8657073024647037,0.0
37,2,0.75,0.8632349909226854,0.2472311542018324
37,2,0.5,0.8334008332374245,3.23064692272792
37,2,0.25,0.7934828389187,7.222446354600375
37,2,0.0,0.7429958021040768,12.271150036062695
37,3,1.0,0.8657073024647037,0.0
37,3,0.75,0.8619464163185003,0.37608861462034016
37,3,0.5,0.867578531167622,-0.18712287029182262
37,3,0.25,0.8646783666609941,0.1028935803709663
37,3,0.0,0.8707244657136486,-0.5017163248944856
37,4,1.0,0.8657073024647037,0.0
37,4,0.75,0.8543150608462655,1.1392241618438215
37,4,0.5,0.8341759706758063,3.1531331788897443
37,4,0.25,0.8003452877990235,6.536201466568025
37,4,0.0,0.7559715101075395,10.973579235716425
37,5,1.0,0.8657073024647037,0.0
37,5,0.75,0.8671805346370907,-0.1473232172386929
37,5,0.5,0.8554612347007735,1.0246067763930222
37,5,0.25,0.8325771345272401,3.3130167937463595
37,5,0.0,0.7877748049130062,7.793249755169751
37,6,1.0,0.8657073024647037,0.0
37,6,0.75,0.8512262038073909,1.448109865731284
37,6,0.5,0.8420531966293054,2.3654105835398287
37,6,0.25,0.8195740323895149,4.613327007518886
37,6,0.0,0.7798476112582028,8.585969120650095
37,7,1.0,0.8657073024647037,0.0
37,7,0.75,0.854446859861488,1.1260442603215681
37,7,0.5,0.8301607225520269,3.5546579912676846
37,7,0.25,0.7908434195516747,7.486388291302903
37,7,0.0,0.7437621603280962,12.194514213660756
37,8,1.0,0.8657073024647037,0.0
37,8,0.75,0.842538722944251,2.3168579520452703
37,8,0.5,0.84728460144266,1.8422701022043686
37,8,0.25,0.7970217461955093,6.8685556269194485
37,8,0.0,0.7577836732064537,10.792362925825005
38,0,1.0,0.8147903477390973,0.0
38,0,0.75,0.8145695070194698,0.022084071962746865
38,0,0.5,0.7871889918525989,2.760135588649837
38,0,0.25,0.7534193042615158,6.137104347758148
38,0,0.0,0.7167005683636631,9.808977937543418
38,1,1.0,0.8147903477390973,0.0
38,1,0.75,0.8206204418454077,-0.5830094106310413
38,1,0.5,0.8089098057564305,0.5880541982666854
38,1,0.25,0.7731794483476552,4.1610899391442135
38,1,0.0,0.7661945828890699,4.859576485002737
38,2,1.0,0.8147903477390973,0.0
38,2,0.75,0.8069333089355335,0.785703880356381
38,2,0.5,0.7826624671314045,3.2127880607692783
38,2,0.25,0.6979660266298702,11.682432110922713
38,2,0.0,0.64197935485984,17.281099287925727
38,3,1.0,0.8147903477390973,0.0
38,3,0.75,0.8252652103993567,-1.0474862660259432
38,3,0.5,0.8230012325915439,-0.8210884852446587
38,3,0.25,0.8075575748517498,0.7232772887347472
38,3,0.0,0.7439689380387055,7.082140970039186
38,4,1.0,0.8147903477390973,0.0
38,4,0.75,0.760390562764566,5.439978497453135
38,4,0.5,0.5825265320951367,23.22638156439606
38,4,0.25,0.5228095319226028,29.198081581649447
38,4,0.0,0.5031448869608424,31.164546077825495
38,5,1.0,0.8147903477390973,0.0
38,5,0.75,0.7680674232449799,4.672292449411741
38,5,0.5,0.6581475590958097,15.664278864328763
38,5,0.25,0.5488180248438945,26.597232289520278
38,5,0.0,0.5040162699226991,31.07740778163982
38,6,1.0,0.8147903477390973,0.0
38,6,0.75,0.8140906344180114,0.06997133210858708
38,6,0.5,0.805933495486236,0.8856852252861258
38,6,0.25,0.7927696950402873,2.202065269881004
38,6,0.0,0.7853494921750602,2.9440855564037083
38,7,1.0,0.8147903477390973,0.0
38,7,0.75,0.8220263158134291,-0.72359680743318
38,7,0.5,0.8205749180809061,-0.5784570341808792
38,7,0.25,0.7997857198584659,1.5004627880631394
38,7,0.0,0.7336998279944459,8.109051974465142
38,8,1.0,0.8147903477390973,0.0
38,8,0.75,0.8151696504485795,-0.03793027094821655
38,8,0.5,0.8009580740255486,1.383227371354867
38,8,0.25,0.7626303292291228,5.216001850997454
38,8,0.0,0.736985236985237,7.780511075386032
39,0,1.0,0.7576870337508315,0.0
39,0,0.75,0.7354277420234527,2.2259291727378727
39,0,0.5,0.6944989472401824,6.318808651064911
39,0,0.25,0.6638503656037559,9.383666814707558
39,0,0.0,0.6422200383852225,11.5466995365609
39,1,1.0,0.7576870337508315,0.0
39,1,0.75,0.764028538045392,-0.6341504294560485
39,1,0.5,0.7655630266942524,-0.7875992943420895
39,1,0.25,0.7608745777180465,-0.31875439672149897
39,1,0.0,0.7597367115793844,-0.20496778285529205
39,2,1.0,0.7576870337508315,0.0
39,2,0.75,0.7569305098574859,0.07565238933455731
39,2,0.5,0.748627824318447,0.9059209432384474
39,2,0.25,0.745316142042556,1.2370891708275433
39,2,0.0,0.7429366533803698,1.4750380370461613
39,3,1.0,0.7576870337508315,0.0
39,3,0.75,0.7437134856889865,1.397354806184492
39,3,0.5,0.72297582191436,3.471121183647141
39,3,0.25,0.6878217078825588,6.986532586827265
39,3,0.0,0.6695376542888392,8.81493794619923
39,4,1.0,0.7576870337508315,0.0
39,4,0.75,0.7601238987640904,-0.24368650132589043
39,4,0.5,0.7401554687265206,1.7531565024310858
39,4,0.25,0.7239297945571028,3.375723919372864
39,4,0.0,0.6475256977012473,11.016133604958412
39,5,1.0,0.7576870337508315,0.0
39,5,0.75,0.7372102125739887,2.0476821176842797
39,5,0.5,0.6883406110065422,6.934642274428926
39,5,0.25,0.536743888833834,22.094314491699752
39,5,0.0,0.3391888462504062,41.84981875004253
39,6,1.0,0.7576870337508315,0.0
39,6,0.75,0.7648152255318658,-0.7128191781034299
39,6,0.5,0.7686597866597249,-1.0972752908893435
39,6,0.25,0.761449966825587,-0.37629330747555034
39,6,0.0,0.7451701120234235,1.2516921727407926
39,7,1.0,0.7576870337508315,0.0
39,7,0.75,0.7442501913983185,1.3436842352512968
39,7,0.5,0.7185004618423432,3.918657190848829
39,7,0.25,0.6788563757121254,7.883065803870604
39,7,0.0,0.6573848646217066,10.030216912912483
39,8,1.0,0.7576870337508315,0.0
39,8,0.75,0.7539698599540614,0.3717173796770057
39,8,0.5,0.7442712072051377,1.3415826545693732
39,8,0.25,0.7240540409085254,3.363299284230603
39,8,0.0,0.7210523587179776,3.663467503285389
40,0,1.0,0.7364694395208892,0.0
40,0,0.75,0.7188601072840203,1.760933223686889
40,0,0.5,0.6926070772979199,4.386236222296924
40,0,0.25,0.6730968867362956,6.337255278459352
40,0,0.0,0.6345229601790372,10.194647934185197
40,1,1.0,0.7364694395208892,0.0
40,1,0.75,0.7245603853563275,1.1909054164561672
40,1,0.5,0.7082131854169251,2.825625410396404
40,1,0.25,0.7081675864538193,2.8301853067069893
40,1,0.0,0.7180989430008329,1.837049652005629
40,2,1.0,0.7364694395208892,0.0
40,2,0.75,0.7482096162174299,-1.1740176696540705
40,2,0.5,0.758464088175431,-2.1994648654541815
40,2,0.25,0.7491112128386188,-1.2641773317729643
40,2,0.0,0.752511006463367,-1.6041566942477825
40,3,1.0,0.7364694395208892,0.0
40,3,0.75,0.7478447982767372,-1.1375358755848053
40,3,0.5,0.7470710667078736,-1.060162718698443
40,3,0.25,0.7371458792629233,-0.06764397420341295
40,3,0.0,0.7064818092996961,2.9987630221193107
40,4,1.0,0.7364694395208892,0.0
40,4,0.75,0.7295431721255736,0.6926267395315544
40,4,0.5,0.7343960901156567,0.20733494052325163
40,4,0.25,0.7232890630643354,1.3180376456553788
40,4,0.0,0.7323593020467316,0.411013747415756
40,5,1.0,0.7364694395208892,0.0
40,5,0.75,0.7474789387796272,-1.1009499258738065
40,5,0.5,0.7441567900306735,-0.7687350509784308
40,5,0.25,0.6391645519247278,9.73048875961614
40,5,0.0,0.3817993144507079,35.467012507018126
40,6,1.0,0.7364694395208892,0.0
40,6,0.75,0.7334688959363921,0.3000543584497084
40,6,0.5,0.7215109920095762,1.4958447511312922
40,6,0.25,0.709033439678601,2.7435999842288172
40,6,0.0,0.6976897734549168,3.8779666065972385
40,7,1.0,0.7364694395208892,0.0
40,7,0.75,0.7322418361283907,0.42276033924985024
40,7,0.5,0.7285122491889856,0.7957190331903563
40,7,0.25,0.6688802028874862,6.758923663340299
40,7,0.0,0.5784767628563172,15.799267666457196
40,8,1.0,0.7364694395208892,0.0
40,8,0.75,0.7224570785833162,1.4012360937572965
40,8,0.5,0.6976082665737838,3.886117294710534
40,8,0.25,0.6664905310720728,6.997890844881638
40,8,0.0,0.6277913035367751,10.867813598411402
