subject,channel,f1_full,f1_occluded,drop_pp
1,0,0.5716909995855107,0.4802418097931967,9.144918979231404
1,1,0.5716909995855107,0.5749237807474872,-0.323278116197645
1,2,0.5716909995855107,0.49482842723486087,7.686257235064986
1,3,0.5716909995855107,0.47823724121665423,9.34537583688565
1,4,0.5716909995855107,0.5591888940074838,1.250210557802689
1,5,0.5716909995855107,0.3936585313422569,17.80324682432538
1,6,0.5716909995855107,0.6039624879899332,-3.227148840442251
1,7,0.5716909995855107,0.6099577870810813,-3.8266787495570553
1,8,0.5716909995855107,0.5570666972730683,1.4624302312442383
2,0,0.7775171328614289,0.7326663703815574,4.485076247987152
2,1,0.7775171328614289,0.6857491128950841,9.176801996634476
2,2,0.7775171328614289,0.6842837781822733,9.32333546791556
2,3,0.7775171328614289,0.690700611303148,8.68165215582809
2,4,0.7775171328614289,0.7435620551964748,3.395507766495409
2,5,0.7775171328614289,0.5116118805257144,26.590525233571448
2,6,0.7775171328614289,0.7085379693182752,6.89791635431537
2,7,0.7775171328614289,0.686059282644418,9.14578502170109
2,8,0.7775171328614289,0.7090932037738615,6.842392908756734
3,0,0.8551699406750304,0.843341760854847,1.182817982018336
3,1,0.8551699406750304,0.7769787768009788,7.819116387405156
3,2,0.8551699406750304,0.7585276687033848,9.664227197164553
3,3,0.8551699406750304,0.5892334501863581,26.593649048867228
3,4,0.8551699406750304,0.7201970600668688,13.49728806081616
3,5,0.8551699406750304,0.6873727925602156,16.779714811481483
3,6,0.8551699406750304,0.7602936371804296,9.487630349460074
3,7,0.8551699406750304,0.6426503155715285,21.251962510350186
3,8,0.8551699406750304,0.6318294950264752,22.334044564855514
4,0,0.8271598780047666,0.6479966639005541,17.916321410421254
4,1,0.8271598780047666,0.6633235217377612,16.383635626700542
4,2,0.8271598780047666,0.6561228426078602,17.103703539690642
4,3,0.8271598780047666,0.7803603303243236,4.679954768044303
4,4,0.8271598780047666,0.6701572152580296,15.700266274673702
4,5,0.8271598780047666,0.4218983376579833,40.526154034678335
4,6,0.8271598780047666,0.7771480052928642,5.001187271190243
4,7,0.8271598780047666,0.7647552858299529,6.2404592174813756
4,8,0.8271598780047666,0.755053487569086,7.210639043568068
5,0,0.580054078317719,0.5725666004238761,0.7487477893842964
5,1,0.580054078317719,0.5190828058774405,6.097127244027856
5,2,0.580054078317719,0.5562562540903397,2.3797824227379305
5,3,0.580054078317719,0.5895620743361152,-0.9507996018396137
5,4,0.580054078317719,0.5023877726731091,7.766630564460996
5,5,0.580054078317719,0.4899813420592357,9.007273625848333
5,6,0.580054078317719,0.5516895728497581,2.8364505467960988
5,7,0.580054078317719,0.5198925621900178,6.016151612770127
5,8,0.580054078317719,0.49093039388397275,8.91236844337463
6,0,0.6175460365365708,0.5324524016923843,8.509363484418653
6,1,0.6175460365365708,0.6237196101166933,-0.6173573580122493
6,2,0.6175460365365708,0.602976481799734,1.4569554736836854
6,3,0.6175460365365708,0.609550857985813,0.799517855075782
6,4,0.6175460365365708,0.6458718932835941,-2.832585674702326
6,5,0.6175460365365708,0.44792880654128425,16.961722999528657
6,6,0.6175460365365708,0.5289409354306013,8.860510110596953
6,7,0.6175460365365708,0.5256870772549077,9.18589592816631
6,8,0.6175460365365708,0.6061124755288206,1.143356100775017
7,0,0.6368779069852004,0.5485830779214729,8.829482906372753
7,1,0.6368779069852004,0.6516491739967349,-1.4771267011534528
7,2,0.6368779069852004,0.5849079903526906,5.196991663250983
7,3,0.6368779069852004,0.5960746220138116,4.080328497138885
7,4,0.6368779069852004,0.627613575976336,0.9264331008864368
7,5,0.6368779069852004,0.5554900926381412,8.138781434705923
7,6,0.6368779069852004,0.5424442115666623,9.443369541853809
7,7,0.6368779069852004,0.6306791737158848,0.6198733269315637
7,8,0.6368779069852004,0.6029742725191262,3.390363446607425
8,0,0.7615743528067073,0.6226784771681425,13.889587563856477
8,1,0.7615743528067073,0.737469771486741,2.410458131996629
8,2,0.7615743528067073,0.7946166936939754,-3.3042340887268096
8,3,0.7615743528067073,0.7132370271719222,4.8337325634785095
8,4,0.7615743528067073,0.6955827391929192,6.599161361378803
8,5,0.7615743528067073,0.5426713443776635,21.890300842904374
8,6,0.7615743528067073,0.737937655855975,2.3636696950732228
8,7,0.7615743528067073,0.7061563598948534,5.54179929118539
8,8,0.7615743528067073,0.6457961137997463,11.577823900696094
9,0,0.8049463314730363,0.7689164320640365,3.602989940899981
9,1,0.8049463314730363,0.6687611916517932,13.618513982124314
9,2,0.8049463314730363,0.7428608967003076,6.208543477272865
9,3,0.8049463314730363,0.676060530614409,12.888580085862733
9,4,0.8049463314730363,0.7668867853659957,3.8059546107040543
9,5,0.8049463314730363,0.5906518960850891,21.42944353879472
9,6,0.8049463314730363,0.7662925912156398,3.865374025739654
9,7,0.8049463314730363,0.6360230750287148,16.892325644432148
9,8,0.8049463314730363,0.6975126285388216,10.743370293421473
10,0,0.6823464067217896,0.5954563388969885,8.689006782480114
10,1,0.6823464067217896,0.6289512209050754,5.33951858167142
10,2,0.6823464067217896,0.5678690717182893,11.447733500350033
10,3,0.6823464067217896,0.5211622266417762,16.118418008001335
10,4,0.6823464067217896,0.6701089379891446,1.2237468732644974
10,5,0.6823464067217896,0.6104016314464454,7.194477527534415
10,6,0.6823464067217896,0.6381196397646521,4.422676695713745
10,7,0.6823464067217896,0.4865637261604172,19.578268056137237
10,8,0.6823464067217896,0.6728007129495571,0.9545693772232466
11,0,0.90880638265927,0.8364775370456631,7.232884561360697
11,1,0.90880638265927,0.7691522535352184,13.965412912405162
11,2,0.90880638265927,0.8490227269349091,5.978365572436095
11,3,0.90880638265927,0.8186708022197502,9.013558043951985
11,4,0.90880638265927,0.8181831884945567,9.062319416471333
11,5,0.90880638265927,0.7851513089149206,12.365507374434948
11,6,0.90880638265927,0.8835057133595365,2.5300669299733514
11,7,0.90880638265927,0.7097230211712767,19.908336148799332
11,8,0.90880638265927,0.7858490807282749,12.29573019309952
12,0,0.8602259483037257,0.7465556684513595,11.367027985236621
12,1,0.8602259483037257,0.7332197667887344,12.700618151499132
12,2,0.8602259483037257,0.7386545186842935,12.157142961943212
12,3,0.8602259483037257,0.7212884383676463,13.893750993607934
12,4,0.8602259483037257,0.6172142938344558,24.301165446926987
12,5,0.8602259483037257,0.6368351303362749,22.339081796745074
12,6,0.8602259483037257,0.8311736650700082,2.9052283233717446
12,7,0.8602259483037257,0.7631906854856058,9.703526281811993
12,8,0.8602259483037257,0.7321131297170358,12.811281858668988
13,0,0.884413188980651,0.7351119373054887,14.930125167516229
13,1,0.884413188980651,0.8288937980086173,5.551939097203373
13,2,0.884413188980651,0.8237645091734636,6.064867980718747
13,3,0.884413188980651,0.7899248571696428,9.448833181100824
13,4,0.884413188980651,0.8072292760660758,7.718391291457527
13,5,0.884413188980651,0.5823273202065709,30.208586877408017
13,6,0.884413188980651,0.8354035644900599,4.90096244905911
13,7,0.884413188980651,0.821369573341084,6.304361563956706
13,8,0.884413188980651,0.8027583745031805,8.165481447747048
14,0,0.7959287381451827,0.7569958616492138,3.8932876495968882
14,1,0.7959287381451827,0.7198852057694853,7.604353237569739
14,2,0.7959287381451827,0.6784978083797468,11.74309297654359
14,3,0.7959287381451827,0.6985292922387983,9.739944590638439
14,4,0.7959287381451827,0.7181239640663574,7.780477407882536
14,5,0.7959287381451827,0.6271145060195785,16.88142321256042
14,6,0.7959287381451827,0.7914410121497488,0.44877259954339
14,7,0.7959287381451827,0.7219871311614627,7.394160698371999
14,8,0.7959287381451827,0.7013075106812868,9.46212274638959
15,0,0.8325595416170283,0.7304816780103391,10.207786360668914
15,1,0.8325595416170283,0.7817994068999508,5.076013471707752
15,2,0.8325595416170283,0.745034742198992,8.752479941803626
15,3,0.8325595416170283,0.7403043564845182,9.225518513251007
15,4,0.8325595416170283,0.6888475240688525,14.371201754817575
15,5,0.8325595416170283,0.5586573710395392,27.390217057748913
15,6,0.8325595416170283,0.7455595788289046,8.699996278812371
15,7,0.8325595416170283,0.7645325203252031,6.802702129182514
15,8,0.8325595416170283,0.759613743000435,7.294579861659322
16,0,0.8153878291750215,0.7011869898363076,11.420083933871394
16,1,0.8153878291750215,0.7792145927871721,3.6173236387849417
16,2,0.8153878291750215,0.7496988154480488,6.568901372697267
16,3,0.8153878291750215,0.8115045447107357,0.38832844642857633
16,4,0.8153878291750215,0.7109955064638969,10.439232271112465
16,5,0.8153878291750215,0.6217412289889184,19.364660018610312
16,6,0.8153878291750215,0.7709516464473067,4.443618272771477
16,7,0.8153878291750215,0.7470632331747934,6.832459600022811
16,8,0.8153878291750215,0.7456590300801725,6.972879909484897
17,0,0.7846825158494393,0.6544874193806125,13.019509646882677
17,1,0.7846825158494393,0.6724916265323087,11.219088931713062
17,2,0.7846825158494393,0.6052034854666213,17.947903038281797
17,3,0.7846825158494393,0.6522039730328973,13.247854281654192
17,4,0.7846825158494393,0.7169746593054696,6.770785654396971
17,5,0.7846825158494393,0.633914936188582,15.07675796608573
17,6,0.7846825158494393,0.7759004901726181,0.8782025676821181
17,7,0.7846825158494393,0.7030387177287738,8.164379812066546
17,8,0.7846825158494393,0.7335506975865556,5.113181826288371
18,0,0.7198853004998593,0.6744674068576897,4.541789364216964
18,1,0.7198853004998593,0.6669881756833314,5.289712481652797
18,2,0.7198853004998593,0.6801757973645128,3.970950313534649
18,3,0.7198853004998593,0.5738147922257205,14.60705082741388
18,4,0.7198853004998593,0.6039321570088233,11.595314349103603
18,5,0.7198853004998593,0.5176741228812226,20.22111776186367
18,6,0.7198853004998593,0.7404071192442555,-2.052181874439618
18,7,0.7198853004998593,0.6556778675154029,6.420743298445641
18,8,0.7198853004998593,0.6802043324430893,3.9680968056770016
19,0,0.8087404583074932,0.7555199906904748,5.322046761701838
19,1,0.8087404583074932,0.7363532648953218,7.238719341217137
19,2,0.8087404583074932,0.7615309666146425,4.720949169285071
19,3,0.8087404583074932,0.5480418564732291,26.069860183426407
19,4,0.8087404583074932,0.6700163960032381,13.872406230425504
19,5,0.8087404583074932,0.4415747439255223,36.716571438197086
19,6,0.8087404583074932,0.7864288233610539,2.2311634946439285
19,7,0.8087404583074932,0.7454045784850891,6.333587982240408
19,8,0.8087404583074932,0.7376268496060163,7.111360870147687
20,0,0.7833283199318877,0.7228879264811258,6.044039345076191
20,1,0.7833283199318877,0.7261398350116472,5.718848492024042
20,2,0.7833283199318877,0.7106390060983561,7.268931383353161
20,3,0.7833283199318877,0.7630653958255476,2.026292410634012
20,4,0.7833283199318877,0.7162884422923549,6.703987763953279
20,5,0.7833283199318877,0.7070807149951355,7.62476049367522
20,6,0.7833283199318877,0.7602590530818629,2.306926685002475
20,7,0.7833283199318877,0.6631496098090517,12.0178710122836
20,8,0.7833283199318877,0.7047526985574838,7.857562137440388
21,0,0.7528082231669675,0.4864907304183323,26.63174927486352
21,1,0.7528082231669675,0.7990494064046674,-4.624118323769988
21,2,0.7528082231669675,0.7427547020780219,1.0053521088945638
21,3,0.7528082231669675,0.6277569332551426,12.50512899118249
21,4,0.7528082231669675,0.6809961495629517,7.181207360401576
21,5,0.7528082231669675,0.5165847761845668,23.62234469824007
21,6,0.7528082231669675,0.7462737872348857,0.6534435932081806
21,7,0.7528082231669675,0.6820279694771818,7.078025368978569
21,8,0.7528082231669675,0.6788661547632435,7.394206840372397
22,0,0.6925861181623543,0.6895024674201303,0.30836507422239423
22,1,0.6925861181623543,0.6412165997747304,5.136951838762382
22,2,0.6925861181623543,0.600691579515003,9.189453864735132
22,3,0.6925861181623543,0.6391093961036572,5.347672205869703
22,4,0.6925861181623543,0.6145387681281519,7.804735003420237
22,5,0.6925861181623543,0.5750698028861738,11.751631527618045
22,6,0.6925861181623543,0.7002338189402006,-0.7647700777846378
22,7,0.6925861181623543,0.5777124765038073,11.487364165854697
22,8,0.6925861181623543,0.5873304292151679,10.52556889471864
23,0,0.6686381247420874,0.562236008066656,10.640211667543142
23,1,0.6686381247420874,0.6240649625883965,4.457316215369089
23,2,0.6686381247420874,0.6623656558064244,0.6272468935663023
23,3,0.6686381247420874,0.6507399226726998,1.7898202069387636
23,4,0.6686381247420874,0.5363334034062799,13.23047213358075
23,5,0.6686381247420874,0.4191242182344649,24.95139065076225
23,6,0.6686381247420874,0.6403341520045145,2.83039727375729
23,7,0.6686381247420874,0.56044600869323,10.819211604885737
23,8,0.6686381247420874,0.586116600749753,8.252152399233436
24,0,0.7222903976351954,0.5852231575063835,13.706724012881189
24,1,0.7222903976351954,0.6340968851197469,8.819351251544848
24,2,0.7222903976351954,0.640795757691529,8.149463994366645
24,3,0.7222903976351954,0.7593392852337657,-3.704888759857028
24,4,0.7222903976351954,0.5528430573663624,16.944734026883303
24,5,0.7222903976351954,0.372350089577433,34.99403080577624
24,6,0.7222903976351954,0.6320992691824877,9.019112845270772
24,7,0.7222903976351954,0.5617315874053744,16.0558810229821
24,8,0.7222903976351954,0.6894715442814796,3.2818853353715816
25,0,0.7726283789451485,0.6910666635305382,8.15617154146102
25,1,0.7726283789451485,0.7211927458104592,5.143563313468924
25,2,0.7726283789451485,0.6428058667298069,12.982251221534158
25,3,0.7726283789451485,0.7055745020784008,6.705387686674769
25,4,0.7726283789451485,0.600742543045143,17.18858359000055
25,5,0.7726283789451485,0.4912334282110675,28.139495073408092
25,6,0.7726283789451485,0.7593636306848242,1.326474826032431
25,7,0.7726283789451485,0.673912167511147,9.871621143400144
25,8,0.7726283789451485,0.7322310987194152,4.03972802257333
26,0,0.6832270145833993,0.5928167735316381,9.04102410517612
26,1,0.6832270145833993,0.6227443006782392,6.048271390516014
26,2,0.6832270145833993,0.6747395950241343,0.8487419559265019
26,3,0.6832270145833993,0.6479153416460807,3.5311672937318628
26,4,0.6832270145833993,0.592684064282488,9.054295030091131
26,5,0.6832270145833993,0.42718959181563776,25.603742276776153
26,6,0.6832270145833993,0.6801368169427966,0.3090197640602699
26,7,0.6832270145833993,0.643624747187059,3.960226739634032
26,8,0.6832270145833993,0.5774958901406214,10.573112444277788
27,0,0.8557857985175689,0.7967617553342379,5.902404318333099
27,1,0.8557857985175689,0.8617400934287632,-0.5954294911194369
27,2,0.8557857985175689,0.713839678499605,14.194612001796392
27,3,0.8557857985175689,0.6954585663715299,16.032723214603894
27,4,0.8557857985175689,0.7527958037565365,10.298999476103232
27,5,0.8557857985175689,0.6881124153697353,16.767338314783352
27,6,0.8557857985175689,0.8355966671074901,2.018913141007872
27,7,0.8557857985175689,0.7715269073504384,8.425889116713048
27,8,0.8557857985175689,0.7897424577191454,6.604334079842344
28,0,0.722573517443186,0.673518901208611,4.905461623457496
28,1,0.722573517443186,0.70792444168862,1.4649075754565977
28,2,0.722573517443186,0.6638879849578558,5.868553248533015
28,3,0.722573517443186,0.6954365390676607,2.713697837552531
28,4,0.722573517443186,0.7023728234810234,2.020069396216262
28,5,0.722573517443186,0.5354736549293001,18.70998625138859
28,6,0.722573517443186,0.7038747800393763,1.8698737403809673
28,7,0.722573517443186,0.6147613704700096,10.781214697317642
28,8,0.722573517443186,0.6456426551881291,7.693086225505685
29,0,0.759310221468024,0.6495988909748297,10.971133049319427
29,1,0.759310221468024,0.7301030776973048,2.92071437707192
29,2,0.759310221468024,0.71382318046735,4.548704100067392
29,3,0.759310221468024,0.7471914994528011,1.2118722015222905
29,4,0.759310221468024,0.7169522887940897,4.235793267393428
29,5,0.759310221468024,0.4368881366130445,32.24220848549795
29,6,0.759310221468024,0.7508154996758356,0.8494721792188353
29,7,0.759310221468024,0.7148531055343211,4.445711593370283
29,8,0.759310221468024,0.6415631293736523,11.774709209437162
30,0,0.7745836493029226,0.738297599482046,3.6286049820876576
30,1,0.7745836493029226,0.6512088761173628,12.337477318555978
30,2,0.7745836493029226,0.6661201385082897,10.84635107946329
30,3,0.7745836493029226,0.6998826961100604,7.4700953192862185
30,4,0.7745836493029226,0.7180784342520585,5.650521505086403
30,5,0.7745836493029226,0.5795311474145917,19.505250188833088
30,6,0.7745836493029226,0.8069618880620681,-3.2378238759145583
30,7,0.7745836493029226,0.7010771338247208,7.350651547820175
30,8,0.7745836493029226,0.7406609058608705,3.392274344205204
31,0,0.699700531217571,0.5518690666361679,14.783146458140317
31,1,0.699700531217571,0.6612908681448257,3.8409663072745293
31,2,0.699700531217571,0.6152574298964999,8.444310132107113
31,3,0.699700531217571,0.6707383547129324,2.8962176504638615
31,4,0.699700531217571,0.6435492370554584,5.615129416211262
31,5,0.699700531217571,0.5817974568810398,11.790307433653124
31,6,0.699700531217571,0.6783881248297307,2.1312406387840377
31,7,0.699700531217571,0.5699856266536738,12.971490456389724
31,8,0.699700531217571,0.5900000623064032,10.97004689111678
32,0,0.6931874788744096,0.6331119433983861,6.007553547602351
32,1,0.6931874788744096,0.5763028230750331,11.688465579937645
32,2,0.6931874788744096,0.6864109988524209,0.6776480021988718
32,3,0.6931874788744096,0.6776136577262899,1.557382114811967
32,4,0.6931874788744096,0.5709475028023415,12.223997607206805
32,5,0.6931874788744096,0.6222153465346535,7.097213233975608
32,6,0.6931874788744096,0.6861491272113034,0.7038351663106179
32,7,0.6931874788744096,0.6569296396208586,3.625783925355097
32,8,0.6931874788744096,0.6784776947318865,1.4709784142523108
33,0,0.8972350510716166,0.7688363072175621,12.839874385405448
33,1,0.8972350510716166,0.8102769785316161,8.695807254000055
33,2,0.8972350510716166,0.8131211420340544,8.411390903756221
33,3,0.8972350510716166,0.7729756043031246,12.425944676849198
33,4,0.8972350510716166,0.8046855142663359,9.254953680528066
33,5,0.8972350510716166,0.8362074703362796,6.102758073533698
33,6,0.8972350510716166,0.7810075890989211,11.622746197269551
33,7,0.8972350510716166,0.7318827914088598,16.53522596627568
33,8,0.8972350510716166,0.7881376320070588,10.909741906455784
34,0,0.8480412581353622,0.6970758863879575,15.096537174740476
34,1,0.8480412581353622,0.7740276060645814,7.401365207078081
34,2,0.8480412581353622,0.8136916615506469,3.434959658471537
34,3,0.8480412581353622,0.8071957753798911,4.084548275547117
34,4,0.8480412581353622,0.789472391114183,5.856886702117925
34,5,0.8480412581353622,0.7905037071735628,5.753755096179947
34,6,0.8480412581353622,0.8033767124422068,4.466454569315548
34,7,0.8480412581353622,0.7717366932794264,7.630456485593584
34,8,0.8480412581353622,0.7716774355898326,7.636382254552965
35,0,0.7166765698142441,0.661941273154538,5.473529665970611
35,1,0.7166765698142441,0.6445456997872098,7.213087002703434
35,2,0.7166765698142441,0.68643010524444,3.0246464569804066
35,3,0.7166765698142441,0.64579812521673,7.087844459751413
35,4,0.7166765698142441,0.6773521462632368,3.9324423551007293
35,5,0.7166765698142441,0.6996967382528874,1.697983156135674
35,6,0.7166765698142441,0.7019697870518954,1.4706782762348714
35,7,0.7166765698142441,0.6875879757075742,2.9088594106669863
35,8,0.7166765698142441,0.6769848950469057,3.969167476733837
36,0,0.6972719579309536,0.6499472976778475,4.732466025310611
36,1,0.6972719579309536,0.6347754536143162,6.249650431663745
36,2,0.6972719579309536,0.6369842608555215,6.028769707543214
36,3,0.6972719579309536,0.6532751211013396,4.399683682961408
36,4,0.6972719579309536,0.6938090924775707,0.3462865453382924
36,5,0.6972719579309536,0.7112850592737244,-1.4013101342770784
36,6,0.6972719579309536,0.6505148020152294,4.675715591572427
36,7,0.6972719579309536,0.5851801599614512,11.209179796950242
36,8,0.6972719579309536,0.6217332565869642,7.553870134398943
37,0,0.8657073024647037,0.7725922412340851,9.311506123061864
37,1,0.8657073024647037,0.7846890630918322,8.101823937287156
37,2,0.8657073024647037,0.7429958021040768,12.271150036062695
37,3,0.8657073024647037,0.8707244657136486,-0.5017163248944856
37,4,0.8657073024647037,0.7559715101075395,10.973579235716425
37,5,0.8657073024647037,0.7877748049130062,7.793249755169751
37,6,0.8657073024647037,0.7798476112582028,8.585969120650095
37,7,0.8657073024647037,0.7437621603280962,12.194514213660756
37,8,0.8657073024647037,0.7577836732064537,10.792362925825005
38,0,0.8147903477390973,0.7167005683636631,9.808977937543418
38,1,0.8147903477390973,0.7661945828890699,4.859576485002737
38,2,0.8147903477390973,0.64197935485984,17.281099287925727
38,3,0.8147903477390973,0.7439689380387055,7.082140970039186
38,4,0.8147903477390973,0.5031448869608424,31.164546077825495
38,5,0.8147903477390973,0.5040162699226991,31.07740778163982
38,6,0.8147903477390973,0.7853494921750602,2.9440855564037083
38,7,0.8147903477390973,0.7336998279944459,8.109051974465142
38,8,0.8147903477390973,0.736985236985237,7.780511075386032
39,0,0.7576870337508315,0.6422200383852225,11.5466995365609
39,1,0.7576870337508315,0.7597367115793844,-0.20496778285529205
39,2,0.7576870337508315,0.7429366533803698,1.4750380370461613
39,3,0.7576870337508315,0.6695376542888392,8.81493794619923
39,4,0.7576870337508315,0.6475256977012473,11.016133604958412
39,5,0.7576870337508315,0.3391888462504062,41.84981875004253
39,6,0.7576870337508315,0.7451701120234235,1.2516921727407926
39,7,0.7576870337508315,0.6573848646217066,10.030216912912483
39,8,0.7576870337508315,0.7210523587179776,3.663467503285389
40,0,0.7364694395208892,0.6345229601790372,10.194647934185197
40,1,0.7364694395208892,0.7180989430008329,1.837049652005629
40,2,0.7364694395208892,0.752511006463367,-1.6041566942477825
40,3,0.7364694395208892,0.7064818092996961,2.9987630221193107
40,4,0.7364694395208892,0.7323593020467316,0.411013747415756
40,5,0.7364694395208892,0.3817993144507079,35.467012507018126
40,6,0.7364694395208892,0.6976897734549168,3.8779666065972385
40,7,0.7364694395208892,0.5784767628563172,15.799267666457196
40,8,0.7364694395208892,0.6277913035367751,10.867813598411402
