subject,channel,f1_full,f1_occluded,drop_pp
1,0,0.6608649012800334,0.6421017302020456,1.876317107798775
1,1,0.6608649012800334,0.6519379119946516,0.8926989285381826
1,2,0.6608649012800334,0.6709130993296697,-1.0048198049636303
1,3,0.6608649012800334,0.6332104910707955,2.7654410209237867
1,4,0.6608649012800334,0.6737351907666271,-1.2870289486593744
1,5,0.6608649012800334,0.6162931193418243,4.45717819382091
1,6,0.6608649012800334,0.7319933523328678,-7.112845105283439
1,7,0.6608649012800334,0.6215123915527051,3.935250972732829
1,8,0.6608649012800334,0.6637043887330528,-0.2839487453019429
2,0,0.8979962541725642,0.8894394124857905,0.8556841686773731
2,1,0.8979962541725642,0.8793488307001255,1.864742347243875
2,2,0.8979962541725642,0.8562061756385305,4.179007853403371
2,3,0.8979962541725642,0.8857232168281706,1.2273037344393667
2,4,0.8979962541725642,0.9013643777756346,-0.3368123603070372
2,5,0.8979962541725642,0.8756718879129961,2.232436625956813
2,6,0.8979962541725642,0.8634592036616392,3.453705051092504
2,7,0.8979962541725642,0.8562362589165327,4.175999525603158
2,8,0.8979962541725642,0.8955902942178484,0.24059599547158195
3,0,0.8624851587375306,0.8807214860086778,-1.8236327271147212
3,1,0.8624851587375306,0.8495787132527675,1.2906445484763163
3,2,0.8624851587375306,0.8404579862463353,2.2027172491195346
3,3,0.8624851587375306,0.7458978573581343,11.658730137939632
3,4,0.8624851587375306,0.8705034621956195,-0.8018303458088849
3,5,0.8624851587375306,0.8646887951497635,-0.22036364122328678
3,6,0.8624851587375306,0.8511942335377427,1.1290925199787916
3,7,0.8624851587375306,0.8107162488346961,5.1768909902834555
3,8,0.8624851587375306,0.8557031987167849,0.6781960020745714
4,0,0.8549036334044385,0.859984402958728,-0.5080769554289488
4,1,0.8549036334044385,0.8188867037228948,3.6016929681543686
4,2,0.8549036334044385,0.8091691184453849,4.573451495905367
4,3,0.8549036334044385,0.8366306862081199,1.8272947196318667
4,4,0.8549036334044385,0.8724648112468805,-1.7561177842441933
4,5,0.8549036334044385,0.8569882398124726,-0.20846064080340954
4,6,0.8549036334044385,0.8613061853046142,-0.640255190017569
4,7,0.8549036334044385,0.8635638038474489,-0.8660170443010373
4,8,0.8549036334044385,0.8218565049235271,3.3047128480911403
5,0,0.6658482543371645,0.6390175409895131,2.6830713347651414
5,1,0.6658482543371645,0.6779947237147829,-1.2146469377618319
5,2,0.6658482543371645,0.6932779012720434,-2.7429646934878815
5,3,0.6658482543371645,0.683637954149978,-1.778969981281342
5,4,0.6658482543371645,0.6430090848059598,2.2839169531204795
5,5,0.6658482543371645,0.6455404402648246,2.0307814072339947
5,6,0.6658482543371645,0.665950434799119,-0.010218046195442643
5,7,0.6658482543371645,0.6577260972958585,0.8122157041306033
5,8,0.6658482543371645,0.6451377578622325,2.071049647493206
6,0,0.8098782231580404,0.7731330967369687,3.674512642107164
6,1,0.8098782231580404,0.7955105336405364,1.4367689517504
6,2,0.8098782231580404,0.813110068603313,-0.3231845445272663
6,3,0.8098782231580404,0.8277546182756573,-1.787639511761696
6,4,0.8098782231580404,0.7914245225860804,1.8453700571959941
6,5,0.8098782231580404,0.819864277375119,-0.9986054217078655
6,6,0.8098782231580404,0.7926573996672348,1.722082349080556
6,7,0.8098782231580404,0.7491433634610221,6.073485969701831
6,8,0.8098782231580404,0.7324973323014448,7.738089085659561
7,0,0.7936011549872936,0.7807260066188637,1.2875148368429845
7,1,0.7936011549872936,0.7404412067111251,5.315994827616843
7,2,0.7936011549872936,0.7778130057132773,1.5788149274016283
7,3,0.7936011549872936,0.7859276992890525,0.7673455698241072
7,4,0.7936011549872936,0.7689563571225013,2.4644797864792234
7,5,0.7936011549872936,0.7471270426989984,4.647411228829512
7,6,0.7936011549872936,0.7196940181716702,7.3907136815623335
7,7,0.7936011549872936,0.779398743702987,1.4202411284306549
7,8,0.7936011549872936,0.807912866328082,-1.4311711340788458
8,0,0.8471602567970994,0.8465712752464138,0.058898155068554114
8,1,0.8471602567970994,0.8434030279223441,0.37572288747552696
8,2,0.8471602567970994,0.8647147903363885,-1.7554533539289152
8,3,0.8471602567970994,0.842567099877078,0.45931569200213795
8,4,0.8471602567970994,0.8306815986439072,1.647865815319216
8,5,0.8471602567970994,0.8306441559843678,1.6516100812731582
8,6,0.8471602567970994,0.862023788924599,-1.486353212749958
8,7,0.8471602567970994,0.8064430995771796,4.071715721991975
8,8,0.8471602567970994,0.8489679777637607,-0.18077209666612637
9,0,0.8206018992716058,0.8092318115249401,1.1370087746665702
9,1,0.8206018992716058,0.7978832924285209,2.271860684308491
9,2,0.8206018992716058,0.8080066470161458,1.2595252255459988
9,3,0.8206018992716058,0.8186163039714308,0.1985595300174947
9,4,0.8206018992716058,0.82263824605965,-0.20363467880442077
9,5,0.8206018992716058,0.8230739663114852,-0.24720670398794553
9,6,0.8206018992716058,0.8099450127193311,1.0656886552274702
9,7,0.8206018992716058,0.7806885477241564,3.991335154744935
9,8,0.8206018992716058,0.8215914112266598,-0.09895119550540343
10,0,0.7454673963178456,0.7424874528723584,0.2979943445487243
10,1,0.7454673963178456,0.7613314314063928,-1.5864035088547168
10,2,0.7454673963178456,0.7318214426652516,1.3645953652594023
10,3,0.7454673963178456,0.6972306941503604,4.823670216748521
10,4,0.7454673963178456,0.7356669453377723,0.9800450980073316
10,5,0.7454673963178456,0.740130758222749,0.5336638095096657
10,6,0.7454673963178456,0.7329845444428148,1.2482851875030843
10,7,0.7454673963178456,0.7267436430859954,1.872375323185027
10,8,0.7454673963178456,0.7452025324236278,0.02648638942178705
11,0,0.92531814109308,0.9240613601892828,0.12567809037972166
11,1,0.92531814109308,0.8759295641670871,4.938857692599285
11,2,0.92531814109308,0.8811047700082131,4.421337108486689
11,3,0.92531814109308,0.8865038370132198,3.8814304079860196
11,4,0.92531814109308,0.8814907099790822,4.382743111399778
11,5,0.92531814109308,0.9145882328380037,1.0729908255076248
11,6,0.92531814109308,0.9329589036819255,-0.7640762588845496
11,7,0.92531814109308,0.9364302574683152,-1.1112116375235237
11,8,0.92531814109308,0.9116618645133234,1.3656276579756543
12,0,0.9045065795415544,0.8939584298733809,1.0548149668173523
12,1,0.9045065795415544,0.8855973445288284,1.8909235012726011
12,2,0.9045065795415544,0.8647017975623346,3.9804781979219883
12,3,0.9045065795415544,0.8710661983766974,3.3440381164857036
12,4,0.9045065795415544,0.9149980763082076,-1.0491496766653174
12,5,0.9045065795415544,0.905447543152023,-0.09409636104685815
12,6,0.9045065795415544,0.9037203002319281,0.07862793096263809
12,7,0.9045065795415544,0.8630911378776714,4.1415441663883
12,8,0.9045065795415544,0.8613570164451629,4.31495630963915
13,0,0.9305390330663545,0.9192231751007301,1.1315857965624398
13,1,0.9305390330663545,0.909683502055602,2.085553101075255
13,2,0.9305390330663545,0.913786592463953,1.6752440602401553
13,3,0.9305390330663545,0.903223779635871,2.7315253430483577
13,4,0.9305390330663545,0.8903158543207934,4.022317874556114
13,5,0.9305390330663545,0.9020041905119305,2.8534842554424067
13,6,0.9305390330663545,0.9221709938262349,0.836803924011964
13,7,0.9305390330663545,0.9037009534531633,2.683807961319129
13,8,0.9305390330663545,0.9176377467594834,1.2901286306871151
14,0,0.8412801025605904,0.8194085532289882,2.187154933160218
14,1,0.8412801025605904,0.8325973930457404,0.8682709514849951
14,2,0.8412801025605904,0.8411384176554377,0.014168490515265031
14,3,0.8412801025605904,0.7827231343728597,5.855696818773071
14,4,0.8412801025605904,0.8417249894289671,-0.04448868683767371
14,5,0.8412801025605904,0.8409381401432536,0.03419624173367497
14,6,0.8412801025605904,0.8281420397835877,1.313806277700269
14,7,0.8412801025605904,0.7956879148457747,4.559218771481566
14,8,0.8412801025605904,0.8089369199647399,3.234318259585045
15,0,0.9060692529449854,0.8648263004254053,4.12429525195801
15,1,0.9060692529449854,0.9189856758377449,-1.2916422892759516
15,2,0.9060692529449854,0.8877260657879975,1.8343187156987906
15,3,0.9060692529449854,0.9011365587068543,0.4932694238131141
15,4,0.9060692529449854,0.9301477258753044,-2.407847293031895
15,5,0.9060692529449854,0.9127825186465244,-0.6713265701538962
15,6,0.9060692529449854,0.8996959747903516,0.6373278154633844
15,7,0.9060692529449854,0.8615337111304853,4.453554181450015
15,8,0.9060692529449854,0.9043619598015237,0.1707293143461741
16,0,0.8535704584897298,0.8585804078189931,-0.5009949329263352
16,1,0.8535704584897298,0.8557798817901553,-0.2209423300425506
16,2,0.8535704584897298,0.8643066762699704,-1.0736217780240587
16,3,0.8535704584897298,0.8482005942171036,0.5369864272626201
16,4,0.8535704584897298,0.8286343098763331,2.493614861339666
16,5,0.8535704584897298,0.8417272462482625,1.1843212241467338
16,6,0.8535704584897298,0.8586411667463768,-0.5070708256647016
16,7,0.8535704584897298,0.805468005108217,4.810245338151276
16,8,0.8535704584897298,0.8272266114203966,2.6343847069333237
17,0,0.8377723541390723,0.8376834212047869,0.008893293428535731
17,1,0.8377723541390723,0.8690052393247093,-3.123288518563705
17,2,0.8377723541390723,0.8546121443319836,-1.6839790192911375
17,3,0.8377723541390723,0.8081149556674389,2.96573984716334
17,4,0.8377723541390723,0.8391757244521827,-0.14033703131104414
17,5,0.8377723541390723,0.8183189154946013,1.945343864447091
17,6,0.8377723541390723,0.8150526840858532,2.2719670053219065
17,7,0.8377723541390723,0.7945410327058486,4.323132143322361
17,8,0.8377723541390723,0.791145886584606,4.6626467554466196
18,0,0.8918563571875991,0.8743277933230018,1.7528563864597335
18,1,0.8918563571875991,0.9037174221449842,-1.1861064957385037
18,2,0.8918563571875991,0.8937402757016045,-0.18839185140053782
18,3,0.8918563571875991,0.8050224702878728,8.683388689972638
18,4,0.8918563571875991,0.8728891002476125,1.8967256939986687
18,5,0.8918563571875991,0.9011973494059664,-0.9340992218367261
18,6,0.8918563571875991,0.9235439191811222,-3.1687561993523072
18,7,0.8918563571875991,0.8451100652934523,4.674629189414681
18,8,0.8918563571875991,0.8867786642533335,0.5077692934265632
19,0,0.8417459015268012,0.8275495734930053,1.419632803379589
19,1,0.8417459015268012,0.835587184699011,0.6158716827790123
19,2,0.8417459015268012,0.8323753007718178,0.9370600754983416
19,3,0.8417459015268012,0.7951717556637665,4.6574145863034655
19,4,0.8417459015268012,0.8099294666375418,3.1816434889259337
19,5,0.8417459015268012,0.8131831691618265,2.856273236497464
19,6,0.8417459015268012,0.8480083824396373,-0.6262480912836099
19,7,0.8417459015268012,0.8242324556799748,1.7513445846826348
19,8,0.8417459015268012,0.8340882843430152,0.7657617183785992
20,0,0.852884555888521,0.8387539547030245,1.4130601185496472
20,1,0.852884555888521,0.8367115939376508,1.6172961950870146
20,2,0.852884555888521,0.8076804875780548,4.5204068310466194
20,3,0.852884555888521,0.8318434732764074,2.104108261211357
20,4,0.852884555888521,0.8514250502517879,0.14595056367330272
20,5,0.852884555888521,0.8564711432326061,-0.35865873440851237
20,6,0.852884555888521,0.8474779534947918,0.5406602393729143
20,7,0.852884555888521,0.8137166593396217,3.9167896548899295
20,8,0.852884555888521,0.7990115718418516,5.38729840466694
21,0,0.8458306694065467,0.8310828023027378,1.4747867103808932
21,1,0.8458306694065467,0.86508333995331,-1.9252670546763273
21,2,0.8458306694065467,0.8596534639259276,-1.3822794519380843
21,3,0.8458306694065467,0.8148763453341055,3.0954324072441253
21,4,0.8458306694065467,0.8307246167354825,1.510605267106424
21,5,0.8458306694065467,0.8605898039020555,-1.4759134495508808
21,6,0.8458306694065467,0.841658471899398,0.41721975071487005
21,7,0.8458306694065467,0.8584431670689391,-1.2612497662392363
21,8,0.8458306694065467,0.8247110199873388,2.1119649419207964
22,0,0.7935128342856967,0.8072416646015877,-1.3728830315891005
22,1,0.7935128342856967,0.8327263613705527,-3.9213527084855926
22,2,0.7935128342856967,0.7833211709695537,1.0191663316143074
22,3,0.7935128342856967,0.7583712258615172,3.514160842417957
22,4,0.7935128342856967,0.7698684444487098,2.364438983698691
22,5,0.7935128342856967,0.7933681543145417,0.014467997115508169
22,6,0.7935128342856967,0.7755877412363282,1.7925093049368512
22,7,0.7935128342856967,0.7277846299810247,6.572820430467208
22,8,0.7935128342856967,0.7630355100766193,3.047732420907745
23,0,0.8248421591006327,0.7679573782900162,5.688478081061654
23,1,0.8248421591006327,0.8122902002212347,1.2551958879398084
23,2,0.8248421591006327,0.8243422734916732,0.049988560895952716
23,3,0.8248421591006327,0.8031878500226592,2.16543090779735
23,4,0.8248421591006327,0.8244135693931642,0.042858970746850744
23,5,0.8248421591006327,0.8083673243785097,1.6474834722123077
23,6,0.8248421591006327,0.8060201396637351,1.8822019436897652
23,7,0.8248421591006327,0.8073110470042533,1.7531112096379475
23,8,0.8248421591006327,0.7887578553694258,3.608430373120697
24,0,0.7406695146054865,0.7433693389645111,-0.2699824359024605
24,1,0.7406695146054865,0.7386429854208736,0.20265291846128797
24,2,0.7406695146054865,0.7170913657425202,2.3578148862966275
24,3,0.7406695146054865,0.7642235207501089,-2.355400614462244
24,4,0.7406695146054865,0.7157130094392123,2.4956505166274123
24,5,0.7406695146054865,0.7318039660041299,0.8865548601356577
24,6,0.7406695146054865,0.7473817731798988,-0.6712258574412377
24,7,0.7406695146054865,0.6798762558264331,6.079325877905339
24,8,0.7406695146054865,0.729582808986438,1.1086705619048454
25,0,0.8968093233659302,0.9086263423580343,-1.1817018992104078
25,1,0.8968093233659302,0.9110247944634153,-1.421547109748511
25,2,0.8968093233659302,0.8653773487275076,3.143197463842262
25,3,0.8968093233659302,0.8660814472703026,3.072787609562766
25,4,0.8968093233659302,0.8409898511006048,5.581947226532547
25,5,0.8968093233659302,0.8980177303011949,-0.12084069352646942
25,6,0.8968093233659302,0.8987356220084515,-0.19262986425212514
25,7,0.8968093233659302,0.868626108707733,2.8183214658197175
25,8,0.8968093233659302,0.8886747386485767,0.813458471735351
26,0,0.7950391548117816,0.7918432421746467,0.31959126371348123
26,1,0.7950391548117816,0.7863252589325296,0.8713895879251976
26,2,0.7950391548117816,0.7455434893664131,4.949566544536843
26,3,0.7950391548117816,0.748996462816524,4.604269199525756
26,4,0.7950391548117816,0.7647324619090367,3.0306692902744903
26,5,0.7950391548117816,0.7829655168358585,1.207363797592309
26,6,0.7950391548117816,0.7700806799062074,2.4958474905574124
26,7,0.7950391548117816,0.7966872503924074,-0.16480955806258413
26,8,0.7950391548117816,0.756676457973211,3.836269683857052
27,0,0.9017874046151717,0.8995531993808028,0.22342052343689023
27,1,0.9017874046151717,0.9019644004088296,-0.017699579365793028
27,2,0.9017874046151717,0.8856554662985047,1.6131938316667038
27,3,0.9017874046151717,0.8759043112102566,2.5883093404915125
27,4,0.9017874046151717,0.8862396424313962,1.5547762183775515
27,5,0.9017874046151717,0.9043658377844136,-0.25784331692418894
27,6,0.9017874046151717,0.8961884095351347,0.5598995080037028
27,7,0.9017874046151717,0.8996700244556003,0.21173801595714137
27,8,0.9017874046151717,0.9013389388389388,0.04484657762329203
28,0,0.8329200879038279,0.8627191534940037,-2.9799065590175866
28,1,0.8329200879038279,0.8205068173510828,1.2413270552745104
28,2,0.8329200879038279,0.8048910517660518,2.8029036137776075
28,3,0.8329200879038279,0.7955443484657252,3.7375739438102684
28,4,0.8329200879038279,0.7702030143054384,6.271707359838952
28,5,0.8329200879038279,0.7890650278687468,4.385506003508111
28,6,0.8329200879038279,0.8327908626511247,0.012922525270320229
28,7,0.8329200879038279,0.80406936360268,2.885072430114788
28,8,0.8329200879038279,0.8132161608639986,1.970392703982926
29,0,0.8458771318593495,0.8218109209042401,2.4066210955109413
29,1,0.8458771318593495,0.8349956914668006,1.0881440392548902
29,2,0.8458771318593495,0.7942036716491391,5.1673460210210465
29,3,0.8458771318593495,0.812846516859516,3.3030614999833507
29,4,0.8458771318593495,0.8037199334801102,4.2157198379239365
29,5,0.8458771318593495,0.8088650910944551,3.7012040764894394
29,6,0.8458771318593495,0.8579149814774402,-1.2037849618090624
29,7,0.8458771318593495,0.8224092214919547,2.3467910367394818
29,8,0.8458771318593495,0.8380595078806556,0.78176239786939
30,0,0.8500683502607554,0.8440925934752712,0.5975756785484232
30,1,0.8500683502607554,0.8308248502538379,1.9243500006917547
30,2,0.8500683502607554,0.8834919558682474,-3.3423605607491913
30,3,0.8500683502607554,0.8027178644648524,4.735048579590306
30,4,0.8500683502607554,0.8390496813382766,1.1018668922478825
30,5,0.8500683502607554,0.833332059822068,1.6736290438687407
30,6,0.8500683502607554,0.8400901429152203,0.9978207345535117
30,7,0.8500683502607554,0.82407659232831,2.599175793244546
30,8,0.8500683502607554,0.8109604202974899,3.910792996326551
31,0,0.8052515665102793,0.7883273019184168,1.692426459186247
31,1,0.8052515665102793,0.7973964712623771,0.7855095247902177
31,2,0.8052515665102793,0.7777915800881863,2.745998642209302
31,3,0.8052515665102793,0.7921283092698561,1.312325724042318
31,4,0.8052515665102793,0.7711067256080969,3.4144840902182394
31,5,0.8052515665102793,0.8101835231178034,-0.49319566075241017
31,6,0.8052515665102793,0.8142777820518395,-0.9026215541560245
31,7,0.8052515665102793,0.758879789108872,4.63717774014073
31,8,0.8052515665102793,0.7372107879407774,6.804077856950186
32,0,0.8581852052158183,0.8553342547216864,0.28509504941318653
32,1,0.8581852052158183,0.8528992173736659,0.5285987842152395
32,2,0.8581852052158183,0.8166240477047277,4.156115751109057
32,3,0.8581852052158183,0.8239588703568554,3.422633485896287
32,4,0.8581852052158183,0.8439675000941006,1.4217705121717716
32,5,0.8581852052158183,0.860359063633503,-0.2173858417684693
32,6,0.8581852052158183,0.8677937935203792,-0.9608588304560906
32,7,0.8581852052158183,0.7975961538461538,6.058905136966453
32,8,0.8581852052158183,0.8710249419099404,-1.2839736694122084
33,0,0.9072803072591132,0.883529582783692,2.375072447542126
33,1,0.9072803072591132,0.8717293443470634,3.5550962912049844
33,2,0.9072803072591132,0.898170651673041,0.9109655586072241
33,3,0.9072803072591132,0.8777763141825013,2.950399307661189
33,4,0.9072803072591132,0.9070753768591491,0.020493039996416496
33,5,0.9072803072591132,0.9090990827628934,-0.1818775503780179
33,6,0.9072803072591132,0.8917255446160112,1.5554762643102071
33,7,0.9072803072591132,0.8819580754020981,2.53222318570151
33,8,0.9072803072591132,0.9026224740510456,0.46578332080676743
34,0,0.9061044520584198,0.8780894933373297,2.8014958721090166
34,1,0.9061044520584198,0.9068812344174094,-0.07767823589895917
34,2,0.9061044520584198,0.9154567230807967,-0.9352271022376901
34,3,0.9061044520584198,0.8693798118761086,3.6724640182311252
34,4,0.9061044520584198,0.9125131040636794,-0.640865200525953
34,5,0.9061044520584198,0.9085635185692841,-0.24590665108642495
34,6,0.9061044520584198,0.9098927042361696,-0.3788252177749807
34,7,0.9061044520584198,0.8986618623755781,0.7442589682841727
34,8,0.9061044520584198,0.8955818507248205,1.052260133359928
35,0,0.7328677201620228,0.6801490199079738,5.271870025404901
35,1,0.7328677201620228,0.7134377998597979,1.9429920302224901
35,2,0.7328677201620228,0.7162065672341489,1.6661152927873957
35,3,0.7328677201620228,0.7269323396088135,0.5935380553209302
35,4,0.7328677201620228,0.7505378650978862,-1.7670144935863386
35,5,0.7328677201620228,0.7033242836941749,2.954343646784796
35,6,0.7328677201620228,0.7282446419690156,0.4623078193007224
35,7,0.7328677201620228,0.723979713995619,0.8888006166403839
35,8,0.7328677201620228,0.7113467954064284,2.1520924755594417
36,0,0.6986047344760923,0.6974460330690981,0.11587014069941448
36,1,0.6986047344760923,0.6699370067664656,2.8667727709626667
36,2,0.6986047344760923,0.6535259836107294,4.507875086536284
36,3,0.6986047344760923,0.6394290624314669,5.917567204462538
36,4,0.6986047344760923,0.7361159352842517,-3.7511200808159395
36,5,0.6986047344760923,0.7298105795408647,-3.120584506477242
36,6,0.6986047344760923,0.6852679373470694,1.3336797129022915
36,7,0.6986047344760923,0.6395737414619482,5.9030993014144055
36,8,0.6986047344760923,0.6477616436014269,5.0843090874665435
37,0,0.8252577527402464,0.8188719045937674,0.6385848146479023
37,1,0.8252577527402464,0.8307269914497004,-0.5469238709454038
37,2,0.8252577527402464,0.8188110027419921,0.6446749998254231
37,3,0.8252577527402464,0.8482447446185514,-2.2986991878304996
37,4,0.8252577527402464,0.8280220778364189,-0.27643250961725263
37,5,0.8252577527402464,0.8157867585250003,0.9470994215246109
37,6,0.8252577527402464,0.8178367423349481,0.7421010405298301
37,7,0.8252577527402464,0.81360503628517,1.1652716455076373
37,8,0.8252577527402464,0.8361993537384095,-1.0941600998163103
38,0,0.8860299847485986,0.845849641754753,4.018034299384565
38,1,0.8860299847485986,0.8542941666872906,3.1735818061307985
38,2,0.8860299847485986,0.869647328715927,1.6382656032671639
38,3,0.8860299847485986,0.8751929973539989,1.0836987394599706
38,4,0.8860299847485986,0.8619727776963549,2.405720705224368
38,5,0.8860299847485986,0.8936442704018492,-0.7614285653250619
38,6,0.8860299847485986,0.8743498945451059,1.16800902034927
38,7,0.8860299847485986,0.8398903385412125,4.613964620738608
38,8,0.8860299847485986,0.8778747294911096,0.8155255257489058
39,0,0.8604971091548272,0.838303868308869,2.2193240845958195
39,1,0.8604971091548272,0.8374298652387785,2.306724391604875
39,2,0.8604971091548272,0.8567680483327054,0.3729060822121877
39,3,0.8604971091548272,0.7496924626133722,11.080464654145505
39,4,0.8604971091548272,0.7989013902261987,6.159571892862859
39,5,0.8604971091548272,0.8475998251696841,1.2897283985143115
39,6,0.8604971091548272,0.8779944652463907,-1.7497356091563443
39,7,0.8604971091548272,0.8687525458633767,-0.8255436708549446
39,8,0.8604971091548272,0.8891613586511868,-2.8664249496359595
40,0,0.8232335298864084,0.7385010811620603,8.473244872434815
40,1,0.8232335298864084,0.8133318298059198,0.9901700080488629
40,2,0.8232335298864084,0.8560510912046526,-3.2817561318244204
40,3,0.8232335298864084,0.822353456716855,0.08800731695534081
40,4,0.8232335298864084,0.8342797632840793,-1.1046233397670857
40,5,0.8232335298864084,0.8332439326958407,-1.0010402809432328
40,6,0.8232335298864084,0.8334253153747126,-1.019178548830424
40,7,0.8232335298864084,0.7548027309394691,6.843079894693926
40,8,0.8232335298864084,0.7798104291080495,4.3423100778358865
