subject,channel,r,f1_drop_mean,f1_drop_sd
1,0,5,0.09637715292088953,0.007165583071911961
1,1,5,0.09496898554083255,0.007088036052397694
1,2,5,0.08057112836227716,0.013296247820087148
1,3,5,0.06176168544787004,0.0173589356983308
1,4,5,0.02116126038943622,0.0046781621627355035
1,5,5,0.0522037754020821,0.01057516889798904
1,6,5,0.002385300229653509,0.009147338028560863
1,7,5,0.12239558819692428,0.011094324221815102
1,8,5,0.07609605753001758,0.014606878293377002
2,0,5,0.07800880064232005,0.008625216880727015
2,1,5,0.07592096533320891,0.006920427357546876
2,2,5,0.11359837763617889,0.009006437038285004
2,3,5,0.06834993137874801,0.012870000701633905
2,4,5,0.06884134286539031,0.011393434056898386
2,5,5,0.13172658845613494,0.01215444543055185
2,6,5,0.034997751250042744,0.007656304139989504
2,7,5,0.09537328960643346,0.013671160153188687
2,8,5,0.04602769232154071,0.009782612133751374
3,0,5,0.09630457773963852,0.011987375182969695
3,1,5,0.09779532415936817,0.01637266370058925
3,2,5,0.12142073924648525,0.01610581116683956
3,3,5,0.15207811690025355,0.011106409534714918
3,4,5,0.07821363358222741,0.019280225167107666
3,5,5,0.11554289495273654,0.019737431282503964
3,6,5,0.024987766854969905,0.005757240200281615
3,7,5,0.10043125073918495,0.013190835579608557
3,8,5,0.10481576298155962,0.008590122690402439
4,0,5,0.08758537237515349,0.012995368879664236
4,1,5,0.1253823422934435,0.013510821492153399
4,2,5,0.0835644147911718,0.004033442290396976
4,3,5,0.05138220251448735,0.01982123393085064
4,4,5,0.10523297857253369,0.016411529209721457
4,5,5,0.08248321990480692,0.006443732365005173
4,6,5,0.030347699460317967,0.005984487624852412
4,7,5,0.07656521308135149,0.019569195807716475
4,8,5,0.07629154975450361,0.011569571670818487
5,0,5,0.06251039003748485,0.019429452281082442
5,1,5,0.04506522978571241,0.01354906046293474
5,2,5,0.0575475228853628,0.008170625252040585
5,3,5,0.025130473609305693,0.01012272112669603
5,4,5,0.07536945724177065,0.015380194869291063
5,5,5,0.08409872940454,0.0081619113150304
5,6,5,0.0245039024369611,0.009873247044748743
5,7,5,0.05516108474139725,0.004841333002557833
5,8,5,0.0692404488667139,0.014103534370799375
6,0,5,0.09767135408973296,0.013710813255277945
6,1,5,0.10861230244031414,0.013606346272225917
6,2,5,0.0414301406791292,0.0033012557825805033
6,3,5,0.06259045343370495,0.010719792656808584
6,4,5,0.07312018428733891,0.009385887288610742
6,5,5,0.03363721592566382,0.010669254451860682
6,6,5,0.02973734427468615,0.015263905378256646
6,7,5,0.10343556773038606,0.008804229903505711
6,8,5,0.12685973281769838,0.018613353848660807
7,0,5,0.10333648266178927,0.013398600647057841
7,1,5,0.15284151261177353,0.008443112729174982
7,2,5,0.10872413714680211,0.002395829022422267
7,3,5,0.06518697548303161,0.01401785111795143
7,4,5,0.11251958634519472,0.01039182118790775
7,5,5,0.11574316085186728,0.010855109232320045
7,6,5,0.10481394492387242,0.008668991584248695
7,7,5,0.12285215216571514,0.017204400362704427
7,8,5,0.0971118159771454,0.010976109887611423
8,0,5,0.10375950556021588,0.010933042624912149
8,1,5,0.0722993406807106,0.007682927085921429
8,2,5,0.03515061526334564,0.0035502541305635765
8,3,5,0.07372694460184818,0.017168738958220357
8,4,5,0.06465582676523898,0.011385243219530942
8,5,5,0.14446913018806767,0.016090376401924657
8,6,5,0.03025621185730485,0.011025242388261847
8,7,5,0.09578163345340482,0.00941529290425944
8,8,5,0.11127360071496402,0.01990497664031032
9,0,5,0.06622629376864268,0.01065980733733687
9,1,5,0.10395421949583997,0.013469851347962851
9,2,5,0.09263803414145529,0.0145823687589465
9,3,5,0.041235820835755034,0.010408942738692426
9,4,5,0.0824282725920333,0.020880408819051063
9,5,5,0.06640787804921275,0.012927659789939637
9,6,5,0.05813002313342412,0.0064341816254135775
9,7,5,0.14364367011958873,0.01487981406309954
9,8,5,0.05751169235078868,0.004070255224258306
10,0,5,0.05537509570239154,0.018375999350297906
10,1,5,0.03822593307855253,0.009692788741541336
10,2,5,0.04493900016093906,0.010972586632727656
10,3,5,0.08034767130507998,0.016618346532050448
10,4,5,0.06726846177964593,0.02097536380069975
10,5,5,0.07505536604829435,0.012570842671913836
10,6,5,0.024582945101097244,0.019299961598232763
10,7,5,0.09355095507261875,0.018652522639771678
10,8,5,0.07035743065413358,0.027413170238440608
11,0,5,0.08871324138713284,0.007605225437944031
11,1,5,0.10179361905830638,0.013634602484531182
11,2,5,0.11904333005522989,0.011059344401456664
11,3,5,0.08282379199068002,0.014197811144492634
11,4,5,0.10880550445553283,0.0121439671395835
11,5,5,0.09400135548264665,0.01201193805674608
11,6,5,0.036111044686683046,0.009311697457309509
11,7,5,0.09964396900223409,0.01836604869905926
11,8,5,0.0918590644724178,0.01586737202462513
12,0,5,0.08012016330255897,0.014233952225446826
12,1,5,0.08728408744994012,0.01649055024874856
12,2,5,0.1396831825484473,0.01957985772295697
12,3,5,0.09238338850100196,0.017075672609575772
12,4,5,0.09553522664247674,0.01229172211389936
12,5,5,0.0490279156582446,0.012947142715015033
12,6,5,0.048953049144270636,0.010999784306398834
12,7,5,0.13880334587855273,0.008386038638483338
12,8,5,0.07694155605709511,0.008637874278522917
13,0,5,0.11723310389508505,0.01705782434133326
13,1,5,0.04857183593488339,0.008632180159258387
13,2,5,0.04587787176069837,0.0076959174245482915
13,3,5,0.06214558658948961,0.006233027450386691
13,4,5,0.0929629353354748,0.0038427813443067285
13,5,5,0.2010419401716439,0.009317306693946483
13,6,5,0.048076245214706104,0.015573845679511112
13,7,5,0.07898516947200299,0.011535464013034312
13,8,5,0.07558763623566986,0.009889234882115181
14,0,5,0.07215629691543295,0.004503460941999334
14,1,5,0.07787511393158182,0.011323976061517457
14,2,5,0.06111019278709266,0.012580762992957044
14,3,5,0.09338977206952748,0.006189248923966051
14,4,5,0.08514447472778905,0.007789470026268446
14,5,5,0.09028782402350399,0.007020933292925288
14,6,5,0.03010514767100576,0.004116732256977941
14,7,5,0.09116974349118037,0.006514623177799346
14,8,5,0.08202855202527963,0.006135104731932079
15,0,5,0.09455988594992348,0.009772243226306881
15,1,5,0.0647813145991483,0.014984780349694667
15,2,5,0.07118386441571026,0.014159932423502487
15,3,5,0.017456561003487803,0.010160441320500722
15,4,5,0.08985317493582105,0.016579441843664226
15,5,5,0.08625180208948595,0.01254800663993198
15,6,5,0.07079094826407051,0.01124801614240296
15,7,5,0.08715848686500353,0.006055235359933448
15,8,5,0.07696250387364381,0.007916264182595485
16,0,5,0.12010286552699581,0.012816857655946414
16,1,5,0.08004634845476077,0.011450843746078023
16,2,5,0.05797874569931114,0.007883879918518466
16,3,5,0.061111372377992135,0.011383546407782776
16,4,5,0.07351878618453997,0.0044522078133995575
16,5,5,0.10789749302183671,0.008384717291923735
16,6,5,0.03192698235530589,0.013531038487712546
16,7,5,0.1505539468346778,0.01579118549386525
16,8,5,0.09357073852340021,0.015179045081576584
17,0,5,0.19146715817944496,0.018818142577301442
17,1,5,0.07101298079382161,0.015501049563398145
17,2,5,0.11106357159571008,0.01334070410013384
17,3,5,0.08870635331930718,0.011488149219940886
17,4,5,0.16207157209499423,0.02400266363712728
17,5,5,0.13267983294437574,0.010652216813877373
17,6,5,0.050647177909940264,0.011448279067485911
17,7,5,0.14728350193950893,0.015253280435059718
17,8,5,0.14569193572234423,0.004959329913014786
18,0,5,0.084019031567266,0.009917056661672008
18,1,5,0.052181161346841434,0.007101977783411255
18,2,5,0.07549706613844379,0.013295076831484474
18,3,5,0.11683166928050434,0.013986414515915107
18,4,5,0.06556008761153642,0.01587824967691463
18,5,5,0.11596303013413116,0.010698621499509385
18,6,5,0.0139086624543584,0.007562787045012673
18,7,5,0.13252427424567703,0.009255661906843274
18,8,5,0.03711299499532324,0.009263476775567605
19,0,5,0.0778675342599662,0.010408460078056314
19,1,5,0.06836661822832721,0.013834211722427749
19,2,5,0.05695206063373741,0.005224745677174389
19,3,5,0.10212276339646072,0.014023027919183946
19,4,5,0.09861012779174397,0.014654107985555012
19,5,5,0.11149376401382878,0.009965601589387751
19,6,5,0.07582543594354836,0.0066418561851581456
19,7,5,0.12542463854201968,0.009533460941273234
19,8,5,0.10976329939935954,0.012007038930837453
20,0,5,0.08502260727010424,0.023251054339072298
20,1,5,0.07188453381432736,0.013107769040622875
20,2,5,0.04443646388380011,0.0095510078548639
20,3,5,0.04718428631220184,0.0106592782828931
20,4,5,0.06808526934466833,0.00928450203694131
20,5,5,0.12045971625646416,0.011999048929908508
20,6,5,0.02862356184319039,0.003916024056060068
20,7,5,0.08970563191953829,0.001516203721056468
20,8,5,0.11986623132198197,0.013067992890009941
21,0,5,0.06869207941516409,0.006993685454614073
21,1,5,0.03773384849941552,0.007535388118822592
21,2,5,0.034728140967883306,0.013383262110958208
21,3,5,0.04452518672894277,0.01004517333718072
21,4,5,0.06428998799748245,0.022869139663895068
21,5,5,0.09614017423501128,0.008462901480574079
21,6,5,0.024951107968725194,0.011487375961873016
21,7,5,0.06913533089462491,0.00846920817874315
21,8,5,0.0760301541860702,0.009179454700519746
22,0,5,0.10480278518552597,0.021494215647488414
22,1,5,0.04844801132574579,0.008717255064711372
22,2,5,0.09284494280510025,0.0037686247023023204
22,3,5,0.05821677386599335,0.014320727097743367
22,4,5,0.10929457798060645,0.004826995681896408
22,5,5,0.06534241540055252,0.011696769211629541
22,6,5,0.062482927683777854,0.010317087880362629
22,7,5,0.11512047553580602,0.008123608949590782
22,8,5,0.10623863579980405,0.007587476707428929
23,0,5,0.12885272219631136,0.014185361273560456
23,1,5,0.10472576897390748,0.012367866870085722
23,2,5,0.0690118380132119,0.006683256609807813
23,3,5,0.07187266296072106,0.01474066659704959
23,4,5,0.07402702477800778,0.013726298876278895
23,5,5,0.08589692588143441,0.01074460059033125
23,6,5,0.06374587036506152,0.006826587123849056
23,7,5,0.1254016257982355,0.01832889727028602
23,8,5,0.07993385031733366,0.013019683377026544
24,0,5,0.0562443371002735,0.008935337309434735
24,1,5,0.05203370318604228,0.009827464806262854
24,2,5,0.09228812083565627,0.007330097478921762
24,3,5,0.07163995548192344,0.007549875675523454
24,4,5,0.1481359384311146,0.016277037604499178
24,5,5,0.08629922146116109,0.013188344236494592
24,6,5,0.044713228327194,0.0042289840865560495
24,7,5,0.1541758874902575,0.023184580557778153
24,8,5,0.08278179708375202,0.007414119091210836
25,0,5,0.07750730709568614,0.011544390926605683
25,1,5,0.07213052332791178,0.007798879498977562
25,2,5,0.11135177528460911,0.010033249650388883
25,3,5,0.07461103516079022,0.00863759252693918
25,4,5,0.12846132316596287,0.012544362900133655
25,5,5,0.04138481645905212,0.004554289557075464
25,6,5,0.04865535364905917,0.007001097104208604
25,7,5,0.11272527296058739,0.009089305371873233
25,8,5,0.12182227653804265,0.011526127839273063
26,0,5,0.09766573333299125,0.014091532582347455
26,1,5,0.08781802010514157,0.008880290495660404
26,2,5,0.10707151115966407,0.007923868951447248
26,3,5,0.0771944306983879,0.015046397303537285
26,4,5,0.11109244908655078,0.017609386877411624
26,5,5,0.11337138579658768,0.008908338310567726
26,6,5,0.05852527661971958,0.011517481801300905
26,7,5,0.1017492735003868,0.00986911593211515
26,8,5,0.09528772802678372,0.011447397301154584
27,0,5,0.09701392039026768,0.009707973351924035
27,1,5,0.07060621560264098,0.008073877679044205
27,2,5,0.10015133719760316,0.013725441573867913
27,3,5,0.044996424937191935,0.007606576853667429
27,4,5,0.1487639193661311,0.007620004829739129
27,5,5,0.12301077000049002,0.01274506569681661
27,6,5,0.048953022605988106,0.010637135903398619
27,7,5,0.09179796250414447,0.01070575311627756
27,8,5,0.0372850701310812,0.008032923034021831
28,0,5,0.0656227528093617,0.010065993453238477
28,1,5,0.05181386687980276,0.015324048656187118
28,2,5,0.04679224512600218,0.007013353754233012
28,3,5,0.06791520632578418,0.01718936958973987
28,4,5,0.11886700891194672,0.014026337790695098
28,5,5,0.2247523146273182,0.011463251250769938
28,6,5,0.02341819642012146,0.009111714657079984
28,7,5,0.06181697675212285,0.006454041087826884
28,8,5,0.08067515119430779,0.0062568224229539535
29,0,5,0.08879363989396663,0.015831605529994717
29,1,5,0.06293514964683597,0.013332427723214298
29,2,5,0.10248593868062705,0.016464279641264574
29,3,5,0.06899229142788613,0.010275297269689137
29,4,5,0.0986973182747101,0.010864600375214882
29,5,5,0.14634799535442092,0.012836067970294563
29,6,5,0.035749301639971295,0.013818465078072618
29,7,5,0.11342815298106249,0.01486621990039631
29,8,5,0.08764321929051218,0.016692344653280226
30,0,5,0.046715824994056285,0.009239720128981513
30,1,5,0.029107190697368092,0.016833544767160605
30,2,5,0.034393002596530574,0.015461100341621983
30,3,5,0.05890059501615856,0.013414195276155807
30,4,5,0.0263490093534553,0.006611659448785784
30,5,5,0.18616412729627987,0.011653581790644697
30,6,5,0.029874053157674885,0.013255001823976695
30,7,5,0.12128618378451231,0.012483496866347888
30,8,5,0.07113795083171308,0.020623152210245143
31,0,5,0.06135269271017187,0.005717908637450684
31,1,5,0.10800017928884778,0.004692821885627252
31,2,5,0.08669846798004421,0.01189406574080058
31,3,5,0.06487313850969187,0.020371876197552482
31,4,5,0.08645609422566576,0.013096557962060152
31,5,5,0.03738124633398356,0.0033754493830821376
31,6,5,0.04285793881179352,0.013907481274196649
31,7,5,0.09229317756882664,0.012702210687728421
31,8,5,0.11536389867065693,0.010964625207082208
32,0,5,0.06914528182526095,0.009330296222747982
32,1,5,0.0498807475755789,0.018516161501333932
32,2,5,0.07207633459183949,0.011417277648521637
32,3,5,0.04487801848248156,0.004245847274536613
32,4,5,0.173560813602714,0.01464795947366041
32,5,5,0.18512635049870518,0.0265965945618063
32,6,5,0.03254150880718667,0.018227966605957324
32,7,5,0.12791459146350354,0.013484671153980589
32,8,5,0.07182904714896561,0.017148786241990763
33,0,5,0.0881030545550436,0.009753115314757265
33,1,5,0.09160255825125205,0.014539069489795218
33,2,5,0.08237021319077109,0.004821347009287207
33,3,5,0.06582192436919843,0.012065948355603004
33,4,5,0.06658740999808747,0.01104582745639206
33,5,5,0.11951822591613162,0.019014195670982736
33,6,5,0.06631461217868087,0.014524883265316256
33,7,5,0.0967811906754105,0.004746042701101417
33,8,5,0.07492859586736926,0.01156163141926668
34,0,5,0.06977761334518859,0.01022018156217843
34,1,5,0.08608415406343176,0.013549991903496747
34,2,5,0.04476780835392893,0.007962373260769325
34,3,5,0.07320618726402361,0.010710222406720855
34,4,5,0.06819140260418491,0.011820874061458816
34,5,5,0.08226096792121551,0.014314327767191468
34,6,5,0.03522708522939102,0.01007659830028454
34,7,5,0.12868062699937644,0.009393953053217271
34,8,5,0.07281906320576566,0.017300423928876447
35,0,5,0.10955064635462368,0.005679435918895716
35,1,5,0.0564647240879399,0.016151791709035076
35,2,5,0.03327669498217691,0.01154382931778173
35,3,5,0.046876931345528595,0.012658510550961819
35,4,5,0.05907307362779244,0.009888833885646936
35,5,5,0.1701671254492609,0.006912484400706329
35,6,5,0.025926762947810777,0.009266189439846731
35,7,5,0.05154391655504935,0.006546549799379699
35,8,5,0.026039536385187523,0.014297904878959832
36,0,5,0.02253756899514294,0.006222597711727917
36,1,5,0.08333872168623961,0.009331973039283617
36,2,5,0.06370426232975382,0.012740390379661619
36,3,5,0.06878852908542457,0.010124007930213692
36,4,5,0.07454489868397848,0.014090812498203972
36,5,5,0.09461686043105717,0.01676737301967037
36,6,5,0.03448189214003432,0.011147613483070046
36,7,5,0.12195341381274291,0.00965349739106928
36,8,5,0.07131972566909675,0.011640846499536811
37,0,5,0.04235483380121539,0.01745541884101008
37,1,5,0.03478285819937062,0.012689281287432732
37,2,5,0.03770437968891367,0.016153406008998786
37,3,5,0.011510930017977695,0.014871708660363624
37,4,5,0.11237190188620161,0.015595792446287384
37,5,5,0.0638872652721276,0.009855554578727811
37,6,5,0.016067248411189516,0.009486908988506878
37,7,5,0.09927449271687624,0.005545106653108017
37,8,5,0.040235804229181826,0.010623152548443657
38,0,5,0.061774130636036005,0.007067459646443876
38,1,5,0.06387198902022022,0.0044083881826866
38,2,5,0.07177133118778814,0.016347944342847524
38,3,5,0.09194805181990884,0.02303527277894758
38,4,5,0.1321376836554031,0.007756493893262411
38,5,5,0.09534370998923877,0.014297964522540845
38,6,5,0.0833992559252752,0.003493662327181887
38,7,5,0.10057022509927493,0.010821668983527186
38,8,5,0.059472878334456004,0.009837926037454339
39,0,5,0.07765048822911506,0.008339721050141488
39,1,5,0.07584671850771374,0.018147360096538674
39,2,5,0.05473954742316667,0.01339393330215363
39,3,5,0.0945870076712549,0.013159714453616616
39,4,5,0.17233575723776848,0.01679321869970637
39,5,5,0.12121776359561372,0.022288831943374148
39,6,5,0.03276474981456075,0.01028676167610045
39,7,5,0.06124053038527699,0.007390233804223585
39,8,5,0.029083996263626587,0.012665753054247084
40,0,5,0.15512999753612317,0.00513213587073494
40,1,5,0.08220177023211803,0.01146827389695049
40,2,5,0.03444238881278543,0.01262072188024178
40,3,5,0.002050861029711504,0.013695852275204048
40,4,5,0.12263459819410454,0.014542800904415322
40,5,5,0.09999869887773243,0.010720129962197083
40,6,5,0.043726783720103704,0.008013202465223506
40,7,5,0.13218750328061069,0.017191938368123962
40,8,5,0.08390807475903676,0.015331310666377437
