subject,block,block_width,feature_channel,gate_mean,gate_sd
1,0,32,0,0.4817524254322052,0.25769707560539246
1,0,32,1,0.4513024389743805,0.1910189390182495
1,0,32,2,0.35450589656829834,0.1192939430475235
1,0,32,3,0.43243226408958435,0.17786265909671783
1,0,32,4,0.531991720199585,0.11022474616765976
1,0,32,5,0.35064831376075745,0.150901198387146
1,0,32,6,0.4909481704235077,0.11336597055196762
1,0,32,7,0.44190657138824463,0.24460922181606293
1,0,32,8,0.35541751980781555,0.0995502695441246
1,0,32,9,0.44921499490737915,0.1670738309621811
1,0,32,10,0.4930332899093628,0.07066740840673447
1,0,32,11,0.46188145875930786,0.14511387050151825
1,0,32,12,0.5857633948326111,0.14620843529701233
1,0,32,13,0.22622323036193848,0.09278690069913864
1,0,32,14,0.4528709650039673,0.05778684839606285
1,0,32,15,0.494996041059494,0.1695489138364792
1,0,32,16,0.3821074962615967,0.08922591060400009
1,0,32,17,0.400782972574234,0.1548386663198471
1,0,32,18,0.543844997882843,0.17566272616386414
1,0,32,19,0.47238388657569885,0.12619461119174957
1,0,32,20,0.503534734249115,0.105373814702034
1,0,32,21,0.47921496629714966,0.056978702545166016
1,0,32,22,0.4011096954345703,0.1498814821243286
1,0,32,23,0.4169462323188782,0.18423186242580414
1,0,32,24,0.6452283263206482,0.04374678060412407
1,0,32,25,0.4040301740169525,0.1718120276927948
1,0,32,26,0.5077834129333496,0.18046875298023224
1,0,32,27,0.4331572651863098,0.032106779515743256
1,0,32,28,0.36681532859802246,0.04789344593882561
1,0,32,29,0.4887373447418213,0.1140742376446724
1,0,32,30,0.5570586919784546,0.09600650519132614
1,0,32,31,0.48448291420936584,0.050812967121601105
1,1,32,0,0.6252496242523193,0.0769813135266304
1,1,32,1,0.44060587882995605,0.08199059218168259
1,1,32,2,0.608131468296051,0.15695002675056458
1,1,32,3,0.5200401544570923,0.057320717722177505
1,1,32,4,0.47382768988609314,0.06477022916078568
1,1,32,5,0.5446736812591553,0.04724780470132828
1,1,32,6,0.5523703098297119,0.08946065604686737
1,1,32,7,0.5452632904052734,0.06524168699979782
1,1,32,8,0.490986704826355,0.044278260320425034
1,1,32,9,0.5058909058570862,0.13703784346580505
1,1,32,10,0.45270517468452454,0.1515943855047226
1,1,32,11,0.3741582930088043,0.0878528505563736
1,1,32,12,0.34109988808631897,0.03344166278839111
1,1,32,13,0.5258657932281494,0.12055988609790802
1,1,32,14,0.3858848810195923,0.1222185343503952
1,1,32,15,0.6280490756034851,0.08876112103462219
1,1,32,16,0.432425320148468,0.07843026518821716
1,1,32,17,0.5436928272247314,0.11732064187526703
1,1,32,18,0.4183143377304077,0.08023317903280258
1,1,32,19,0.3427906334400177,0.07452777028083801
1,1,32,20,0.613975465297699,0.08524768054485321
1,1,32,21,0.5591517090797424,0.0570656880736351
1,1,32,22,0.39299237728118896,0.1311548948287964
1,1,32,23,0.5873169898986816,0.0973757803440094
1,1,32,24,0.47199127078056335,0.047020167112350464
1,1,32,25,0.5639575123786926,0.06900779902935028
1,1,32,26,0.6296140551567078,0.11590830981731415
1,1,32,27,0.53019779920578,0.11464817821979523
1,1,32,28,0.42865490913391113,0.17796505987644196
1,1,32,29,0.5016048550605774,0.11626096814870834
1,1,32,30,0.6514428853988647,0.06415832042694092
1,1,32,31,0.5965023636817932,0.08798252791166306
1,2,64,0,0.6323880553245544,0.24329456686973572
1,2,64,1,0.5739157199859619,0.14220529794692993
1,2,64,2,0.4858616590499878,0.158919095993042
1,2,64,3,0.27315831184387207,0.1433401107788086
1,2,64,4,0.5200031399726868,0.17338815331459045
1,2,64,5,0.5053007006645203,0.11704149842262268
1,2,64,6,0.2549404501914978,0.07245821505784988
1,2,64,7,0.6209624409675598,0.10481609404087067
1,2,64,8,0.6812523603439331,0.10041666775941849
1,2,64,9,0.5207312107086182,0.13696245849132538
1,2,64,10,0.5327850580215454,0.07683887332677841
1,2,64,11,0.41962504386901855,0.14838892221450806
1,2,64,12,0.5268440842628479,0.17136116325855255
1,2,64,13,0.5957609415054321,0.23508374392986298
1,2,64,14,0.49499839544296265,0.14264295995235443
1,2,64,15,0.5019515156745911,0.1950584203004837
1,2,64,16,0.48903560638427734,0.19247743487358093
1,2,64,17,0.40261831879615784,0.18006575107574463
1,2,64,18,0.5496914386749268,0.19020633399486542
1,2,64,19,0.32738983631134033,0.08353385329246521
1,2,64,20,0.47218057513237,0.11394400149583817
1,2,64,21,0.599992573261261,0.18629641830921173
1,2,64,22,0.5987113118171692,0.16699348390102386
1,2,64,23,0.2984098494052887,0.13728411495685577
1,2,64,24,0.5403650403022766,0.11997678875923157
1,2,64,25,0.5705100297927856,0.13950590789318085
1,2,64,26,0.5971128344535828,0.23254528641700745
1,2,64,27,0.30915650725364685,0.14671063423156738
1,2,64,28,0.43918395042419434,0.21006649732589722
1,2,64,29,0.5590003728866577,0.24154871702194214
1,2,64,30,0.5349782109260559,0.10429423302412033
1,2,64,31,0.5435087084770203,0.1603328138589859
1,2,64,32,0.4975379705429077,0.10898298025131226
1,2,64,33,0.652715802192688,0.14434047043323517
1,2,64,34,0.5275201797485352,0.18689201772212982
1,2,64,35,0.31656256318092346,0.10070934891700745
1,2,64,36,0.4287276566028595,0.20534342527389526
1,2,64,37,0.45921391248703003,0.1667778044939041
1,2,64,38,0.4501790404319763,0.10151886940002441
1,2,64,39,0.6465712785720825,0.061870988458395004
1,2,64,40,0.5609307289123535,0.14049987494945526
1,2,64,41,0.6235617995262146,0.2168877124786377
1,2,64,42,0.5958091616630554,0.10039098560810089
1,2,64,43,0.35032975673675537,0.20364926755428314
1,2,64,44,0.5280039310455322,0.11432747542858124
1,2,64,45,0.7250429391860962,0.11978138238191605
1,2,64,46,0.48407942056655884,0.11570847034454346
1,2,64,47,0.6078194975852966,0.17811420559883118
1,2,64,48,0.5575107932090759,0.14710582792758942
1,2,64,49,0.4835226237773895,0.1470533311367035
1,2,64,50,0.5640924572944641,0.13191631436347961
1,2,64,51,0.5045697689056396,0.09772951155900955
1,2,64,52,0.3407928943634033,0.09212813526391983
1,2,64,53,0.5792812705039978,0.06818906217813492
1,2,64,54,0.6647782921791077,0.0958189144730568
1,2,64,55,0.3773784339427948,0.11441199481487274
1,2,64,56,0.49387431144714355,0.07814464718103409
1,2,64,57,0.37008732557296753,0.14910951256752014
1,2,64,58,0.5383699536323547,0.1811138242483139
1,2,64,59,0.6201415061950684,0.1539633572101593
1,2,64,60,0.5546209812164307,0.15411242842674255
1,2,64,61,0.40848255157470703,0.15068043768405914
1,2,64,62,0.6094610691070557,0.236951544880867
1,2,64,63,0.44728702306747437,0.20050232112407684
1,3,64,0,0.5250028967857361,0.09448827058076859
1,3,64,1,0.6432574987411499,0.1593872457742691
1,3,64,2,0.6664342880249023,0.10062409937381744
1,3,64,3,0.5442944765090942,0.10154478996992111
1,3,64,4,0.5551455020904541,0.037767063826322556
1,3,64,5,0.4969751238822937,0.13990171253681183
1,3,64,6,0.5944737792015076,0.06791293621063232
1,3,64,7,0.5116099119186401,0.09383774548768997
1,3,64,8,0.4405806064605713,0.09287483245134354
1,3,64,9,0.6531340479850769,0.12880584597587585
1,3,64,10,0.5652859210968018,0.16920052468776703
1,3,64,11,0.4367850124835968,0.08139880746603012
1,3,64,12,0.4153309762477875,0.11385930329561234
1,3,64,13,0.6714485287666321,0.07200067490339279
1,3,64,14,0.5839710235595703,0.15430445969104767
1,3,64,15,0.5449160933494568,0.1315724402666092
1,3,64,16,0.5636873245239258,0.08504078537225723
1,3,64,17,0.5761159658432007,0.14169038832187653
1,3,64,18,0.6193590760231018,0.0814412459731102
1,3,64,19,0.3757791221141815,0.10127118229866028
1,3,64,20,0.5617589354515076,0.12508653104305267
1,3,64,21,0.5125683546066284,0.08768849074840546
1,3,64,22,0.5035437345504761,0.08046577125787735
1,3,64,23,0.45809245109558105,0.13815085589885712
1,3,64,24,0.5540928840637207,0.12531305849552155
1,3,64,25,0.5154140591621399,0.06970557570457458
1,3,64,26,0.44204819202423096,0.12985949218273163
1,3,64,27,0.6391820907592773,0.1292787790298462
1,3,64,28,0.554985761642456,0.10587571561336517
1,3,64,29,0.5119541883468628,0.1543300896883011
1,3,64,30,0.365795373916626,0.1128954365849495
1,3,64,31,0.5776205062866211,0.11170491576194763
1,3,64,32,0.5815950632095337,0.06764227151870728
1,3,64,33,0.5802493691444397,0.05172443762421608
1,3,64,34,0.46735578775405884,0.06443918496370316
1,3,64,35,0.5052662491798401,0.09866482764482498
1,3,64,36,0.528217613697052,0.06721409410238266
1,3,64,37,0.45301225781440735,0.13580074906349182
1,3,64,38,0.43931934237480164,0.06336770206689835
1,3,64,39,0.5197209715843201,0.10475822538137436
1,3,64,40,0.5286433100700378,0.10341556370258331
1,3,64,41,0.433882474899292,0.050787925720214844
1,3,64,42,0.5320967435836792,0.10345151275396347
1,3,64,43,0.566456139087677,0.18468822538852692
1,3,64,44,0.48847633600234985,0.15505075454711914
1,3,64,45,0.4182053208351135,0.0992785319685936
1,3,64,46,0.5034969449043274,0.12170474976301193
1,3,64,47,0.5786109566688538,0.07647661119699478
1,3,64,48,0.6320897936820984,0.07932961732149124
1,3,64,49,0.46664226055145264,0.0405295267701149
1,3,64,50,0.5217350721359253,0.06276904046535492
1,3,64,51,0.5121594667434692,0.1127321869134903
1,3,64,52,0.4123980402946472,0.06957429647445679
1,3,64,53,0.4716530740261078,0.09597867727279663
1,3,64,54,0.3968261778354645,0.047808121889829636
1,3,64,55,0.5732002258300781,0.10065155476331711
1,3,64,56,0.41379088163375854,0.12919314205646515
1,3,64,57,0.5959177017211914,0.10194537788629532
1,3,64,58,0.5566195249557495,0.19336460530757904
1,3,64,59,0.28737080097198486,0.08049558848142624
1,3,64,60,0.5837684273719788,0.15551023185253143
1,3,64,61,0.5239437222480774,0.14280091226100922
1,3,64,62,0.4839080274105072,0.1439134031534195
1,3,64,63,0.38177013397216797,0.05045498535037041
1,4,128,0,0.4589911997318268,0.09223787486553192
1,4,128,1,0.40922439098358154,0.2602023780345917
1,4,128,2,0.54194575548172,0.333161860704422
1,4,128,3,0.6189799308776855,0.10021978616714478
1,4,128,4,0.5048415660858154,0.1349405199289322
1,4,128,5,0.48622214794158936,0.17827750742435455
1,4,128,6,0.6187354922294617,0.1560419499874115
1,4,128,7,0.6825689673423767,0.11422818899154663
1,4,128,8,0.36347389221191406,0.19294078648090363
1,4,128,9,0.3650550842285156,0.10956321656703949
1,4,128,10,0.4470759630203247,0.21148787438869476
1,4,128,11,0.6246767640113831,0.17437441647052765
1,4,128,12,0.3586554527282715,0.22666633129119873
1,4,128,13,0.48417899012565613,0.16166137158870697
1,4,128,14,0.5840843319892883,0.28647592663764954
1,4,128,15,0.4464007019996643,0.27768856287002563
1,4,128,16,0.5742812156677246,0.16188961267471313
1,4,128,17,0.6263360381126404,0.1745205521583557
1,4,128,18,0.5348933935165405,0.25924956798553467
1,4,128,19,0.4661492705345154,0.133591890335083
1,4,128,20,0.5583819150924683,0.15108910202980042
1,4,128,21,0.42345279455184937,0.3284008800983429
1,4,128,22,0.6621526479721069,0.08781158924102783
1,4,128,23,0.44410157203674316,0.16678567230701447
1,4,128,24,0.5239026546478271,0.23329487442970276
1,4,128,25,0.7421896457672119,0.11766023188829422
1,4,128,26,0.7009902596473694,0.10718970745801926
1,4,128,27,0.4414357841014862,0.10916263610124588
1,4,128,28,0.6537566781044006,0.10105017572641373
1,4,128,29,0.6160994172096252,0.1749325394630432
1,4,128,30,0.545202910900116,0.32558712363243103
1,4,128,31,0.5352509617805481,0.1547420173883438
1,4,128,32,0.5157744288444519,0.292915940284729
1,4,128,33,0.428619921207428,0.1986740678548813
1,4,128,34,0.6135751008987427,0.2411220222711563
1,4,128,35,0.4797948896884918,0.3069256544113159
1,4,128,36,0.6003988981246948,0.2632620930671692
1,4,128,37,0.4327853322029114,0.05801023542881012
1,4,128,38,0.5513728260993958,0.18988826870918274
1,4,128,39,0.33636191487312317,0.09485708177089691
1,4,128,40,0.5766642093658447,0.1930665522813797
1,4,128,41,0.513551652431488,0.06764660775661469
1,4,128,42,0.5326728224754333,0.09713254868984222
1,4,128,43,0.5844648480415344,0.09984037280082703
1,4,128,44,0.5115970969200134,0.1752609759569168
1,4,128,45,0.4722386598587036,0.23217420279979706
1,4,128,46,0.5423030853271484,0.183949276804924
1,4,128,47,0.6337085962295532,0.2049943059682846
1,4,128,48,0.5390338897705078,0.20718955993652344
1,4,128,49,0.5305961966514587,0.22440053522586823
1,4,128,50,0.5303171277046204,0.25362905859947205
1,4,128,51,0.6520018577575684,0.16113494336605072
1,4,128,52,0.44238534569740295,0.30360686779022217
1,4,128,53,0.656118631362915,0.11617764085531235
1,4,128,54,0.37471500039100647,0.1968308687210083
1,4,128,55,0.5498003363609314,0.28631967306137085
1,4,128,56,0.46703606843948364,0.16320745646953583
1,4,128,57,0.6608515381813049,0.11849374324083328
1,4,128,58,0.5123764872550964,0.24230970442295074
1,4,128,59,0.3625245988368988,0.13478069007396698
1,4,128,60,0.6411802172660828,0.15069322288036346
1,4,128,61,0.44638675451278687,0.22499245405197144
1,4,128,62,0.6724788546562195,0.13302725553512573
1,4,128,63,0.7111208438873291,0.11778738349676132
1,4,128,64,0.6386642456054688,0.18492895364761353
1,4,128,65,0.6472299098968506,0.1195296049118042
1,4,128,66,0.3957156836986542,0.12971575558185577
1,4,128,67,0.6482244729995728,0.12209997326135635
1,4,128,68,0.48971766233444214,0.08416439592838287
1,4,128,69,0.4900190234184265,0.33918824791908264
1,4,128,70,0.7364655137062073,0.11466395854949951
1,4,128,71,0.4500412344932556,0.22061769664287567
1,4,128,72,0.6254516839981079,0.22205884754657745
1,4,128,73,0.41420596837997437,0.16031257808208466
1,4,128,74,0.5934005975723267,0.1544198989868164
1,4,128,75,0.5437243580818176,0.32302021980285645
1,4,128,76,0.4974127411842346,0.08232036978006363
1,4,128,77,0.5693286657333374,0.24631565809249878
1,4,128,78,0.46621841192245483,0.29064661264419556
1,4,128,79,0.6050009727478027,0.18330641090869904
1,4,128,80,0.5733155608177185,0.19284847378730774
1,4,128,81,0.7088742852210999,0.14015734195709229
1,4,128,82,0.511524498462677,0.1591341644525528
1,4,128,83,0.6302406787872314,0.22283655405044556
1,4,128,84,0.6493004560470581,0.10901937633752823
1,4,128,85,0.6758040189743042,0.15188457071781158
1,4,128,86,0.6379603147506714,0.22344240546226501
1,4,128,87,0.43848416209220886,0.19360888004302979
1,4,128,88,0.5583704710006714,0.2683647871017456
1,4,128,89,0.5790231227874756,0.2337728589773178
1,4,128,90,0.4440593719482422,0.19334793090820312
1,4,128,91,0.4654591381549835,0.10410545766353607
1,4,128,92,0.6027170419692993,0.1098986268043518
1,4,128,93,0.6435686349868774,0.1792953759431839
1,4,128,94,0.45393016934394836,0.22716201841831207
1,4,128,95,0.570544958114624,0.11624488234519958
1,4,128,96,0.566301167011261,0.203671395778656
1,4,128,97,0.6046674251556396,0.20653876662254333
1,4,128,98,0.549509584903717,0.2006019502878189
1,4,128,99,0.5261553525924683,0.30806878209114075
1,4,128,100,0.5908698439598083,0.2457738071680069
1,4,128,101,0.4904712736606598,0.32279255986213684
1,4,128,102,0.5805346965789795,0.10182409733533859
1,4,128,103,0.7350329160690308,0.09940408915281296
1,4,128,104,0.3880489766597748,0.10799185186624527
1,4,128,105,0.6839989423751831,0.07751702517271042
1,4,128,106,0.6079145073890686,0.18355168402194977
1,4,128,107,0.5689143538475037,0.2661014795303345
1,4,128,108,0.6902381181716919,0.1378026306629181
1,4,128,109,0.597910463809967,0.21779832243919373
1,4,128,110,0.3813808262348175,0.0940900519490242
1,4,128,111,0.44109177589416504,0.3071199655532837
1,4,128,112,0.5902652144432068,0.23044152557849884
1,4,128,113,0.4034886062145233,0.27883636951446533
1,4,128,114,0.5490017533302307,0.3033409118652344
1,4,128,115,0.5760291218757629,0.25793203711509705
1,4,128,116,0.4012135863304138,0.11876329034566879
1,4,128,117,0.3347732424736023,0.14245174825191498
1,4,128,118,0.5996782183647156,0.11970584094524384
1,4,128,119,0.5538114905357361,0.25064483284950256
1,4,128,120,0.36537253856658936,0.24494516849517822
1,4,128,121,0.6890535950660706,0.1125321090221405
1,4,128,122,0.4779806435108185,0.21245858073234558
1,4,128,123,0.5240143537521362,0.22934459149837494
1,4,128,124,0.4931172728538513,0.24483510851860046
1,4,128,125,0.3597273528575897,0.15384911000728607
1,4,128,126,0.37100642919540405,0.05294869467616081
1,4,128,127,0.7123092412948608,0.10534906387329102
1,5,128,0,0.7354771494865417,0.20619268715381622
1,5,128,1,0.7997637391090393,0.10038141906261444
1,5,128,2,0.8390176296234131,0.08205829560756683
1,5,128,3,0.5429539084434509,0.26855793595314026
1,5,128,4,0.6694813370704651,0.08320604264736176
1,5,128,5,0.7227569818496704,0.10189532488584518
1,5,128,6,0.8290942311286926,0.1364145129919052
1,5,128,7,0.784313976764679,0.14648497104644775
1,5,128,8,0.46309778094291687,0.3225107491016388
1,5,128,9,0.5793973803520203,0.22899077832698822
1,5,128,10,0.6223904490470886,0.17301903665065765
1,5,128,11,0.754595160484314,0.2360120564699173
1,5,128,12,0.451474666595459,0.2566356062889099
1,5,128,13,0.8419594764709473,0.07755304127931595
1,5,128,14,0.7603843808174133,0.20792655646800995
1,5,128,15,0.766914427280426,0.12052338570356369
1,5,128,16,0.8377200961112976,0.10501062870025635
1,5,128,17,0.6913489103317261,0.07720446586608887
1,5,128,18,0.810501754283905,0.11274298280477524
1,5,128,19,0.711871325969696,0.2095651775598526
1,5,128,20,0.3882073760032654,0.15611553192138672
1,5,128,21,0.25445228815078735,0.12127136439085007
1,5,128,22,0.7771052718162537,0.11791189759969711
1,5,128,23,0.5303182005882263,0.14012643694877625
1,5,128,24,0.782807469367981,0.09499997645616531
1,5,128,25,0.7227878570556641,0.19351252913475037
1,5,128,26,0.719333291053772,0.12945343554019928
1,5,128,27,0.7525588870048523,0.11369893699884415
1,5,128,28,0.6711711287498474,0.11178237199783325
1,5,128,29,0.7555798292160034,0.15155120193958282
1,5,128,30,0.7659669518470764,0.16130338609218597
1,5,128,31,0.8151727318763733,0.08936764299869537
1,5,128,32,0.8247737288475037,0.11964979767799377
1,5,128,33,0.6331796646118164,0.2796296179294586
1,5,128,34,0.6607259511947632,0.19798754155635834
1,5,128,35,0.8436719179153442,0.09413565695285797
1,5,128,36,0.7376588582992554,0.10681742429733276
1,5,128,37,0.7484030723571777,0.1404932737350464
1,5,128,38,0.37177079916000366,0.26281628012657166
1,5,128,39,0.28629589080810547,0.22415828704833984
1,5,128,40,0.7789024710655212,0.16399922966957092
1,5,128,41,0.5856142044067383,0.12292654812335968
1,5,128,42,0.6471208333969116,0.2521968185901642
1,5,128,43,0.4801086485385895,0.2579166889190674
1,5,128,44,0.5890421271324158,0.24150891602039337
1,5,128,45,0.5261020660400391,0.2865017056465149
1,5,128,46,0.7462737560272217,0.15357954800128937
1,5,128,47,0.7934766411781311,0.09109974652528763
1,5,128,48,0.60231614112854,0.27520549297332764
1,5,128,49,0.8336467146873474,0.09064193814992905
1,5,128,50,0.7348352670669556,0.23056752979755402
1,5,128,51,0.8749688863754272,0.06618281453847885
1,5,128,52,0.6500164270401001,0.09100135415792465
1,5,128,53,0.6808344125747681,0.15528666973114014
1,5,128,54,0.7820326685905457,0.09516318887472153
1,5,128,55,0.7431309819221497,0.22303125262260437
1,5,128,56,0.6634844541549683,0.22715117037296295
1,5,128,57,0.7994934916496277,0.1368788182735443
1,5,128,58,0.435143381357193,0.2854398787021637
1,5,128,59,0.7768133878707886,0.10321611166000366
1,5,128,60,0.832832396030426,0.09815199673175812
1,5,128,61,0.5860270261764526,0.22885285317897797
1,5,128,62,0.8351105451583862,0.08103108406066895
1,5,128,63,0.8309435844421387,0.08456290513277054
1,5,128,64,0.7254990935325623,0.15825648605823517
1,5,128,65,0.6494385004043579,0.23550769686698914
1,5,128,66,0.47042524814605713,0.30189263820648193
1,5,128,67,0.7920141220092773,0.131046324968338
1,5,128,68,0.6890595555305481,0.27287814021110535
1,5,128,69,0.7975014448165894,0.10517042875289917
1,5,128,70,0.817980170249939,0.07372991740703583
1,5,128,71,0.6946759819984436,0.1373923271894455
1,5,128,72,0.763344943523407,0.11399002373218536
1,5,128,73,0.521095871925354,0.22753210365772247
1,5,128,74,0.7068461179733276,0.22274845838546753
1,5,128,75,0.823386549949646,0.07798003405332565
1,5,128,76,0.7251931428909302,0.16730614006519318
1,5,128,77,0.7377389073371887,0.19256757199764252
1,5,128,78,0.41498589515686035,0.22765745222568512
1,5,128,79,0.6678038835525513,0.1864709109067917
1,5,128,80,0.617750346660614,0.1570170670747757
1,5,128,81,0.7273891568183899,0.16981293261051178
1,5,128,82,0.7078660130500793,0.16506315767765045
1,5,128,83,0.7861925363540649,0.08623842149972916
1,5,128,84,0.5817778706550598,0.17321309447288513
1,5,128,85,0.806208610534668,0.1161477193236351
1,5,128,86,0.7224133610725403,0.10756932199001312
1,5,128,87,0.483910471200943,0.2811766564846039
1,5,128,88,0.7103073596954346,0.18341891467571259
1,5,128,89,0.6862305998802185,0.2642388343811035
1,5,128,90,0.7132980823516846,0.1136137917637825
1,5,128,91,0.6794448494911194,0.13124802708625793
1,5,128,92,0.725611686706543,0.18329213559627533
1,5,128,93,0.8449352979660034,0.08371204137802124
1,5,128,94,0.7150751352310181,0.13369502127170563
1,5,128,95,0.5231841802597046,0.3191320598125458
1,5,128,96,0.6807093620300293,0.13059557974338531
1,5,128,97,0.824923038482666,0.08709799498319626
1,5,128,98,0.560421884059906,0.3082805275917053
1,5,128,99,0.7374371886253357,0.1919717639684677
1,5,128,100,0.46959188580513,0.2637688219547272
1,5,128,101,0.4809083342552185,0.2925853133201599
1,5,128,102,0.675092339515686,0.2583896517753601
1,5,128,103,0.5640386343002319,0.17208141088485718
1,5,128,104,0.8800088763237,0.06854463368654251
1,5,128,105,0.806429386138916,0.12548856437206268
1,5,128,106,0.3486076891422272,0.28159192204475403
1,5,128,107,0.8123396039009094,0.08672907948493958
1,5,128,108,0.8008373975753784,0.07871001958847046
1,5,128,109,0.5652458071708679,0.2840394377708435
1,5,128,110,0.38948920369148254,0.17615675926208496
1,5,128,111,0.7652467489242554,0.09282948076725006
1,5,128,112,0.5181844234466553,0.18793396651744843
1,5,128,113,0.7035382986068726,0.12759904563426971
1,5,128,114,0.718831479549408,0.11087203025817871
1,5,128,115,0.722831130027771,0.19359274208545685
1,5,128,116,0.7782878279685974,0.12711070477962494
1,5,128,117,0.557613730430603,0.20067749917507172
1,5,128,118,0.6447956562042236,0.2470209002494812
1,5,128,119,0.6509454846382141,0.2665823996067047
1,5,128,120,0.742135763168335,0.1382237821817398
1,5,128,121,0.456920325756073,0.15727436542510986
1,5,128,122,0.5149369239807129,0.278350830078125
1,5,128,123,0.6431285738945007,0.1820513755083084
1,5,128,124,0.8706371188163757,0.08106879889965057
1,5,128,125,0.6388252377510071,0.25178655982017517
1,5,128,126,0.40416622161865234,0.22242270410060883
1,5,128,127,0.7150145769119263,0.24584949016571045
2,0,32,0,0.5282670259475708,0.10580907762050629
2,0,32,1,0.4604974687099457,0.05680606886744499
2,0,32,2,0.5360327959060669,0.04583873972296715
2,0,32,3,0.3414004147052765,0.11257551610469818
2,0,32,4,0.3148718476295471,0.09154865145683289
2,0,32,5,0.3017638325691223,0.10136845707893372
2,0,32,6,0.42934733629226685,0.07637530565261841
2,0,32,7,0.539543628692627,0.18355265259742737
2,0,32,8,0.5703255534172058,0.031593531370162964
2,0,32,9,0.5890455842018127,0.028623100370168686
2,0,32,10,0.45336511731147766,0.05541478097438812
2,0,32,11,0.5772338509559631,0.049951620399951935
2,0,32,12,0.6163492798805237,0.06678882241249084
2,0,32,13,0.4938981235027313,0.11874697357416153
2,0,32,14,0.49518972635269165,0.0430825874209404
2,0,32,15,0.3776961863040924,0.10481792688369751
2,0,32,16,0.40414533019065857,0.10661156475543976
2,0,32,17,0.4756416976451874,0.11248937994241714
2,0,32,18,0.38643714785575867,0.13924767076969147
2,0,32,19,0.31951531767845154,0.07155069708824158
2,0,32,20,0.44652774930000305,0.08787941187620163
2,0,32,21,0.4580458104610443,0.14436225593090057
2,0,32,22,0.3947474956512451,0.07771352678537369
2,0,32,23,0.5705435276031494,0.11657318472862244
2,0,32,24,0.6464622616767883,0.04609477519989014
2,0,32,25,0.5960803031921387,0.08744814991950989
2,0,32,26,0.4280552566051483,0.10540300607681274
2,0,32,27,0.39518389105796814,0.08013848215341568
2,0,32,28,0.6164146661758423,0.07731308043003082
2,0,32,29,0.4423067271709442,0.08615225553512573
2,0,32,30,0.2974402904510498,0.12002479285001755
2,0,32,31,0.3746863007545471,0.09466982632875443
2,1,32,0,0.4750668406486511,0.12528245151042938
2,1,32,1,0.5127796530723572,0.08288319408893585
2,1,32,2,0.46260806918144226,0.173256978392601
2,1,32,3,0.443341463804245,0.19606269896030426
2,1,32,4,0.5254342555999756,0.17327067255973816
2,1,32,5,0.3735796809196472,0.1322696954011917
2,1,32,6,0.5852954387664795,0.11210673302412033
2,1,32,7,0.4886017143726349,0.1081419289112091
2,1,32,8,0.6851506233215332,0.05942201614379883
2,1,32,9,0.3888339400291443,0.10953781753778458
2,1,32,10,0.5030230283737183,0.11693334579467773
2,1,32,11,0.6107230186462402,0.09875282645225525
2,1,32,12,0.47953012585639954,0.126202791929245
2,1,32,13,0.5764942765235901,0.1342586725950241
2,1,32,14,0.40663862228393555,0.12237577140331268
2,1,32,15,0.6584638357162476,0.08492614328861237
2,1,32,16,0.49257126450538635,0.10706163197755814
2,1,32,17,0.36930474638938904,0.12469562888145447
2,1,32,18,0.5472837090492249,0.15454556047916412
2,1,32,19,0.5297369956970215,0.12195122241973877
2,1,32,20,0.6125344634056091,0.19367724657058716
2,1,32,21,0.5781497359275818,0.12617725133895874
2,1,32,22,0.35742542147636414,0.09154225885868073
2,1,32,23,0.496114581823349,0.1312463879585266
2,1,32,24,0.36616405844688416,0.09216450154781342
2,1,32,25,0.5130727291107178,0.13333474099636078
2,1,32,26,0.41969290375709534,0.06775645166635513
2,1,32,27,0.45511603355407715,0.1438623070716858
2,1,32,28,0.47980764508247375,0.08698210120201111
2,1,32,29,0.48261383175849915,0.1670670211315155
2,1,32,30,0.4096600413322449,0.18328385055065155
2,1,32,31,0.6174849271774292,0.11871896684169769
2,2,64,0,0.5042645335197449,0.18918250501155853
2,2,64,1,0.4072469174861908,0.14838244020938873
2,2,64,2,0.552131712436676,0.1917068362236023
2,2,64,3,0.6234707236289978,0.09228058904409409
2,2,64,4,0.47562313079833984,0.07220881432294846
2,2,64,5,0.5463376641273499,0.15121828019618988
2,2,64,6,0.48913297057151794,0.12555240094661713
2,2,64,7,0.333503782749176,0.10405771434307098
2,2,64,8,0.6951863169670105,0.1067674532532692
2,2,64,9,0.5509414076805115,0.14546072483062744
2,2,64,10,0.6192091107368469,0.10395008325576782
2,2,64,11,0.2694541811943054,0.10266852378845215
2,2,64,12,0.5309677124023438,0.12105957418680191
2,2,64,13,0.25957366824150085,0.08571864664554596
2,2,64,14,0.5699857473373413,0.05298500135540962
2,2,64,15,0.405006468296051,0.061261165887117386
2,2,64,16,0.49674516916275024,0.026610875502228737
2,2,64,17,0.32739701867103577,0.10527243465185165
2,2,64,18,0.5896527767181396,0.09755712002515793
2,2,64,19,0.42138761281967163,0.0842771977186203
2,2,64,20,0.6221347451210022,0.21489252150058746
2,2,64,21,0.5527399182319641,0.1434450000524521
2,2,64,22,0.6041213274002075,0.10223562270402908
2,2,64,23,0.5130001902580261,0.08701810240745544
2,2,64,24,0.31208544969558716,0.08359236270189285
2,2,64,25,0.6222988963127136,0.08603581041097641
2,2,64,26,0.640609860420227,0.08830572664737701
2,2,64,27,0.545086681842804,0.19406689703464508
2,2,64,28,0.4163581430912018,0.10956821590662003
2,2,64,29,0.2707170248031616,0.08037757128477097
2,2,64,30,0.44801393151283264,0.09619741141796112
2,2,64,31,0.6370372176170349,0.10855957120656967
2,2,64,32,0.5909200310707092,0.14498262107372284
2,2,64,33,0.47658753395080566,0.16210268437862396
2,2,64,34,0.5565268993377686,0.06877454370260239
2,2,64,35,0.4913759231567383,0.1329529583454132
2,2,64,36,0.6442737579345703,0.16271968185901642
2,2,64,37,0.4407576024532318,0.13593406975269318
2,2,64,38,0.45413872599601746,0.130580335855484
2,2,64,39,0.4250161051750183,0.1188584417104721
2,2,64,40,0.5925833582878113,0.051758330315351486
2,2,64,41,0.4144608974456787,0.08590200543403625
2,2,64,42,0.587445855140686,0.0981064885854721
2,2,64,43,0.5306699275970459,0.06349682062864304
2,2,64,44,0.607239842414856,0.13377313315868378
2,2,64,45,0.4894464313983917,0.0393972210586071
2,2,64,46,0.5519782900810242,0.20991411805152893
2,2,64,47,0.4875163435935974,0.10854630172252655
2,2,64,48,0.5702343583106995,0.20630426704883575
2,2,64,49,0.4803948700428009,0.05525154247879982
2,2,64,50,0.5874084830284119,0.08913127332925797
2,2,64,51,0.5004265904426575,0.15223892033100128
2,2,64,52,0.5339348316192627,0.17236213386058807
2,2,64,53,0.36265525221824646,0.057201847434043884
2,2,64,54,0.7004503011703491,0.08829941600561142
2,2,64,55,0.5125325322151184,0.07064326107501984
2,2,64,56,0.4392843246459961,0.05146760120987892
2,2,64,57,0.4593176543712616,0.07294216006994247
2,2,64,58,0.49977216124534607,0.1119718998670578
2,2,64,59,0.5224452614784241,0.21601459383964539
2,2,64,60,0.4910542666912079,0.11877311766147614
2,2,64,61,0.46418946981430054,0.10749543458223343
2,2,64,62,0.53993159532547,0.10075347125530243
2,2,64,63,0.5193488001823425,0.14758118987083435
2,3,64,0,0.5100106596946716,0.11509345471858978
2,3,64,1,0.6357406973838806,0.08566568046808243
2,3,64,2,0.6654130816459656,0.17732590436935425
2,3,64,3,0.5081992745399475,0.07217568904161453
2,3,64,4,0.39281177520751953,0.08783517777919769
2,3,64,5,0.4596085846424103,0.051518503576517105
2,3,64,6,0.39921998977661133,0.09557726979255676
2,3,64,7,0.25219595432281494,0.09211420267820358
2,3,64,8,0.5943108201026917,0.11089976876974106
2,3,64,9,0.3567313253879547,0.2659914791584015
2,3,64,10,0.537283718585968,0.05978787690401077
2,3,64,11,0.5952533483505249,0.2844371497631073
2,3,64,12,0.5477877855300903,0.13670748472213745
2,3,64,13,0.5374009013175964,0.08678717166185379
2,3,64,14,0.5143669247627258,0.06274023652076721
2,3,64,15,0.5425480604171753,0.08263061940670013
2,3,64,16,0.5610882639884949,0.1004406064748764
2,3,64,17,0.594741702079773,0.15488357841968536
2,3,64,18,0.5575371384620667,0.1680268794298172
2,3,64,19,0.4053633213043213,0.17826421558856964
2,3,64,20,0.4156738221645355,0.14936181902885437
2,3,64,21,0.3124861717224121,0.1411389410495758
2,3,64,22,0.49416908621788025,0.12214136868715286
2,3,64,23,0.6519579887390137,0.09281925857067108
2,3,64,24,0.624373197555542,0.2656281888484955
2,3,64,25,0.6021288633346558,0.17457567155361176
2,3,64,26,0.6301015615463257,0.1358521431684494
2,3,64,27,0.6893322467803955,0.09334571659564972
2,3,64,28,0.6008808016777039,0.0494714118540287
2,3,64,29,0.6064508557319641,0.14924216270446777
2,3,64,30,0.30644869804382324,0.1424115002155304
2,3,64,31,0.5530839562416077,0.04728015512228012
2,3,64,32,0.6072561740875244,0.23976106941699982
2,3,64,33,0.6267727613449097,0.17081300914287567
2,3,64,34,0.470879465341568,0.1706988513469696
2,3,64,35,0.5260236263275146,0.09886810928583145
2,3,64,36,0.6375730037689209,0.058259494602680206
2,3,64,37,0.582710325717926,0.11563371866941452
2,3,64,38,0.43453577160835266,0.20533837378025055
2,3,64,39,0.5620113611221313,0.1869712769985199
2,3,64,40,0.6464080214500427,0.23197178542613983
2,3,64,41,0.5919108986854553,0.07760260999202728
2,3,64,42,0.36876627802848816,0.15906858444213867
2,3,64,43,0.3800019919872284,0.0965551882982254
2,3,64,44,0.6066086292266846,0.17136919498443604
2,3,64,45,0.4399331510066986,0.08509575575590134
2,3,64,46,0.4721052348613739,0.1668091118335724
2,3,64,47,0.34064626693725586,0.1391669511795044
2,3,64,48,0.42011022567749023,0.05503714829683304
2,3,64,49,0.42913806438446045,0.05480904504656792
2,3,64,50,0.5626569390296936,0.14897574484348297
2,3,64,51,0.3775559365749359,0.08686767518520355
2,3,64,52,0.3569163978099823,0.05938216671347618
2,3,64,53,0.514845609664917,0.1607486605644226
2,3,64,54,0.34713873267173767,0.21266411244869232
2,3,64,55,0.4017505645751953,0.08165621012449265
2,3,64,56,0.48209148645401,0.126875638961792
2,3,64,57,0.5170203447341919,0.07082561403512955
2,3,64,58,0.6061602830886841,0.24818989634513855
2,3,64,59,0.620018720626831,0.14338938891887665
2,3,64,60,0.6286960244178772,0.036824461072683334
2,3,64,61,0.5044548511505127,0.04831453040242195
2,3,64,62,0.5240739583969116,0.09693021327257156
2,3,64,63,0.6484090089797974,0.09979431331157684
2,4,128,0,0.6421732306480408,0.12678669393062592
2,4,128,1,0.671987771987915,0.062240082770586014
2,4,128,2,0.27656036615371704,0.1528550386428833
2,4,128,3,0.508149266242981,0.2026718258857727
2,4,128,4,0.6138906478881836,0.045517973601818085
2,4,128,5,0.697455108165741,0.163641095161438
2,4,128,6,0.5861619114875793,0.11685653030872345
2,4,128,7,0.7082749605178833,0.10370811074972153
2,4,128,8,0.4312782883644104,0.11944960057735443
2,4,128,9,0.44392356276512146,0.2544857859611511
2,4,128,10,0.6832357048988342,0.09527605772018433
2,4,128,11,0.587289571762085,0.23593640327453613
2,4,128,12,0.6112503409385681,0.18875867128372192
2,4,128,13,0.4872852563858032,0.12528827786445618
2,4,128,14,0.6988056898117065,0.28218814730644226
2,4,128,15,0.6772308945655823,0.21934807300567627
2,4,128,16,0.6178500652313232,0.2702042758464813
2,4,128,17,0.6011626720428467,0.26303401589393616
2,4,128,18,0.4590378999710083,0.1937178522348404
2,4,128,19,0.6384678483009338,0.31648769974708557
2,4,128,20,0.5908092856407166,0.14949648082256317
2,4,128,21,0.7253374457359314,0.1958090215921402
2,4,128,22,0.5823044776916504,0.13891267776489258
2,4,128,23,0.6671854257583618,0.2830827832221985
2,4,128,24,0.5321544408798218,0.230954110622406
2,4,128,25,0.5912284255027771,0.1842571347951889
2,4,128,26,0.6077373027801514,0.2635170519351959
2,4,128,27,0.5806909799575806,0.28975269198417664
2,4,128,28,0.6415694355964661,0.2462809681892395
2,4,128,29,0.6234943270683289,0.15304526686668396
2,4,128,30,0.7219758629798889,0.09500327706336975
2,4,128,31,0.49786242842674255,0.23510141670703888
2,4,128,32,0.3326844573020935,0.14136959612369537
2,4,128,33,0.3825145959854126,0.14082294702529907
2,4,128,34,0.7273229956626892,0.15989476442337036
2,4,128,35,0.7131582498550415,0.22303535044193268
2,4,128,36,0.634372889995575,0.10183600336313248
2,4,128,37,0.672623872756958,0.22919730842113495
2,4,128,38,0.6352782249450684,0.272885262966156
2,4,128,39,0.6901324391365051,0.05731846019625664
2,4,128,40,0.635107696056366,0.26374149322509766
2,4,128,41,0.5236174464225769,0.19199919700622559
2,4,128,42,0.4789237678050995,0.057659685611724854
2,4,128,43,0.6523871421813965,0.29499131441116333
2,4,128,44,0.4285000264644623,0.354337602853775
2,4,128,45,0.6617777943611145,0.16703739762306213
2,4,128,46,0.3592151999473572,0.24579757452011108
2,4,128,47,0.7448977828025818,0.11026223003864288
2,4,128,48,0.6910647749900818,0.09709526598453522
2,4,128,49,0.33195996284484863,0.2247408777475357
2,4,128,50,0.5663235187530518,0.2218712419271469
2,4,128,51,0.5982887148857117,0.22535423934459686
2,4,128,52,0.7704747319221497,0.18870358169078827
2,4,128,53,0.6230751872062683,0.06991080939769745
2,4,128,54,0.5880102515220642,0.08838310092687607
2,4,128,55,0.6731581687927246,0.1710626780986786
2,4,128,56,0.5340092778205872,0.08041197061538696
2,4,128,57,0.6052913665771484,0.05623486265540123
2,4,128,58,0.6873131394386292,0.13061904907226562
2,4,128,59,0.5152379870414734,0.22594799101352692
2,4,128,60,0.6773478984832764,0.34255558252334595
2,4,128,61,0.30542322993278503,0.17973564565181732
2,4,128,62,0.5150210857391357,0.22908399999141693
2,4,128,63,0.5949862003326416,0.14220714569091797
2,4,128,64,0.4313654899597168,0.29249316453933716
2,4,128,65,0.2545633614063263,0.0948699340224266
2,4,128,66,0.6590678095817566,0.14201994240283966
2,4,128,67,0.37502166628837585,0.22188173234462738
2,4,128,68,0.4008898437023163,0.23411843180656433
2,4,128,69,0.7703110575675964,0.0907062441110611
2,4,128,70,0.6505990028381348,0.16646108031272888
2,4,128,71,0.4614318311214447,0.21308141946792603
2,4,128,72,0.655819296836853,0.13869769871234894
2,4,128,73,0.6009496450424194,0.2215472012758255
2,4,128,74,0.35147610306739807,0.24596674740314484
2,4,128,75,0.64548659324646,0.22631534934043884
2,4,128,76,0.4348946511745453,0.2893669605255127
2,4,128,77,0.6556820869445801,0.2771029472351074
2,4,128,78,0.7586071491241455,0.09272588044404984
2,4,128,79,0.6462520360946655,0.07083545625209808
2,4,128,80,0.587751567363739,0.19031019508838654
2,4,128,81,0.5078059434890747,0.06678216904401779
2,4,128,82,0.6175024509429932,0.16022498905658722
2,4,128,83,0.6878334283828735,0.23079556226730347
2,4,128,84,0.5887683033943176,0.2317989617586136
2,4,128,85,0.5835452675819397,0.35505589842796326
2,4,128,86,0.6484813690185547,0.0974639430642128
2,4,128,87,0.6007990837097168,0.16066133975982666
2,4,128,88,0.5126598477363586,0.09785882383584976
2,4,128,89,0.48321205377578735,0.20533879101276398
2,4,128,90,0.2879057228565216,0.12573210895061493
2,4,128,91,0.59507155418396,0.15624921023845673
2,4,128,92,0.5417008399963379,0.22327104210853577
2,4,128,93,0.5712533593177795,0.16484877467155457
2,4,128,94,0.3752445876598358,0.15441030263900757
2,4,128,95,0.5764055252075195,0.06621022522449493
2,4,128,96,0.6614678502082825,0.13593272864818573
2,4,128,97,0.6995548605918884,0.09290233999490738
2,4,128,98,0.5935145616531372,0.21215063333511353
2,4,128,99,0.3812668025493622,0.2533252537250519
2,4,128,100,0.5987846851348877,0.20893873274326324
2,4,128,101,0.6577962636947632,0.0834452360868454
2,4,128,102,0.6542119979858398,0.190703883767128
2,4,128,103,0.38939541578292847,0.23528575897216797
2,4,128,104,0.31265512108802795,0.12369371950626373
2,4,128,105,0.6393848061561584,0.0830150917172432
2,4,128,106,0.4309893846511841,0.24683678150177002
2,4,128,107,0.6460806727409363,0.2502557039260864
2,4,128,108,0.4768315255641937,0.1590929478406906
2,4,128,109,0.5083712339401245,0.13320566713809967
2,4,128,110,0.6653923988342285,0.2535196542739868
2,4,128,111,0.3682093918323517,0.309512197971344
2,4,128,112,0.6183150410652161,0.2176458090543747
2,4,128,113,0.42213454842567444,0.1458575576543808
2,4,128,114,0.7327821254730225,0.08925556391477585
2,4,128,115,0.4903208315372467,0.2830484211444855
2,4,128,116,0.5610368847846985,0.19659601151943207
2,4,128,117,0.6253111958503723,0.33883529901504517
2,4,128,118,0.3733910620212555,0.1688452661037445
2,4,128,119,0.42872631549835205,0.1023334190249443
2,4,128,120,0.6374683380126953,0.19325871765613556
2,4,128,121,0.6340979337692261,0.3106916844844818
2,4,128,122,0.693564772605896,0.2103942185640335
2,4,128,123,0.49706584215164185,0.1435943841934204
2,4,128,124,0.6686540246009827,0.18902230262756348
2,4,128,125,0.6233793497085571,0.19934718310832977
2,4,128,126,0.5752183198928833,0.2014414370059967
2,4,128,127,0.7287357449531555,0.1644693911075592
2,5,128,0,0.7515305280685425,0.10789263248443604
2,5,128,1,0.34788811206817627,0.11715944111347198
2,5,128,2,0.7747762799263,0.13584484159946442
2,5,128,3,0.3390475809574127,0.3352544605731964
2,5,128,4,0.7234213948249817,0.2246602326631546
2,5,128,5,0.8072550296783447,0.17340533435344696
2,5,128,6,0.7608301639556885,0.17580831050872803
2,5,128,7,0.7776423692703247,0.1460438072681427
2,5,128,8,0.6088050603866577,0.3255324959754944
2,5,128,9,0.46743839979171753,0.1964116245508194
2,5,128,10,0.606785237789154,0.12853862345218658
2,5,128,11,0.6429470777511597,0.31738993525505066
2,5,128,12,0.8839747905731201,0.12095441669225693
2,5,128,13,0.8615536093711853,0.05633294954895973
2,5,128,14,0.8101580142974854,0.13972784578800201
2,5,128,15,0.780232846736908,0.08824155479669571
2,5,128,16,0.7795380353927612,0.163286954164505
2,5,128,17,0.8242474794387817,0.09481938928365707
2,5,128,18,0.5107288360595703,0.21780860424041748
2,5,128,19,0.570242166519165,0.20337192714214325
2,5,128,20,0.8095207214355469,0.16937017440795898
2,5,128,21,0.8185213804244995,0.1267603635787964
2,5,128,22,0.6132325530052185,0.1296946108341217
2,5,128,23,0.6807359457015991,0.25057676434516907
2,5,128,24,0.8539493680000305,0.0960504561662674
2,5,128,25,0.8237073421478271,0.06871242821216583
2,5,128,26,0.6984221935272217,0.24130015075206757
2,5,128,27,0.8651156425476074,0.11157168447971344
2,5,128,28,0.7684878706932068,0.16876092553138733
2,5,128,29,0.6246953010559082,0.2365708202123642
2,5,128,30,0.7711147665977478,0.16176244616508484
2,5,128,31,0.6037814617156982,0.35128170251846313
2,5,128,32,0.7639772295951843,0.20531204342842102
2,5,128,33,0.6005340814590454,0.12035039812326431
2,5,128,34,0.8388854265213013,0.07744617760181427
2,5,128,35,0.6736204624176025,0.29799941182136536
2,5,128,36,0.7932937145233154,0.11535973101854324
2,5,128,37,0.8523585796356201,0.08213124424219131
2,5,128,38,0.8576104044914246,0.0767500177025795
2,5,128,39,0.6291371583938599,0.06191837415099144
2,5,128,40,0.7873759865760803,0.12840536236763
2,5,128,41,0.7480993270874023,0.2140825390815735
2,5,128,42,0.8195556402206421,0.09860741347074509
2,5,128,43,0.7304894328117371,0.12297472357749939
2,5,128,44,0.7127477526664734,0.06087064743041992
2,5,128,45,0.7879598736763,0.07149887830018997
2,5,128,46,0.728441059589386,0.22303251922130585
2,5,128,47,0.7510443925857544,0.20949877798557281
2,5,128,48,0.5533199310302734,0.2470075488090515
2,5,128,49,0.5903623104095459,0.22497601807117462
2,5,128,50,0.8462991118431091,0.06824059039354324
2,5,128,51,0.6390241384506226,0.29939964413642883
2,5,128,52,0.7923769354820251,0.17794588208198547
2,5,128,53,0.7144632935523987,0.24946321547031403
2,5,128,54,0.6934083700180054,0.14322495460510254
2,5,128,55,0.6835216283798218,0.18198922276496887
2,5,128,56,0.61006760597229,0.14585340023040771
2,5,128,57,0.6091921925544739,0.35710570216178894
2,5,128,58,0.8474944233894348,0.0877840518951416
2,5,128,59,0.8055993914604187,0.09536924958229065
2,5,128,60,0.7911167740821838,0.17904962599277496
2,5,128,61,0.6450666189193726,0.19221478700637817
2,5,128,62,0.854058027267456,0.05525972694158554
2,5,128,63,0.6926817893981934,0.1872922033071518
2,5,128,64,0.8269343972206116,0.11007881909608841
2,5,128,65,0.4311138689517975,0.30116111040115356
2,5,128,66,0.8159372806549072,0.060580380260944366
2,5,128,67,0.8219514489173889,0.06820918619632721
2,5,128,68,0.4291965365409851,0.2700388431549072
2,5,128,69,0.7875556945800781,0.0879967138171196
2,5,128,70,0.8029499053955078,0.06701478362083435
2,5,128,71,0.7056884169578552,0.27113503217697144
2,5,128,72,0.736233115196228,0.147223562002182
2,5,128,73,0.6748726963996887,0.27713608741760254
2,5,128,74,0.5704910755157471,0.32187095284461975
2,5,128,75,0.7990368008613586,0.13696059584617615
2,5,128,76,0.8361616134643555,0.15735313296318054
2,5,128,77,0.7152618765830994,0.04425050690770149
2,5,128,78,0.7943374514579773,0.09884049743413925
2,5,128,79,0.5058237910270691,0.2253650575876236
2,5,128,80,0.6931861042976379,0.2549811005592346
2,5,128,81,0.6981402635574341,0.0653095543384552
2,5,128,82,0.8296598196029663,0.12934713065624237
2,5,128,83,0.8412202000617981,0.10928897559642792
2,5,128,84,0.7095856666564941,0.24396449327468872
2,5,128,85,0.8106295466423035,0.16735078394412994
2,5,128,86,0.7126018404960632,0.21895954012870789
2,5,128,87,0.7540895342826843,0.1268271505832672
2,5,128,88,0.784610390663147,0.15940631926059723
2,5,128,89,0.7935269474983215,0.07357967644929886
2,5,128,90,0.48484528064727783,0.09163207560777664
2,5,128,91,0.7986195683479309,0.11657244712114334
2,5,128,92,0.7748863697052002,0.06497742980718613
2,5,128,93,0.7401788830757141,0.25755998492240906
2,5,128,94,0.5006750822067261,0.2785263955593109
2,5,128,95,0.7067584991455078,0.1972706913948059
2,5,128,96,0.7196869850158691,0.11163374036550522
2,5,128,97,0.802385151386261,0.05939028412103653
2,5,128,98,0.7833176851272583,0.058451976627111435
2,5,128,99,0.5655454397201538,0.14172518253326416
2,5,128,100,0.5700491666793823,0.18526272475719452
2,5,128,101,0.8147189021110535,0.07148975133895874
2,5,128,102,0.3787877857685089,0.2720112204551697
2,5,128,103,0.8366195559501648,0.07930859178304672
2,5,128,104,0.7805019021034241,0.08331483602523804
2,5,128,105,0.6570480465888977,0.313407301902771
2,5,128,106,0.5340409874916077,0.24168197810649872
2,5,128,107,0.7490668296813965,0.2106991708278656
2,5,128,108,0.8305826187133789,0.07425815612077713
2,5,128,109,0.7884602546691895,0.07147183269262314
2,5,128,110,0.7755376100540161,0.18863749504089355
2,5,128,111,0.681641161441803,0.23659877479076385
2,5,128,112,0.7349514961242676,0.23010410368442535
2,5,128,113,0.7889529466629028,0.11606736481189728
2,5,128,114,0.7155308127403259,0.27200376987457275
2,5,128,115,0.5622913241386414,0.09270107746124268
2,5,128,116,0.7663780450820923,0.10800252109766006
2,5,128,117,0.7907754182815552,0.1931322067975998
2,5,128,118,0.5647786855697632,0.18962043523788452
2,5,128,119,0.5979305505752563,0.38697338104248047
2,5,128,120,0.4785880446434021,0.35110652446746826
2,5,128,121,0.4036327302455902,0.2988552153110504
2,5,128,122,0.8076122403144836,0.05838177725672722
2,5,128,123,0.7033230066299438,0.25710275769233704
2,5,128,124,0.7591927647590637,0.12360896170139313
2,5,128,125,0.7455875277519226,0.12775549292564392
2,5,128,126,0.8347799181938171,0.07032499462366104
2,5,128,127,0.7466126084327698,0.12564301490783691
3,0,32,0,0.5632232427597046,0.10000938922166824
3,0,32,1,0.5146461129188538,0.03741450607776642
3,0,32,2,0.6079233884811401,0.05025879666209221
3,0,32,3,0.4048212170600891,0.046360570937395096
3,0,32,4,0.4853237271308899,0.06738555431365967
3,0,32,5,0.4944932162761688,0.050480034202337265
3,0,32,6,0.381648987531662,0.08199068903923035
3,0,32,7,0.4170793890953064,0.09476976841688156
3,0,32,8,0.4370855391025543,0.13303281366825104
3,0,32,9,0.46280843019485474,0.061608996242284775
3,0,32,10,0.5651829838752747,0.06418716162443161
3,0,32,11,0.4479403495788574,0.08514375239610672
3,0,32,12,0.5623759031295776,0.07998406141996384
3,0,32,13,0.48112374544143677,0.05718182772397995
3,0,32,14,0.4984303414821625,0.031101074069738388
3,0,32,15,0.4042668342590332,0.06107276305556297
3,0,32,16,0.3775089383125305,0.06388475745916367
3,0,32,17,0.43747594952583313,0.0749807059764862
3,0,32,18,0.5206325650215149,0.11360858380794525
3,0,32,19,0.4472881257534027,0.05233306065201759
3,0,32,20,0.35259929299354553,0.034484270960092545
3,0,32,21,0.4564177691936493,0.05821209028363228
3,0,32,22,0.5186755061149597,0.11867501586675644
3,0,32,23,0.40677541494369507,0.01243322342634201
3,0,32,24,0.6040698885917664,0.015166813507676125
3,0,32,25,0.5968878269195557,0.05286432057619095
3,0,32,26,0.5607674717903137,0.07034014165401459
3,0,32,27,0.44560369849205017,0.07810375094413757
3,0,32,28,0.5782926082611084,0.05942043662071228
3,0,32,29,0.5672289133071899,0.06241145730018616
3,0,32,30,0.5146201252937317,0.06359934061765671
3,0,32,31,0.4578796923160553,0.08232003450393677
3,1,32,0,0.4388655424118042,0.13148608803749084
3,1,32,1,0.4192889928817749,0.06600552052259445
3,1,32,2,0.35549619793891907,0.07356907427310944
3,1,32,3,0.48787418007850647,0.12309830635786057
3,1,32,4,0.3520958423614502,0.10122214257717133
3,1,32,5,0.6258915066719055,0.11812762916088104
3,1,32,6,0.6331098675727844,0.052669260650873184
3,1,32,7,0.586929202079773,0.08683893829584122
3,1,32,8,0.5651867389678955,0.06002947688102722
3,1,32,9,0.5199617743492126,0.07965968549251556
3,1,32,10,0.46292924880981445,0.02429714985191822
3,1,32,11,0.5977709293365479,0.07250143587589264
3,1,32,12,0.48762255907058716,0.12137413769960403
3,1,32,13,0.523417055606842,0.13126394152641296
3,1,32,14,0.46458783745765686,0.12800255417823792
3,1,32,15,0.5993693470954895,0.058195095509290695
3,1,32,16,0.56903475522995,0.05388930067420006
3,1,32,17,0.5249236226081848,0.07093076407909393
3,1,32,18,0.46428486704826355,0.12712617218494415
3,1,32,19,0.37384268641471863,0.07503248751163483
3,1,32,20,0.364300012588501,0.12181364744901657
3,1,32,21,0.5419667959213257,0.10668552666902542
3,1,32,22,0.4726027250289917,0.040509432554244995
3,1,32,23,0.5997658967971802,0.044468242675065994
3,1,32,24,0.610054612159729,0.09577277302742004
3,1,32,25,0.4650403559207916,0.07457835972309113
3,1,32,26,0.4343234896659851,0.042475100606679916
3,1,32,27,0.47474634647369385,0.13067787885665894
3,1,32,28,0.4507565498352051,0.06888330727815628
3,1,32,29,0.3573920726776123,0.04114345461130142
3,1,32,30,0.45408234000205994,0.07543329149484634
3,1,32,31,0.5625576972961426,0.10090488940477371
3,2,64,0,0.4034586548805237,0.15672966837882996
3,2,64,1,0.4629417061805725,0.18112969398498535
3,2,64,2,0.5173524022102356,0.0547972097992897
3,2,64,3,0.6804179549217224,0.09571558237075806
3,2,64,4,0.6743949055671692,0.09641561657190323
3,2,64,5,0.6268614530563354,0.04878668487071991
3,2,64,6,0.48702511191368103,0.040861789137125015
3,2,64,7,0.4337121248245239,0.18091650307178497
3,2,64,8,0.4990094006061554,0.2600533068180084
3,2,64,9,0.48149940371513367,0.11455845832824707
3,2,64,10,0.5583773851394653,0.0505145899951458
3,2,64,11,0.3806256651878357,0.09361379593610764
3,2,64,12,0.5835487246513367,0.055231690406799316
3,2,64,13,0.5959470868110657,0.15371695160865784
3,2,64,14,0.46600475907325745,0.06107601150870323
3,2,64,15,0.45332029461860657,0.12841282784938812
3,2,64,16,0.46155643463134766,0.0864071175456047
3,2,64,17,0.5028945207595825,0.20142744481563568
3,2,64,18,0.4325830638408661,0.12329809367656708
3,2,64,19,0.4712844491004944,0.11338859051465988
3,2,64,20,0.45004528760910034,0.1387387067079544
3,2,64,21,0.4623514413833618,0.06350360810756683
3,2,64,22,0.5319452285766602,0.06866929680109024
3,2,64,23,0.5089266300201416,0.031736522912979126
3,2,64,24,0.5197901725769043,0.10308406502008438
3,2,64,25,0.5338211059570312,0.21903842687606812
3,2,64,26,0.532410740852356,0.16790331900119781
3,2,64,27,0.4262729287147522,0.11857354640960693
3,2,64,28,0.5781071782112122,0.19918279349803925
3,2,64,29,0.5780623555183411,0.09899838268756866
3,2,64,30,0.476142555475235,0.06622723489999771
3,2,64,31,0.4325680732727051,0.10067631304264069
3,2,64,32,0.5293511748313904,0.05181555449962616
3,2,64,33,0.628616452217102,0.13118180632591248
3,2,64,34,0.6131430864334106,0.14611241221427917
3,2,64,35,0.44592171907424927,0.07363928109407425
3,2,64,36,0.4477695822715759,0.05633566528558731
3,2,64,37,0.5411703586578369,0.2608090937137604
3,2,64,38,0.4422397315502167,0.11482219398021698
3,2,64,39,0.6621719598770142,0.1138409972190857
3,2,64,40,0.5085700154304504,0.2519226372241974
3,2,64,41,0.3567771911621094,0.061121001839637756
3,2,64,42,0.6939650774002075,0.11562086641788483
3,2,64,43,0.5936588048934937,0.07674289494752884
3,2,64,44,0.37545013427734375,0.1688416302204132
3,2,64,45,0.496329665184021,0.08632611483335495
3,2,64,46,0.44320961833000183,0.11429290473461151
3,2,64,47,0.4680384397506714,0.02954624965786934
3,2,64,48,0.48269063234329224,0.04566888511180878
3,2,64,49,0.6087964773178101,0.09624844789505005
3,2,64,50,0.5552752614021301,0.05899302288889885
3,2,64,51,0.5520240664482117,0.07977204024791718
3,2,64,52,0.5840407013893127,0.071022167801857
3,2,64,53,0.4850578308105469,0.1263003796339035
3,2,64,54,0.6974495053291321,0.0841188132762909
3,2,64,55,0.43796947598457336,0.07652656733989716
3,2,64,56,0.3557346761226654,0.05735127627849579
3,2,64,57,0.7070393562316895,0.07310919463634491
3,2,64,58,0.6743384003639221,0.10371759533882141
3,2,64,59,0.36951717734336853,0.07579416036605835
3,2,64,60,0.48014554381370544,0.13175342977046967
3,2,64,61,0.575850248336792,0.06984322518110275
3,2,64,62,0.5017024278640747,0.08208790421485901
3,2,64,63,0.5680274367332458,0.09106892347335815
3,3,64,0,0.2643159031867981,0.09076860547065735
3,3,64,1,0.6326987743377686,0.08525332808494568
3,3,64,2,0.47164180874824524,0.18542064726352692
3,3,64,3,0.5927028059959412,0.18825207650661469
3,3,64,4,0.30962035059928894,0.09772443771362305
3,3,64,5,0.31855151057243347,0.1273570954799652
3,3,64,6,0.44868382811546326,0.1103166937828064
3,3,64,7,0.39785560965538025,0.06914111226797104
3,3,64,8,0.5924749374389648,0.187529057264328
3,3,64,9,0.46680572628974915,0.17742757499217987
3,3,64,10,0.6335729956626892,0.08813559263944626
3,3,64,11,0.43689197301864624,0.17751748859882355
3,3,64,12,0.5055949687957764,0.22541551291942596
3,3,64,13,0.37610533833503723,0.20268075168132782
3,3,64,14,0.4014776349067688,0.07193347066640854
3,3,64,15,0.4034842550754547,0.12673544883728027
3,3,64,16,0.5190686583518982,0.13310416042804718
3,3,64,17,0.48765143752098083,0.15485528111457825
3,3,64,18,0.5124068856239319,0.1424115151166916
3,3,64,19,0.5927965641021729,0.10427744686603546
3,3,64,20,0.5106058716773987,0.20387615263462067
3,3,64,21,0.45203444361686707,0.09846494346857071
3,3,64,22,0.4782112240791321,0.19949962198734283
3,3,64,23,0.5799989700317383,0.04141564294695854
3,3,64,24,0.5580247640609741,0.14749319851398468
3,3,64,25,0.4531653821468353,0.10697922110557556
3,3,64,26,0.6034112572669983,0.09103216975927353
3,3,64,27,0.5298467874526978,0.3086712956428528
3,3,64,28,0.35534700751304626,0.09963788837194443
3,3,64,29,0.596800684928894,0.1532326191663742
3,3,64,30,0.5394412279129028,0.24365775287151337
3,3,64,31,0.5817422866821289,0.1693582534790039
3,3,64,32,0.6704245805740356,0.08946806192398071
3,3,64,33,0.5905581712722778,0.16083265841007233
3,3,64,34,0.5727306008338928,0.27544376254081726
3,3,64,35,0.5666311979293823,0.15217839181423187
3,3,64,36,0.3587460219860077,0.059114970266819
3,3,64,37,0.48887741565704346,0.1341196894645691
3,3,64,38,0.39071670174598694,0.13676553964614868
3,3,64,39,0.46627679467201233,0.09237826615571976
3,3,64,40,0.4424275755882263,0.19242562353610992
3,3,64,41,0.3649871051311493,0.10118153691291809
3,3,64,42,0.4646929204463959,0.11045996099710464
3,3,64,43,0.5519549250602722,0.0727737620472908
3,3,64,44,0.5111927390098572,0.15281131863594055
3,3,64,45,0.4467664957046509,0.08003084361553192
3,3,64,46,0.46430301666259766,0.18367372453212738
3,3,64,47,0.45748665928840637,0.14077146351337433
3,3,64,48,0.6009789109230042,0.16097737848758698
3,3,64,49,0.602192759513855,0.13076645135879517
3,3,64,50,0.42649105191230774,0.1799434870481491
3,3,64,51,0.3815770149230957,0.1563422977924347
3,3,64,52,0.44217997789382935,0.20503979921340942
3,3,64,53,0.5033333897590637,0.24265697598457336
3,3,64,54,0.31584346294403076,0.11709005385637283
3,3,64,55,0.3169853389263153,0.12752708792686462
3,3,64,56,0.6036139726638794,0.1629423201084137
3,3,64,57,0.5092810392379761,0.17859140038490295
3,3,64,58,0.41738569736480713,0.09687654674053192
3,3,64,59,0.3701113164424896,0.08058226108551025
3,3,64,60,0.3391927480697632,0.05870937556028366
3,3,64,61,0.4453962445259094,0.10144545882940292
3,3,64,62,0.3528442978858948,0.13836213946342468
3,3,64,63,0.5521025061607361,0.11385563015937805
3,4,128,0,0.5418605208396912,0.18434786796569824
3,4,128,1,0.6230501532554626,0.18575090169906616
3,4,128,2,0.7960432171821594,0.1333712786436081
3,4,128,3,0.6991034746170044,0.1958969384431839
3,4,128,4,0.692847490310669,0.35137587785720825
3,4,128,5,0.5491412878036499,0.0903727114200592
3,4,128,6,0.23663578927516937,0.17295967042446136
3,4,128,7,0.5692530870437622,0.19399742782115936
3,4,128,8,0.6643540263175964,0.2526424825191498
3,4,128,9,0.4852670431137085,0.10132250189781189
3,4,128,10,0.5684053897857666,0.1862880289554596
3,4,128,11,0.5978108048439026,0.14713172614574432
3,4,128,12,0.2859392762184143,0.10507411509752274
3,4,128,13,0.356878399848938,0.08690663427114487
3,4,128,14,0.6143931150436401,0.14188238978385925
3,4,128,15,0.4640328884124756,0.21011140942573547
3,4,128,16,0.4118293821811676,0.1712791621685028
3,4,128,17,0.6458613276481628,0.1180744543671608
3,4,128,18,0.6571946740150452,0.0822562649846077
3,4,128,19,0.43103480339050293,0.18030430376529694
3,4,128,20,0.35565832257270813,0.14184251427650452
3,4,128,21,0.7027095556259155,0.2787633240222931
3,4,128,22,0.6668335795402527,0.21878299117088318
3,4,128,23,0.5259996652603149,0.12301462888717651
3,4,128,24,0.6604787111282349,0.1283583641052246
3,4,128,25,0.7433858513832092,0.15683577954769135
3,4,128,26,0.7068479657173157,0.23811039328575134
3,4,128,27,0.5548343658447266,0.2971488833427429
3,4,128,28,0.5823716521263123,0.209401935338974
3,4,128,29,0.6761002540588379,0.12243117392063141
3,4,128,30,0.6234127879142761,0.2599523663520813
3,4,128,31,0.677099347114563,0.24669799208641052
3,4,128,32,0.5569822192192078,0.27180996537208557
3,4,128,33,0.6890311241149902,0.123215451836586
3,4,128,34,0.5910910367965698,0.16137851774692535
3,4,128,35,0.503577470779419,0.166222482919693
3,4,128,36,0.7236807346343994,0.1964837908744812
3,4,128,37,0.3501713275909424,0.2144342064857483
3,4,128,38,0.7710638642311096,0.11843859404325485
3,4,128,39,0.7715597152709961,0.12715081870555878
3,4,128,40,0.6051499843597412,0.2334848791360855
3,4,128,41,0.4217331111431122,0.3127737045288086
3,4,128,42,0.7343133687973022,0.11408105492591858
3,4,128,43,0.694579541683197,0.07850419729948044
3,4,128,44,0.6934489011764526,0.09373613446950912
3,4,128,45,0.3743888735771179,0.3385140597820282
3,4,128,46,0.40019068121910095,0.3113787770271301
3,4,128,47,0.334150105714798,0.24617090821266174
3,4,128,48,0.7169524431228638,0.1261100172996521
3,4,128,49,0.6081060767173767,0.21182595193386078
3,4,128,50,0.6802682876586914,0.3492395281791687
3,4,128,51,0.47340160608291626,0.2226649671792984
3,4,128,52,0.7897093892097473,0.12037917226552963
3,4,128,53,0.5643904209136963,0.06862225383520126
3,4,128,54,0.5345326066017151,0.20857588946819305
3,4,128,55,0.6764246821403503,0.3462405800819397
3,4,128,56,0.820442795753479,0.08532354980707169
3,4,128,57,0.6376134157180786,0.2670024633407593
3,4,128,58,0.4551364779472351,0.243321031332016
3,4,128,59,0.7942368388175964,0.16981904208660126
3,4,128,60,0.6678194403648376,0.3551885783672333
3,4,128,61,0.482456237077713,0.12246496230363846
3,4,128,62,0.6184133887290955,0.2196657806634903
3,4,128,63,0.33842065930366516,0.2665890157222748
3,4,128,64,0.661307692527771,0.3496423065662384
3,4,128,65,0.4135701656341553,0.07632123678922653
3,4,128,66,0.5792012810707092,0.12333951145410538
3,4,128,67,0.6851365566253662,0.1920696496963501
3,4,128,68,0.3292771577835083,0.09046178311109543
3,4,128,69,0.31007620692253113,0.09242239594459534
3,4,128,70,0.7271789312362671,0.17543692886829376
3,4,128,71,0.6705600619316101,0.3093694746494293
3,4,128,72,0.7305649518966675,0.27729904651641846
3,4,128,73,0.6299803256988525,0.14775338768959045
3,4,128,74,0.5558982491493225,0.04888536408543587
3,4,128,75,0.4267774522304535,0.2828630208969116
3,4,128,76,0.6774834990501404,0.31784626841545105
3,4,128,77,0.7055521011352539,0.16443543136119843
3,4,128,78,0.5196360945701599,0.05992283672094345
3,4,128,79,0.5887211561203003,0.23941297829151154
3,4,128,80,0.6954723000526428,0.32668817043304443
3,4,128,81,0.6466203927993774,0.3183436691761017
3,4,128,82,0.6444168090820312,0.13181044161319733
3,4,128,83,0.6893865466117859,0.2876758873462677
3,4,128,84,0.6744581460952759,0.0992262065410614
3,4,128,85,0.63916015625,0.18720249831676483
3,4,128,86,0.6394703984260559,0.14242017269134521
3,4,128,87,0.7017266154289246,0.2372557669878006
3,4,128,88,0.3926506042480469,0.1623845249414444
3,4,128,89,0.49753835797309875,0.1540302336215973
3,4,128,90,0.5256221294403076,0.13401779532432556
3,4,128,91,0.3701329827308655,0.1771593689918518
3,4,128,92,0.6378121972084045,0.31213632225990295
3,4,128,93,0.33562329411506653,0.3021952509880066
3,4,128,94,0.29904705286026,0.1131213903427124
3,4,128,95,0.6773691177368164,0.1530153453350067
3,4,128,96,0.7989934682846069,0.11673153191804886
3,4,128,97,0.36340710520744324,0.21097159385681152
3,4,128,98,0.459396630525589,0.20904888212680817
3,4,128,99,0.6201953887939453,0.16148947179317474
3,4,128,100,0.7444474697113037,0.17601947486400604
3,4,128,101,0.7295352220535278,0.18780161440372467
3,4,128,102,0.47835415601730347,0.17836277186870575
3,4,128,103,0.30677056312561035,0.11925811320543289
3,4,128,104,0.4246322214603424,0.20397868752479553
3,4,128,105,0.30390363931655884,0.07636534422636032
3,4,128,106,0.32839512825012207,0.2882499098777771
3,4,128,107,0.2999950349330902,0.1996874362230301
3,4,128,108,0.6508526802062988,0.17395323514938354
3,4,128,109,0.6618794202804565,0.1143825501203537
3,4,128,110,0.7205619215965271,0.20967213809490204
3,4,128,111,0.7311991453170776,0.1408679187297821
3,4,128,112,0.43927791714668274,0.27548250555992126
3,4,128,113,0.6425808668136597,0.243966206908226
3,4,128,114,0.3472292721271515,0.09166651219129562
3,4,128,115,0.6557372212409973,0.30820566415786743
3,4,128,116,0.6656908988952637,0.32584860920906067
3,4,128,117,0.6419199705123901,0.2641884386539459
3,4,128,118,0.7165013551712036,0.153489351272583
3,4,128,119,0.5173086524009705,0.1303531527519226
3,4,128,120,0.5871804356575012,0.11257190257310867
3,4,128,121,0.5221068859100342,0.2745130658149719
3,4,128,122,0.6872352957725525,0.2238953411579132
3,4,128,123,0.27845120429992676,0.10286635160446167
3,4,128,124,0.673090934753418,0.10374348610639572
3,4,128,125,0.3512152135372162,0.30287638306617737
3,4,128,126,0.6688671708106995,0.22393833100795746
3,4,128,127,0.6832776069641113,0.158213272690773
3,5,128,0,0.6448293328285217,0.16953320801258087
3,5,128,1,0.3975161015987396,0.15688735246658325
3,5,128,2,0.7853742241859436,0.1475079357624054
3,5,128,3,0.7137161493301392,0.10578624904155731
3,5,128,4,0.5001313090324402,0.11449362337589264
3,5,128,5,0.3302764594554901,0.10215800255537033
3,5,128,6,0.5850768685340881,0.021116798743605614
3,5,128,7,0.38155898451805115,0.15749335289001465
3,5,128,8,0.6284732222557068,0.05032648891210556
3,5,128,9,0.36241644620895386,0.2902618944644928
3,5,128,10,0.7907358407974243,0.14776095747947693
3,5,128,11,0.6170365214347839,0.21118459105491638
3,5,128,12,0.5172247290611267,0.056969691067934036
3,5,128,13,0.3262058198451996,0.15588313341140747
3,5,128,14,0.5545496344566345,0.09530174732208252
3,5,128,15,0.6457898020744324,0.19612140953540802
3,5,128,16,0.5643898844718933,0.13219444453716278
3,5,128,17,0.603766679763794,0.07424720376729965
3,5,128,18,0.7987176775932312,0.10899731516838074
3,5,128,19,0.46336257457733154,0.09307752549648285
3,5,128,20,0.4917166829109192,0.08681760728359222
3,5,128,21,0.5522231459617615,0.08023423701524734
3,5,128,22,0.6888359785079956,0.251493364572525
3,5,128,23,0.7042617797851562,0.1959461271762848
3,5,128,24,0.751891553401947,0.2011099010705948
3,5,128,25,0.7319363951683044,0.15776211023330688
3,5,128,26,0.6957725286483765,0.24840636551380157
3,5,128,27,0.5535604953765869,0.04002811014652252
3,5,128,28,0.7195692658424377,0.22817786037921906
3,5,128,29,0.6741666197776794,0.1310499608516693
3,5,128,30,0.5743669271469116,0.04560017213225365
3,5,128,31,0.37108978629112244,0.21894219517707825
3,5,128,32,0.5533973574638367,0.1282256692647934
3,5,128,33,0.6967065334320068,0.059597406536340714
3,5,128,34,0.7120855450630188,0.2314363569021225
3,5,128,35,0.3871684968471527,0.1524941623210907
3,5,128,36,0.7168598771095276,0.2572210729122162
3,5,128,37,0.33758559823036194,0.19041430950164795
3,5,128,38,0.32984670996665955,0.25838130712509155
3,5,128,39,0.7325567603111267,0.1872113198041916
3,5,128,40,0.719275176525116,0.2274969518184662
3,5,128,41,0.7781579494476318,0.09105227887630463
3,5,128,42,0.7390123605728149,0.19032198190689087
3,5,128,43,0.7571965456008911,0.1044253334403038
3,5,128,44,0.7167887687683105,0.15246962010860443
3,5,128,45,0.4240809977054596,0.05534837767481804
3,5,128,46,0.3894749581813812,0.11285679787397385
3,5,128,47,0.7456231713294983,0.1757066249847412
3,5,128,48,0.7945859432220459,0.11288808286190033
3,5,128,49,0.5998555421829224,0.13079412281513214
3,5,128,50,0.812171220779419,0.14104421436786652
3,5,128,51,0.5966001152992249,0.13836738467216492
3,5,128,52,0.7075502276420593,0.1511252075433731
3,5,128,53,0.6826345920562744,0.13990981876850128
3,5,128,54,0.38917258381843567,0.1377599984407425
3,5,128,55,0.715919554233551,0.2769564092159271
3,5,128,56,0.5924780964851379,0.06319206953048706
3,5,128,57,0.4367607831954956,0.1897592842578888
3,5,128,58,0.6821140646934509,0.15842510759830475
3,5,128,59,0.7369405031204224,0.23333367705345154
3,5,128,60,0.6835861802101135,0.17969650030136108
3,5,128,61,0.6644386649131775,0.07052962481975555
3,5,128,62,0.5501876473426819,0.11896391212940216
3,5,128,63,0.4168774485588074,0.17675893008708954
3,5,128,64,0.694654107093811,0.13186471164226532
3,5,128,65,0.6479499340057373,0.20349393784999847
3,5,128,66,0.7029778361320496,0.14653782546520233
3,5,128,67,0.6821030974388123,0.05427500978112221
3,5,128,68,0.4551104009151459,0.07142119854688644
3,5,128,69,0.5996728539466858,0.12573207914829254
3,5,128,70,0.36574435234069824,0.0642525851726532
3,5,128,71,0.6787394285202026,0.2652726471424103
3,5,128,72,0.709716260433197,0.25437530875205994
3,5,128,73,0.5709450244903564,0.0651453360915184
3,5,128,74,0.7985983490943909,0.14341428875923157
3,5,128,75,0.5889711380004883,0.07585400342941284
3,5,128,76,0.7159306406974792,0.18726010620594025
3,5,128,77,0.5711945295333862,0.07774920016527176
3,5,128,78,0.3919973373413086,0.08420536667108536
3,5,128,79,0.7470707297325134,0.10825447738170624
3,5,128,80,0.7111072540283203,0.2904103100299835
3,5,128,81,0.6504757404327393,0.14294764399528503
3,5,128,82,0.5118021965026855,0.08757661283016205
3,5,128,83,0.6199836134910583,0.21931245923042297
3,5,128,84,0.7553101181983948,0.16212201118469238
3,5,128,85,0.7110171318054199,0.20488037168979645
3,5,128,86,0.6399473547935486,0.05301140993833542
3,5,128,87,0.6742811799049377,0.16805888712406158
3,5,128,88,0.6361207365989685,0.06442761421203613
3,5,128,89,0.7049385905265808,0.10968054831027985
3,5,128,90,0.6961100697517395,0.24667856097221375
3,5,128,91,0.6514161229133606,0.14899002015590668
3,5,128,92,0.5235276222229004,0.050067465752363205
3,5,128,93,0.6867217421531677,0.16072233021259308
3,5,128,94,0.7659294009208679,0.07966134697198868
3,5,128,95,0.7862414717674255,0.09948106855154037
3,5,128,96,0.5824350714683533,0.07481326162815094
3,5,128,97,0.7677861452102661,0.09285014122724533
3,5,128,98,0.7290682792663574,0.15231648087501526
3,5,128,99,0.7309779524803162,0.09756140410900116
3,5,128,100,0.7117562890052795,0.2119620144367218
3,5,128,101,0.7928864359855652,0.09807690232992172
3,5,128,102,0.560495138168335,0.11029940843582153
3,5,128,103,0.5448803901672363,0.0618889145553112
3,5,128,104,0.37307631969451904,0.1427134871482849
3,5,128,105,0.5007203221321106,0.1090347021818161
3,5,128,106,0.4239713251590729,0.15029381215572357
3,5,128,107,0.5375587940216064,0.10523289442062378
3,5,128,108,0.7619612216949463,0.141778364777565
3,5,128,109,0.67473304271698,0.22455188632011414
3,5,128,110,0.7455926537513733,0.15210919082164764
3,5,128,111,0.6321080327033997,0.1500067114830017
3,5,128,112,0.8143264651298523,0.15369431674480438
3,5,128,113,0.5517418384552002,0.12748752534389496
3,5,128,114,0.6756844520568848,0.08210873603820801
3,5,128,115,0.6111619472503662,0.20942847430706024
3,5,128,116,0.2744387686252594,0.1744462102651596
3,5,128,117,0.6517804861068726,0.2907603681087494
3,5,128,118,0.6928236484527588,0.13361799716949463
3,5,128,119,0.6525462865829468,0.12515003979206085
3,5,128,120,0.7558962106704712,0.13011880218982697
3,5,128,121,0.5554904341697693,0.05983370169997215
3,5,128,122,0.5147059559822083,0.119614377617836
3,5,128,123,0.4867081046104431,0.02864321507513523
3,5,128,124,0.7319453358650208,0.1266113966703415
3,5,128,125,0.32360684871673584,0.2482309192419052
3,5,128,126,0.585773766040802,0.04564720019698143
3,5,128,127,0.66437166929245,0.18566358089447021
4,0,32,0,0.5912139415740967,0.04247486963868141
4,0,32,1,0.5278148055076599,0.10775252431631088
4,0,32,2,0.5254154801368713,0.09973745793104172
4,0,32,3,0.49901431798934937,0.10714108496904373
4,0,32,4,0.37622007727622986,0.0814451053738594
4,0,32,5,0.43473032116889954,0.06668134778738022
4,0,32,6,0.5756898522377014,0.07836604863405228
4,0,32,7,0.40350064635276794,0.0819440484046936
4,0,32,8,0.5994777679443359,0.08416992425918579
4,0,32,9,0.4497283697128296,0.09942448884248734
4,0,32,10,0.31588682532310486,0.04394509643316269
4,0,32,11,0.4088600277900696,0.0784129723906517
4,0,32,12,0.44529107213020325,0.046067897230386734
4,0,32,13,0.45028921961784363,0.13864737749099731
4,0,32,14,0.398560106754303,0.0799032598733902
4,0,32,15,0.31203174591064453,0.09769440442323685
4,0,32,16,0.5126429200172424,0.09558629244565964
4,0,32,17,0.5505049228668213,0.05511727184057236
4,0,32,18,0.6010252237319946,0.049841560423374176
4,0,32,19,0.4437091052532196,0.0740242674946785
4,0,32,20,0.4009484350681305,0.11589465290307999
4,0,32,21,0.4795011281967163,0.08615827560424805
4,0,32,22,0.5970558524131775,0.09732837229967117
4,0,32,23,0.5922120213508606,0.09315287321805954
4,0,32,24,0.5432677268981934,0.05005092918872833
4,0,32,25,0.4211558699607849,0.1119106337428093
4,0,32,26,0.5371032357215881,0.07483619451522827
4,0,32,27,0.5262451171875,0.09595140069723129
4,0,32,28,0.5459650754928589,0.08055779337882996
4,0,32,29,0.4711567163467407,0.029079055413603783
4,0,32,30,0.5749738216400146,0.10642007738351822
4,0,32,31,0.5109952688217163,0.07529502362012863
4,1,32,0,0.27709507942199707,0.13100723922252655
4,1,32,1,0.5447404980659485,0.08637085556983948
4,1,32,2,0.49890169501304626,0.1644316166639328
4,1,32,3,0.4719383120536804,0.15288586914539337
4,1,32,4,0.38367825746536255,0.10823038220405579
4,1,32,5,0.38493114709854126,0.08444122970104218
4,1,32,6,0.3253979980945587,0.09413926303386688
4,1,32,7,0.6431990265846252,0.11727222800254822
4,1,32,8,0.7146274447441101,0.11233898252248764
4,1,32,9,0.4884842336177826,0.11920665949583054
4,1,32,10,0.5360062718391418,0.11729985475540161
4,1,32,11,0.43321260809898376,0.04873991385102272
4,1,32,12,0.3178536891937256,0.13624611496925354
4,1,32,13,0.40872693061828613,0.027806511148810387
4,1,32,14,0.4164440333843231,0.16709662973880768
4,1,32,15,0.5568816661834717,0.11652573198080063
4,1,32,16,0.569856584072113,0.07807563245296478
4,1,32,17,0.5462632179260254,0.11362335830926895
4,1,32,18,0.5420632362365723,0.1017594039440155
4,1,32,19,0.45673778653144836,0.10144439339637756
4,1,32,20,0.6379745006561279,0.1493963599205017
4,1,32,21,0.5807418823242188,0.1645483374595642
4,1,32,22,0.5431091785430908,0.16735945641994476
4,1,32,23,0.5642370581626892,0.10400016605854034
4,1,32,24,0.6046128273010254,0.11922848224639893
4,1,32,25,0.46293795108795166,0.040604688227176666
4,1,32,26,0.5209860801696777,0.09189292788505554
4,1,32,27,0.44326114654541016,0.1997145563364029
4,1,32,28,0.6532610058784485,0.12272533774375916
4,1,32,29,0.6492635011672974,0.16402752697467804
4,1,32,30,0.5215997099876404,0.041225582361221313
4,1,32,31,0.4878189265727997,0.07488927990198135
4,2,64,0,0.4816294014453888,0.1255558431148529
4,2,64,1,0.4089681804180145,0.19458459317684174
4,2,64,2,0.600020706653595,0.1860789656639099
4,2,64,3,0.5673092007637024,0.1372673660516739
4,2,64,4,0.5704745650291443,0.09837079793214798
4,2,64,5,0.5539836287498474,0.09913915395736694
4,2,64,6,0.47046610713005066,0.21870674192905426
4,2,64,7,0.4587950110435486,0.12726347148418427
4,2,64,8,0.39308807253837585,0.16000370681285858
4,2,64,9,0.6344871520996094,0.09719818830490112
4,2,64,10,0.6532679200172424,0.13848303258419037
4,2,64,11,0.5392800569534302,0.1102786734700203
4,2,64,12,0.6341874599456787,0.1475214958190918
4,2,64,13,0.6643180847167969,0.13234847784042358
4,2,64,14,0.5100917816162109,0.17245346307754517
4,2,64,15,0.5960188508033752,0.08367449045181274
4,2,64,16,0.47252777218818665,0.08034448325634003
4,2,64,17,0.5800231099128723,0.139053076505661
4,2,64,18,0.49555233120918274,0.12381277978420258
4,2,64,19,0.5137235522270203,0.09790971130132675
4,2,64,20,0.5352866053581238,0.1456921547651291
4,2,64,21,0.48415687680244446,0.0799560695886612
4,2,64,22,0.3058629333972931,0.21727056801319122
4,2,64,23,0.4757022559642792,0.2037149965763092
4,2,64,24,0.5812978744506836,0.17602403461933136
4,2,64,25,0.5164821743965149,0.18304559588432312
4,2,64,26,0.4141475558280945,0.0778823271393776
4,2,64,27,0.49708157777786255,0.22532255947589874
4,2,64,28,0.35911989212036133,0.15420764684677124
4,2,64,29,0.49039995670318604,0.1527334302663803
4,2,64,30,0.5375657677650452,0.14131967723369598
4,2,64,31,0.46684351563453674,0.15960822999477386
4,2,64,32,0.49601003527641296,0.22502803802490234
4,2,64,33,0.5339964032173157,0.1590079665184021
4,2,64,34,0.5647847652435303,0.11918415129184723
4,2,64,35,0.550040066242218,0.1481071412563324
4,2,64,36,0.59702467918396,0.19987483322620392
4,2,64,37,0.5356016159057617,0.16427046060562134
4,2,64,38,0.39336299896240234,0.17393605411052704
4,2,64,39,0.4651976227760315,0.06617838889360428
4,2,64,40,0.5557510852813721,0.17330440878868103
4,2,64,41,0.6729187965393066,0.14139753580093384
4,2,64,42,0.4801807403564453,0.24167177081108093
4,2,64,43,0.5622988939285278,0.12659505009651184
4,2,64,44,0.3982318639755249,0.1147407591342926
4,2,64,45,0.515212893486023,0.12265078723430634
4,2,64,46,0.6379461288452148,0.09131120145320892
4,2,64,47,0.5564921498298645,0.17830471694469452
4,2,64,48,0.5122050046920776,0.07614416629076004
4,2,64,49,0.5578696727752686,0.14256778359413147
4,2,64,50,0.5208654403686523,0.15142987668514252
4,2,64,51,0.4356880486011505,0.08637800067663193
4,2,64,52,0.5481352806091309,0.19422359764575958
4,2,64,53,0.47906872630119324,0.2163240909576416
4,2,64,54,0.40654224157333374,0.17571258544921875
4,2,64,55,0.6381006240844727,0.151626855134964
4,2,64,56,0.48463666439056396,0.09781159460544586
4,2,64,57,0.6474127173423767,0.12437381595373154
4,2,64,58,0.41493675112724304,0.13032518327236176
4,2,64,59,0.59441739320755,0.17961300909519196
4,2,64,60,0.4736955463886261,0.1574462503194809
4,2,64,61,0.5054906010627747,0.1419249176979065
4,2,64,62,0.4503922164440155,0.21108973026275635
4,2,64,63,0.5464538931846619,0.16724681854248047
4,3,64,0,0.513679027557373,0.11556919664144516
4,3,64,1,0.4460187256336212,0.21829529106616974
4,3,64,2,0.5838888883590698,0.16805633902549744
4,3,64,3,0.41240832209587097,0.10686857253313065
4,3,64,4,0.37302660942077637,0.09497105330228806
4,3,64,5,0.43834972381591797,0.13607050478458405
4,3,64,6,0.4539966583251953,0.08018721640110016
4,3,64,7,0.44250768423080444,0.1787734031677246
4,3,64,8,0.5622683167457581,0.09803066402673721
4,3,64,9,0.5362519025802612,0.10114797949790955
4,3,64,10,0.4611869156360626,0.061169836670160294
4,3,64,11,0.45801326632499695,0.11656585335731506
4,3,64,12,0.37078943848609924,0.09435506165027618
4,3,64,13,0.5361689925193787,0.12761381268501282
4,3,64,14,0.4726947247982025,0.09515274316072464
4,3,64,15,0.3979896605014801,0.06632544100284576
4,3,64,16,0.5410193800926208,0.13984082639217377
4,3,64,17,0.52196204662323,0.1873190850019455
4,3,64,18,0.6073008179664612,0.07159362733364105
4,3,64,19,0.4680163264274597,0.17012092471122742
4,3,64,20,0.48016422986984253,0.16416418552398682
4,3,64,21,0.4206691384315491,0.1473424881696701
4,3,64,22,0.3847244679927826,0.15984448790550232
4,3,64,23,0.46295061707496643,0.148678719997406
4,3,64,24,0.41890764236450195,0.09427084028720856
4,3,64,25,0.4796588718891144,0.1752731055021286
4,3,64,26,0.4705829620361328,0.17592982947826385
4,3,64,27,0.6256105303764343,0.16558028757572174
4,3,64,28,0.512193500995636,0.19865573942661285
4,3,64,29,0.6445377469062805,0.06622782349586487
4,3,64,30,0.506883978843689,0.10464801639318466
4,3,64,31,0.5794399976730347,0.1363731473684311
4,3,64,32,0.3867667019367218,0.11539195477962494
4,3,64,33,0.4810563325881958,0.06191191449761391
4,3,64,34,0.430122971534729,0.16457708179950714
4,3,64,35,0.3909643292427063,0.0642315223813057
4,3,64,36,0.46562787890434265,0.04530447721481323
4,3,64,37,0.4560617208480835,0.21262235939502716
4,3,64,38,0.5954164266586304,0.1323806792497635
4,3,64,39,0.5716264843940735,0.2010887861251831
4,3,64,40,0.5034459829330444,0.1854856014251709
4,3,64,41,0.6442082524299622,0.14420971274375916
4,3,64,42,0.5157445669174194,0.11405130475759506
4,3,64,43,0.46853116154670715,0.06409458070993423
4,3,64,44,0.47418153285980225,0.14737221598625183
4,3,64,45,0.3596731424331665,0.1309644877910614
4,3,64,46,0.43392202258110046,0.08307681977748871
4,3,64,47,0.41259628534317017,0.1059688851237297
4,3,64,48,0.5708939433097839,0.1637149304151535
4,3,64,49,0.4288359582424164,0.1905396580696106
4,3,64,50,0.39210188388824463,0.1459982693195343
4,3,64,51,0.5389838814735413,0.0799897164106369
4,3,64,52,0.5649662017822266,0.11162851750850677
4,3,64,53,0.4370766580104828,0.1361553817987442
4,3,64,54,0.5155637860298157,0.15506432950496674
4,3,64,55,0.5619547367095947,0.2134535014629364
4,3,64,56,0.5472729206085205,0.20544591546058655
4,3,64,57,0.4738171398639679,0.13683344423770905
4,3,64,58,0.5811793208122253,0.1918211132287979
4,3,64,59,0.5115768909454346,0.14316409826278687
4,3,64,60,0.41676297783851624,0.07380729168653488
4,3,64,61,0.4616464376449585,0.13637064397335052
4,3,64,62,0.44117075204849243,0.15306104719638824
4,3,64,63,0.529559850692749,0.09896694868803024
4,4,128,0,0.6282304525375366,0.26263877749443054
4,4,128,1,0.6976820826530457,0.1400732547044754
4,4,128,2,0.39370763301849365,0.148505300283432
4,4,128,3,0.6214843392372131,0.2639184892177582
4,4,128,4,0.714692234992981,0.08039295673370361
4,4,128,5,0.6203272938728333,0.2907902002334595
4,4,128,6,0.740989089012146,0.0898365005850792
4,4,128,7,0.5491243004798889,0.17376317083835602
4,4,128,8,0.4677060842514038,0.2070433646440506
4,4,128,9,0.629852294921875,0.08531597256660461
4,4,128,10,0.46824201941490173,0.10704387724399567
4,4,128,11,0.5970834493637085,0.14313974976539612
4,4,128,12,0.7068478465080261,0.11297142505645752
4,4,128,13,0.46296659111976624,0.13387440145015717
4,4,128,14,0.6297208070755005,0.08072009682655334
4,4,128,15,0.4985770881175995,0.3031978905200958
4,4,128,16,0.49703967571258545,0.2301190346479416
4,4,128,17,0.6267015337944031,0.33363020420074463
4,4,128,18,0.6002264618873596,0.34622064232826233
4,4,128,19,0.7417260408401489,0.0933094471693039
4,4,128,20,0.41496431827545166,0.22362931072711945
4,4,128,21,0.5819665193557739,0.25196462869644165
4,4,128,22,0.5796366930007935,0.10157611966133118
4,4,128,23,0.5129237174987793,0.0949501022696495
4,4,128,24,0.604913592338562,0.21864639222621918
4,4,128,25,0.5624434351921082,0.2815556526184082
4,4,128,26,0.6310391426086426,0.21500177681446075
4,4,128,27,0.3925207257270813,0.21017059683799744
4,4,128,28,0.519712507724762,0.25884321331977844
4,4,128,29,0.7086851596832275,0.1393754482269287
4,4,128,30,0.6613297462463379,0.1899234801530838
4,4,128,31,0.4429718554019928,0.25161728262901306
4,4,128,32,0.43691277503967285,0.1194993406534195
4,4,128,33,0.5186629891395569,0.12728716433048248
4,4,128,34,0.4911017119884491,0.24384713172912598
4,4,128,35,0.4533163011074066,0.2484818398952484
4,4,128,36,0.5678212642669678,0.2722392976284027
4,4,128,37,0.6449288129806519,0.11210640519857407
4,4,128,38,0.597142219543457,0.13476036489009857
4,4,128,39,0.580202043056488,0.25553086400032043
4,4,128,40,0.4939945638179779,0.09448655694723129
4,4,128,41,0.6127139329910278,0.2795834541320801
4,4,128,42,0.6592506766319275,0.10907343775033951
4,4,128,43,0.44413965940475464,0.26661914587020874
4,4,128,44,0.46424663066864014,0.2046317756175995
4,4,128,45,0.3714446425437927,0.12144717574119568
4,4,128,46,0.469269722700119,0.2818616032600403
4,4,128,47,0.5482047200202942,0.2246621698141098
4,4,128,48,0.6213523745536804,0.18138064444065094
4,4,128,49,0.4530414640903473,0.10311432182788849
4,4,128,50,0.5162231922149658,0.22724351286888123
4,4,128,51,0.664020836353302,0.0942496508359909
4,4,128,52,0.6025402545928955,0.1400436908006668
4,4,128,53,0.43565887212753296,0.17566557228565216
4,4,128,54,0.6857833862304688,0.07679487764835358
4,4,128,55,0.5126144289970398,0.22794519364833832
4,4,128,56,0.5262016654014587,0.301688551902771
4,4,128,57,0.6440234780311584,0.08899344503879547
4,4,128,58,0.5928846001625061,0.1423276662826538
4,4,128,59,0.2960992455482483,0.09822031855583191
4,4,128,60,0.5578770041465759,0.23774078488349915
4,4,128,61,0.34565168619155884,0.1588706225156784
4,4,128,62,0.6541578769683838,0.1415729820728302
4,4,128,63,0.7616361379623413,0.09491761773824692
4,4,128,64,0.5061221122741699,0.19329679012298584
4,4,128,65,0.47502076625823975,0.24869082868099213
4,4,128,66,0.5153254270553589,0.1820337325334549
4,4,128,67,0.4765576124191284,0.04602235555648804
4,4,128,68,0.5490214824676514,0.13879314064979553
4,4,128,69,0.43140360713005066,0.22892384231090546
4,4,128,70,0.5546407103538513,0.23553495109081268
4,4,128,71,0.651980459690094,0.14859816431999207
4,4,128,72,0.4594961404800415,0.21813908219337463
4,4,128,73,0.5929358005523682,0.2652263343334198
4,4,128,74,0.4145604074001312,0.1348487287759781
4,4,128,75,0.5076864361763,0.2518313229084015
4,4,128,76,0.7030783891677856,0.09519888460636139
4,4,128,77,0.44235873222351074,0.21989314258098602
4,4,128,78,0.4956684708595276,0.1543101966381073
4,4,128,79,0.6215025186538696,0.1632034331560135
4,4,128,80,0.4928523600101471,0.2793267071247101
4,4,128,81,0.47137632966041565,0.24413475394248962
4,4,128,82,0.5731672644615173,0.23956488072872162
4,4,128,83,0.6140685677528381,0.21604739129543304
4,4,128,84,0.5428245663642883,0.23167897760868073
4,4,128,85,0.5480202436447144,0.22385117411613464
4,4,128,86,0.7749471664428711,0.09204975515604019
4,4,128,87,0.4371347725391388,0.21707242727279663
4,4,128,88,0.3490210175514221,0.2395591139793396
4,4,128,89,0.42130646109580994,0.26579755544662476
4,4,128,90,0.5216606855392456,0.19595345854759216
4,4,128,91,0.6223487854003906,0.09119770675897598
4,4,128,92,0.40137025713920593,0.23812951147556305
4,4,128,93,0.4276050925254822,0.06515295803546906
4,4,128,94,0.5901070237159729,0.2782761752605438
4,4,128,95,0.5841010212898254,0.16810716688632965
4,4,128,96,0.5702446699142456,0.22990337014198303
4,4,128,97,0.37702226638793945,0.17077013850212097
4,4,128,98,0.5894013047218323,0.13591060042381287
4,4,128,99,0.7816352248191833,0.10048984736204147
4,4,128,100,0.4956173896789551,0.18227969110012054
4,4,128,101,0.4954652786254883,0.11564584076404572
4,4,128,102,0.5691166520118713,0.2652333974838257
4,4,128,103,0.7535902261734009,0.12565183639526367
4,4,128,104,0.6440122127532959,0.2890697717666626
4,4,128,105,0.6559723019599915,0.13830527663230896
4,4,128,106,0.6569014191627502,0.2400554120540619
4,4,128,107,0.39662641286849976,0.16483783721923828
4,4,128,108,0.6327997446060181,0.16745541989803314
4,4,128,109,0.6118758320808411,0.20837464928627014
4,4,128,110,0.5912476181983948,0.26682355999946594
4,4,128,111,0.3583296537399292,0.10904309153556824
4,4,128,112,0.6589657664299011,0.19444991648197174
4,4,128,113,0.7322938442230225,0.07583935558795929
4,4,128,114,0.41637104749679565,0.23469434678554535
4,4,128,115,0.6449875235557556,0.2283337265253067
4,4,128,116,0.3912365734577179,0.11432913690805435
4,4,128,117,0.551368236541748,0.11147649586200714
4,4,128,118,0.2636074721813202,0.0876944437623024
4,4,128,119,0.5809105038642883,0.31308963894844055
4,4,128,120,0.5322219729423523,0.26454707980155945
4,4,128,121,0.45151346921920776,0.1477016657590866
4,4,128,122,0.5402969121932983,0.12822139263153076
4,4,128,123,0.52498459815979,0.21653909981250763
4,4,128,124,0.6042470335960388,0.29345422983169556
4,4,128,125,0.5287455916404724,0.294664591550827
4,4,128,126,0.48979413509368896,0.2157229632139206
4,4,128,127,0.5475685596466064,0.20285043120384216
4,5,128,0,0.7306680083274841,0.206670880317688
4,5,128,1,0.6074728965759277,0.22327229380607605
4,5,128,2,0.47200095653533936,0.15726043283939362
4,5,128,3,0.6875162124633789,0.22158470749855042
4,5,128,4,0.7421096563339233,0.11277000606060028
4,5,128,5,0.7832084894180298,0.19630120694637299
4,5,128,6,0.7269806265830994,0.21199673414230347
4,5,128,7,0.7054466605186462,0.2986903488636017
4,5,128,8,0.4707205891609192,0.17540036141872406
4,5,128,9,0.7314503788948059,0.09796096384525299
4,5,128,10,0.4306047558784485,0.1531165987253189
4,5,128,11,0.42405736446380615,0.24593660235404968
4,5,128,12,0.7464693188667297,0.0975511223077774
4,5,128,13,0.49615374207496643,0.3103921115398407
4,5,128,14,0.8473002314567566,0.06392920017242432
4,5,128,15,0.7281420230865479,0.10241755098104477
4,5,128,16,0.6484978795051575,0.15499480068683624
4,5,128,17,0.7220654487609863,0.24249601364135742
4,5,128,18,0.8423730731010437,0.13115964829921722
4,5,128,19,0.8463679552078247,0.11206948012113571
4,5,128,20,0.7740142941474915,0.10740958154201508
4,5,128,21,0.8266909122467041,0.10990137606859207
4,5,128,22,0.7772836089134216,0.16325414180755615
4,5,128,23,0.7681070566177368,0.1855430006980896
4,5,128,24,0.6573636531829834,0.20627112686634064
4,5,128,25,0.6736075282096863,0.3249189853668213
4,5,128,26,0.7446143627166748,0.07249101996421814
4,5,128,27,0.828165590763092,0.11069179326295853
4,5,128,28,0.8129722476005554,0.17044878005981445
4,5,128,29,0.761544942855835,0.1969168484210968
4,5,128,30,0.6206521391868591,0.27919530868530273
4,5,128,31,0.4784276485443115,0.34224820137023926
4,5,128,32,0.8014712929725647,0.08945361524820328
4,5,128,33,0.6967111229896545,0.1688021570444107
4,5,128,34,0.8166406154632568,0.1021314412355423
4,5,128,35,0.753859281539917,0.1599310338497162
4,5,128,36,0.8137831091880798,0.1706400066614151
4,5,128,37,0.7849328517913818,0.17344284057617188
4,5,128,38,0.6957971453666687,0.2316441684961319
4,5,128,39,0.8217549920082092,0.09192764014005661
4,5,128,40,0.42129263281822205,0.2761422097682953
4,5,128,41,0.7334532141685486,0.17877715826034546
4,5,128,42,0.46970537304878235,0.20701724290847778
4,5,128,43,0.650580883026123,0.24007786810398102
4,5,128,44,0.8106618523597717,0.13523589074611664
4,5,128,45,0.8140463829040527,0.08091579377651215
4,5,128,46,0.45722535252571106,0.15218190848827362
4,5,128,47,0.6287755370140076,0.2964703440666199
4,5,128,48,0.4135701656341553,0.1773318648338318
4,5,128,49,0.44762635231018066,0.22357763350009918
4,5,128,50,0.7572775483131409,0.17029082775115967
4,5,128,51,0.7589658498764038,0.09342862665653229
4,5,128,52,0.7406827807426453,0.09649717062711716
4,5,128,53,0.6249774098396301,0.20924413204193115
4,5,128,54,0.8210533857345581,0.16150407493114471
4,5,128,55,0.8081154227256775,0.06523902714252472
4,5,128,56,0.4708312451839447,0.0992734357714653
4,5,128,57,0.8426504731178284,0.11235823482275009
4,5,128,58,0.760336697101593,0.21529071033000946
4,5,128,59,0.7471043467521667,0.08134716004133224
4,5,128,60,0.8122454285621643,0.10065527260303497
4,5,128,61,0.6665043234825134,0.1660449504852295
4,5,128,62,0.7795698046684265,0.19186437129974365
4,5,128,63,0.7092029452323914,0.2201218456029892
4,5,128,64,0.6480666399002075,0.32754388451576233
4,5,128,65,0.7771222591400146,0.11899611353874207
4,5,128,66,0.8019515872001648,0.08274050056934357
4,5,128,67,0.5299319624900818,0.14681950211524963
4,5,128,68,0.719294011592865,0.15617236495018005
4,5,128,69,0.7518705725669861,0.18141499161720276
4,5,128,70,0.7119605541229248,0.22938205301761627
4,5,128,71,0.7272314429283142,0.16356872022151947
4,5,128,72,0.5759453177452087,0.11079670488834381
4,5,128,73,0.44550585746765137,0.21477176249027252
4,5,128,74,0.6031104922294617,0.18417754769325256
4,5,128,75,0.4948577880859375,0.14645390212535858
4,5,128,76,0.6012448668479919,0.20723164081573486
4,5,128,77,0.41986963152885437,0.10401526093482971
4,5,128,78,0.7700340151786804,0.06793034076690674
4,5,128,79,0.29826200008392334,0.12609846889972687
4,5,128,80,0.747804582118988,0.15160498023033142
4,5,128,81,0.2715534567832947,0.2078905999660492
4,5,128,82,0.6796726584434509,0.2726171612739563
4,5,128,83,0.7798652648925781,0.16857285797595978
4,5,128,84,0.828813374042511,0.12125953286886215
4,5,128,85,0.7086213231086731,0.22310346364974976
4,5,128,86,0.7988983988761902,0.09058297425508499
4,5,128,87,0.6138718128204346,0.19582436978816986
4,5,128,88,0.7620115876197815,0.21257130801677704
4,5,128,89,0.6086959838867188,0.13111472129821777
4,5,128,90,0.7388858795166016,0.10360987484455109
4,5,128,91,0.5938895344734192,0.2701185941696167
4,5,128,92,0.6240366101264954,0.24305585026741028
4,5,128,93,0.5514958500862122,0.2108585685491562
4,5,128,94,0.7402355670928955,0.22688211500644684
4,5,128,95,0.5481522679328918,0.20410214364528656
4,5,128,96,0.6214241981506348,0.30579447746276855
4,5,128,97,0.4886777698993683,0.3248994052410126
4,5,128,98,0.5686846971511841,0.23403309285640717
4,5,128,99,0.8403042554855347,0.12070610374212265
4,5,128,100,0.7662231922149658,0.23365896940231323
4,5,128,101,0.46287837624549866,0.1444571614265442
4,5,128,102,0.8364412188529968,0.1254814863204956
4,5,128,103,0.7566871643066406,0.20866659283638
4,5,128,104,0.7512245774269104,0.17582820355892181
4,5,128,105,0.45524728298187256,0.20153360068798065
4,5,128,106,0.5348273515701294,0.23618893325328827
4,5,128,107,0.7838283777236938,0.12402628362178802
4,5,128,108,0.7708451151847839,0.1502242237329483
4,5,128,109,0.6370099186897278,0.1836557239294052
4,5,128,110,0.8281230926513672,0.1626787930727005
4,5,128,111,0.4882236123085022,0.2996399402618408
4,5,128,112,0.8548071384429932,0.11031681299209595
4,5,128,113,0.8295023441314697,0.11033987253904343
4,5,128,114,0.6743913888931274,0.29319852590560913
4,5,128,115,0.8775888085365295,0.1114058718085289
4,5,128,116,0.8200958371162415,0.07067672163248062
4,5,128,117,0.6788268089294434,0.3158906400203705
4,5,128,118,0.4845395088195801,0.18158213794231415
4,5,128,119,0.6780436038970947,0.2781185805797577
4,5,128,120,0.8318185806274414,0.1389402449131012
4,5,128,121,0.3395744860172272,0.15408097207546234
4,5,128,122,0.7183168530464172,0.22230572998523712
4,5,128,123,0.421477347612381,0.2655108869075775
4,5,128,124,0.6776347756385803,0.18684932589530945
4,5,128,125,0.7934236526489258,0.1474863886833191
4,5,128,126,0.6001095175743103,0.16657662391662598
4,5,128,127,0.7063540816307068,0.07156696915626526
5,0,32,0,0.563385546207428,0.10176480561494827
5,0,32,1,0.47840192914009094,0.05443468689918518
5,0,32,2,0.5588380694389343,0.060424622148275375
5,0,32,3,0.33326178789138794,0.1346668154001236
5,0,32,4,0.3377443850040436,0.057967495173215866
5,0,32,5,0.3334892690181732,0.1073809489607811
5,0,32,6,0.40299609303474426,0.05151965841650963
5,0,32,7,0.4828157126903534,0.19091534614562988
5,0,32,8,0.5505476593971252,0.03236733376979828
5,0,32,9,0.5444014072418213,0.06647306680679321
5,0,32,10,0.3944331407546997,0.07130401581525803
5,0,32,11,0.6222552061080933,0.05790231004357338
5,0,32,12,0.6108214855194092,0.07983805984258652
5,0,32,13,0.5175422430038452,0.1332934945821762
5,0,32,14,0.4974290728569031,0.06317470222711563
5,0,32,15,0.418856143951416,0.10723890364170074
5,0,32,16,0.4101226329803467,0.11581756174564362
5,0,32,17,0.5032000541687012,0.0779382511973381
5,0,32,18,0.4084693491458893,0.11976459622383118
5,0,32,19,0.30650973320007324,0.10848937928676605
5,0,32,20,0.4477439820766449,0.07076776027679443
5,0,32,21,0.4421273469924927,0.1107407733798027
5,0,32,22,0.37588241696357727,0.08497675508260727
5,0,32,23,0.564393937587738,0.10501479357481003
5,0,32,24,0.6729908585548401,0.0667668879032135
5,0,32,25,0.5633671283721924,0.11616755276918411
5,0,32,26,0.45580989122390747,0.0865783542394638
5,0,32,27,0.39510074257850647,0.0977737233042717
5,0,32,28,0.6490946412086487,0.09399398416280746
5,0,32,29,0.48605185747146606,0.05085325241088867
5,0,32,30,0.3214806616306305,0.1014409065246582
5,0,32,31,0.36141037940979004,0.11175792664289474
5,1,32,0,0.4956628084182739,0.14908209443092346
5,1,32,1,0.5354239344596863,0.05788642540574074
5,1,32,2,0.4710482954978943,0.06553006917238235
5,1,32,3,0.4220421016216278,0.11260288953781128
5,1,32,4,0.5650171041488647,0.1722942292690277
5,1,32,5,0.33705899119377136,0.07630966603755951
5,1,32,6,0.5808151364326477,0.046403005719184875
5,1,32,7,0.5594700574874878,0.16367511451244354
5,1,32,8,0.6718848347663879,0.03518527373671532
5,1,32,9,0.462753564119339,0.06200476735830307
5,1,32,10,0.478956013917923,0.08468713611364365
5,1,32,11,0.6299883127212524,0.12749744951725006
5,1,32,12,0.4329361617565155,0.08854696154594421
5,1,32,13,0.5927437543869019,0.06400184333324432
5,1,32,14,0.4416578412055969,0.13147372007369995
5,1,32,15,0.656559944152832,0.14261773228645325
5,1,32,16,0.5107576847076416,0.09375236183404922
5,1,32,17,0.36458754539489746,0.12472346425056458
5,1,32,18,0.5048177242279053,0.18591992557048798
5,1,32,19,0.47934362292289734,0.1488880217075348
5,1,32,20,0.664519727230072,0.09386852383613586
5,1,32,21,0.6025633215904236,0.05277755483984947
5,1,32,22,0.3818080425262451,0.09226144105195999
5,1,32,23,0.5134855508804321,0.11819404363632202
5,1,32,24,0.3514937162399292,0.08944042026996613
5,1,32,25,0.5652942061424255,0.057024985551834106
5,1,32,26,0.3902241885662079,0.12435411661863327
5,1,32,27,0.5338539481163025,0.07421670854091644
5,1,32,28,0.4626386761665344,0.11856413632631302
5,1,32,29,0.5472143292427063,0.12295438349246979
5,1,32,30,0.4585771858692169,0.17424064874649048
5,1,32,31,0.6237512826919556,0.09530340880155563
5,2,64,0,0.5304722189903259,0.28270208835601807
5,2,64,1,0.41020774841308594,0.1984446942806244
5,2,64,2,0.5582905411720276,0.21515733003616333
5,2,64,3,0.530648410320282,0.19190345704555511
5,2,64,4,0.521650493144989,0.0973254069685936
5,2,64,5,0.5736661553382874,0.19249574840068817
5,2,64,6,0.4573866128921509,0.14461377263069153
5,2,64,7,0.3136087954044342,0.17789700627326965
5,2,64,8,0.5565584897994995,0.2746709883213043
5,2,64,9,0.488509863615036,0.17753733694553375
5,2,64,10,0.5080230236053467,0.2870132625102997
5,2,64,11,0.3263338506221771,0.11752522736787796
5,2,64,12,0.6152461171150208,0.1452772319316864
5,2,64,13,0.27353397011756897,0.1282147467136383
5,2,64,14,0.4771254062652588,0.1409737467765808
5,2,64,15,0.4199936091899872,0.10610289871692657
5,2,64,16,0.4598217010498047,0.09003762900829315
5,2,64,17,0.4462721347808838,0.20968008041381836
5,2,64,18,0.5538772344589233,0.26230543851852417
5,2,64,19,0.39162492752075195,0.11782752722501755
5,2,64,20,0.5461322069168091,0.16772012412548065
5,2,64,21,0.5393617153167725,0.08748441189527512
5,2,64,22,0.5085555911064148,0.10872132331132889
5,2,64,23,0.38882243633270264,0.15460191667079926
5,2,64,24,0.2653071880340576,0.11972623318433762
5,2,64,25,0.4920596182346344,0.10743360966444016
5,2,64,26,0.6173821687698364,0.11296411603689194
5,2,64,27,0.5907653570175171,0.13640694320201874
5,2,64,28,0.5070818662643433,0.1498030126094818
5,2,64,29,0.3968777060508728,0.22315272688865662
5,2,64,30,0.39550426602363586,0.14281699061393738
5,2,64,31,0.6278175115585327,0.14781451225280762
5,2,64,32,0.5084854364395142,0.19372983276844025
5,2,64,33,0.5006323456764221,0.15770725905895233
5,2,64,34,0.6001743674278259,0.08575581759214401
5,2,64,35,0.6012978553771973,0.11498893052339554
5,2,64,36,0.5250939130783081,0.18030783534049988
5,2,64,37,0.4850248396396637,0.11940285563468933
5,2,64,38,0.5304425954818726,0.18812397122383118
5,2,64,39,0.3940959572792053,0.1267583668231964
5,2,64,40,0.5867502093315125,0.1490708887577057
5,2,64,41,0.43103423714637756,0.12914827466011047
5,2,64,42,0.6046791076660156,0.09396888315677643
5,2,64,43,0.5357194542884827,0.20777195692062378
5,2,64,44,0.6068914532661438,0.1494300812482834
5,2,64,45,0.46556565165519714,0.23124371469020844
5,2,64,46,0.6071314215660095,0.23335789144039154
5,2,64,47,0.5606735348701477,0.12163954228162766
5,2,64,48,0.5223487615585327,0.11282221972942352
5,2,64,49,0.516001284122467,0.07353842258453369
5,2,64,50,0.6044648885726929,0.11381595581769943
5,2,64,51,0.5883731245994568,0.10591764748096466
5,2,64,52,0.457414448261261,0.14421246945858002
5,2,64,53,0.528256356716156,0.16365060210227966
5,2,64,54,0.5731372833251953,0.1443021446466446
5,2,64,55,0.561739444732666,0.17178784310817719
5,2,64,56,0.5134038329124451,0.19273999333381653
5,2,64,57,0.49195700883865356,0.09234536439180374
5,2,64,58,0.5391873717308044,0.12340404838323593
5,2,64,59,0.657393217086792,0.16108489036560059
5,2,64,60,0.47662073373794556,0.23177289962768555
5,2,64,61,0.49969619512557983,0.2969203591346741
5,2,64,62,0.45367154479026794,0.11468873918056488
5,2,64,63,0.4159834682941437,0.12500955164432526
5,3,64,0,0.4317232668399811,0.06000661104917526
5,3,64,1,0.6105286478996277,0.1433916836977005
5,3,64,2,0.7518934011459351,0.1457533836364746
5,3,64,3,0.6046655774116516,0.19806572794914246
5,3,64,4,0.4584043323993683,0.04961695522069931
5,3,64,5,0.44481968879699707,0.13631294667720795
5,3,64,6,0.5277564525604248,0.11066591739654541
5,3,64,7,0.24639500677585602,0.06991293281316757
5,3,64,8,0.6454501152038574,0.15122954547405243
5,3,64,9,0.5093962550163269,0.2004939168691635
5,3,64,10,0.5510039329528809,0.2347460240125656
5,3,64,11,0.44517818093299866,0.3386225402355194
5,3,64,12,0.4401671886444092,0.158563032746315
5,3,64,13,0.6069255471229553,0.09258373826742172
5,3,64,14,0.6065956950187683,0.0601804293692112
5,3,64,15,0.5979901552200317,0.17846043407917023
5,3,64,16,0.4143393039703369,0.12125194817781448
5,3,64,17,0.5243370532989502,0.0623004175722599
5,3,64,18,0.5568994283676147,0.14598922431468964
5,3,64,19,0.38275089859962463,0.12094190716743469
5,3,64,20,0.46708011627197266,0.2074495106935501
5,3,64,21,0.3813108801841736,0.07611867785453796
5,3,64,22,0.5218310356140137,0.11371923238039017
5,3,64,23,0.7153420448303223,0.059977322816848755
5,3,64,24,0.5500355362892151,0.20642751455307007
5,3,64,25,0.4649828374385834,0.1319907307624817
5,3,64,26,0.6085397005081177,0.1349898874759674
5,3,64,27,0.6611678600311279,0.08973854035139084
5,3,64,28,0.6260696649551392,0.16994036734104156
5,3,64,29,0.47283732891082764,0.2577066123485565
5,3,64,30,0.42793503403663635,0.1911218762397766
5,3,64,31,0.5507604479789734,0.2655341625213623
5,3,64,32,0.42025768756866455,0.11952915787696838
5,3,64,33,0.4643208086490631,0.2025296539068222
5,3,64,34,0.421480655670166,0.2423522025346756
5,3,64,35,0.4189234972000122,0.11099860072135925
5,3,64,36,0.5566260814666748,0.10090544819831848
5,3,64,37,0.528027355670929,0.20996186137199402
5,3,64,38,0.4993375241756439,0.17010556161403656
5,3,64,39,0.6663007140159607,0.1715843826532364
5,3,64,40,0.527121901512146,0.29675617814064026
5,3,64,41,0.603053629398346,0.065577432513237
5,3,64,42,0.365742951631546,0.15344245731830597
5,3,64,43,0.45092764496803284,0.12227880209684372
5,3,64,44,0.4668242037296295,0.22171619534492493
5,3,64,45,0.5418838858604431,0.0431993268430233
5,3,64,46,0.559963583946228,0.04705255851149559
5,3,64,47,0.5888375639915466,0.1724429875612259
5,3,64,48,0.4650959074497223,0.13199828565120697
5,3,64,49,0.5458933115005493,0.17179659008979797
5,3,64,50,0.5856386423110962,0.09440604597330093
5,3,64,51,0.3875722885131836,0.2239263951778412
5,3,64,52,0.4598264992237091,0.3138076364994049
5,3,64,53,0.4091423451900482,0.3019973039627075
5,3,64,54,0.35879045724868774,0.14697013795375824
5,3,64,55,0.4970303475856781,0.03544783219695091
5,3,64,56,0.5731022357940674,0.09307671338319778
5,3,64,57,0.38363444805145264,0.21903042495250702
5,3,64,58,0.6054387092590332,0.19011862576007843
5,3,64,59,0.6524292826652527,0.10382409393787384
5,3,64,60,0.6219644546508789,0.164402037858963
5,3,64,61,0.4181922972202301,0.02815495803952217
5,3,64,62,0.4845168888568878,0.03367477282881737
5,3,64,63,0.5905815362930298,0.07326491177082062
5,4,128,0,0.5359562039375305,0.20840582251548767
5,4,128,1,0.46250709891319275,0.1972334086894989
5,4,128,2,0.32193875312805176,0.14507418870925903
5,4,128,3,0.5249637961387634,0.23797231912612915
5,4,128,4,0.4547611474990845,0.1695958524942398
5,4,128,5,0.711933434009552,0.0913752093911171
5,4,128,6,0.6247528195381165,0.23376187682151794
5,4,128,7,0.7347089648246765,0.12710818648338318
5,4,128,8,0.4509226381778717,0.0927170068025589
5,4,128,9,0.45800498127937317,0.3088422417640686
5,4,128,10,0.47902247309684753,0.16517037153244019
5,4,128,11,0.6652483940124512,0.16207724809646606
5,4,128,12,0.697597324848175,0.12649650871753693
5,4,128,13,0.3984013795852661,0.2947515547275543
5,4,128,14,0.6646709442138672,0.26447567343711853
5,4,128,15,0.7182865738868713,0.17868421971797943
5,4,128,16,0.5666118860244751,0.1800324022769928
5,4,128,17,0.6330831050872803,0.1917051374912262
5,4,128,18,0.5000821352005005,0.18258291482925415
5,4,128,19,0.6156272888183594,0.3307085335254669
5,4,128,20,0.6395697593688965,0.1863134354352951
5,4,128,21,0.598762571811676,0.2672891616821289
5,4,128,22,0.70993971824646,0.1391488015651703
5,4,128,23,0.6714428663253784,0.18449532985687256
5,4,128,24,0.43636611104011536,0.2723783552646637
5,4,128,25,0.6114760041236877,0.21639707684516907
5,4,128,26,0.6065607666969299,0.2495533525943756
5,4,128,27,0.6564210653305054,0.25896668434143066
5,4,128,28,0.5519708395004272,0.09263705462217331
5,4,128,29,0.6790637969970703,0.14221549034118652
5,4,128,30,0.6590052843093872,0.1421799659729004
5,4,128,31,0.5249865651130676,0.1904544085264206
5,4,128,32,0.3649190664291382,0.205073282122612
5,4,128,33,0.4072008728981018,0.2477327436208725
5,4,128,34,0.7994481921195984,0.09809710830450058
5,4,128,35,0.7032611966133118,0.2696925699710846
5,4,128,36,0.6688033938407898,0.0947614312171936
5,4,128,37,0.5719491839408875,0.2159673124551773
5,4,128,38,0.6418874263763428,0.17636241018772125
5,4,128,39,0.6700356602668762,0.11415830254554749
5,4,128,40,0.5855096578598022,0.24696363508701324
5,4,128,41,0.5152840614318848,0.17993222177028656
5,4,128,42,0.6199125051498413,0.18251444399356842
5,4,128,43,0.5690233707427979,0.30269667506217957
5,4,128,44,0.46521660685539246,0.32763776183128357
5,4,128,45,0.6935134530067444,0.1678100973367691
5,4,128,46,0.2978079319000244,0.1312432736158371
5,4,128,47,0.7362975478172302,0.11973199993371964
5,4,128,48,0.6953334212303162,0.08258179575204849
5,4,128,49,0.4100302457809448,0.31290367245674133
5,4,128,50,0.6037446856498718,0.17737071216106415
5,4,128,51,0.6218491792678833,0.3065406382083893
5,4,128,52,0.7384976148605347,0.19082011282444
5,4,128,53,0.32503750920295715,0.1772741824388504
5,4,128,54,0.5149018168449402,0.1860477477312088
5,4,128,55,0.6065995097160339,0.2128370702266693
5,4,128,56,0.541815996170044,0.12049445509910583
5,4,128,57,0.5747619867324829,0.16472119092941284
5,4,128,58,0.7145280241966248,0.1548372060060501
5,4,128,59,0.4712246060371399,0.26442551612854004
5,4,128,60,0.6966844797134399,0.29622045159339905
5,4,128,61,0.2962374985218048,0.147813618183136
5,4,128,62,0.5735971331596375,0.13910631835460663
5,4,128,63,0.735586404800415,0.1359567791223526
5,4,128,64,0.4558030366897583,0.29403021931648254
5,4,128,65,0.35052090883255005,0.165039524435997
5,4,128,66,0.6513398885726929,0.18388640880584717
5,4,128,67,0.5826841592788696,0.16654784977436066
5,4,128,68,0.5959933996200562,0.17836859822273254
5,4,128,69,0.8233120441436768,0.08143509924411774
5,4,128,70,0.7058041095733643,0.11420360952615738
5,4,128,71,0.629968523979187,0.22708508372306824
5,4,128,72,0.437117338180542,0.20706044137477875
5,4,128,73,0.5705005526542664,0.23259799182415009
5,4,128,74,0.5813875198364258,0.14733009040355682
5,4,128,75,0.621360719203949,0.18547369539737701
5,4,128,76,0.48938971757888794,0.2810903489589691
5,4,128,77,0.5749511122703552,0.20668374001979828
5,4,128,78,0.7605834007263184,0.11108820885419846
5,4,128,79,0.6994689106941223,0.09312938153743744
5,4,128,80,0.532577633857727,0.253768652677536
5,4,128,81,0.656318187713623,0.18758675456047058
5,4,128,82,0.6534074544906616,0.17519135773181915
5,4,128,83,0.6634625792503357,0.10481482744216919
5,4,128,84,0.6005772948265076,0.2406947761774063
5,4,128,85,0.6838051080703735,0.31618404388427734
5,4,128,86,0.6988492012023926,0.1305529922246933
5,4,128,87,0.6727003455162048,0.21088941395282745
5,4,128,88,0.631696343421936,0.17366726696491241
5,4,128,89,0.48826056718826294,0.2822073996067047
5,4,128,90,0.46021631360054016,0.25095728039741516
5,4,128,91,0.7507727742195129,0.10264086723327637
5,4,128,92,0.42934802174568176,0.2566368877887726
5,4,128,93,0.6023430824279785,0.18331854045391083
5,4,128,94,0.34137067198753357,0.28995436429977417
5,4,128,95,0.6006055474281311,0.09532319009304047
5,4,128,96,0.5297338962554932,0.2734260857105255
5,4,128,97,0.7016922831535339,0.12090276926755905
5,4,128,98,0.6640210151672363,0.2641502320766449
5,4,128,99,0.45847252011299133,0.25533366203308105
5,4,128,100,0.6861421465873718,0.19118279218673706
5,4,128,101,0.8538207411766052,0.06980720907449722
5,4,128,102,0.40875256061553955,0.2520830035209656
5,4,128,103,0.39269283413887024,0.10309287160634995
5,4,128,104,0.46996623277664185,0.19509726762771606
5,4,128,105,0.6446535587310791,0.11354227364063263
5,4,128,106,0.46674105525016785,0.19036179780960083
5,4,128,107,0.6585705280303955,0.28905630111694336
5,4,128,108,0.4315849244594574,0.2044488489627838
5,4,128,109,0.5968950390815735,0.0921599343419075
5,4,128,110,0.5716561079025269,0.32767125964164734
5,4,128,111,0.40172457695007324,0.2628215551376343
5,4,128,112,0.6148554086685181,0.26907092332839966
5,4,128,113,0.3904765844345093,0.18560045957565308
5,4,128,114,0.6437143683433533,0.12945415079593658
5,4,128,115,0.4002726972103119,0.24091799557209015
5,4,128,116,0.6317561864852905,0.1988922655582428
5,4,128,117,0.6341923475265503,0.29064661264419556
5,4,128,118,0.4660343527793884,0.24214112758636475
5,4,128,119,0.43873295187950134,0.23733365535736084
5,4,128,120,0.6888041496276855,0.3054652810096741
5,4,128,121,0.5988973379135132,0.32652950286865234
5,4,128,122,0.6739994287490845,0.2546389102935791
5,4,128,123,0.6075878143310547,0.26454153656959534
5,4,128,124,0.7445182204246521,0.08043389022350311
5,4,128,125,0.6307485103607178,0.24645091593265533
5,4,128,126,0.5561609268188477,0.27578839659690857
5,4,128,127,0.6115782856941223,0.23740051686763763
5,5,128,0,0.49157723784446716,0.2518755793571472
5,5,128,1,0.5836783647537231,0.19641783833503723
5,5,128,2,0.8210482001304626,0.10127602517604828
5,5,128,3,0.31221285462379456,0.3138066530227661
5,5,128,4,0.7730168700218201,0.2453848421573639
5,5,128,5,0.7993531227111816,0.23904669284820557
5,5,128,6,0.7066128849983215,0.1712658852338791
5,5,128,7,0.8030179142951965,0.10292360931634903
5,5,128,8,0.5002850294113159,0.2491527646780014
5,5,128,9,0.6220813393592834,0.18475767970085144
5,5,128,10,0.6764138340950012,0.1988452970981598
5,5,128,11,0.7270623445510864,0.2611182928085327
5,5,128,12,0.8039529323577881,0.1428721845149994
5,5,128,13,0.8843280076980591,0.07909974455833435
5,5,128,14,0.8550204038619995,0.1114436537027359
5,5,128,15,0.5384968519210815,0.20860984921455383
5,5,128,16,0.818089485168457,0.11737994849681854
5,5,128,17,0.6809616684913635,0.16917866468429565
5,5,128,18,0.5362135171890259,0.2864892780780792
5,5,128,19,0.577690601348877,0.18773140013217926
5,5,128,20,0.719016969203949,0.21448472142219543
5,5,128,21,0.8052175045013428,0.14181075990200043
5,5,128,22,0.7269140481948853,0.10825075954198837
5,5,128,23,0.7560450434684753,0.2027939110994339
5,5,128,24,0.7581265568733215,0.1419052630662918
5,5,128,25,0.8368180394172668,0.10614659637212753
5,5,128,26,0.72955322265625,0.18955354392528534
5,5,128,27,0.8460460305213928,0.112307108938694
5,5,128,28,0.8157246708869934,0.1253843456506729
5,5,128,29,0.6944823861122131,0.2519049644470215
5,5,128,30,0.7257076501846313,0.19645242393016815
5,5,128,31,0.6825695633888245,0.22944122552871704
5,5,128,32,0.6799377799034119,0.22348468005657196
5,5,128,33,0.6404412388801575,0.08800362795591354
5,5,128,34,0.7907061576843262,0.10411830991506577
5,5,128,35,0.7670716643333435,0.23087210953235626
5,5,128,36,0.7705840468406677,0.125710129737854
5,5,128,37,0.7964909672737122,0.1129465252161026
5,5,128,38,0.7797899842262268,0.11262451857328415
5,5,128,39,0.6019654273986816,0.22304239869117737
5,5,128,40,0.7037573456764221,0.2091442346572876
5,5,128,41,0.7452506422996521,0.2185925394296646
5,5,128,42,0.641218900680542,0.1850072741508484
5,5,128,43,0.8340054154396057,0.11530068516731262
5,5,128,44,0.7585290670394897,0.13584649562835693
5,5,128,45,0.8546982407569885,0.07706546038389206
5,5,128,46,0.7145269513130188,0.24100877344608307
5,5,128,47,0.7213385701179504,0.24873191118240356
5,5,128,48,0.5113080739974976,0.2706137001514435
5,5,128,49,0.5910723209381104,0.1968553215265274
5,5,128,50,0.8063333630561829,0.12430133670568466
5,5,128,51,0.6074913144111633,0.3342750668525696
5,5,128,52,0.8092401623725891,0.11617929488420486
5,5,128,53,0.7560790181159973,0.2083464413881302
5,5,128,54,0.7869805693626404,0.13845033943653107
5,5,128,55,0.6718630194664001,0.209941565990448
5,5,128,56,0.5988677144050598,0.18090207874774933
5,5,128,57,0.7861549854278564,0.14416730403900146
5,5,128,58,0.8161687254905701,0.09928960353136063
5,5,128,59,0.7605865597724915,0.11146228015422821
5,5,128,60,0.8594375252723694,0.10909107327461243
5,5,128,61,0.7378305792808533,0.20951654016971588
5,5,128,62,0.8618398308753967,0.07955316454172134
5,5,128,63,0.7256067991256714,0.12328861653804779
5,5,128,64,0.8273777365684509,0.11142968386411667
5,5,128,65,0.43655475974082947,0.3468552231788635
5,5,128,66,0.7511041760444641,0.13769547641277313
5,5,128,67,0.7785349488258362,0.10433397442102432
5,5,128,68,0.6703267693519592,0.23645979166030884
5,5,128,69,0.7799786329269409,0.10900966078042984
5,5,128,70,0.4471554458141327,0.24428054690361023
5,5,128,71,0.6057248115539551,0.15057896077632904
5,5,128,72,0.7440042495727539,0.12521660327911377
5,5,128,73,0.6368632912635803,0.2766993045806885
5,5,128,74,0.6514811515808105,0.2074296623468399
5,5,128,75,0.7450333833694458,0.13304036855697632
5,5,128,76,0.8571798801422119,0.11560016870498657
5,5,128,77,0.47044891119003296,0.24472452700138092
5,5,128,78,0.5679013729095459,0.21995607018470764
5,5,128,79,0.4045915901660919,0.3152143955230713
5,5,128,80,0.7137366533279419,0.18952836096286774
5,5,128,81,0.6946355700492859,0.18331143260002136
5,5,128,82,0.8059699535369873,0.14656981825828552
5,5,128,83,0.7720778584480286,0.15041367709636688
5,5,128,84,0.7653868794441223,0.200719952583313
5,5,128,85,0.8537935614585876,0.12503579258918762
5,5,128,86,0.8551989197731018,0.09239238500595093
5,5,128,87,0.6865338683128357,0.17592239379882812
5,5,128,88,0.7070968747138977,0.22968444228172302
5,5,128,89,0.754926323890686,0.11150991171598434
5,5,128,90,0.49093180894851685,0.22772406041622162
5,5,128,91,0.8169609308242798,0.10507124662399292
5,5,128,92,0.7756630182266235,0.11218004673719406
5,5,128,93,0.6411417126655579,0.27810657024383545
5,5,128,94,0.4528826177120209,0.27702271938323975
5,5,128,95,0.8892418742179871,0.08541511744260788
5,5,128,96,0.5343940258026123,0.15010155737400055
5,5,128,97,0.7875921130180359,0.1255965232849121
5,5,128,98,0.8056202530860901,0.10122913867235184
5,5,128,99,0.7482937574386597,0.10522962361574173
5,5,128,100,0.7295827865600586,0.2725296914577484
5,5,128,101,0.8704028129577637,0.07671283185482025
5,5,128,102,0.8156099319458008,0.09113200753927231
5,5,128,103,0.8473615646362305,0.08790384232997894
5,5,128,104,0.7759976387023926,0.12827694416046143
5,5,128,105,0.6716666221618652,0.3171853721141815
5,5,128,106,0.4993337392807007,0.26946306228637695
5,5,128,107,0.6095150709152222,0.3369383215904236
5,5,128,108,0.8264351487159729,0.10731329768896103
5,5,128,109,0.7873010039329529,0.09958891570568085
5,5,128,110,0.7224664092063904,0.25741255283355713
5,5,128,111,0.7631262540817261,0.1392587423324585
5,5,128,112,0.7928599715232849,0.15275581181049347
5,5,128,113,0.7196590900421143,0.20184862613677979
5,5,128,114,0.767900288105011,0.2721875309944153
5,5,128,115,0.41967079043388367,0.18447935581207275
5,5,128,116,0.5855271220207214,0.2293441891670227
5,5,128,117,0.8362025618553162,0.13769207894802094
5,5,128,118,0.4883066713809967,0.2375383824110031
5,5,128,119,0.7142272591590881,0.3088534474372864
5,5,128,120,0.4630809724330902,0.34311291575431824
5,5,128,121,0.4255678057670593,0.2792823612689972
5,5,128,122,0.7994083166122437,0.13988089561462402
5,5,128,123,0.7312642931938171,0.2024223804473877
5,5,128,124,0.7717057466506958,0.13291572034358978
5,5,128,125,0.7764904499053955,0.09305690973997116
5,5,128,126,0.7258126735687256,0.12457998842000961
5,5,128,127,0.7802883386611938,0.09697848558425903
6,0,32,0,0.5575399398803711,0.11330698430538177
6,0,32,1,0.4641399085521698,0.06981990486383438
6,0,32,2,0.6022466421127319,0.103598453104496
6,0,32,3,0.32806840538978577,0.151580348610878
6,0,32,4,0.297818660736084,0.09889619052410126
6,0,32,5,0.3736691474914551,0.09098292887210846
6,0,32,6,0.42109599709510803,0.09527422487735748
6,0,32,7,0.48477989435195923,0.17332494258880615
6,0,32,8,0.5928707122802734,0.017664721235632896
6,0,32,9,0.6073952317237854,0.03287292644381523
6,0,32,10,0.4762697219848633,0.06270185112953186
6,0,32,11,0.6262333393096924,0.06715849041938782
6,0,32,12,0.5381066799163818,0.07437450438737869
6,0,32,13,0.5103228688240051,0.050265900790691376
6,0,32,14,0.5217418074607849,0.10301384329795837
6,0,32,15,0.4218122363090515,0.1404595524072647
6,0,32,16,0.3949706256389618,0.0858696922659874
6,0,32,17,0.5026397705078125,0.05959010124206543
6,0,32,18,0.41107597947120667,0.14871083199977875
6,0,32,19,0.3220592141151428,0.09415483474731445
6,0,32,20,0.4619046449661255,0.04807883873581886
6,0,32,21,0.43907788395881653,0.14423052966594696
6,0,32,22,0.3623937666416168,0.11524643003940582
6,0,32,23,0.5888419151306152,0.10151717811822891
6,0,32,24,0.6476572751998901,0.06168191134929657
6,0,32,25,0.5193962454795837,0.12002071738243103
6,0,32,26,0.4234364628791809,0.10837651044130325
6,0,32,27,0.3790777921676636,0.07099214941263199
6,0,32,28,0.6320947408676147,0.12710507214069366
6,0,32,29,0.4998442232608795,0.07175343483686447
6,0,32,30,0.2829071879386902,0.11955884099006653
6,0,32,31,0.372134804725647,0.07338542491197586
6,1,32,0,0.46689119935035706,0.049318574368953705
6,1,32,1,0.4952079653739929,0.030627625063061714
6,1,32,2,0.4626942276954651,0.10373708605766296
6,1,32,3,0.4589409828186035,0.08539891988039017
6,1,32,4,0.5699877738952637,0.09458202123641968
6,1,32,5,0.3850724399089813,0.06639424711465836
6,1,32,6,0.5584498643875122,0.03577819839119911
6,1,32,7,0.5716294050216675,0.08640740066766739
6,1,32,8,0.6255106925964355,0.01962735876441002
6,1,32,9,0.4297267198562622,0.04803083837032318
6,1,32,10,0.4798296093940735,0.08808738738298416
6,1,32,11,0.6407553553581238,0.052829671651124954
6,1,32,12,0.44169723987579346,0.09525477886199951
6,1,32,13,0.5855001211166382,0.09085952490568161
6,1,32,14,0.46549996733665466,0.0794500932097435
6,1,32,15,0.6706538796424866,0.04735397920012474
6,1,32,16,0.4923987090587616,0.05822673812508583
6,1,32,17,0.37193289399147034,0.0725131407380104
6,1,32,18,0.5169129371643066,0.11990266293287277
6,1,32,19,0.48164302110671997,0.07016891986131668
6,1,32,20,0.6196051239967346,0.1522163599729538
6,1,32,21,0.6166319251060486,0.038564302027225494
6,1,32,22,0.3901209235191345,0.03799952566623688
6,1,32,23,0.49659717082977295,0.09258375316858292
6,1,32,24,0.3666486144065857,0.060656849294900894
6,1,32,25,0.5518224239349365,0.09113334119319916
6,1,32,26,0.39469900727272034,0.06849592179059982
6,1,32,27,0.5075883269309998,0.09349232912063599
6,1,32,28,0.5461570620536804,0.044133465737104416
6,1,32,29,0.538781464099884,0.12905409932136536
6,1,32,30,0.434455007314682,0.08958613872528076
6,1,32,31,0.6089189648628235,0.05453815683722496
6,2,64,0,0.5808284282684326,0.22305195033550262
6,2,64,1,0.4583730697631836,0.17608605325222015
6,2,64,2,0.5594919919967651,0.16145329177379608
6,2,64,3,0.525726854801178,0.04831976443529129
6,2,64,4,0.5543297529220581,0.13136856257915497
6,2,64,5,0.5847436189651489,0.16037948429584503
6,2,64,6,0.5864381790161133,0.12350594997406006
6,2,64,7,0.27251067757606506,0.07705142349004745
6,2,64,8,0.5888252854347229,0.16348110139369965
6,2,64,9,0.5943036079406738,0.15299957990646362
6,2,64,10,0.4333138167858124,0.25277650356292725
6,2,64,11,0.4319685101509094,0.21359415352344513
6,2,64,12,0.625609815120697,0.1527124047279358
6,2,64,13,0.41720497608184814,0.2073141187429428
6,2,64,14,0.46346062421798706,0.15328307449817657
6,2,64,15,0.3544362187385559,0.07526127249002457
6,2,64,16,0.4816115200519562,0.09851942956447601
6,2,64,17,0.518962562084198,0.24177901446819305
6,2,64,18,0.6642801761627197,0.12064914405345917
6,2,64,19,0.338724821805954,0.1224958747625351
6,2,64,20,0.5063986778259277,0.16487537324428558
6,2,64,21,0.5483112931251526,0.08822773396968842
6,2,64,22,0.5951783061027527,0.12007485330104828
6,2,64,23,0.3885357081890106,0.16570843756198883
6,2,64,24,0.3306887745857239,0.11810347437858582
6,2,64,25,0.5219612717628479,0.06490840762853622
6,2,64,26,0.626030683517456,0.11194098740816116
6,2,64,27,0.524798572063446,0.12230514734983444
6,2,64,28,0.378909170627594,0.07388635724782944
6,2,64,29,0.3862327039241791,0.1263476461172104
6,2,64,30,0.39906740188598633,0.07287735491991043
6,2,64,31,0.5958970189094543,0.15152423083782196
6,2,64,32,0.4976833760738373,0.20662973821163177
6,2,64,33,0.501968264579773,0.14421893656253815
6,2,64,34,0.6424801349639893,0.1236390769481659
6,2,64,35,0.5684451460838318,0.09566216170787811
6,2,64,36,0.4993305504322052,0.18341505527496338
6,2,64,37,0.527095377445221,0.13932326436042786
6,2,64,38,0.5030722618103027,0.11534576863050461
6,2,64,39,0.4039767384529114,0.15847113728523254
6,2,64,40,0.49119874835014343,0.13018420338630676
6,2,64,41,0.3768063187599182,0.11491791158914566
6,2,64,42,0.5743255615234375,0.12852443754673004
6,2,64,43,0.5858422517776489,0.14646251499652863
6,2,64,44,0.6291343569755554,0.17019204795360565
6,2,64,45,0.39961132407188416,0.18063202500343323
6,2,64,46,0.6392529010772705,0.2313660979270935
6,2,64,47,0.5329068303108215,0.13326823711395264
6,2,64,48,0.4641864001750946,0.16743528842926025
6,2,64,49,0.5511674284934998,0.1759043186903
6,2,64,50,0.6008007526397705,0.11165694147348404
6,2,64,51,0.5689369440078735,0.09100519120693207
6,2,64,52,0.4244289696216583,0.12811779975891113
6,2,64,53,0.590496301651001,0.25195229053497314
6,2,64,54,0.6200421452522278,0.1414797604084015
6,2,64,55,0.5854464173316956,0.19381265342235565
6,2,64,56,0.512441098690033,0.17528988420963287
6,2,64,57,0.3737644851207733,0.08718860894441605
6,2,64,58,0.5311111807823181,0.059572432190179825
6,2,64,59,0.6483224630355835,0.16332513093948364
6,2,64,60,0.4867885112762451,0.12947577238082886
6,2,64,61,0.5814606547355652,0.2341785728931427
6,2,64,62,0.504950761795044,0.03202535957098007
6,2,64,63,0.38514697551727295,0.07855383306741714
6,3,64,0,0.4743644893169403,0.06610263139009476
6,3,64,1,0.44929686188697815,0.15453170239925385
6,3,64,2,0.6903138756752014,0.20553968846797943
6,3,64,3,0.5556025505065918,0.18369117379188538
6,3,64,4,0.42588216066360474,0.06563831120729446
6,3,64,5,0.5438488125801086,0.10553271323442459
6,3,64,6,0.25809162855148315,0.1243463084101677
6,3,64,7,0.21596254408359528,0.12224278599023819
6,3,64,8,0.6922727823257446,0.08657099306583405
6,3,64,9,0.4845855236053467,0.1916600614786148
6,3,64,10,0.5442550182342529,0.08399385213851929
6,3,64,11,0.575768768787384,0.3277076482772827
6,3,64,12,0.49644964933395386,0.08835630863904953
6,3,64,13,0.45008397102355957,0.10041805356740952
6,3,64,14,0.5099620223045349,0.062068551778793335
6,3,64,15,0.47448742389678955,0.1615329086780548
6,3,64,16,0.5275875926017761,0.1402268409729004
6,3,64,17,0.564604640007019,0.1551225632429123
6,3,64,18,0.6377177834510803,0.2661856412887573
6,3,64,19,0.37517234683036804,0.2922167479991913
6,3,64,20,0.4752103090286255,0.0729769915342331
6,3,64,21,0.40965715050697327,0.046266816556453705
6,3,64,22,0.563852846622467,0.062095049768686295
6,3,64,23,0.5612424612045288,0.17972739040851593
6,3,64,24,0.5899820327758789,0.3068694472312927
6,3,64,25,0.5390056371688843,0.18076010048389435
6,3,64,26,0.4471805691719055,0.16642390191555023
6,3,64,27,0.7196638584136963,0.10310907661914825
6,3,64,28,0.45834413170814514,0.1891452670097351
6,3,64,29,0.5999643206596375,0.20927782356739044
6,3,64,30,0.2426762729883194,0.17737184464931488
6,3,64,31,0.5714623332023621,0.1256430596113205
6,3,64,32,0.5722505450248718,0.2655894458293915
6,3,64,33,0.6204755306243896,0.25744837522506714
6,3,64,34,0.5390668511390686,0.30336135625839233
6,3,64,35,0.476296067237854,0.14332273602485657
6,3,64,36,0.6978105902671814,0.0968509241938591
6,3,64,37,0.5325987339019775,0.16414090991020203
6,3,64,38,0.5664365291595459,0.06180043891072273
6,3,64,39,0.5890560746192932,0.13009771704673767
6,3,64,40,0.6143391132354736,0.32105162739753723
6,3,64,41,0.664365291595459,0.11638995260000229
6,3,64,42,0.3587232828140259,0.13207782804965973
6,3,64,43,0.5016215443611145,0.17119227349758148
6,3,64,44,0.5789157748222351,0.2787332534790039
6,3,64,45,0.4095253646373749,0.16458702087402344
6,3,64,46,0.48949578404426575,0.2291141152381897
6,3,64,47,0.4667658805847168,0.06579265743494034
6,3,64,48,0.5457996726036072,0.2124936431646347
6,3,64,49,0.40601933002471924,0.08738768845796585
6,3,64,50,0.5092529058456421,0.16144785284996033
6,3,64,51,0.36716175079345703,0.1113874614238739
6,3,64,52,0.3032273054122925,0.16181384027004242
6,3,64,53,0.5219094157218933,0.28713440895080566
6,3,64,54,0.3546147048473358,0.3006192147731781
6,3,64,55,0.42867496609687805,0.09418226778507233
6,3,64,56,0.5952531099319458,0.11717312037944794
6,3,64,57,0.5570968985557556,0.20065255463123322
6,3,64,58,0.6147959232330322,0.2916657328605652
6,3,64,59,0.6198216080665588,0.1301947981119156
6,3,64,60,0.570935070514679,0.1290503740310669
6,3,64,61,0.37769556045532227,0.08112208545207977
6,3,64,62,0.5183712244033813,0.12482908368110657
6,3,64,63,0.6785128116607666,0.16427844762802124
6,4,128,0,0.5884544849395752,0.1833970546722412
