subject,channel,r,f1_drop_mean,f1_drop_sd
1,0,5,0.08286189716370848,0.009318962853953946
1,1,5,0.07438160300212253,0.021219081667661364
1,2,5,0.07220696384042562,0.013644337728669808
1,3,5,0.09331517904985491,0.011585705997334059
1,4,5,0.04057151366203415,0.01017700411169032
1,5,5,0.12186453999361813,0.006349793747316039
1,6,5,0.03392117794966949,0.014650607967016794
1,7,5,0.12401180548354693,0.009685317376176833
1,8,5,0.10474139684991646,0.00820020725067421
2,0,5,0.08043824165260113,0.006100448930310354
2,1,5,0.08650916433042777,0.011076018438743358
2,2,5,0.08935206997371595,0.009799038668200703
2,3,5,0.0564732910579796,0.007262676201101818
2,4,5,0.12312604052086754,0.005721065407747036
2,5,5,0.11263050700326065,0.01342499866463354
2,6,5,0.04143669587180212,0.006623760203455826
2,7,5,0.12447630833790968,0.013078729758989719
2,8,5,0.07420668815923437,0.005174176606898874
3,0,5,0.11888790196340801,0.015001701564753027
3,1,5,0.09451688238098913,0.013359488608826827
3,2,5,0.1432670133488155,0.005526244887279154
3,3,5,0.13470126147167824,0.012990380461861793
3,4,5,0.09378204247724833,0.010552107803271352
3,5,5,0.05432723637193171,0.009736362412953885
3,6,5,0.04804702642781624,0.00934068844491064
3,7,5,0.1296826693538977,0.009139445325170954
3,8,5,0.13014870330801054,0.01014730968175778
4,0,5,0.0760574386982579,0.008084048514695245
4,1,5,0.11657287621786576,0.00821965408009468
4,2,5,0.0814445583650401,0.007268921222316707
4,3,5,0.033620481529799864,0.00821724558134715
4,4,5,0.11286958694334714,0.005226549701850228
4,5,5,0.08379309867284054,0.002539090829026753
4,6,5,0.04477161259857243,0.007139417627503383
4,7,5,0.09968492270159642,0.012471905291092877
4,8,5,0.08063911778528692,0.00520924403361101
5,0,5,0.047056790146744,0.008287857128059156
5,1,5,0.06648951418334581,0.017837596228097434
5,2,5,0.06963530251892133,0.0066039994004369685
5,3,5,0.00914078645866756,0.009668765544990703
5,4,5,0.08287283541311688,0.015150979684703787
5,5,5,0.050923311075598776,0.016368415194903764
5,6,5,0.03508254302025504,0.009591172960431658
5,7,5,0.07307348630072459,0.003965025964981851
5,8,5,0.09469551810222931,0.014607666503662468
6,0,5,0.06556049176192029,0.016239733705432472
6,1,5,0.09855506453643754,0.010939890269324357
6,2,5,0.07496464797822758,0.012023048321255973
6,3,5,0.022770013710443383,0.013103201071064002
6,4,5,0.1317496765515101,0.011167963680372492
6,5,5,0.07840202147558209,0.009375646283356581
6,6,5,0.04017096791182624,0.007388029981423591
6,7,5,0.13509127796512482,0.009547175606472155
6,8,5,0.10001635222263212,0.012193217427667515
7,0,5,0.13247438288690933,0.014238382537744988
7,1,5,0.11152135236664762,0.01428809297612711
7,2,5,0.12910338997297638,0.011035055747577242
7,3,5,0.0421515688791199,0.0037935642071246604
7,4,5,0.11528542702789624,0.02574741053675873
7,5,5,0.14218522117982532,0.015563015571111114
7,6,5,0.03524396737555839,0.007683163516031833
7,7,5,0.08604363432159075,0.011285514441093871
7,8,5,0.09421040370826414,0.006876057439767494
8,0,5,0.07030607514371623,0.009143136970366793
8,1,5,0.06058489088094412,0.013814188910023464
8,2,5,0.03879619016090381,0.020888344037013888
8,3,5,0.06987108394953075,0.0069724843428636335
8,4,5,0.13378761073754492,0.01827494925725399
8,5,5,0.14183323801589526,0.01464196621089545
8,6,5,0.05980637635690935,0.009524812974210203
8,7,5,0.15434555176902703,0.01764237717408828
8,8,5,0.0957860400545744,0.01566038141087264
9,0,5,0.08180413826464372,0.008335121859173136
9,1,5,0.10307117874483858,0.015923340616822004
9,2,5,0.09787547522230014,0.01136094035560881
9,3,5,0.0219000371918902,0.010575837166713049
9,4,5,0.11772129210330076,0.00852996235908755
9,5,5,0.08320874177851481,0.013665117675510338
9,6,5,0.040977112555710016,0.008144538058839943
9,7,5,0.1258357871418725,0.014276733746659121
9,8,5,0.06437590121053564,0.01586815243597765
10,0,5,0.08826004922208748,0.016688963587147925
10,1,5,0.07322584597974621,0.01205844622880938
10,2,5,0.06493564134932905,0.013305163971951167
10,3,5,0.07488820654740111,0.011418044919254298
10,4,5,0.13205045854915887,0.017567211631127923
10,5,5,0.12012806389913329,0.01367804998171605
10,6,5,0.03330214682917154,0.017692762896403362
10,7,5,0.12447533266623083,0.016397055761972926
10,8,5,0.0917977538579862,0.021081470462490533
11,0,5,0.08914544866978087,0.01687550493277085
11,1,5,0.13652338421817564,0.01231657751698247
11,2,5,0.11912393911176851,0.002058516364359133
11,3,5,0.09088662433477772,0.008535781626930451
11,4,5,0.15664276511458552,0.014598753237032436
11,5,5,0.08483894734224137,0.01652629981444651
11,6,5,0.05320956925907083,0.011989078717033955
11,7,5,0.1359123625543306,0.014274590613129988
11,8,5,0.09516314122970737,0.013775107772547951
12,0,5,0.07957755529973383,0.011031864878346129
12,1,5,0.11190752588023575,0.018302697843922494
12,2,5,0.11792636895607862,0.009101744899137247
12,3,5,0.07740619938214557,0.025648029974017657
12,4,5,0.12569507870193466,0.016955501070005378
12,5,5,0.018110673670779277,0.012852153907198755
12,6,5,0.03245768938163392,0.010169008519536258
12,7,5,0.10944552218389872,0.005653211605574279
12,8,5,0.07700633033129378,0.016877086138475866
13,0,5,0.10340887818574955,0.014097470413392274
13,1,5,0.10342045629569319,0.0038415490709347313
13,2,5,0.06140149176867922,0.004740172837900284
13,3,5,0.09991969021957336,0.013208594784334142
13,4,5,0.12376941165550795,0.008633014247204479
13,5,5,0.19015203650833826,0.009228853307249624
13,6,5,0.07592226458695021,0.00866142848081344
13,7,5,0.12874364128585444,0.01099442644884402
13,8,5,0.1131949556357122,0.013337157487167578
14,0,5,0.09529501464283976,0.008598717479677368
14,1,5,0.07268034634960938,0.0071944519730968584
14,2,5,0.08007756526687113,0.00424952358340113
14,3,5,0.08759101446909887,0.006977988569638711
14,4,5,0.09061024919676233,0.012946077324020075
14,5,5,0.046181942388313524,0.011255739038688147
14,6,5,0.021666696914248183,0.006909204123824388
14,7,5,0.12797693010453542,0.008962432013826089
14,8,5,0.10729814006166857,0.00627309508385365
15,0,5,0.11299507096719485,0.027059979166634825
15,1,5,0.08462647659148737,0.016133041665892627
15,2,5,0.10182599684631684,0.0025976720311953784
15,3,5,0.08366363586843747,0.00792448700687241
15,4,5,0.1537154288135985,0.005965735767576287
15,5,5,0.16061205457962988,0.01889862611807792
15,6,5,0.11365311576511006,0.010941790556939855
15,7,5,0.07721762438644901,0.007760588274323905
15,8,5,0.08133748288889793,0.009960531022559532
16,0,5,0.13220885869376273,0.01147427980118149
16,1,5,0.09758768682859809,0.010796413168271814
16,2,5,0.09859721562716643,0.0076877119883156176
16,3,5,0.06478690326224304,0.007731067353408787
16,4,5,0.1383606830897603,0.0067386885093325966
16,5,5,0.07577829142525956,0.017837752822418385
16,6,5,0.04151674205213522,0.0024216293121205683
16,7,5,0.16026691289324796,0.01896399597405447
16,8,5,0.14108471659487848,0.008914437947366441
17,0,5,0.11626841667113523,0.004790414771154944
17,1,5,0.09197335480596572,0.01351815266427219
17,2,5,0.07868861832419513,0.014163745652379975
17,3,5,0.08815969117615749,0.007619418558950563
17,4,5,0.17803085456854006,0.010082683225150844
17,5,5,0.13241517060690572,0.010109502791368649
17,6,5,0.11288197959197659,0.02024925025117012
17,7,5,0.10278199489216548,0.009894999376575297
17,8,5,0.10588852185613333,0.010765856512859393
18,0,5,0.07113117489416292,0.008340551031814568
18,1,5,0.07471074690864259,0.013485528023992104
18,2,5,0.06780473643802856,0.008029395065738049
18,3,5,0.11603738128525351,0.007997019685954058
18,4,5,0.08335449531692421,0.0167762667439433
18,5,5,0.10196546496895142,0.016623453737378016
18,6,5,0.04983532127598753,0.006627396178046516
18,7,5,0.14706181661866202,0.006351220052524454
18,8,5,0.09079260227185623,0.01421115795147991
19,0,5,0.06008410764491525,0.005302571769691513
19,1,5,0.069446764834085,0.009594459606898245
19,2,5,0.0868839692896494,0.006948856735332684
19,3,5,0.05697140668064771,0.009850082893050584
19,4,5,0.0848029610543674,0.011245298677003678
19,5,5,0.0850411277104528,0.007081966860254488
19,6,5,0.06957422288593178,0.010768860699583205
19,7,5,0.1145984334891158,0.011086122871146928
19,8,5,0.08358919535982426,0.016768987885649227
20,0,5,0.05680342833027359,0.013176143771756514
20,1,5,0.057380896018106455,0.02048602037315423
20,2,5,0.05826935739581649,0.010926545973132432
20,3,5,0.009898648265235588,0.010404546384456093
20,4,5,0.035765595872276325,0.007848324480131624
20,5,5,0.15422056098536305,0.027968296205320653
20,6,5,0.025017950611479,0.007372018884368946
20,7,5,0.07366411019245693,0.010429684751168304
20,8,5,0.1359306426112038,0.014212993603839916
21,0,5,0.03657254143914408,0.010164162876144647
21,1,5,0.047895286927766234,0.01430708452635996
21,2,5,0.059827501193814595,0.014181250567827939
21,3,5,0.053541407495448515,0.014831891674783878
21,4,5,0.08128770045653307,0.01639561648163782
21,5,5,0.16023815012983372,0.01095756713269519
21,6,5,0.030747262821395414,0.009996178786599367
21,7,5,0.04792605200760498,0.013055624223727351
21,8,5,0.05371151898533153,0.013862862024259723
22,0,5,0.08473213207243699,0.012552020272343615
22,1,5,0.04272324268055474,0.014413277217387598
22,2,5,0.07800933376609338,0.017294368417258527
22,3,5,0.0599560412752153,0.008648640448426125
22,4,5,0.09827878955595673,0.010629873088282445
22,5,5,0.06436885669274299,0.01610774964811649
22,6,5,0.05252875018683083,0.012311249389852837
22,7,5,0.13895253776748287,0.012723453104332517
22,8,5,0.09610836280087773,0.014282128142666042
23,0,5,0.14313956807482525,0.00256234413073216
23,1,5,0.0995281657764461,0.015647002969169183
23,2,5,0.07283963905671065,0.01137303153723775
23,3,5,0.03400661423580089,0.012784723065495019
23,4,5,0.08427568078973022,0.007253055594509318
23,5,5,0.08557714259767839,0.00992988479792855
23,6,5,0.04437827683348776,0.010637883332147467
23,7,5,0.07422752556353682,0.005710627459226954
23,8,5,0.09080207576979701,0.021678122068689642
24,0,5,0.07321767392044878,0.008145248741555111
24,1,5,0.03538437894837794,0.013071916826845076
24,2,5,0.10114149343252643,0.012894742275565687
24,3,5,0.05032623895959789,0.011378921505036764
24,4,5,0.13856992171972796,0.013421450135947383
24,5,5,0.07500570868042833,0.020766192662550812
24,6,5,0.06073730888387345,0.008118782624942516
24,7,5,0.13112822378657352,0.013510575156280423
24,8,5,0.12151212210681203,0.011331491768903131
25,0,5,0.07985705431069498,0.014607434626438476
25,1,5,0.06539402341112903,0.008259874599309035
25,2,5,0.09713964255618854,0.008930065669929503
25,3,5,0.09571717176778376,0.01145516418665218
25,4,5,0.14930338813318755,0.0019360498006372765
25,5,5,0.04627544435022115,0.00507284818093095
25,6,5,0.020793044964176242,0.015285523752813548
25,7,5,0.10621591925718847,0.01454945708745842
25,8,5,0.09474001970199233,0.008857094931657143
26,0,5,0.07750415770083559,0.008137946360455258
26,1,5,0.06429217517399533,0.009586761068945756
26,2,5,0.1271085748742176,0.003311991046057087
26,3,5,0.04580780713600807,0.006423044811846833
26,4,5,0.06127196284673875,0.01006000407735171
26,5,5,0.16362099218452109,0.009139486465025775
26,6,5,0.04193673019990478,0.007604522161655139
26,7,5,0.13110789353298527,0.009346276798780646
26,8,5,0.1160945377044255,0.01401729654297405
27,0,5,0.03219825587355178,0.0112871919410979
27,1,5,0.05892331221380707,0.006663055268916411
27,2,5,0.085143508780293,0.00910809617999884
27,3,5,0.037676269216633654,0.008915056775160685
27,4,5,0.14404923358918903,0.007883194623284536
27,5,5,0.06867212455720557,0.013625432455281812
27,6,5,0.035832342913885484,0.01121163342159943
27,7,5,0.11148142568947783,0.009777184228686179
27,8,5,0.053928707437948906,0.011277684041194941
28,0,5,0.04706203592972078,0.01233712770766454
28,1,5,0.09188855381515115,0.01155352900108087
28,2,5,0.04871369376794288,0.006440344812944823
28,3,5,0.03558475321940104,0.021185655268537065
28,4,5,0.15790432360920986,0.011725195380306395
28,5,5,0.19254527272003097,0.014547456995725593
28,6,5,0.048125212481608656,0.013706690407045419
28,7,5,0.09358073928254655,0.009632707720680266
28,8,5,0.11459859220922541,0.00682973577716493
29,0,5,0.08717919735600237,0.010279977401922807
29,1,5,0.0742979132658315,0.013805033139536066
29,2,5,0.08204797515282466,0.004009127060918338
29,3,5,0.07393187524792441,0.014406043236729754
29,4,5,0.10613364954105164,0.005750037089773404
29,5,5,0.19292617393005587,0.010230786482505598
29,6,5,0.05366867148518355,0.003142198161438767
29,7,5,0.10988036404247896,0.010070757831794137
29,8,5,0.12525230639056054,0.014651356166352093
30,0,5,0.021591572822100426,0.011040500245404131
30,1,5,0.020306551438198706,0.011144652603518981
30,2,5,0.004744748707967972,0.013765726662221376
30,3,5,0.054936069071338925,0.008186026787893293
30,4,5,0.048832973559728377,0.0077569746083164465
30,5,5,0.1702382927396812,0.0129926224367479
30,6,5,0.012656795389083597,0.006903803696160016
30,7,5,0.09361623198922595,0.011801638491121565
30,8,5,0.05869246548445952,0.01148373120139985
31,0,5,0.09822920140289657,0.006098274847402023
31,1,5,0.08063531570411364,0.012985515593000613
31,2,5,0.09381988062994409,0.009139090457293473
31,3,5,0.026793980630945003,0.013315522810258624
31,4,5,0.17338203723410467,0.017462785231367614
31,5,5,0.02485090567890602,0.00620948662500853
31,6,5,0.06939477119103006,0.00904163301666551
31,7,5,0.12371600241040792,0.017621273136032355
31,8,5,0.11669071684696022,0.01631946077059056
32,0,5,0.10214011932310936,0.009391270437073008
32,1,5,0.0812035388236346,0.002006267152886325
32,2,5,0.07004821698726889,0.009995064716732059
32,3,5,0.02341880588477736,0.004881278472114721
32,4,5,0.12342070235919253,0.015214226414341473
32,5,5,0.13606204731163735,0.01739730260140453
32,6,5,0.03934748095860676,0.005676983463728631
32,7,5,0.1131585569888575,0.009811091041051481
32,8,5,0.09221032312064639,0.020506016854952083
33,0,5,0.12797802125795465,0.004533746265179298
33,1,5,0.10839652822897203,0.014534579300160964
33,2,5,0.08241345794335402,0.011813854713005627
33,3,5,0.05599923034045562,0.009713107492425958
33,4,5,0.07921658059036071,0.010026723480870336
33,5,5,0.06045362319172269,0.013066428699970996
33,6,5,0.13154446479731535,0.0045449644751333965
33,7,5,0.09636181345377981,0.006672664152406749
33,8,5,0.14141403459078658,0.007960803851246348
34,0,5,0.09555567125192357,0.017309836629936595
34,1,5,0.09233205264522389,0.0193138802628149
34,2,5,0.09293486653178437,0.003904054332114308
34,3,5,0.060793024511733386,0.014076779166517669
34,4,5,0.10914532198952845,0.005833587430784366
34,5,5,0.06486969595238812,0.00820245824874037
34,6,5,0.035643941030501794,0.0017967385057369113
34,7,5,0.1507600607102929,0.011295956727615427
34,8,5,0.11745443475015596,0.010885629558914254
35,0,5,0.03719331675298143,0.007840318638678756
35,1,5,0.021581749809728247,0.008437365226179537
35,2,5,0.024149230087381013,0.007575417201019832
35,3,5,0.05568335559961766,0.006152071705251125
35,4,5,0.030858151849104586,0.007971722817432437
35,5,5,0.14272977764999148,0.010301428643641912
35,6,5,0.04012357027692324,0.007065426916839031
35,7,5,0.06022128962361597,0.016520523364584726
35,8,5,0.030710891032356757,0.008514581034425981
36,0,5,0.04346217486016992,0.007590096361255815
36,1,5,0.08609666367007063,0.00621710093184176
36,2,5,0.07167778832671431,0.006460860240009697
36,3,5,0.06703504687933948,0.018926528247099627
36,4,5,0.12921830296080644,0.012880933024666197
36,5,5,0.051516824806424964,0.021083427829870355
36,6,5,0.06061315905251363,0.003476835879858151
36,7,5,0.15431536048733233,0.00631585908327317
36,8,5,0.11425264260936163,0.006631921224979337
37,0,5,0.06477122229025949,0.018708548017071527
37,1,5,0.10139547127990775,0.011801152612264254
37,2,5,0.08636814899847223,0.008128716529763772
37,3,5,0.037503273172534525,0.009699839273296745
37,4,5,0.13107511591780546,0.01403443920174746
37,5,5,0.08853897823032511,0.012635157691843198
37,6,5,0.019114178138040217,0.008502431534635172
37,7,5,0.11916828294927514,0.00646419819737937
37,8,5,0.06146220358371155,0.01537269038755541
38,0,5,0.043937909971605585,0.013213914777492243
38,1,5,0.07091769502686995,0.015223226066651049
38,2,5,0.1086639564260981,0.013761815149069885
38,3,5,0.0615215644572765,0.012978615916465314
38,4,5,0.11727412437416078,0.005785189829987856
38,5,5,0.08859024296721466,0.013788837515403713
38,6,5,0.07574210433104796,0.008584447688151467
38,7,5,0.0805733311433984,0.009356461583096548
38,8,5,0.06991091804523927,0.011835699695968491
39,0,5,0.05311104493358065,0.011288440108117569
39,1,5,0.062029017018572795,0.011902090505494376
39,2,5,0.08490752947386696,0.00845166155040376
39,3,5,0.08169388171470897,0.01829660226193473
39,4,5,0.0707561582023309,0.010180559660206144
39,5,5,0.16245972201260056,0.01461394806601061
39,6,5,0.01323089997732214,0.006629907430153767
39,7,5,0.07729543315505656,0.021095526564614168
39,8,5,0.024300345265469536,0.009236879811173439
40,0,5,0.13668983295277376,0.009313806632658237
40,1,5,0.09668174044976326,0.014313436362881718
40,2,5,0.03709144839645626,0.011256338343545735
40,3,5,0.05736975365947157,0.011559871250598057
40,4,5,0.03031090374164651,0.016519859672803408
40,5,5,0.15946442274394101,0.014700197373551379
40,6,5,0.091532826812099,0.01136344905059663
40,7,5,0.0926877807142766,0.0051905906657104955
40,8,5,0.07458268134619231,0.010748683740770202
