subject,channel,alpha,f1,drop_pp
156,0,1.0,0.6422988970282649,0.0
156,0,0.75,0.6688740907331039,-2.657519370483896
156,0,0.5,0.6734079072108102,-3.1109010182545305
156,0,0.25,0.6647335612931551,-2.243466426489016
156,0,0.0,0.6524441627314903,-1.0145265703225381
156,1,1.0,0.6422988970282649,0.0
156,1,0.75,0.6374227590707782,0.4876137957486759
156,1,0.5,0.6278437960062155,1.4455101022049388
156,1,0.25,0.616008775092293,2.629012193597191
156,1,0.0,0.5922290556855291,5.006984134273584
156,2,1.0,0.6422988970282649,0.0
156,2,0.75,0.652615568479859,-1.0316671451594095
156,2,0.5,0.6537142621870602,-1.1415365158795265
156,2,0.25,0.6453885158305372,-0.30896188022723203
156,2,0.0,0.6110343906918344,3.126450633643052
156,3,1.0,0.6422988970282649,0.0
156,3,0.75,0.6382610047044422,0.4037892323822678
156,3,0.5,0.6316271202499623,1.0671776778302666
156,3,0.25,0.6196562851300251,2.2642611898239795
156,3,0.0,0.607966698314316,3.433219871394888
156,4,1.0,0.6422988970282649,0.0
156,4,0.75,0.6461263351100343,-0.382743808176933
156,4,0.5,0.6510256517546217,-0.8726754726356756
156,4,0.25,0.6491841661052862,-0.688526907702125
156,4,0.0,0.6286712849709102,1.3627612057354743
156,5,1.0,0.6422988970282649,0.0
156,5,0.75,0.6376678728227034,0.4631024205561496
156,5,0.5,0.6324894518647481,0.9809445163516783
156,5,0.25,0.6127869009124293,2.951199611583566
156,5,0.0,0.5644099283174346,7.788896871083029
156,6,1.0,0.6422988970282649,0.0
156,6,0.75,0.6400435464367178,0.2255350591547134
156,6,0.5,0.634533787110538,0.7765109917726942
156,6,0.25,0.6346019740903308,0.7696922937934114
156,6,0.0,0.6322910616402675,1.0007835387997432
185,0,1.0,0.7069757662625812,0.0
185,0,0.75,0.7049577316035295,0.2018034659051704
185,0,0.5,0.6932954246270537,1.3680341635527449
185,0,0.25,0.672965153746601,3.4010612515980143
185,0,0.0,0.6455443348062633,6.143143145631791
185,1,1.0,0.7069757662625812,0.0
185,1,0.75,0.7189028327679672,-1.1927066505385997
185,1,0.5,0.7285969066055962,-2.162114034301499
185,1,0.25,0.7268152140367694,-1.9839447774188224
185,1,0.0,0.7232044494343179,-1.6228683171736757
185,2,1.0,0.7069757662625812,0.0
185,2,0.75,0.687637405714314,1.9338360548267208
185,2,0.5,0.6617537475947083,4.52220186678729
185,2,0.25,0.6357904210463428,7.118534521623843
185,2,0.0,0.617595636809375,8.938012945320617
185,3,1.0,0.7069757662625812,0.0
185,3,0.75,0.7036495044441871,0.3326261818394127
185,3,0.5,0.6992638011064015,0.7711965156179668
185,3,0.25,0.6859494212687488,2.102634499383238
185,3,0.0,0.677261065463784,2.9714700798797233
185,4,1.0,0.7069757662625812,0.0
185,4,0.75,0.7020223595596393,0.4953406702941865
185,4,0.5,0.689584244143321,1.7391522119260205
185,4,0.25,0.6678673626147664,3.910840364781476
185,4,0.0,0.6442711256773357,6.270464058524549
185,5,1.0,0.7069757662625812,0.0
185,5,0.75,0.70877980265826,-0.1804036395678832
185,5,0.5,0.699339153485676,0.7636612776905194
185,5,0.25,0.6739056851527241,3.3070081109857097
185,5,0.0,0.6214993152380244,8.54764510245568
185,6,1.0,0.7069757662625812,0.0
185,6,0.75,0.7093569178164737,-0.23811515538925132
185,6,0.5,0.7047871945870106,0.21885716755706275
185,6,0.25,0.6976653794028993,0.9310386859681885
185,6,0.0,0.6889114817400114,1.8064284522569807
186,0,1.0,0.7761228005946819,0.0
186,0,0.75,0.76955992570306,0.6562874891621884
186,0,0.5,0.7339965293038053,4.212627129087654
186,0,0.25,0.7173202205491268,5.880258004555506
186,0,0.0,0.6998797815129261,7.624301908175579
186,1,1.0,0.7761228005946819,0.0
186,1,0.75,0.7783961008119036,-0.22733002172217187
186,1,0.5,0.7803936841253098,-0.4270883530627989
186,1,0.25,0.7694518856391143,0.6670914955567597
186,1,0.0,0.7437371303193143,3.238567027536754
186,2,1.0,0.7761228005946819,0.0
186,2,0.75,0.7751480254689479,0.09747751257339621
186,2,0.5,0.7711976696727371,0.4925130921944798
186,2,0.25,0.7519176296562533,2.4205170938428555
186,2,0.0,0.7404776559708929,3.5645144623788982
186,3,1.0,0.7761228005946819,0.0
186,3,0.75,0.7822601648249218,-0.6137364230239917
186,3,0.5,0.7788525722677437,-0.2729771673061876
186,3,0.25,0.7758893422102071,0.023345838447474954
186,3,0.0,0.7735193492278738,0.2603451366808063
186,4,1.0,0.7761228005946819,0.0
186,4,0.75,0.7694617839076046,0.6661016687077304
186,4,0.5,0.7587363847437862,1.738641585089562
186,4,0.25,0.7375315165459215,3.8591284048760333
186,4,0.0,0.7115739666643551,6.454883393032674
186,5,1.0,0.7761228005946819,0.0
186,5,0.75,0.7753959021827525,0.07268984119294108
186,5,0.5,0.7594478317459685,1.6674968848713334
186,5,0.25,0.7351015772357136,4.10212233589683
186,5,0.0,0.7038455432643119,7.227725733036994
186,6,1.0,0.7761228005946819,0.0
186,6,0.75,0.7830246570272232,-0.6901856432541376
186,6,0.5,0.7830290034501197,-0.690620285543786
186,6,0.25,0.7761908546131804,-0.006805401849852011
186,6,0.0,0.7767662240773044,-0.06434234826225849
188,0,1.0,0.6365212298351112,0.0
188,0,0.75,0.6232987977876554,1.3222432047455768
188,0,0.5,0.6051706390796934,3.1350590755417795
188,0,0.25,0.5933202856270603,4.320094420805088
188,0,0.0,0.5886803482393999,4.784088159571132
188,1,1.0,0.6365212298351112,0.0
188,1,0.75,0.6267562827114639,0.9764947123647283
188,1,0.5,0.6170263060988499,1.9494923736261272
188,1,0.25,0.6116171349109455,2.4904094924165676
188,1,0.0,0.5946642860973159,4.1856943737795245
188,2,1.0,0.6365212298351112,0.0
188,2,0.75,0.6236993583046678,1.282187153044334
188,2,0.5,0.604004339033014,3.2516890802097187
188,2,0.25,0.5913310207851353,4.519020904997584
188,2,0.0,0.5733023570357775,6.321887279933369
188,3,1.0,0.6365212298351112,0.0
188,3,0.75,0.6276176173645337,0.8903612470577471
188,3,0.5,0.6119663319871922,2.4554897847918977
188,3,0.25,0.5928766387734653,4.3644591061645865
188,3,0.0,0.5839697787538742,5.255145108123694
188,4,1.0,0.6365212298351112,0.0
188,4,0.75,0.6284493284493284,0.8071901385782732
188,4,0.5,0.626079337175938,1.0441892659173169
188,4,0.25,0.6158616628731874,2.0659566961923725
188,4,0.0,0.5994856348194505,3.703559501566067
188,5,1.0,0.6365212298351112,0.0
188,5,0.75,0.6361446030363943,0.037662679871686144
188,5,0.5,0.621229355722262,1.5291874112849158
188,5,0.25,0.602124636697051,3.4396593138060205
188,5,0.0,0.5777745341799061,5.874669565520508
188,6,1.0,0.6365212298351112,0.0
188,6,0.75,0.6422078858765803,-0.5686656041469118
188,6,0.5,0.6484848703938623,-1.1963640558751099
188,6,0.25,0.6509176215524649,-1.439639171735374
188,6,0.0,0.6502145250293645,-1.369329519425333
189,0,1.0,0.6757883270906064,0.0
189,0,0.75,0.6795272163590043,-0.3738889268397827
189,0,0.5,0.6696028157055742,0.6185511385032205
189,0,0.25,0.6422721066417618,3.3516220448844614
189,0,0.0,0.6164813061411204,5.930702094948604
189,1,1.0,0.6757883270906064,0.0
189,1,0.75,0.6721931326504333,0.35951944401730884
189,1,0.5,0.6689564449951181,0.6831882095488351
189,1,0.25,0.6591339927906124,1.6654334299994078
189,1,0.0,0.6330202392231612,4.276808786744524
189,2,1.0,0.6757883270906064,0.0
189,2,0.75,0.6733500690480974,0.24382580425090783
189,2,0.5,0.6618956831431665,1.3892643947439942
189,2,0.25,0.6305904678673799,4.51978592232265
189,2,0.0,0.6070409947860993,6.874733230450714
189,3,1.0,0.6757883270906064,0.0
189,3,0.75,0.6737420513061869,0.20462757844195156
189,3,0.5,0.672720594399821,0.30677326907854185
189,3,0.25,0.6662613963442532,0.9526930746353246
189,3,0.0,0.6576863856295668,1.8101941461039606
189,4,1.0,0.6757883270906064,0.0
189,4,0.75,0.6769569459281511,-0.11686188375447104
189,4,0.5,0.6744748601542909,0.13134669363155105
189,4,0.25,0.6576117431594579,1.8176583931148516
189,4,0.0,0.6277253605459869,4.80629665446195
189,5,1.0,0.6757883270906064,0.0
189,5,0.75,0.6627036561400728,1.3084670950533672
189,5,0.5,0.6237341718163456,5.205415527426083
189,5,0.25,0.5799001897882828,9.58881373023236
189,5,0.0,0.5366833241476466,13.91050029429598
189,6,1.0,0.6757883270906064,0.0
189,6,0.75,0.6998944606986516,-2.4106133608045144
189,6,0.5,0.7116434397441724,-3.5855112653566
189,6,0.25,0.7191555654624161,-4.336723837180967
189,6,0.0,0.7283187643712642,-5.2530437280657765
190,0,1.0,0.6449599105659742,0.0
190,0,0.75,0.6521776566680608,-0.7217746102086586
190,0,0.5,0.6344050050382225,1.0554905527751735
190,0,0.25,0.6031342714681088,4.182563909786541
190,0,0.0,0.5650325395223406,7.992737104363368
190,1,1.0,0.6449599105659742,0.0
190,1,0.75,0.6416957666610061,0.32641439049680976
190,1,0.5,0.6231580205702474,2.1801889995726853
190,1,0.25,0.6030956302438092,4.186428032216504
190,1,0.0,0.5649649552036328,7.999495536234146
190,2,1.0,0.6449599105659742,0.0
190,2,0.75,0.6434194229821594,0.15404875838148646
190,2,0.5,0.6245770413841589,2.038286918181531
190,2,0.25,0.5804847860608137,6.447512450516058
190,2,0.0,0.5493450381038207,9.56148724621535
190,3,1.0,0.6449599105659742,0.0
190,3,0.75,0.6445997880260403,0.036012253993389365
190,3,0.5,0.644915399886988,0.0044510678986253716
190,3,0.25,0.6320291833633708,1.2930727202603465
190,3,0.0,0.6188987901162661,2.6061120449708097
190,4,1.0,0.6449599105659742,0.0
190,4,0.75,0.6319542677594614,1.300564280651284
190,4,0.5,0.6063699653901568,3.8589945175817486
190,4,0.25,0.5863384071134211,5.862150345255312
190,4,0.0,0.5554650611416254,8.949484942434882
190,5,1.0,0.6449599105659742,0.0
190,5,0.75,0.6553991743791971,-1.043926381322291
190,5,0.5,0.6403871071776261,0.457280338834809
190,5,0.25,0.6170228430381093,2.7937067527864956
190,5,0.0,0.5968468998251227,4.811301074085151
190,6,1.0,0.6449599105659742,0.0
190,6,0.75,0.6544176485336787,-0.9457737967704438
190,6,0.5,0.6507188021093678,-0.5758891543393596
190,6,0.25,0.6384055447959299,0.6554365770044313
190,6,0.0,0.6195159462991116,2.5443964266862684
191,0,1.0,0.5670960091151879,0.0
191,0,0.75,0.5613819687220685,0.5714040393119402
191,0,0.5,0.5483339257688288,1.8762083346359093
191,0,0.25,0.5286324966570374,3.8463512458150495
191,0,0.0,0.5057538291980436,6.13421799171443
191,1,1.0,0.5670960091151879,0.0
191,1,0.75,0.5606853967278546,0.6410612387333314
191,1,0.5,0.544649117866664,2.2446891248523837
191,1,0.25,0.512524558959851,5.457145015533682
191,1,0.0,0.4702408001825144,9.685520893267347
191,2,1.0,0.5670960091151879,0.0
191,2,0.75,0.5872659007711879,-2.0169891656000027
191,2,0.5,0.6037124781419503,-3.661646902676241
191,2,0.25,0.6094856971863678,-4.238968807117994
191,2,0.0,0.60202407666339,-3.49280675482021
191,3,1.0,0.5670960091151879,0.0
191,3,0.75,0.5825554458527973,-1.545943673760941
191,3,0.5,0.5982061536860164,-3.11101445708285
191,3,0.25,0.6116046459706362,-4.450863685544837
191,3,0.0,0.625526932067457,-5.843092295226915
191,4,1.0,0.5670960091151879,0.0
191,4,0.75,0.565690558542802,0.14054505723858357
191,4,0.5,0.561996393415261,0.5099615699926896
191,4,0.25,0.5562518937128387,1.0844115402349197
191,4,0.0,0.5458600057876375,2.123600332755038
191,5,1.0,0.5670960091151879,0.0
191,5,0.75,0.5586962278841879,0.8399781230999936
191,5,0.5,0.5397281783203054,2.7367830794882475
191,5,0.25,0.502805524873392,6.429048424179584
191,5,0.0,0.4683992667033506,9.869674241183729
191,6,1.0,0.5670960091151879,0.0
191,6,0.75,0.5665700044214419,0.05260046937459739
191,6,0.5,0.5627032254243902,0.43927836907976525
191,6,0.25,0.5653493492520127,0.17466598631751262
191,6,0.0,0.5673262498327335,-0.02302407175456267
192,0,1.0,0.427510774589903,0.0
192,0,0.75,0.4339728480634063,-0.6462073473503305
192,0,0.5,0.4358518850336609,-0.8341110443757904
192,0,0.25,0.42601502187877527,0.1495752711127729
192,0,0.0,0.41478567024198165,1.2725104347921345
192,1,1.0,0.427510774589903,0.0
192,1,0.75,0.42517848725833995,0.23322873315630432
192,1,0.5,0.4171899627036071,1.032081188629591
192,1,0.25,0.4157258289072119,1.1784945682691117
192,1,0.0,0.40437967442622347,2.313110016367953
192,2,1.0,0.427510774589903,0.0
192,2,0.75,0.43115734481428736,-0.364657022438436
192,2,0.5,0.42433148491366846,0.31792896762345424
192,2,0.25,0.41275891743242604,1.4751857157476955
192,2,0.0,0.4092462578521243,1.826451673777868
192,3,1.0,0.427510774589903,0.0
192,3,0.75,0.4336634014365901,-0.6152626846687104
192,3,0.5,0.4399740743215036,-1.2463299731600597
192,3,0.25,0.4423876622152811,-1.4876887625378088
192,3,0.0,0.4383220484857516,-1.0811273895848628
192,4,1.0,0.427510774589903,0.0
192,4,0.75,0.42571100816615354,0.17997664237494604
192,4,0.5,0.41962619009161695,0.7884584498286051
192,4,0.25,0.40759781796970906,1.9912956620193933
192,4,0.0,0.38967195911739305,3.783881547250995
192,5,1.0,0.427510774589903,0.0
192,5,0.75,0.4370266420495321,-0.9515867459629124
192,5,0.5,0.4314151200479571,-0.3904345458054126
192,5,0.25,0.4284890297724748,-0.097825518257183
192,5,0.0,0.4349875442289034,-0.7476769639000402
192,6,1.0,0.427510774589903,0.0
192,6,0.75,0.42828683166614134,-0.07760570762383456
192,6,0.5,0.42885050783572276,-0.1339733245819763
192,6,0.25,0.4282987208849033,-0.07879462950002858
192,6,0.0,0.42879786917944823,-0.12870945895452346
193,0,1.0,0.6209184368130719,0.0
193,0,0.75,0.6022941112603654,1.8624325552706544
193,0,0.5,0.5580710159842022,6.284742082886973
193,0,0.25,0.5091523001395994,11.176613667347246
193,0,0.0,0.48550233924890984,13.541609756416207
193,1,1.0,0.6209184368130719,0.0
193,1,0.75,0.608382825539839,1.2535611273232883
193,1,0.5,0.6027007277793741,1.8217709033697793
193,1,0.25,0.5755297328029696,4.5388704010102305
193,1,0.0,0.545487139685197,7.543129712787488
193,2,1.0,0.6209184368130719,0.0
193,2,0.75,0.6127092736360025,0.8209163177069434
193,2,0.5,0.5968023689318387,2.4116067881233216
193,2,0.25,0.5878728767733916,3.304556003968029
193,2,0.0,0.5796489769184627,4.126945989460918
193,3,1.0,0.6209184368130719,0.0
193,3,0.75,0.6177252491248278,0.3193187688244059
193,3,0.5,0.6049637046085928,1.5954732204479072
193,3,0.25,0.5911871267324266,2.9731310080645335
193,3,0.0,0.5808455955677563,4.007284124531562
193,4,1.0,0.6209184368130719,0.0
193,4,0.75,0.6489158476164912,-2.799741080341933
193,4,0.5,0.6804430574726916,-5.9524620659619725
193,4,0.25,0.6984816717262641,-7.7563234913192165
193,4,0.0,0.6914676354688175,-7.05491986557456
193,5,1.0,0.6209184368130719,0.0
193,5,0.75,0.603764325842821,1.715411097025088
193,5,0.5,0.5728304232257769,4.8088013587294975
193,5,0.25,0.5384071093731843,8.251132743988766
193,5,0.0,0.5307300874506611,9.018834936241083
193,6,1.0,0.6209184368130719,0.0
193,6,0.75,0.6324469481922097,-1.1528511379137796
193,6,0.5,0.6406996620202337,-1.9781225207161746
193,6,0.25,0.6457447237881845,-2.4826286975112577
193,6,0.0,0.6490549747136957,-2.813653790062376
194,0,1.0,0.7744529311453725,0.0
194,0,0.75,0.7745119803580512,-0.005904921267874119
194,0,0.5,0.7593923704344442,1.5060560710928317
194,0,0.25,0.7187433786958846,5.570955244948794
194,0,0.0,0.7026537763471321,7.179915479824039
194,1,1.0,0.7744529311453725,0.0
194,1,0.75,0.7745832703281148,-0.01303391827423006
194,1,0.5,0.7676880132900417,0.6764917855330843
194,1,0.25,0.7536042818751845,2.0848649270188035
194,1,0.0,0.7331078400470643,4.1345091098308195
194,2,1.0,0.7744529311453725,0.0
194,2,0.75,0.7718858489995828,0.2567082145789712
194,2,0.5,0.7661870739658077,0.826585717956485
194,2,0.25,0.753308264580963,2.1144666564409498
194,2,0.0,0.7434548820554916,3.099804908988091
194,3,1.0,0.7744529311453725,0.0
194,3,0.75,0.7676568714086704,0.6796059736702054
194,3,0.5,0.7581290894690004,1.632384167637213
194,3,0.25,0.7435117774822715,3.0941153663101018
194,3,0.0,0.7389291103942592,3.5523820751113266
194,4,1.0,0.7744529311453725,0.0
194,4,0.75,0.7755897234820956,-0.1136792336723147
194,4,0.5,0.7650382641868583,0.9414666958514228
194,4,0.25,0.751787235060356,2.266569608501645
194,4,0.0,0.7392474408725455,3.5205490272827045
194,5,1.0,0.7744529311453725,0.0
194,5,0.75,0.775981543152472,-0.1528612007099528
194,5,0.5,0.7727660281214818,0.168690302389074
194,5,0.25,0.7465000680089025,2.795286313647005
194,5,0.0,0.7194889085098455,5.496402263552702
194,6,1.0,0.7744529311453725,0.0
194,6,0.75,0.7852163861289344,-1.0763454983561904
194,6,0.5,0.7878911636992445,-1.3438232553871998
194,6,0.25,0.7891390187850816,-1.4686087639709133
194,6,0.0,0.7931782848373055,-1.8725353691932956
