subject,channel,alpha,f1,drop_pp
1,0,1.0,0.5613961681053576,0.0
1,0,0.75,0.5521024088005116,0.9293759304845994
1,0,0.5,0.5389785979937576,2.241757011160006
1,0,0.25,0.5169228285343164,4.447333957104127
1,0,0.0,0.4821877885793039,7.920837952605375
1,1,1.0,0.5613961681053576,0.0
1,1,0.75,0.5848116591485162,-2.3415491043158543
1,1,0.5,0.5806041879965254,-1.9208019891167716
1,1,0.25,0.5767031167772603,-1.5306948671902632
1,1,0.0,0.546003214007752,1.539295409760566
1,2,1.0,0.5613961681053576,0.0
1,2,0.75,0.5355358614492882,2.586030665606942
1,2,0.5,0.5254721397188172,3.5924028386540408
1,2,0.25,0.508170777934512,5.32253901708456
1,2,0.0,0.47026330372773606,9.113286437762158
1,3,1.0,0.5613961681053576,0.0
1,3,0.75,0.5284530841158531,3.294308398950452
1,3,0.5,0.4956323483581495,6.576381974720813
1,3,0.25,0.43152657313138826,12.986959497396938
1,3,0.0,0.39086008574806197,17.053608235729566
1,4,1.0,0.5613961681053576,0.0
1,4,0.75,0.5670659778329394,-0.5669809727581798
1,4,0.5,0.5596253500443268,0.17708180610308544
1,4,0.25,0.5257102502318387,3.5685917873518935
1,4,0.0,0.46074616481340175,10.06500032919559
1,5,1.0,0.5613961681053576,0.0
1,5,0.75,0.5037020261376992,5.769414196765843
1,5,0.5,0.46882655968651693,9.256960841884071
1,5,0.25,0.44665042675236144,11.47457413529962
1,5,0.0,0.42719429723898683,13.420187086637082
1,6,1.0,0.5613961681053576,0.0
1,6,0.75,0.5795729871904137,-1.8176819085056084
1,6,0.5,0.5686003893275977,-0.720422122224007
1,6,0.25,0.5969067368364092,-3.5510568731051517
1,6,0.0,0.6253236872785878,-6.3927519173230145
1,7,1.0,0.5613961681053576,0.0
1,7,0.75,0.5524776089309591,0.8918559174398544
1,7,0.5,0.5370288014825424,2.4367366622815245
1,7,0.25,0.49949214804214026,6.190402006321738
1,7,0.0,0.4675688670275612,9.382730107779647
1,8,1.0,0.5613961681053576,0.0
1,8,0.75,0.5650953430426084,-0.3699174937250804
1,8,0.5,0.5712358744939455,-0.9839706388587888
1,8,0.25,0.539734373321477,2.166179478388064
1,8,0.0,0.5027269027269027,5.866926537845496
2,0,1.0,0.8045492954152249,0.0
2,0,0.75,0.8291663505099313,-2.4617055094706353
2,0,0.5,0.7937664100316305,1.0782885383594398
2,0,0.25,0.782528969473456,2.202032594176895
2,0,0.0,0.7458460927201563,5.870320269506857
2,1,1.0,0.8045492954152249,0.0
2,1,0.75,0.7768661559847141,2.7683139430510817
2,1,0.5,0.7335929830976758,7.095631231754906
2,1,0.25,0.7193507420986094,8.519855331661553
2,1,0.0,0.7351328000422443,6.941649537298056
2,2,1.0,0.8045492954152249,0.0
2,2,0.75,0.8127840136532853,-0.8234718238060434
2,2,0.5,0.8044878486976128,0.006144671761210141
2,2,0.25,0.7784556996306918,2.6093595784533075
2,2,0.0,0.7123045033501665,9.224479206505842
2,3,1.0,0.8045492954152249,0.0
2,3,0.75,0.7977979149339471,0.6751380481277769
2,3,0.5,0.795480275238462,0.9069020176762921
2,3,0.25,0.7706109999593639,3.3938295455861023
2,3,0.0,0.7572829916143964,4.726630380082852
2,4,1.0,0.8045492954152249,0.0
2,4,0.75,0.8146425787573056,-1.0093283342080706
2,4,0.5,0.7933720840229448,1.1177211392280118
2,4,0.25,0.7444964443085682,6.00528511066567
2,4,0.0,0.7093189039523544,9.523039146287049
2,5,1.0,0.8045492954152249,0.0
2,5,0.75,0.8015615449545355,0.29877504606894423
2,5,0.5,0.7331427434720175,7.140655194320744
2,5,0.25,0.6960427807486631,10.850651466656181
2,5,0.0,0.5170287845903307,28.752051082489416
2,6,1.0,0.8045492954152249,0.0
2,6,0.75,0.8224864320214713,-1.7937136606246407
2,6,0.5,0.8184298122765661,-1.3880516861341174
2,6,0.25,0.797193861129181,0.7355434286043905
2,6,0.0,0.7864544682868941,1.809482712833077
2,7,1.0,0.8045492954152249,0.0
2,7,0.75,0.781027437570773,2.352185784445193
2,7,0.5,0.6945479097468933,11.000138566833161
2,7,0.25,0.6352869710820828,16.926232433314215
2,7,0.0,0.4896679674775737,31.48813279376512
2,8,1.0,0.8045492954152249,0.0
2,8,0.75,0.8133728832036834,-0.8823587788458487
2,8,0.5,0.8083900180847448,-0.3840722669519847
2,8,0.25,0.7940473034703852,1.0501991944839695
2,8,0.0,0.7342599568147594,7.028933860046549
3,0,1.0,0.852679366089141,0.0
3,0,0.75,0.8592425682134763,-0.6563202124335366
3,0,0.5,0.8481223362700433,0.4557029819097669
3,0,0.25,0.7668930598198852,8.578630626925577
3,0,0.0,0.6127823416892308,23.989702439991014
3,1,1.0,0.852679366089141,0.0
3,1,0.75,0.8905415643840547,-3.7862198294913774
3,1,0.5,0.8639443073800139,-1.1264941290872965
3,1,0.25,0.8256272349192879,2.7052131169853055
3,1,0.0,0.7477646025472113,10.491476354192963
3,2,1.0,0.852679366089141,0.0
3,2,0.75,0.8408343267269088,1.1845039362232135
3,2,0.5,0.7900647179086403,6.261464818050067
3,2,0.25,0.7421604094855753,11.05189566035657
3,2,0.0,0.66488674166407,18.779262442507093
3,3,1.0,0.852679366089141,0.0
3,3,0.75,0.8607778583953081,-0.8098492306167104
3,3,0.5,0.7469750591328377,10.570430695630328
3,3,0.25,0.6330883558537057,21.959101023543525
3,3,0.0,0.581045779257423,27.1633586831718
3,4,1.0,0.852679366089141,0.0
3,4,0.75,0.8287715762215384,2.390778986760256
3,4,0.5,0.8150458392706921,3.7633526818448892
3,4,0.25,0.746657676737754,10.6021689351387
3,4,0.0,0.6973870015414145,15.529236454772644
3,5,1.0,0.852679366089141,0.0
3,5,0.75,0.8370852266946125,1.5594139394528472
3,5,0.5,0.8169912881059356,3.568807798320539
3,5,0.25,0.7616584459097739,9.102092017936702
3,5,0.0,0.6793724866626906,17.33068794264504
3,6,1.0,0.852679366089141,0.0
3,6,0.75,0.8496619851168641,0.3017380972276884
3,6,0.5,0.8470123192677246,0.5667046821416388
3,6,0.25,0.8494023440039377,0.3277022085203307
3,6,0.0,0.8454155503194005,0.7263815769740445
3,7,1.0,0.852679366089141,0.0
3,7,0.75,0.8415319583797845,1.1147407709356516
3,7,0.5,0.8272185115844453,2.5460854504695707
3,7,0.25,0.7823480303662204,7.03313357229206
3,7,0.0,0.7269352279286074,12.574413816053355
3,8,1.0,0.852679366089141,0.0
3,8,0.75,0.8340092471106686,1.8670118978472372
3,8,0.5,0.8335104159313678,1.9168950157773201
3,8,0.25,0.7813028183351022,7.137654775403879
3,8,0.0,0.7262999093264989,12.637945676264206
4,0,1.0,0.7029013185580644,0.0
4,0,0.75,0.6815657157089018,2.1335602849162583
4,0,0.5,0.6290469063827124,7.385441217535194
4,0,0.25,0.5620213892960724,14.087992926199199
4,0,0.0,0.5500180515817796,15.288326697628474
4,1,1.0,0.7029013185580644,0.0
4,1,0.75,0.6696964220919444,3.3204896466120015
4,1,0.5,0.6449442760478858,5.7957042510178525
4,1,0.25,0.5967207683681585,10.61805501899059
4,1,0.0,0.5651285152103057,13.777280334775865
4,2,1.0,0.7029013185580644,0.0
4,2,0.75,0.6480908277316844,5.481049082638001
4,2,0.5,0.6247846683893196,7.81166501687448
4,2,0.25,0.5902048416191237,11.269647693894068
4,2,0.0,0.558568240205839,14.433307835222543
4,3,1.0,0.7029013185580644,0.0
4,3,0.75,0.6691605717809525,3.374074677711192
4,3,0.5,0.6378644553502655,6.503686320779889
4,3,0.25,0.6052845202898883,9.761679826817604
4,3,0.0,0.5958632681684175,10.703805038964687
4,4,1.0,0.7029013185580644,0.0
4,4,0.75,0.7551798101275126,-5.227849156944819
4,4,0.5,0.7302318237231863,-2.733050516512192
4,4,0.25,0.6987859161242109,0.41154024338534434
4,4,0.0,0.6618561856992691,4.10451328587953
4,5,1.0,0.7029013185580644,0.0
4,5,0.75,0.6761012169294522,2.6800101628612127
4,5,0.5,0.6306066082136706,7.2294710344393724
4,5,0.25,0.5911378330162302,11.176348554183413
4,5,0.0,0.5339979925888335,16.890332596923084
4,6,1.0,0.7029013185580644,0.0
4,6,0.75,0.6799588370379999,2.2942481520064506
4,6,0.5,0.6646252792901473,3.8276039267917117
4,6,0.25,0.6406236602913364,6.227765826672793
4,6,0.0,0.627482790753565,7.5418527804499425
4,7,1.0,0.7029013185580644,0.0
4,7,0.75,0.6781021794561138,2.479913910195053
4,7,0.5,0.6185515094069121,8.434980915115231
4,7,0.25,0.5789161580953832,12.398516046268115
4,7,0.0,0.5525135532885765,15.038776526948784
4,8,1.0,0.7029013185580644,0.0
4,8,0.75,0.7710036910211477,-6.810237246308337
4,8,0.5,0.7731968596728263,-7.029554111476188
4,8,0.25,0.7603064413757264,-5.7405122817662075
4,8,0.0,0.6888661186479456,1.4035199910118812
5,0,1.0,0.5849718281714954,0.0
5,0,0.75,0.5886221738687795,-0.3650345697284063
5,0,0.5,0.59267233059989,-0.7700502428394596
5,0,0.25,0.5708789238711598,1.4092904300335607
5,0,0.0,0.5152065276273022,6.9765300544193165
5,1,1.0,0.5849718281714954,0.0
5,1,0.75,0.5923068556928021,-0.7335027521306658
5,1,0.5,0.5906523187035412,-0.5680490532045779
5,1,0.25,0.5687707287727376,1.6201099398757801
5,1,0.0,0.5442966813060308,4.067514686546458
5,2,1.0,0.5849718281714954,0.0
5,2,0.75,0.5786445706055481,0.632725756594732
5,2,0.5,0.5764753492050808,0.8496478966414589
5,2,0.25,0.5563793504290881,2.859247774240725
5,2,0.0,0.5163872748734003,6.85845532980951
5,3,1.0,0.5849718281714954,0.0
5,3,0.75,0.6067716037593356,-2.1799775587840187
5,3,0.5,0.6104725748455411,-2.550074667404567
5,3,0.25,0.604053729462646,-1.9081901291150616
5,3,0.0,0.6021414767687827,-1.7169648597287313
5,4,1.0,0.5849718281714954,0.0
5,4,0.75,0.5624537228889982,2.2518105282497203
5,4,0.5,0.5500783056605284,3.4893522510967
5,4,0.25,0.5428258349091294,4.214599326236601
5,4,0.0,0.5302813752405303,5.469045293096508
5,5,1.0,0.5849718281714954,0.0
5,5,0.75,0.5644483421715966,2.052348599989884
5,5,0.5,0.5559101881065852,2.906164006491019
5,5,0.25,0.5040592790773842,8.091254909411116
5,5,0.0,0.4874010174469898,9.757081072450557
5,6,1.0,0.5849718281714954,0.0
5,6,0.75,0.5952426275625504,-1.0270799391055019
5,6,0.5,0.5837084156513063,0.12634125201891333
5,6,0.25,0.5946496610248156,-0.9677832853320245
5,6,0.0,0.5912950584966661,-0.6323230325170681
5,7,1.0,0.5849718281714954,0.0
5,7,0.75,0.5698828027627926,1.5089025408702827
5,7,0.5,0.5728885084459373,1.2083319725558095
5,7,0.25,0.5677374443823162,1.7234383789179186
5,7,0.0,0.5396470479554,4.532478021609543
5,8,1.0,0.5849718281714954,0.0
5,8,0.75,0.5737378105091132,1.123401766238219
5,8,0.5,0.5593379836475775,2.5633844523917926
5,8,0.25,0.49760012714558166,8.737170102591374
5,8,0.0,0.4485335131659581,13.643831500553732
6,0,1.0,0.6471212878884397,0.0
6,0,0.75,0.6508487025718089,-0.37274146833692345
6,0,0.5,0.6644491365069299,-1.7327848618490238
6,0,0.25,0.6710255914000601,-2.390430351162043
6,0,0.0,0.6556461467136251,-0.8524858825185389
6,1,1.0,0.6471212878884397,0.0
6,1,0.75,0.6473640326819415,-0.024274479350183675
6,1,0.5,0.6431122175879878,0.40090703004519446
6,1,0.25,0.6300059229538715,1.7115364934568222
6,1,0.0,0.6158176472834562,3.1303640604983474
6,2,1.0,0.6471212878884397,0.0
6,2,0.75,0.6620390504081891,-1.4917762519749411
6,2,0.5,0.6525856221106054,-0.5464334222165745
6,2,0.25,0.59021299863692,5.690828925151969
6,2,0.0,0.5438058312561477,10.331545663229203
6,3,1.0,0.6471212878884397,0.0
6,3,0.75,0.6569321809061891,-0.98108930177494
6,3,0.5,0.6597150373875282,-1.2593749499088536
6,3,0.25,0.5830095672663415,6.4111720622098245
6,3,0.0,0.5796799159330384,6.744137195540134
6,4,1.0,0.6471212878884397,0.0
6,4,0.75,0.6264699063755128,2.065138151292689
6,4,0.5,0.6048748299154973,4.224645797294235
6,4,0.25,0.5773718481779274,6.974943971051228
6,4,0.0,0.5505473031097504,9.657398477868927
6,5,1.0,0.6471212878884397,0.0
6,5,0.75,0.638927858759561,0.819342912887866
6,5,0.5,0.5633417352529413,8.377955263549842
6,5,0.25,0.44955925659339335,19.756203129504634
6,5,0.0,0.38901702578936276,25.810426209907693
6,6,1.0,0.6471212878884397,0.0
6,6,0.75,0.6324495772982242,1.4671710590215548
6,6,0.5,0.6237924819221354,2.3328805966304267
6,6,0.25,0.5822213582909491,6.489992959749058
6,6,0.0,0.5436348867052636,10.34864011831761
6,7,1.0,0.6471212878884397,0.0
6,7,0.75,0.6418429751770951,0.5278312711344602
6,7,0.5,0.5511324756880772,9.598881220036247
6,7,0.25,0.5245086768289382,12.26126110595015
6,7,0.0,0.47014979324648676,17.697149464195295
6,8,1.0,0.6471212878884397,0.0
6,8,0.75,0.6456559342369533,0.14653536514863674
6,8,0.5,0.6346946613237827,1.2426626564656984
6,8,0.25,0.6247476430865588,2.2373644801880865
6,8,0.0,0.5724373894410127,7.4683898447426955
7,0,1.0,0.7443113989412937,0.0
7,0,0.75,0.6530326910366566,9.12787079046371
7,0,0.5,0.6140966624246262,13.02147365166675
7,0,0.25,0.5887311037140329,15.55802952272608
7,0,0.0,0.5664858927003442,17.782550624094952
7,1,1.0,0.7443113989412937,0.0
7,1,0.75,0.6211205822100876,12.319081673120614
7,1,0.5,0.578903174882089,16.540822405920473
7,1,0.25,0.5531262722432192,19.11851266980745
7,1,0.0,0.6278001095707161,11.651128937057765
7,2,1.0,0.7443113989412937,0.0
7,2,0.75,0.729177202889021,1.513419605227273
7,2,0.5,0.7119637946359949,3.2347604305298816
7,2,0.25,0.6871084754046755,5.720292353661827
7,2,0.0,0.6443767402587505,9.993465868254326
7,3,1.0,0.7443113989412937,0.0
7,3,0.75,0.73672516883899,0.7586230102303748
7,3,0.5,0.7288194504078084,1.5491948533485345
7,3,0.25,0.6149912504914883,12.932014844980543
7,3,0.0,0.5957634424065914,14.854795653470232
7,4,1.0,0.7443113989412937,0.0
7,4,0.75,0.7059672803169486,3.834411862434517
7,4,0.5,0.6711710194625599,7.314037947873386
7,4,0.25,0.6589020352210216,8.540936372027208
7,4,0.0,0.6301366203692889,11.417477857200486
7,5,1.0,0.7443113989412937,0.0
7,5,0.75,0.7477976838494016,-0.3486284908107873
7,5,0.5,0.727634677865174,1.6676721076119727
7,5,0.25,0.6500881193689019,9.422327957239185
7,5,0.0,0.5250798146143651,21.92315843269286
7,6,1.0,0.7443113989412937,0.0
7,6,0.75,0.7324914549530044,1.1819943988289339
7,6,0.5,0.7068913973028577,3.7420001638436062
7,6,0.25,0.6858585520377363,5.845284690355745
7,6,0.0,0.6595706478742707,8.474075106702305
7,7,1.0,0.7443113989412937,0.0
7,7,0.75,0.7228702743441102,2.1441124597183503
7,7,0.5,0.6939463685422058,5.036503039908791
7,7,0.25,0.6099494931439376,13.436190579735607
7,7,0.0,0.5336124332324381,21.06989657088556
7,8,1.0,0.7443113989412937,0.0
7,8,0.75,0.7403132287568301,0.39981701844635786
7,8,0.5,0.7010357710004479,4.327562794084583
7,8,0.25,0.6705063109581182,7.380508798317553
7,8,0.0,0.61066632598721,13.364507295408368
8,0,1.0,0.7840630380457969,0.0
8,0,0.75,0.7923923738466906,-0.8329335800893678
8,0,0.5,0.7952714219788836,-1.1208383933086652
8,0,0.25,0.6801482253441037,10.391481270169322
8,0,0.0,0.6275973499466122,15.64656880991847
8,1,1.0,0.7840630380457969,0.0
8,1,0.75,0.8070011094131501,-2.293807136735315
8,1,0.5,0.8037237082208031,-1.9660670175006167
8,1,0.25,0.7533515082310173,3.071152981477965
8,1,0.0,0.6774151483221246,10.664788972367234
8,2,1.0,0.7840630380457969,0.0
8,2,0.75,0.796449995996615,-1.2386957950818123
8,2,0.5,0.8148768272464291,-3.081378920063216
8,2,0.25,0.8203975902391057,-3.6334552193308833
8,2,0.0,0.8200414654089767,-3.59784273631798
8,3,1.0,0.7840630380457969,0.0
8,3,0.75,0.793612970659234,-0.9549932613437062
8,3,0.5,0.7884403690541018,-0.4377331008304841
8,3,0.25,0.7756241015340238,0.8438936511773076
8,3,0.0,0.7168823926001301,6.718064544566682
8,4,1.0,0.7840630380457969,0.0
8,4,0.75,0.7784581138796259,0.5604924166170977
8,4,0.5,0.771568118824044,1.2494919221752943
8,4,0.25,0.7471991594516876,3.6863878594109334
8,4,0.0,0.6955257227686207,8.853731527717624
8,5,1.0,0.7840630380457969,0.0
8,5,0.75,0.7802479749958313,0.38150630499655946
8,5,0.5,0.7862863978060056,-0.22233597602087096
8,5,0.25,0.7534357280773575,3.062730996843943
8,5,0.0,0.6912591729209134,9.280386512488349
8,6,1.0,0.7840630380457969,0.0
8,6,0.75,0.7907098834740672,-0.664684542827032
8,6,0.5,0.781425666791784,0.2637371254012866
8,6,0.25,0.7758542229556711,0.8208815090125832
8,6,0.0,0.781436513338753,0.26265247070439424
8,7,1.0,0.7840630380457969,0.0
8,7,0.75,0.7749618373794134,0.9101200666383535
8,7,0.5,0.7877520536981573,-0.368901565236035
8,7,0.25,0.7864557912637306,-0.23927532179336408
8,7,0.0,0.7382036543931532,4.585938365264375
8,8,1.0,0.7840630380457969,0.0
8,8,0.75,0.7752700064294267,0.8793031616370239
8,8,0.5,0.7658228847299644,1.8240153315832508
8,8,0.25,0.7242169514641247,5.9846086581672235
8,8,0.0,0.6685887018034532,11.54743362423437
9,0,1.0,0.7589716315233807,0.0
9,0,0.75,0.7388391073445832,2.0132524178797406
9,0,0.5,0.7167416010099088,4.223003051347185
9,0,0.25,0.7074076063401294,5.1564025183251205
9,0,0.0,0.6793045269036596,7.966710461972104
9,1,1.0,0.7589716315233807,0.0
9,1,0.75,0.7356818704644792,2.328976105890146
9,1,0.5,0.694475732807411,6.449589871596961
9,1,0.25,0.6763267110295273,8.26449204938533
9,1,0.0,0.6672563797496034,9.171525177377726
9,2,1.0,0.7589716315233807,0.0
9,2,0.75,0.764591778993953,-0.5620147470572379
9,2,0.5,0.7538106950429727,0.516093648040794
9,2,0.25,0.7239504358149577,3.502119570842299
9,2,0.0,0.7046006238135434,5.437100770983728
9,3,1.0,0.7589716315233807,0.0
9,3,0.75,0.7660600395293391,-0.7088408005958446
9,3,0.5,0.7649095065442157,-0.5937875020835093
9,3,0.25,0.7733305420367587,-1.435891051337801
9,3,0.0,0.7579302820835079,0.1041349439872774
9,4,1.0,0.7589716315233807,0.0
9,4,0.75,0.7631154816886346,-0.41438501652539816
9,4,0.5,0.7634440205072737,-0.44723889838930164
9,4,0.25,0.7669577097566228,-0.7986078233242155
9,4,0.0,0.765877556209364,-0.6905924685983389
9,5,1.0,0.7589716315233807,0.0
9,5,0.75,0.7518993145843327,0.7072316939047973
9,5,0.5,0.7610010694145413,-0.20294378911606126
9,5,0.25,0.7355124173786168,2.345921414476382
9,5,0.0,0.6131305677108763,14.58410638125044
9,6,1.0,0.7589716315233807,0.0
9,6,0.75,0.7453040470377312,1.366758448564942
9,6,0.5,0.7513179968240763,0.7653634699304357
9,6,0.25,0.7520567735135311,0.6914858009849589
9,6,0.0,0.7317230560612162,2.7248575462164415
9,7,1.0,0.7589716315233807,0.0
9,7,0.75,0.7608652860037802,-0.18936544803995758
9,7,0.5,0.7520949407894966,0.6876690733884083
9,7,0.25,0.7271251305762051,3.184650094717556
9,7,0.0,0.6783743783124008,8.059725321097988
9,8,1.0,0.7589716315233807,0.0
9,8,0.75,0.750150577278446,0.8821054244934623
9,8,0.5,0.7250878898206264,3.388374170275421
9,8,0.25,0.6739239793979641,8.504765212541654
9,8,0.0,0.6123606960110607,14.661093551231996
10,0,1.0,0.7521985289370958,0.0
10,0,0.75,0.71089745864632,4.130107029077578
10,0,0.5,0.6753939833874482,7.680454554964767
10,0,0.25,0.6244750532486382,12.772347568845765
10,0,0.0,0.5172484028228034,23.495012611429246
10,1,1.0,0.7521985289370958,0.0
10,1,0.75,0.7737035788503712,-2.15050499132754
10,1,0.5,0.713155078017406,3.904345091968986
10,1,0.25,0.6663919413919415,8.580658754515436
10,1,0.0,0.6409440478700441,11.125448106705171
10,2,1.0,0.7521985289370958,0.0
10,2,0.75,0.7299029225817207,2.2295606355375086
10,2,0.5,0.7209124320650624,3.128609687203343
10,2,0.25,0.7218579945451933,3.034053439190254
10,2,0.0,0.6754529681212948,7.674556081580097
10,3,1.0,0.7521985289370958,0.0
10,3,0.75,0.7352918924186674,1.6906636518428386
10,3,0.5,0.7139862327909887,3.8212296146107105
10,3,0.25,0.6584802469045695,9.37182820325263
10,3,0.0,0.5608592346442165,19.13392942928793
10,4,1.0,0.7521985289370958,0.0
10,4,0.75,0.7368344727483829,1.536405618871295
10,4,0.5,0.7229398815112176,2.925864742587825
10,4,0.25,0.6785108721112778,7.3687656825818015
10,4,0.0,0.6668123682441927,8.538616069290317
10,5,1.0,0.7521985289370958,0.0
10,5,0.75,0.7243509510367474,2.784757790034842
10,5,0.5,0.7134418386419402,3.8756690295155605
10,5,0.25,0.6772615397589263,7.493698917816949
10,5,0.0,0.6508692396598071,10.132928927728868
10,6,1.0,0.7521985289370958,0.0
10,6,0.75,0.7683588455648703,-1.6160316627774507
10,6,0.5,0.7659090909090909,-1.371056197199505
10,6,0.25,0.7685594134177274,-1.6360884480631555
10,6,0.0,0.7670030872908217,-1.480455835372585
10,7,1.0,0.7521985289370958,0.0
10,7,0.75,0.733207338298324,1.899119063877186
10,7,0.5,0.7246889033952659,2.7509625541829896
10,7,0.25,0.7002978444563248,5.190068448077101
10,7,0.0,0.6028740733600226,14.932445557707318
10,8,1.0,0.7521985289370958,0.0
10,8,0.75,0.7343916173869299,1.7806911550165894
10,8,0.5,0.6918673633205161,6.03311656165797
10,8,0.25,0.6388057291696367,11.339279976745908
10,8,0.0,0.6127227332869298,13.9475795650166
11,0,1.0,0.824310479920578,0.0
11,0,0.75,0.8297949425810418,-0.5484462660463763
11,0,0.5,0.8162634105025409,0.8047069418037123
11,0,0.25,0.8109368530020703,1.3373626918507742
11,0,0.0,0.8067256685595209,1.7584811361057162
11,1,1.0,0.824310479920578,0.0
11,1,0.75,0.8253611351473545,-0.10506552267764979
11,1,0.5,0.8075660977549627,1.6744382165615357
11,1,0.25,0.7671945497159575,5.7115930204620575
11,1,0.0,0.7119758831120107,11.23345968085674
11,2,1.0,0.824310479920578,0.0
11,2,0.75,0.8070895544843442,1.722092543623388
11,2,0.5,0.7795315250769502,4.477895484362781
11,2,0.25,0.7537957211870254,7.051475873355262
11,2,0.0,0.7343529985690527,8.995748135152537
11,3,1.0,0.824310479920578,0.0
11,3,0.75,0.8334443816198507,-0.913390169927264
11,3,0.5,0.8226812781160607,0.16292018045173107
11,3,0.25,0.7973392818680016,2.6971198052576417
11,3,0.0,0.7413165202847888,8.299395963578926
11,4,1.0,0.824310479920578,0.0
11,4,0.75,0.8094673122821774,1.4843167638400656
11,4,0.5,0.7971829602778934,2.712751964268467
11,4,0.25,0.7240452703938838,10.026520952669426
11,4,0.0,0.6924495872189591,13.186089270161894
11,5,1.0,0.824310479920578,0.0
11,5,0.75,0.811444602800245,1.2865877120333047
11,5,0.5,0.7681661749643318,5.614430495624623
11,5,0.25,0.7158393938508869,10.847108606969114
11,5,0.0,0.6073694983839555,21.694098153662257
11,6,1.0,0.824310479920578,0.0
11,6,0.75,0.8303098095961098,-0.5999329675531739
11,6,0.5,0.8359980503859222,-1.1687570465344188
11,6,0.25,0.8338835693614239,-0.9573089440845894
11,6,0.0,0.8271228492599069,-0.2812369339328824
11,7,1.0,0.824310479920578,0.0
11,7,0.75,0.8315986835756903,-0.7288203655112291
11,7,0.5,0.827243024054434,-0.2932544133855908
11,7,0.25,0.7851736978928079,3.9136782027770156
11,7,0.0,0.6806780940226489,14.363238589792914
11,8,1.0,0.824310479920578,0.0
11,8,0.75,0.8141595895753867,1.0150890345191343
11,8,0.5,0.7895114508290835,3.479902909149457
11,8,0.25,0.743157365273226,8.115311464735209
11,8,0.0,0.7146373511196754,10.967312880090264
12,0,1.0,0.7800008617398428,0.0
12,0,0.75,0.7917787357289375,-1.177787398909469
12,0,0.5,0.7960360993449229,-1.6035237605080077
12,0,0.25,0.7852967064208178,-0.5295844680974993
12,0,0.0,0.770226183031061,0.9774678708781792
12,1,1.0,0.7800008617398428,0.0
12,1,0.75,0.8022739523572302,-2.227309061738736
12,1,0.5,0.8066938607834371,-2.6692999043594234
12,1,0.25,0.8048677486111967,-2.4866886871353855
12,1,0.0,0.7705873957201246,0.9413466019718264
12,2,1.0,0.7800008617398428,0.0
12,2,0.75,0.7697440615052799,1.025680023456299
12,2,0.5,0.7581778646688081,2.1822997071034744
12,2,0.25,0.7459163859394811,3.408447580036178
12,2,0.0,0.7203309620714045,5.966989966843839
12,3,1.0,0.7800008617398428,0.0
12,3,0.75,0.773651347540444,0.6349514199398887
12,3,0.5,0.7538777365702566,2.612312516958626
12,3,0.25,0.7266410807359084,5.3359781003934454
12,3,0.0,0.6424388724275426,13.756198931230024
12,4,1.0,0.7800008617398428,0.0
12,4,0.75,0.7555034015678935,2.4497460171949315
12,4,0.5,0.7250928088297459,5.490805291009693
12,4,0.25,0.6343684644864125,14.563239725343035
12,4,0.0,0.5874604532916269,19.254040844821596
12,5,1.0,0.7800008617398428,0.0
12,5,0.75,0.7548429062772317,2.5157955462611126
12,5,0.5,0.7218111266544929,5.818973508534997
12,5,0.25,0.6660206729335705,11.398018880627237
12,5,0.0,0.5683152347923714,21.168562694747138
12,6,1.0,0.7800008617398428,0.0
12,6,0.75,0.7785987116160937,0.1402150123749113
12,6,0.5,0.769041405456276,1.095945628356687
12,6,0.25,0.7479746191867853,3.2026242553057527
12,6,0.0,0.7408593078316823,3.9141553908160542
12,7,1.0,0.7800008617398428,0.0
12,7,0.75,0.804414034740272,-2.441317300042911
12,7,0.5,0.7802555096679098,-0.025464792806695336
12,7,0.25,0.7536366278013875,2.636423393845533
12,7,0.0,0.7293111880309545,5.068967370888833
12,8,1.0,0.7800008617398428,0.0
12,8,0.75,0.7592219344280773,2.077892731176556
12,8,0.5,0.724301756406565,5.569910533327782
12,8,0.25,0.6913846138460411,8.861624789380173
12,8,0.0,0.6367346257983963,14.32662359414465
13,0,1.0,0.8241793898859355,0.0
13,0,0.75,0.8334039907931533,-0.9224600907217773
13,0,0.5,0.8304112098421271,-0.6231819956191598
13,0,0.25,0.8010650653554661,2.3114324530469466
13,0,0.0,0.7450819373865828,7.909745249935273
13,1,1.0,0.8241793898859355,0.0
13,1,0.75,0.8012300051419838,2.2949384743951695
13,1,0.5,0.7807351036875543,4.3444286198381254
13,1,0.25,0.7664600605503891,5.7719329335546465
13,1,0.0,0.7450325159919076,7.914687389402797
13,2,1.0,0.8241793898859355,0.0
13,2,0.75,0.8148465994421799,0.9332790443755679
13,2,0.5,0.8102939984321932,1.3885391453742346
13,2,0.25,0.7892107773700645,3.4968612515871023
13,2,0.0,0.7666387615678822,5.754062831805329
13,3,1.0,0.8241793898859355,0.0
13,3,0.75,0.8308981462480335,-0.6718756362097955
13,3,0.5,0.8324317936054738,-0.8252403719538282
13,3,0.25,0.8163090818248283,0.7870308061107223
13,3,0.0,0.7994712333005414,2.470815658539416
13,4,1.0,0.8241793898859355,0.0
13,4,0.75,0.8090268675680317,1.5152522317903871
13,4,0.5,0.7842291668380502,3.9950223047885314
13,4,0.25,0.7500923925665888,7.408699731934676
13,4,0.0,0.7272687358617671,9.691065402416843
13,5,1.0,0.8241793898859355,0.0
13,5,0.75,0.8189667618804309,0.5212628005504594
13,5,0.5,0.7836515630772551,4.052782680868039
13,5,0.25,0.5757374376678174,24.844195221811816
13,5,0.0,0.39364519280141264,43.05341970845229
13,6,1.0,0.8241793898859355,0.0
13,6,0.75,0.8136476291545672,1.05317607313683
13,6,0.5,0.7954423265438915,2.8737063342044067
13,6,0.25,0.7818077765012863,4.237161338464923
13,6,0.0,0.7777424581694272,4.643693171650831
13,7,1.0,0.8241793898859355,0.0
13,7,0.75,0.8275629213129212,-0.3383531426985664
13,7,0.5,0.8207482264044352,0.3431163481500299
13,7,0.25,0.8057745094990925,1.840488038684307
13,7,0.0,0.7724682690757376,5.171112081019791
13,8,1.0,0.8241793898859355,0.0
13,8,0.75,0.8279202975729598,-0.37409076870242863
13,8,0.5,0.8153045796761129,0.8874810209822614
13,8,0.25,0.7931047253207626,3.107466456517294
13,8,0.0,0.7786015164449475,4.5577873440988075
14,0,1.0,0.7943886072380006,0.0
14,0,0.75,0.8052217502512105,-1.0833143013209812
14,0,0.5,0.7921887893470998,0.2199817890900846
14,0,0.25,0.7420910513645349,5.229755587346574
14,0,0.0,0.7204845619479765,7.3904045290024145
14,1,1.0,0.7943886072380006,0.0
14,1,0.75,0.7884184018722012,0.5970205365799397
14,1,0.5,0.7720517557505147,2.2336851487485987
14,1,0.25,0.7587315437118229,3.56570635261777
14,1,0.0,0.7362720063503694,5.8116600887631265
14,2,1.0,0.7943886072380006,0.0
14,2,0.75,0.7724646283110989,2.192397892690179
14,2,0.5,0.742356781353255,5.203182588474564
14,2,0.25,0.7058174916193255,8.857111561867514
14,2,0.0,0.656553224534084,13.78353827039166
14,3,1.0,0.7943886072380006,0.0
14,3,0.75,0.7839596988745563,1.0428908363444345
14,3,0.5,0.744787673261837,4.960093397616361
14,3,0.25,0.7098301773321336,8.455842990586703
14,3,0.0,0.6611685235663496,13.322008367165106
14,4,1.0,0.7943886072380006,0.0
14,4,0.75,0.8066824699636987,-1.2293862725698101
14,4,0.5,0.7937715665770579,0.06170406609427026
14,4,0.25,0.7366603046765428,5.772830256145789
14,4,0.0,0.6713300922387965,12.305851499920417
14,5,1.0,0.7943886072380006,0.0
14,5,0.75,0.7406240322928379,5.3764574945162735
14,5,0.5,0.7022557903942929,9.213281684370777
14,5,0.25,0.6674182720339248,12.697033520407587
14,5,0.0,0.5933598639050481,20.10287433329525
14,6,1.0,0.7943886072380006,0.0
14,6,0.75,0.7888170293239465,0.557157791405416
14,6,0.5,0.7873779345602618,0.7010672677738805
14,6,0.25,0.7860457067568181,0.834290048118258
14,6,0.0,0.7862671649208655,0.8121442317135186
14,7,1.0,0.7943886072380006,0.0
14,7,0.75,0.7916029623319404,0.27856449060602584
14,7,0.5,0.7717957746125159,2.2592832625484727
14,7,0.25,0.7553695669481391,3.9019040289861584
14,7,0.0,0.7281280663285975,6.626054090940315
14,8,1.0,0.7943886072380006,0.0
14,8,0.75,0.8015429898967643,-0.7154382658763669
14,8,0.5,0.7893071237431255,0.5081483494875139
14,8,0.25,0.7713584965932314,2.303011064476923
14,8,0.0,0.7094333829115866,8.495522432641401
15,0,1.0,0.8707339943189,0.0
15,0,0.75,0.8790638975612366,-0.8329903242336623
15,0,0.5,0.8658303293445927,0.4903664974307276
15,0,0.25,0.8532648758678347,1.7469118451065246
15,0,0.0,0.798313981752345,7.242001256655495
15,1,1.0,0.8707339943189,0.0
15,1,0.75,0.8576810024078017,1.3052991911098322
15,1,0.5,0.8077293132141279,6.300468110477208
15,1,0.25,0.764491099420535,10.624289489836503
15,1,0.0,0.73306091005913,13.767308425977
15,2,1.0,0.8707339943189,0.0
15,2,0.75,0.8643937045168139,0.6340289802086119
15,2,0.5,0.8560363149282744,1.4697679390625606
15,2,0.25,0.8205698053938935,5.016418892500651
15,2,0.0,0.7824115992184594,8.83223951004406
15,3,1.0,0.8707339943189,0.0
15,3,0.75,0.8772704856894777,-0.6536491370577768
15,3,0.5,0.8751885799390273,-0.4454585620127349
15,3,0.25,0.8641996760882436,0.6534318230656422
15,3,0.0,0.8424957358827063,2.8238258436193653
15,4,1.0,0.8707339943189,0.0
15,4,0.75,0.8825441451333185,-1.1810150814418496
15,4,0.5,0.8751820908562965,-0.44480965373965287
15,4,0.25,0.818447188191138,5.228680612776193
15,4,0.0,0.8113812961927319,5.935269812616806
15,5,1.0,0.8707339943189,0.0
15,5,0.75,0.8624047281618905,0.8329266157009463
15,5,0.5,0.7891480490534727,8.158594526542728
15,5,0.25,0.7137731981211577,15.696079619774228
15,5,0.0,0.6736157721518561,19.711822216704388
15,6,1.0,0.8707339943189,0.0
15,6,0.75,0.8628566138723849,0.7877380446515092
15,6,0.5,0.8624430509842194,0.8290943334680612
15,6,0.25,0.8521675486903089,1.856644562859111
15,6,0.0,0.8630149786514368,0.7719015667463136
15,7,1.0,0.8707339943189,0.0
15,7,0.75,0.8700315425560742,0.07024517628257954
15,7,0.5,0.8582197496454069,1.2514244673493047
15,7,0.25,0.8216136978715518,4.912029644734817
15,7,0.0,0.7963333859802914,7.440060833860862
15,8,1.0,0.8707339943189,0.0
15,8,0.75,0.8770077495322812,-0.6273755213381249
15,8,0.5,0.8791287108345067,-0.8394716515606748
15,8,0.25,0.8628272637004144,0.7906730618485569
15,8,0.0,0.8220503181029497,4.868367621595027
16,0,1.0,0.8145589529275022,0.0
16,0,0.75,0.8247282569693924,-1.0169304041890204
16,0,0.5,0.8002884905254092,1.4270462402093065
16,0,0.25,0.6960748076180702,11.848414530943208
16,0,0.0,0.5718104125766832,24.274854035081905
16,1,1.0,0.8145589529275022,0.0
16,1,0.75,0.8205266854063347,-0.5967732478832422
16,1,0.5,0.8058297810866841,0.8729171840818117
16,1,0.25,0.763965755311795,5.059319761570724
16,1,0.0,0.6897127378123271,12.484621511517513
16,2,1.0,0.8145589529275022,0.0
16,2,0.75,0.8054101255405846,0.9148827386917691
16,2,0.5,0.794252722163681,2.030623076382121
16,2,0.25,0.7698779137873698,4.468103914013244
16,2,0.0,0.7409863167431703,7.357263618433196
16,3,1.0,0.8145589529275022,0.0
16,3,0.75,0.8185336267142539,-0.3974673786751648
16,3,0.5,0.79972995540711,1.482899752039224
16,3,0.25,0.6676324585244621,14.692649440304017
16,3,0.0,0.6135212688364301,20.103768409107214
16,4,1.0,0.8145589529275022,0.0
16,4,0.75,0.7902643668186522,2.4294586108850047
16,4,0.5,0.7613769825120638,5.318197041543849
16,4,0.25,0.7147305276364627,9.982842529103952
16,4,0.0,0.6881034602635386,12.645549266396362
16,5,1.0,0.8145589529275022,0.0
16,5,0.75,0.7903808892794931,2.417806364800912
16,5,0.5,0.7361402284877907,7.841872443971154
16,5,0.25,0.6199066619869323,19.46522909405699
16,5,0.0,0.5900128794694063,22.454607345809595
16,6,1.0,0.8145589529275022,0.0
16,6,0.75,0.8253499460154606,-1.079099308795839
16,6,0.5,0.8275576374217477,-1.299868449424546
16,6,0.25,0.8325064793291742,-1.7947526401671965
16,6,0.0,0.8179257490436312,-0.33667961161290005
16,7,1.0,0.8145589529275022,0.0
16,7,0.75,0.8081842881576489,0.6374664769853378
16,7,0.5,0.7697429362596632,4.481601666783908
16,7,0.25,0.7266871377566954,8.78718151708069
16,7,0.0,0.5820842947100247,23.24746582174776
16,8,1.0,0.8145589529275022,0.0
16,8,0.75,0.8003512769486423,1.4207675978859968
16,8,0.5,0.7847397089510397,2.9819243976462517
16,8,0.25,0.7655523134128802,4.900663951462203
16,8,0.0,0.7015792055809417,11.297974734656059
17,0,1.0,0.8210409503880152,0.0
17,0,0.75,0.8266709949635495,-0.5630044575534288
17,0,0.5,0.7869580660972998,3.4082884290715376
17,0,0.25,0.651034928600918,17.000602178709713
17,0,0.0,0.558687427181773,26.235352320624216
17,1,1.0,0.8210409503880152,0.0
17,1,0.75,0.8101088381760775,1.0932112211937683
17,1,0.5,0.7560782872431417,6.496266314487342
17,1,0.25,0.7190420939032672,10.199885648474794
17,1,0.0,0.6823575038453771,13.868344654263808
17,2,1.0,0.8210409503880152,0.0
17,2,0.75,0.8125800852724772,0.8460865115538008
17,2,0.5,0.8109787531589857,1.0062197229029457
17,2,0.25,0.7869923980772583,3.4048552310756874
17,2,0.0,0.7381795454391978,8.286140494881733
17,3,1.0,0.8210409503880152,0.0
17,3,0.75,0.8231230692775174,-0.20821188895022713
17,3,0.5,0.8125346762347938,0.850627415322136
17,3,0.25,0.8051986971440628,1.5842253243952387
17,3,0.0,0.7897079099038354,3.133304048417973
17,4,1.0,0.8210409503880152,0.0
17,4,0.75,0.810975002357716,1.0065948030299143
17,4,0.5,0.8186867429206879,0.2354207467327285
17,4,0.25,0.806889176531655,1.4151773856360128
17,4,0.0,0.7728749356643801,4.816601472363502
17,5,1.0,0.8210409503880152,0.0
17,5,0.75,0.781928753470168,3.9112196917847175
17,5,0.5,0.7171352595712106,10.390569081680457
17,5,0.25,0.6911955086437007,12.984544174431445
17,5,0.0,0.6242864542864544,19.675449610156083
17,6,1.0,0.8210409503880152,0.0
17,6,0.75,0.8200315441636999,0.10094062243152235
17,6,0.5,0.8066489126497947,1.439203773822051
17,6,0.25,0.7998109474696988,2.1230002918316337
17,6,0.0,0.7842244946602634,3.681645572775172
17,7,1.0,0.8210409503880152,0.0
17,7,0.75,0.8198875269887579,0.11534233992572807
17,7,0.5,0.7896371560664991,3.1403794321516076
17,7,0.25,0.7519614600712197,6.90794903167955
17,7,0.0,0.7096375694668864,11.140338092112877
17,8,1.0,0.8210409503880152,0.0
17,8,0.75,0.8239324034502538,-0.28914530622385914
17,8,0.5,0.8151852833957086,0.5855666992306552
17,8,0.25,0.774313216480856,4.672773390715912
17,8,0.0,0.7067580872474382,11.4282863140577
18,0,1.0,0.7430491668450528,0.0
18,0,0.75,0.7401661684404669,0.2882998404585946
18,0,0.5,0.7117606285708001,3.128853827425271
18,0,0.25,0.7021174964411447,4.09316704039081
18,0,0.0,0.6845414565075656,5.850771033748725
18,1,1.0,0.7430491668450528,0.0
18,1,0.75,0.7198538512179066,2.3195315627146273
18,1,0.5,0.7186448974655498,2.440426937950302
18,1,0.25,0.6929047152248052,5.014445162024761
18,1,0.0,0.6805456298446444,6.250353700040845
18,2,1.0,0.7430491668450528,0.0
18,2,0.75,0.7534262031268261,-1.0377036281773222
18,2,0.5,0.7597659871279185,-1.6716820282865696
18,2,0.25,0.7460862219731894,-0.30370551281365676
18,2,0.0,0.710360084624749,3.2689082220303867
18,3,1.0,0.7430491668450528,0.0
18,3,0.75,0.7170981881314421,2.595097871361074
18,3,0.5,0.6863750573796236,5.667410946542928
18,3,0.25,0.6433866505048025,9.966251634025037
18,3,0.0,0.6039186540576618,13.913051278739108
18,4,1.0,0.7430491668450528,0.0
18,4,0.75,0.761484348984349,-1.843518213929618
18,4,0.5,0.7726016912338162,-2.9552524388763324
18,4,0.25,0.769132514514973,-2.6083347669920154
18,4,0.0,0.7471462835105829,-0.4097116665530032
18,5,1.0,0.7430491668450528,0.0
18,5,0.75,0.7637666378540754,-2.071747100902255
18,5,0.5,0.698253648608173,4.479551823687988
18,5,0.25,0.636140317175319,10.69088496697338
18,5,0.0,0.5638310680313869,17.921809881366592
18,6,1.0,0.7430491668450528,0.0
18,6,0.75,0.7751865928906143,-3.213742604556147
18,6,0.5,0.7870773154443843,-4.402814859933146
18,6,0.25,0.789530667802354,-4.648150095730119
18,6,0.0,0.7916205182617777,-4.857135141672487
18,7,1.0,0.7430491668450528,0.0
18,7,0.75,0.7322626534583203,1.0786513386732532
18,7,0.5,0.7134059706190414,2.9643196226011415
18,7,0.25,0.6858945900566322,5.715457678842062
18,7,0.0,0.6603625193495828,8.268664749547005
18,8,1.0,0.7430491668450528,0.0
18,8,0.75,0.7357763287354462,0.7272838109606661
18,8,0.5,0.7113891233324432,3.166004351260965
18,8,0.25,0.6793932827541331,6.365588409091972
18,8,0.0,0.6592158958284825,8.383327101657034
19,0,1.0,0.8433683998330398,0.0
19,0,0.75,0.8241138431997133,1.9254556633326536
19,0,0.5,0.7891914446374991,5.417695519554067
19,0,0.25,0.7227867436434359,12.058165618960393
19,0,0.0,0.6712076647341859,17.216073509885387
19,1,1.0,0.8433683998330398,0.0
19,1,0.75,0.8295118872837349,1.3856512549304867
19,1,0.5,0.8109403806768413,3.242801915619853
19,1,0.25,0.7566911765441139,8.66772232889259
19,1,0.0,0.7220264080646961,12.13419917683437
19,2,1.0,0.8433683998330398,0.0
19,2,0.75,0.8513870860315429,-0.80186861985031
19,2,0.5,0.851250666325037,-0.7882266491997192
19,2,0.25,0.8217995242413585,2.1568875591681302
19,2,0.0,0.7911446429855592,5.22237568474806
19,3,1.0,0.8433683998330398,0.0
19,3,0.75,0.8233065581580382,2.006184167500158
19,3,0.5,0.7926362303126958,5.073216952034398
19,3,0.25,0.7646513016771794,7.871709815586037
19,3,0.0,0.7206204464895248,12.274795334351495
19,4,1.0,0.8433683998330398,0.0
19,4,0.75,0.8241558655963243,1.921253423671554
19,4,0.5,0.7898654661678355,5.350293366520431
19,4,0.25,0.7451167020016611,9.825169783137866
19,4,0.0,0.7049178123952219,13.845058743781792
19,5,1.0,0.8433683998330398,0.0
19,5,0.75,0.828875297165442,1.4493102667597846
19,5,0.5,0.7682051074771502,7.516329235588959
19,5,0.25,0.6558955571244501,18.747284270858966
19,5,0.0,0.5480394970376005,29.532890279543935
19,6,1.0,0.8433683998330398,0.0
19,6,0.75,0.82981603663804,1.355236319499975
19,6,0.5,0.8392563760754227,0.41120237576171004
19,6,0.25,0.8194926629621382,2.387573687090161
19,6,0.0,0.8184086547455804,2.495974508745935
19,7,1.0,0.8433683998330398,0.0
19,7,0.75,0.8443283189099107,-0.09599190768708743
19,7,0.5,0.8257968108191893,1.7571589013850475
19,7,0.25,0.7819614829445001,6.1406916888539715
19,7,0.0,0.7308600375590759,11.250836227396388
19,8,1.0,0.8433683998330398,0.0
19,8,0.75,0.8111214444433599,3.224695538967992
19,8,0.5,0.7948421611596834,4.852623867335637
19,8,0.25,0.7783339686763643,6.503443115667551
19,8,0.0,0.7279220377093638,11.544636212367598
20,0,1.0,0.7868618498981853,0.0
20,0,0.75,0.7870731570220061,-0.021130712382078087
20,0,0.5,0.7793759369907186,0.7485912907466696
20,0,0.25,0.7589591839900113,2.790266590817403
20,0,0.0,0.7288627230757899,5.799912682239539
20,1,1.0,0.7868618498981853,0.0
20,1,0.75,0.756258381327204,3.0603468570981285
20,1,0.5,0.732921750011148,5.394009988703729
20,1,0.25,0.7219628434323277,6.489900646585756
20,1,0.0,0.6763660402029231,11.049580969526218
20,2,1.0,0.7868618498981853,0.0
20,2,0.75,0.77666706651487,1.0194783383315253
20,2,0.5,0.746300190833982,4.056165906420328
20,2,0.25,0.7081237975167134,7.873805238147192
20,2,0.0,0.6777359528352154,10.912589706296993
20,3,1.0,0.7868618498981853,0.0
20,3,0.75,0.7783323628992258,0.8529486998959501
20,3,0.5,0.7530391646976715,3.382268520051379
20,3,0.25,0.7477692065446249,3.909264335356044
20,3,0.0,0.7219768387915964,6.488501110658895
20,4,1.0,0.7868618498981853,0.0
20,4,0.75,0.7806936638935952,0.6168186004590126
20,4,0.5,0.7716397968170827,1.5222053081102582
20,4,0.25,0.7141618035949019,7.270004630328342
20,4,0.0,0.7129330953008742,7.3928754597311075
20,5,1.0,0.7868618498981853,0.0
20,5,0.75,0.7894160629487086,-0.25542130505232796
20,5,0.5,0.7814393046447502,0.5422545253435107
20,5,0.25,0.734003713450914,5.285813644727133
20,5,0.0,0.7077845904770245,7.907725942116084
20,6,1.0,0.7868618498981853,0.0
20,6,0.75,0.7915015654347066,-0.4639715536521316
20,6,0.5,0.7863712255077192,0.049062439046609896
20,6,0.25,0.7803698165437689,0.6492033354416393
20,6,0.0,0.7709751447520055,1.5886705146179847
20,7,1.0,0.7868618498981853,0.0
20,7,0.75,0.7888784714987924,-0.20166216006071158
20,7,0.5,0.7556244265439025,3.123742335428281
20,7,0.25,0.7162421175703908,7.061973232779451
20,7,0.0,0.6513199513052643,13.554189859292098
20,8,1.0,0.7868618498981853,0.0
20,8,0.75,0.7776244736066018,0.9237376291583499
20,8,0.5,0.7664223199992332,2.0439529898952147
20,8,0.25,0.7441188730098071,4.274297688837825
20,8,0.0,0.7021376126639285,8.472423723425681
21,0,1.0,0.7987882321670916,0.0
21,0,0.75,0.7727550425291585,2.6033189637933107
21,0,0.5,0.7329777375124645,6.581049465462707
21,0,0.25,0.6278362628216737,17.09519693454179
21,0,0.0,0.5307741185557623,26.80141136113293
21,1,1.0,0.7987882321670916,0.0
21,1,0.75,0.7698713389483369,2.891689321875468
21,1,0.5,0.7456865067930692,5.310172537402236
21,1,0.25,0.7152200197650427,8.356821240204892
21,1,0.0,0.6950768057876608,10.371142637943077
21,2,1.0,0.7987882321670916,0.0
21,2,0.75,0.7820285572723047,1.6759674894786913
21,2,0.5,0.7762780210148631,2.251021115222851
21,2,0.25,0.7575437729705635,4.124445919652809
21,2,0.0,0.7488880232126549,4.99002089544367
21,3,1.0,0.7987882321670916,0.0
21,3,0.75,0.7878464893202491,1.0941742846842462
21,3,0.5,0.7658840906356019,3.2904141531489683
21,3,0.25,0.7403619142707718,5.84263178963198
21,3,0.0,0.7227983679042677,7.598986426282394
21,4,1.0,0.7987882321670916,0.0
21,4,0.75,0.8012311045583421,-0.24428723912505168
21,4,0.5,0.7934240039150118,0.5364228252079828
21,4,0.25,0.7815309136948723,1.725731847221934
21,4,0.0,0.7527472092939644,4.604102287312717
21,5,1.0,0.7987882321670916,0.0
21,5,0.75,0.7984951474642196,0.029308470287203736
21,5,0.5,0.7796133900358195,1.9174842131272074
21,5,0.25,0.7465630875000299,5.2225144667061745
21,5,0.0,0.6811963009918482,11.759193117524337
21,6,1.0,0.7987882321670916,0.0
21,6,0.75,0.8019583762743817,-0.3170144107290107
21,6,0.5,0.805758949308451,-0.6970717141359439
21,6,0.25,0.7948590759342672,0.39291562328244156
21,6,0.0,0.7923943423417166,0.6393889825375032
21,7,1.0,0.7987882321670916,0.0
21,7,0.75,0.787292418299136,1.1495813867955618
21,7,0.5,0.7835003105697406,1.528792159735104
21,7,0.25,0.7712130162106725,2.7575215956419097
21,7,0.0,0.7248430546726001,7.394517749449148
21,8,1.0,0.7987882321670916,0.0
21,8,0.75,0.775221011210913,2.356722095617858
21,8,0.5,0.7495633384202214,4.922489374687022
21,8,0.25,0.7190846391261827,7.97035930409089
21,8,0.0,0.6871292824752714,11.165894969182022
22,0,1.0,0.69581059286804,0.0
22,0,0.75,0.6987722584534255,-0.29616655853854645
22,0,0.5,0.7050789889557708,-0.9268396087730779
22,0,0.25,0.6869464362349171,0.8864156633122899
22,0,0.0,0.5861765480181363,10.963404484990368
22,1,1.0,0.69581059286804,0.0
22,1,0.75,0.7113191942953948,-1.5508601427354773
22,1,0.5,0.7090381219856532,-1.3227529117613157
22,1,0.25,0.7026407794145068,-0.6830186546466721
22,1,0.0,0.6722536893832826,2.3556903484757474
22,2,1.0,0.69581059286804,0.0
22,2,0.75,0.6956851703781639,0.012542248987612581
22,2,0.5,0.6968442911515751,-0.10336982835350561
22,2,0.25,0.6825735053250717,1.3237087542968373
22,2,0.0,0.6498623827348424,4.594821013319761
22,3,1.0,0.69581059286804,0.0
22,3,0.75,0.6858410250108831,0.9969567857156969
22,3,0.5,0.6833896340159797,1.2420958852060293
22,3,0.25,0.6733182852860455,2.2492307581994497
22,3,0.0,0.6346685675714314,6.1142025296608615
22,4,1.0,0.69581059286804,0.0
22,4,0.75,0.6981743222841874,-0.23637294161473754
22,4,0.5,0.6891825523445664,0.6628040523473655
22,4,0.25,0.6306308487601481,6.517974410789195
22,4,0.0,0.5983045472287276,9.750604563931242
22,5,1.0,0.69581059286804,0.0
22,5,0.75,0.7003326087880468,-0.45220159200067833
22,5,0.5,0.6949707063379752,0.08398865300648373
22,5,0.25,0.6216341910382306,7.417640182980945
22,5,0.0,0.5661307176142361,12.967987525380398
22,6,1.0,0.69581059286804,0.0
22,6,0.75,0.702074566236633,-0.6263973368592968
22,6,0.5,0.7103558935657669,-1.454530069772686
22,6,0.25,0.6987186327148839,-0.2908039846843846
22,6,0.0,0.6823730901333467,1.3437502734693352
22,7,1.0,0.69581059286804,0.0
22,7,0.75,0.682003369241863,1.3807223626177034
22,7,0.5,0.6580407401712882,3.7769852696751816
22,7,0.25,0.6097730500557248,8.603754281231524
22,7,0.0,0.5462694134354751,14.954117943256495
22,8,1.0,0.69581059286804,0.0
22,8,0.75,0.6868964010691189,0.8914191798921167
22,8,0.5,0.665703701454974,3.0106891413065995
22,8,0.25,0.6526014241723439,4.320916869569613
22,8,0.0,0.5762793392489198,11.95312536191202
23,0,1.0,0.7644593930196117,0.0
23,0,0.75,0.7474751827933446,1.6984210226267171
23,0,0.5,0.6927510292744843,7.170836374512746
23,0,0.25,0.6333169029860254,13.114249003358635
23,0,0.0,0.591142803384735,17.331658963487673
23,1,1.0,0.7644593930196117,0.0
23,1,0.75,0.758946464954243,0.5512928065368738
23,1,0.5,0.6952634415288313,6.91959514907804
23,1,0.25,0.677742286794787,8.671710622482475
23,1,0.0,0.6589129066937395,10.554648632587227
23,2,1.0,0.7644593930196117,0.0
23,2,0.75,0.763590420105048,0.08689729145637815
23,2,0.5,0.7675306032028172,-0.30712101832054417
23,2,0.25,0.736480631446334,2.797876157327772
23,2,0.0,0.7133403471652043,5.11190458544074
23,3,1.0,0.7644593930196117,0.0
23,3,0.75,0.7747156923090367,-1.0256299289424953
23,3,0.5,0.7228426955674858,4.161669745212593
23,3,0.25,0.6410361802221252,12.342321279748658
23,3,0.0,0.6010241732253774,16.343521979423436
23,4,1.0,0.7644593930196117,0.0
23,4,0.75,0.7744789310015913,-1.001953798197952
23,4,0.5,0.7458208909917198,1.8638502027891968
23,4,0.25,0.7256576919399247,3.8801701079687057
23,4,0.0,0.7091565105100137,5.530288250959803
23,5,1.0,0.7644593930196117,0.0
23,5,0.75,0.7463734643863252,1.8085928633286508
23,5,0.5,0.6890611892338495,7.5398203785762234
23,5,0.25,0.6122062302834456,15.225316273616619
23,5,0.0,0.5255328112552042,23.89265817644075
23,6,1.0,0.7644593930196117,0.0
23,6,0.75,0.7481740041771792,1.628538884243258
23,6,0.5,0.7372727961153268,2.718659690428493
23,6,0.25,0.6941616906829616,7.029770233665012
23,6,0.0,0.6614167323865883,10.304266063302347
23,7,1.0,0.7644593930196117,0.0
23,7,0.75,0.7664346574518797,-0.19752644322679203
23,7,0.5,0.7142393457322972,5.022004728731455
23,7,0.25,0.6190742242596485,14.538516875996322
23,7,0.0,0.5626421991879571,20.181719383165465
23,8,1.0,0.7644593930196117,0.0
23,8,0.75,0.7545100832910677,0.994930972854402
23,8,0.5,0.7134569476664319,5.100244535317988
23,8,0.25,0.6696838311261388,9.477556189347291
23,8,0.0,0.5978546992538042,16.660469376580757
24,0,1.0,0.6824324401319211,0.0
24,0,0.75,0.6684915499727154,1.3940890159205632
24,0,0.5,0.6501174996169978,3.231494051492323
24,0,0.25,0.6092349722174528,7.319746791446824
24,0,0.0,0.576453403824238,10.597903630768302
24,1,1.0,0.6824324401319211,0.0
24,1,0.75,0.6806687511515965,0.17636889803245293
24,1,0.5,0.6625665817336968,1.98658583982243
24,1,0.25,0.6403738063124569,4.2058633819464175
24,1,0.0,0.6261152851194527,5.631715501246837
24,2,1.0,0.6824324401319211,0.0
24,2,0.75,0.6902239473859783,-0.7791507254057195
24,2,0.5,0.6855597897331984,-0.3127349601277363
24,2,0.25,0.6632186322804984,1.9213807851422682
24,2,0.0,0.618628677065524,6.380376306639701
24,3,1.0,0.6824324401319211,0.0
24,3,0.75,0.7311827398984889,-4.875029976656786
24,3,0.5,0.7709245867955961,-8.8492146663675
24,3,0.25,0.7689067075785951,-8.647426744667408
24,3,0.0,0.770978587257832,-8.854614712591092
24,4,1.0,0.6824324401319211,0.0
24,4,0.75,0.6527886848683008,2.9643755263620286
24,4,0.5,0.607973256432549,7.4459183699372105
24,4,0.25,0.5452543135983857,13.717812653353533
24,4,0.0,0.47535867679835897,20.70737633335621
24,5,1.0,0.6824324401319211,0.0
24,5,0.75,0.6273035882468456,5.512885188507544
24,5,0.5,0.5318074946935814,15.06249454383397
24,5,0.25,0.42532125860575465,25.711118152616642
24,5,0.0,0.37854873621002655,30.38837039218945
24,6,1.0,0.6824324401319211,0.0
24,6,0.75,0.6796297433463957,0.28026967855253604
24,6,0.5,0.6613275603831601,2.1104879748760963
24,6,0.25,0.6461038006378425,3.6328639494078607
24,6,0.0,0.6233118425865398,5.912059754538124
24,7,1.0,0.6824324401319211,0.0
24,7,0.75,0.6857470763058195,-0.33146361738984886
24,7,0.5,0.6556960050822274,2.6736435049693696
24,7,0.25,0.6092368634829401,7.319557664898091
24,7,0.0,0.5354597064094538,14.697273372246721
24,8,1.0,0.6824324401319211,0.0
24,8,0.75,0.6756316863518375,0.6800753780083602
24,8,0.5,0.6626028252209974,1.982961491092361
24,8,0.25,0.6596148269149792,2.2817613216941868
24,8,0.0,0.6488072121467476,3.3625227985173423
25,0,1.0,0.7632432777845756,0.0
25,0,0.75,0.7628574890104866,0.03857887740890131
25,0,0.5,0.763164748369031,0.007852941554453707
25,0,0.25,0.7326955229922344,3.0547754792341175
25,0,0.0,0.7116689818453967,5.157429593917884
25,1,1.0,0.7632432777845756,0.0
25,1,0.75,0.7875426380400492,-2.4299360255473634
25,1,0.5,0.764745428192131,-0.15021504075554137
25,1,0.25,0.7218181491217746,4.142512866280102
25,1,0.0,0.6798774456494991,8.336583213507643
25,2,1.0,0.7632432777845756,0.0
25,2,0.75,0.7204848024467732,4.275847533780242
25,2,0.5,0.6991045748449188,6.413870293965673
25,2,0.25,0.6423675603046226,12.087571747995296
25,2,0.0,0.6008792218660625,16.23640559185131
25,3,1.0,0.7632432777845756,0.0
25,3,0.75,0.7499785628807416,1.3264714903833963
25,3,0.5,0.7194140074542659,4.38292703303097
25,3,0.25,0.6113199916714716,15.192328611310401
25,3,0.0,0.5027569372301784,26.048634055439713
25,4,1.0,0.7632432777845756,0.0
25,4,0.75,0.7247618537490879,3.848142403548771
25,4,0.5,0.6636817092013726,9.956156858320298
25,4,0.25,0.6061584083583764,15.708486942619915
25,4,0.0,0.5406330948784926,22.26101829060829
25,5,1.0,0.7632432777845756,0.0
25,5,0.75,0.6988173046996576,6.442597308491793
25,5,0.5,0.6785103471786481,8.473293060592745
25,5,0.25,0.62258282949659,14.066044828798551
25,5,0.0,0.5367706512222843,22.647262656229127
25,6,1.0,0.7632432777845756,0.0
25,6,0.75,0.7701251102292769,-0.6881832444701308
25,6,0.5,0.771025225968362,-0.7781948183786414
25,6,0.25,0.7683267151988342,-0.5083437414258651
25,6,0.0,0.7512024533819376,1.2040824402637984
25,7,1.0,0.7632432777845756,0.0
25,7,0.75,0.7564282696940023,0.6815008090573227
25,7,0.5,0.7460093622980327,1.723391548654285
25,7,0.25,0.7097782082176494,5.34650695669262
25,7,0.0,0.6314074972765092,13.183578050806632
25,8,1.0,0.7632432777845756,0.0
25,8,0.75,0.7798358959055175,-1.6592618120941927
25,8,0.5,0.7819257756062609,-1.8682497821685295
25,8,0.25,0.778726042530754,-1.548276474617838
25,8,0.0,0.7391714368672936,2.4071840917281984
26,0,1.0,0.7240199586983339,0.0
26,0,0.75,0.7207991510431689,0.322080765516497
26,0,0.5,0.7001342234484901,2.388573524984383
26,0,0.25,0.6829152729163595,4.110468578197446
26,0,0.0,0.632285356732667,9.173460196566696
26,1,1.0,0.7240199586983339,0.0
26,1,0.75,0.7394654393789992,-1.5445480680665313
26,1,0.5,0.7416691027301122,-1.7649144031778308
26,1,0.25,0.7373526198090011,-1.333266111066722
26,1,0.0,0.7058912508061749,1.8128707892159035
26,2,1.0,0.7240199586983339,0.0
26,2,0.75,0.7334594755598061,-0.9439516861472153
26,2,0.5,0.7349173713961827,-1.089741269784883
26,2,0.25,0.7194797401927104,0.45402185056234723
26,2,0.0,0.6882957582803828,3.57242004179511
26,3,1.0,0.7240199586983339,0.0
26,3,0.75,0.7310570597480096,-0.7037101049675698
26,3,0.5,0.7316720368344849,-0.7652078136150986
26,3,0.25,0.7272614111618745,-0.3241452463540573
26,3,0.0,0.7191481920778282,0.4871766620505702
26,4,1.0,0.7240199586983339,0.0
26,4,0.75,0.7100883990882579,1.3931559610075972
26,4,0.5,0.690613994210032,3.340596448830191
26,4,0.25,0.6480253145034732,7.599464419486068
26,4,0.0,0.6256205737201399,9.8399384978194
26,5,1.0,0.7240199586983339,0.0
26,5,0.75,0.717590433898337,0.6429524799996922
26,5,0.5,0.6251026829120375,9.891727578629638
26,5,0.25,0.49484709695270096,22.917286174563294
26,5,0.0,0.4414774402131252,28.254251848520873
26,6,1.0,0.7240199586983339,0.0
26,6,0.75,0.7330354564356902,-0.9015497737356326
26,6,0.5,0.7316838151290243,-0.7663856430690341
26,6,0.25,0.7126427446376802,1.1377214060653729
26,6,0.0,0.6860037215990948,3.801623709923907
26,7,1.0,0.7240199586983339,0.0
26,7,0.75,0.750351131867068,-2.6331173168734123
26,7,0.5,0.7393044513096987,-1.5284492611364775
26,7,0.25,0.7199813039809544,0.40386547173795195
26,7,0.0,0.6855236992470013,3.8496259451332615
26,8,1.0,0.7240199586983339,0.0
26,8,0.75,0.7151873226766515,0.8832636021682383
26,8,0.5,0.7020950064865921,2.1924952211741844
26,8,0.25,0.6848129512113224,3.920700748701156
26,8,0.0,0.65409402865989,6.992593003844394
27,0,1.0,0.8627039885660575,0.0
27,0,0.75,0.8701714491425778,-0.7467460576520368
27,0,0.5,0.8758874490390216,-1.3183460472964148
27,0,0.25,0.838570587033272,2.4133401532785426
27,0,0.0,0.7978337101106157,6.48702784554418
27,1,1.0,0.8627039885660575,0.0
27,1,0.75,0.8598472871132719,0.2856701452785604
27,1,0.5,0.8568213032187766,0.5882685347280869
27,1,0.25,0.8409410612742068,2.1762927291850698
27,1,0.0,0.8340100196910641,2.8693968874993314
27,2,1.0,0.8627039885660575,0.0
27,2,0.75,0.8495597107139934,1.3144277852064068
27,2,0.5,0.8391088802952893,2.359510827076816
27,2,0.25,0.8197242648517011,4.297972371435632
27,2,0.0,0.7803634013992069,8.234058716685055
27,3,1.0,0.8627039885660575,0.0
27,3,0.75,0.8760047288214523,-1.330074025539485
27,3,0.5,0.866514631424367,-0.38106428583095653
27,3,0.25,0.8630762244479282,-0.037223588187074164
27,3,0.0,0.8398422907561433,2.2861697809914205
27,4,1.0,0.8627039885660575,0.0
27,4,0.75,0.861670773957056,0.10332146090014094
27,4,0.5,0.8471207315632898,1.5583257002767636
27,4,0.25,0.8352627847534468,2.7441203812610615
27,4,0.0,0.7690589016253317,9.36450869407257
27,5,1.0,0.8627039885660575,0.0
27,5,0.75,0.8331202857302424,2.958370283581502
27,5,0.5,0.756368790853724,10.633519771233345
27,5,0.25,0.6852988777520426,17.74051108140149
27,5,0.0,0.5461999684883374,31.650402007772005
27,6,1.0,0.8627039885660575,0.0
27,6,0.75,0.8631111641981207,-0.040717563206327245
27,6,0.5,0.8630344320782439,-0.03304435121864735
27,6,0.25,0.8453862702589521,1.7317718307105379
27,6,0.0,0.8362599085317707,2.6444080034286777
27,7,1.0,0.8627039885660575,0.0
27,7,0.75,0.8636105866132062,-0.09065980471487656
27,7,0.5,0.844554101418056,1.8149887148001476
27,7,0.25,0.7617858860662718,10.091810249978561
27,7,0.0,0.6894956221357135,17.320836643034397
27,8,1.0,0.8627039885660575,0.0
27,8,0.75,0.8724714376388447,-0.976744907278726
27,8,0.5,0.8751626003591925,-1.245861179313501
27,8,0.25,0.8553468526241277,0.7357135941929771
27,8,0.0,0.7788543956079081,8.38495929581493
28,0,1.0,0.8406616726100727,0.0
28,0,0.75,0.8557676596998939,-1.5105987089821138
28,0,0.5,0.8654665494285283,-2.4804876818455557
28,0,0.25,0.8295869177448125,1.1074754865260217
28,0,0.0,0.7924970410270583,4.816463158301443
28,1,1.0,0.8406616726100727,0.0
28,1,0.75,0.85290871959282,-1.2247046982747256
28,1,0.5,0.8417482128999765,-0.10865402899037369
28,1,0.25,0.8155394896824523,2.5122182927620473
28,1,0.0,0.7910044902559628,4.965718235410998
28,2,1.0,0.8406616726100727,0.0
28,2,0.75,0.8465568662689819,-0.5895193658909115
28,2,0.5,0.8436222080216575,-0.2960535411584808
28,2,0.25,0.8289213716768904,1.1740300933182346
28,2,0.0,0.7930672846157211,4.759438799435167
28,3,1.0,0.8406616726100727,0.0
28,3,0.75,0.8557113189007092,-1.5049646290636431
28,3,0.5,0.8414887931358681,-0.08271205257953662
28,3,0.25,0.795634700295503,4.502697231456976
28,3,0.0,0.7385868014619812,10.207487114809155
28,4,1.0,0.8406616726100727,0.0
28,4,0.75,0.8380956580989531,0.25660145111195964
28,4,0.5,0.7934636118598382,4.719806075023458
28,4,0.25,0.7641487789146532,7.651289369541958
28,4,0.0,0.7386381929659337,10.202347964413905
28,5,1.0,0.8406616726100727,0.0
28,5,0.75,0.819180249845221,2.1481422764851765
28,5,0.5,0.7723083854478193,6.835328716225342
28,5,0.25,0.7199023831582441,12.075928945182868
28,5,0.0,0.622258239126581,21.84034334834918
28,6,1.0,0.8406616726100727,0.0
28,6,0.75,0.8425535162948637,-0.18918436847910058
28,6,0.5,0.842697786966609,-0.20361143565362783
28,6,0.25,0.8342924414755973,0.6369231134475406
28,6,0.0,0.8344668118226557,0.6194860787417045
28,7,1.0,0.8406616726100727,0.0
28,7,0.75,0.8428957828451638,-0.22341102350910136
28,7,0.5,0.8343683732191913,0.6293299390881413
28,7,0.25,0.8005882602544424,4.007341235563033
28,7,0.0,0.7246321399795208,11.602953263055193
28,8,1.0,0.8406616726100727,0.0
28,8,0.75,0.845079023973057,-0.44173513629842676
28,8,0.5,0.8470399755901832,-0.637830298011044
28,8,0.25,0.8407697982375657,-0.010812562749296095
28,8,0.0,0.7730952391543494,6.756643345572333
29,0,1.0,0.7815276033711394,0.0
29,0,0.75,0.7762860244769213,0.5241578894218057
29,0,0.5,0.7636821474314884,1.7845455939650923
29,0,0.25,0.7116059498762374,6.9921653494901985
29,0,0.0,0.6583573376325844,12.317026573855493
29,1,1.0,0.7815276033711394,0.0
29,1,0.75,0.7868438235186991,-0.5316220147559725
29,1,0.5,0.7713316197944178,1.019598357672158
29,1,0.25,0.755963104254143,2.556449911699632
29,1,0.0,0.7594012795076003,2.2126323863539077
29,2,1.0,0.7815276033711394,0.0
29,2,0.75,0.7929374189918243,-1.1409815620684993
29,2,0.5,0.7958803099446787,-1.4352706573539376
29,2,0.25,0.7027219850983453,7.880561827279409
29,2,0.0,0.5976009477046443,18.3926655666495
29,3,1.0,0.7815276033711394,0.0
29,3,0.75,0.783054083211996,-0.15264798408566316
29,3,0.5,0.7773381121240359,0.41894912471034385
29,3,0.25,0.7654567061122197,1.6070897258919636
29,3,0.0,0.7502476227295942,3.1279980641545135
29,4,1.0,0.7815276033711394,0.0
29,4,0.75,0.7885497355423587,-0.7022132171219386
29,4,0.5,0.7651054446040548,1.6422158767084527
29,4,0.25,0.7163672095937719,6.516039377736749
29,4,0.0,0.6850238769057041,9.650372646543525
29,5,1.0,0.7815276033711394,0.0
29,5,0.75,0.790881894000538,-0.9354290629398632
29,5,0.5,0.7687993674263697,1.2728235944769684
29,5,0.25,0.6967535606800348,8.477404269110455
29,5,0.0,0.6298153031870594,15.171230018408
29,6,1.0,0.7815276033711394,0.0
29,6,0.75,0.7951365355413695,-1.3608932170230181
29,6,0.5,0.7985396955237163,-1.701209215257693
29,6,0.25,0.7933961707370695,-1.1868567365930116
29,6,0.0,0.7837626258450914,-0.22350224739520197
29,7,1.0,0.7815276033711394,0.0
29,7,0.75,0.7917439333574792,-1.0216329986339812
29,7,0.5,0.7896444281524926,-0.8116824781353227
29,7,0.25,0.7761556966364943,0.5371906734645049
29,7,0.0,0.7276922941442028,5.383530922693658
29,8,1.0,0.7815276033711394,0.0
29,8,0.75,0.7732638152727352,0.8263788098404112
29,8,0.5,0.7656702215878614,1.5857381783278002
29,8,0.25,0.7431948150569199,3.833278831421949
29,8,0.0,0.6951600673857086,8.636753598543079
30,0,1.0,0.7791073828527821,0.0
30,0,0.75,0.7957489426941307,-1.6641559841348519
30,0,0.5,0.802801736007843,-2.3694353155060854
30,0,0.25,0.7834609799123866,-0.4353597059604475
30,0,0.0,0.7432938807407521,3.581350211203005
30,1,1.0,0.7791073828527821,0.0
30,1,0.75,0.7629553733743452,1.615200947843698
30,1,0.5,0.7460841202131744,3.3023262639607753
30,1,0.25,0.7171374036643478,6.196997918843438
30,1,0.0,0.6805891711787261,9.851821167405605
30,2,1.0,0.7791073828527821,0.0
30,2,0.75,0.7651254983836425,1.3981884469139616
30,2,0.5,0.758023426852152,2.1083956000630177
30,2,0.25,0.7506230285207791,2.8484354332003026
30,2,0.0,0.72759061468972,5.1516768163062165
30,3,1.0,0.7791073828527821,0.0
30,3,0.75,0.7731903677559807,0.5917015096801426
30,3,0.5,0.7798103746407272,-0.07029917879450842
30,3,0.25,0.7737908718263455,0.5316511026436599
30,3,0.0,0.7552137650787608,2.3893617774021325
30,4,1.0,0.7791073828527821,0.0
30,4,0.75,0.771837240252341,0.7270142600441121
30,4,0.5,0.7758493834246089,0.3257999428173286
30,4,0.25,0.750528102770701,2.8579280082081104
30,4,0.0,0.706854372852551,7.22530100002311
30,5,1.0,0.7791073828527821,0.0
30,5,0.75,0.7898393782986199,-1.0731995445837805
30,5,0.5,0.7769642833067472,0.21430995460349767
30,5,0.25,0.6605090050612211,11.859837779156102
30,5,0.0,0.5842963110134177,19.48110718393644
30,6,1.0,0.7791073828527821,0.0
30,6,0.75,0.7824347012267902,-0.3327318374008015
30,6,0.5,0.7847156720647376,-0.5608289211955442
30,6,0.25,0.8024368278792005,-2.3329445026418316
30,6,0.0,0.8204157229751691,-4.130834012238694
30,7,1.0,0.7791073828527821,0.0
30,7,0.75,0.790601671495019,-1.1494288642236894
30,7,0.5,0.7792601085040947,-0.015272565131252414
30,7,0.25,0.7632699449627327,1.5837437890049433
30,7,0.0,0.7279861559323899,5.112122692039223
30,8,1.0,0.7791073828527821,0.0
30,8,0.75,0.793314349781839,-1.4206966929056875
30,8,0.5,0.7921898948404067,-1.3082511987624557
30,8,0.25,0.8018512658052415,-2.2743882952459327
30,8,0.0,0.7791171567009059,-0.0009773848123728612
31,0,1.0,0.7080918140680103,0.0
31,0,0.75,0.710053879065333,-0.19620649973227655
31,0,0.5,0.6752991325842905,3.279268148371972
31,0,0.25,0.5648492812372728,14.324253283073741
31,0,0.0,0.5190674456913009,18.902436837670933
31,1,1.0,0.7080918140680103,0.0
31,1,0.75,0.6944560301038873,1.3635783964122905
31,1,0.5,0.6885769079444357,1.9514906123574538
31,1,0.25,0.6770973522860319,3.09944617819784
31,1,0.0,0.6561458393540174,5.1945974713992875
31,2,1.0,0.7080918140680103,0.0
31,2,0.75,0.7140829486481255,-0.5991134580115243
31,2,0.5,0.716571425718529,-0.8479611650518804
31,2,0.25,0.6941946398700174,1.3897174197992856
31,2,0.0,0.6515983956909943,5.649341837701593
31,3,1.0,0.7080918140680103,0.0
31,3,0.75,0.7273861581647854,-1.9294344096775107
31,3,0.5,0.7414647571921035,-3.3372943124093224
31,3,0.25,0.7370855975864328,-2.8993783518422522
31,3,0.0,0.7138075136770413,-0.5715699609031066
31,4,1.0,0.7080918140680103,0.0
31,4,0.75,0.7012779071245522,0.681390694345807
31,4,0.5,0.7069602889210376,0.11315251469726784
31,4,0.25,0.6834575286593628,2.4634285408647427
31,4,0.0,0.6447161796352275,6.337563443278271
31,5,1.0,0.7080918140680103,0.0
31,5,0.75,0.6972687677565276,1.0823046311482676
31,5,0.5,0.6545814209949259,5.351039307308437
31,5,0.25,0.6101403976224636,9.795141644554661
31,5,0.0,0.5121079180244572,19.598389604355305
31,6,1.0,0.7080918140680103,0.0
31,6,0.75,0.6980153446409268,1.00764694270834
31,6,0.5,0.6917348905533365,1.6356923514673771
31,6,0.25,0.6893920382337025,1.8699775834307708
31,6,0.0,0.6794326891715591,2.865912489645117
31,7,1.0,0.7080918140680103,0.0
31,7,0.75,0.6882207004817789,1.9871113586231393
31,7,0.5,0.6664819117193339,4.160990234867635
31,7,0.25,0.6401064212241315,6.798539284387872
31,7,0.0,0.6095206934004689,9.857112066754137
31,8,1.0,0.7080918140680103,0.0
31,8,0.75,0.6898692445708065,1.82225694972038
31,8,0.5,0.6470689703588359,6.102284370917433
31,8,0.25,0.6140560116979054,9.40358023701049
31,8,0.0,0.5955509262474282,11.254088782058203
32,0,1.0,0.7316906868149105,0.0
32,0,0.75,0.7320613538628327,-0.037066704792221294
32,0,0.5,0.7203569067101177,1.13337801047928
32,0,0.25,0.7034367903495645,2.825389646534593
32,0,0.0,0.7010929005788757,3.0597786236034707
32,1,1.0,0.7316906868149105,0.0
32,1,0.75,0.7177339374633843,1.3956749351526132
32,1,0.5,0.680351382176625,5.1339304638285395
32,1,0.25,0.6490794249088743,8.261126190603619
32,1,0.0,0.6259902379699117,10.570044884499874
32,2,1.0,0.7316906868149105,0.0
32,2,0.75,0.7437723813754599,-1.2081694560549416
32,2,0.5,0.7505354781184846,-1.8844791303574193
32,2,0.25,0.7272156316163314,0.44750551985790477
32,2,0.0,0.6886403485393833,4.305033827552718
32,3,1.0,0.7316906868149105,0.0
32,3,0.75,0.7278597244404251,0.3830962374485325
32,3,0.5,0.7233266608414084,0.8364025973502054
32,3,0.25,0.701484185684601,3.0206501130309427
32,3,0.0,0.6898683627199693,4.182232409494113
32,4,1.0,0.7316906868149105,0.0
32,4,0.75,0.7279542704455688,0.3736416369341633
32,4,0.5,0.7090103639032562,2.2680322911654227
32,4,0.25,0.6666693843909728,6.502130242393767
32,4,0.0,0.6265642803397368,10.512640647517369
32,5,1.0,0.7316906868149105,0.0
32,5,0.75,0.7418067281528535,-1.0116041337943082
32,5,0.5,0.6649701318101516,6.6720555004758815
32,5,0.25,0.524952105807491,20.67385810074195
32,5,0.0,0.430295330013571,30.139535680133946
32,6,1.0,0.7316906868149105,0.0
32,6,0.75,0.7214792546216894,1.021143219322107
32,6,0.5,0.6978484548910825,3.384223192382796
32,6,0.25,0.6788621437334532,5.2828543081457235
32,6,0.0,0.6588025310480011,7.288815576690933
32,7,1.0,0.7316906868149105,0.0
32,7,0.75,0.710212124462115,2.147856235279544
32,7,0.5,0.6676512714019986,6.40394154129118
32,7,0.25,0.6306853773799801,10.100530943493036
32,7,0.0,0.5777266414501343,15.396404536477615
32,8,1.0,0.7316906868149105,0.0
32,8,0.75,0.7164820369998314,1.5208649815079078
32,8,0.5,0.6908281184008735,4.08625684140369
32,8,0.25,0.6449045444453771,8.67861423695333
32,8,0.0,0.6050051849370555,12.668550187785499
33,0,1.0,0.8959845340661531,0.0
33,0,0.75,0.9048737399084958,-0.8889205842342762
33,0,0.5,0.8960887785716254,-0.010424450547230624
33,0,0.25,0.8360812400560903,5.990329401006278
33,0,0.0,0.7867467231668157,10.923781089933737
33,1,1.0,0.8959845340661531,0.0
33,1,0.75,0.897140976638934,-0.11564425727809136
33,1,0.5,0.8708187628846116,2.5165771181541507
33,1,0.25,0.8094650979990261,8.651943606712697
33,1,0.0,0.735319013682562,16.066552038359106
33,2,1.0,0.8959845340661531,0.0
33,2,0.75,0.8892746795037505,0.6709854562402584
33,2,0.5,0.8745985424512939,2.138599161485921
33,2,0.25,0.8482553671655595,4.772916690059359
33,2,0.0,0.8361168087830986,5.986772528305451
33,3,1.0,0.8959845340661531,0.0
33,3,0.75,0.8963637749200817,-0.03792408539285974
33,3,0.5,0.897082643021459,-0.1098108955305932
33,3,0.25,0.8767069796437714,1.927755442238166
33,3,0.0,0.8300704313651701,6.591410270098297
33,4,1.0,0.8959845340661531,0.0
33,4,0.75,0.8970301687693301,-0.10456347031769786
33,4,0.5,0.899748202137616,-0.3763668071462889
33,4,0.25,0.907831942169123,-1.1847408102969914
33,4,0.0,0.8963526388684373,-0.03681048022842193
33,5,1.0,0.8959845340661531,0.0
33,5,0.75,0.8922719593066573,0.37125747594958236
33,5,0.5,0.8820641182665233,1.392041579962977
33,5,0.25,0.8560149179974177,3.996961606873539
33,5,0.0,0.8012411173380757,9.47434167280774
33,6,1.0,0.8959845340661531,0.0
33,6,0.75,0.9007514006946747,-0.476686662852166
33,6,0.5,0.8990268392074705,-0.3042305141317425
33,6,0.25,0.89123936128085,0.47451727853030645
33,6,0.0,0.8663128556409335,2.967167842521956
33,7,1.0,0.8959845340661531,0.0
33,7,0.75,0.8948868909861896,0.10976430799635173
33,7,0.5,0.8699307924429284,2.6053741623224713
33,7,0.25,0.8404387045852448,5.554582948090825
33,7,0.0,0.7531559639466708,14.282857011948224
33,8,1.0,0.8959845340661531,0.0
33,8,0.75,0.8933032730738939,0.26812609922591824
33,8,0.5,0.8732710787279288,2.271345533822433
33,8,0.25,0.8466853456639933,4.929918840215974
33,8,0.0,0.7674640832732549,12.85204507928982
34,0,1.0,0.8455825459575614,0.0
34,0,0.75,0.8443352022069782,0.12473437505832186
34,0,0.5,0.8323640726674737,1.321847329008774
34,0,0.25,0.7982210830412173,4.736146291634413
34,0,0.0,0.7527369404678392,9.28456054897222
34,1,1.0,0.8455825459575614,0.0
34,1,0.75,0.8502969620006664,-0.4714416043104963
34,1,0.5,0.8444427202096495,0.11398257479119378
34,1,0.25,0.8452730387252808,0.030950723228062582
34,1,0.0,0.8241368096303228,2.1445736327238674
34,2,1.0,0.8455825459575614,0.0
34,2,0.75,0.8518386384725697,-0.6256092515008249
34,2,0.5,0.8457566461893753,-0.017410023181385625
34,2,0.25,0.8098986185248755,3.568392743268589
34,2,0.0,0.6931491483699416,15.243339758761987
34,3,1.0,0.8455825459575614,0.0
34,3,0.75,0.8458325078149629,-0.02499618574014484
34,3,0.5,0.8235416231536413,2.2040922803920115
34,3,0.25,0.7961170038899922,4.946554206756925
34,3,0.0,0.6983757939339843,14.720675202357715
34,4,1.0,0.8455825459575614,0.0
34,4,0.75,0.8544921208471344,-0.8909574889573002
34,4,0.5,0.8343570813048321,1.1225464652729333
34,4,0.25,0.8111492815827208,3.443326437484062
34,4,0.0,0.7729681429588253,7.261440299873612
34,5,1.0,0.8455825459575614,0.0
34,5,0.75,0.8440580574969809,0.15244884605805087
34,5,0.5,0.8030128563386874,4.2569689618874085
34,5,0.25,0.6577549568829959,18.782758907456554
34,5,0.0,0.4847538176569772,36.08287283005842
34,6,1.0,0.8455825459575614,0.0
34,6,0.75,0.8508305591118503,-0.5248013154288911
34,6,0.5,0.8508420320298439,-0.5259486072282438
34,6,0.25,0.8395717865693019,0.6010759388259568
34,6,0.0,0.8271792907818528,1.8403255175708622
34,7,1.0,0.8455825459575614,0.0
34,7,0.75,0.8541023918968187,-0.8519845939257253
34,7,0.5,0.8451284078308093,0.04541381267521016
34,7,0.25,0.8407282511544764,0.48542948030850797
34,7,0.0,0.804523392112976,4.105915384458547
34,8,1.0,0.8455825459575614,0.0
34,8,0.75,0.8534496931398944,-0.7867147182332945
34,8,0.5,0.8379533876568249,0.7629158300736516
34,8,0.25,0.815191367032627,3.039117892493448
34,8,0.0,0.7800205309032071,6.556201505435433
35,0,1.0,0.6641035566477583,0.0
35,0,0.75,0.6729183604401722,-0.8814803792413839
35,0,0.5,0.6643468614542782,-0.024330480651990616
35,0,0.25,0.6267444818437649,3.7359074803993475
35,0,0.0,0.615087651773233,4.901590487452534
35,1,1.0,0.6641035566477583,0.0
35,1,0.75,0.6685478795421466,-0.44443228943882307
35,1,0.5,0.6781539050892598,-1.4050348441501437
35,1,0.25,0.6763863051098538,-1.2282748462095427
35,1,0.0,0.669911985503107,-0.5808428855348713
35,2,1.0,0.6641035566477583,0.0
35,2,0.75,0.6774825472630351,-1.337899061527681
35,2,0.5,0.6939229268391851,-2.9819370191426775
35,2,0.25,0.6948081129487124,-3.0704556300954033
35,2,0.0,0.6675681397787712,-0.3464583131012833
35,3,1.0,0.6641035566477583,0.0
35,3,0.75,0.6565824791490823,0.7521077498676032
35,3,0.5,0.6347998318620591,2.9303724785699203
35,3,0.25,0.6315234150132532,3.2580141634505178
35,3,0.0,0.6301570562706129,3.3946500377145417
35,4,1.0,0.6641035566477583,0.0
35,4,0.75,0.6648023658967572,-0.06988092489988995
35,4,0.5,0.6673414346381588,-0.32378779904004285
35,4,0.25,0.660728614928114,0.33749417196443643
35,4,0.0,0.6510138787735077,1.3089677874250638
35,5,1.0,0.6641035566477583,0.0
35,5,0.75,0.663847941306166,0.025561534159235233
35,5,0.5,0.648937142633789,1.5166414013969343
35,5,0.25,0.6350835269424004,2.9020029705357886
35,5,0.0,0.5585013017279592,10.560225491979914
35,6,1.0,0.6641035566477583,0.0
35,6,0.75,0.6651624159472689,-0.10588592995105506
35,6,0.5,0.6588369728991526,0.526658374860578
35,6,0.25,0.6646998459809823,-0.059628933322397604
35,6,0.0,0.656576417704791,0.7527138942967304
35,7,1.0,0.6641035566477583,0.0
35,7,0.75,0.6793764341221534,-1.5272877474395097
35,7,0.5,0.6779053004070565,-1.3801743759298213
35,7,0.25,0.6766314093020545,-1.2527852654296123
35,7,0.0,0.6654159550915707,-0.13123984438123681
35,8,1.0,0.6641035566477583,0.0
35,8,0.75,0.6667485967145366,-0.2645040066778237
35,8,0.5,0.6650009121468712,-0.08973554991128507
35,8,0.25,0.6493478488591724,1.4755707788585926
35,8,0.0,0.6091102446876782,5.499331196008017
36,0,1.0,0.6491850288145884,0.0
36,0,0.75,0.6454542416043292,0.3730787210259212
36,0,0.5,0.6108415727957539,3.8343456018834488
36,0,0.25,0.6061276969237089,4.305733189087945
36,0,0.0,0.5948222746293107,5.436275418527769
36,1,1.0,0.6491850288145884,0.0
36,1,0.75,0.6239019775614687,2.5283051253119693
36,1,0.5,0.6072722625773473,4.1912766237241055
36,1,0.25,0.5830502304712831,6.613479834330526
36,1,0.0,0.5505936451677069,9.859138364688146
36,2,1.0,0.6491850288145884,0.0
36,2,0.75,0.6556002934628553,-0.6415264648266916
36,2,0.5,0.6578690244055646,-0.8683995590976212
36,2,0.25,0.6255550006288385,2.3630028185749885
36,2,0.0,0.6149729887034436,3.421204011114476
36,3,1.0,0.6491850288145884,0.0
36,3,0.75,0.6505004496460793,-0.13154208314909432
36,3,0.5,0.6396867536872078,0.9498275127380551
36,3,0.25,0.6206806372087702,2.850439160581819
36,3,0.0,0.5895027123162319,5.968231649835653
36,4,1.0,0.6491850288145884,0.0
36,4,0.75,0.666145366797767,-1.6960337983178642
36,4,0.5,0.676542862859018,-2.7357834044429596
36,4,0.25,0.6740408130977533,-2.485578428316493
36,4,0.0,0.6411819695637804,0.800305925080802
36,5,1.0,0.6491850288145884,0.0
36,5,0.75,0.6535802764999257,-0.4395247685337278
36,5,0.5,0.6726045947573573,-2.341956594276895
36,5,0.25,0.6738321200972573,-2.4647091282668954
36,5,0.0,0.3892284241167211,25.99566046978673
36,6,1.0,0.6491850288145884,0.0
36,6,0.75,0.6542530598092265,-0.5068030994638151
36,6,0.5,0.6360644737989567,1.3120555015631696
36,6,0.25,0.637283331447264,1.1901697367324382
36,6,0.0,0.6188005509172972,3.038447789729115
36,7,1.0,0.6491850288145884,0.0
36,7,0.75,0.6451754838102406,0.4009545004347803
36,7,0.5,0.6061767622691853,4.300826654540312
36,7,0.25,0.5641209680631557,8.50640607514327
36,7,0.0,0.5251966767228871,12.398835209170134
36,8,1.0,0.6491850288145884,0.0
36,8,0.75,0.6281142429715578,2.107078584303057
36,8,0.5,0.597784625073096,5.140040374149235
36,8,0.25,0.5844076190738671,6.477740974072132
36,8,0.0,0.5455276911320945,10.365733768249385
37,0,1.0,0.8471087172240641,0.0
37,0,0.75,0.8454477458800258,0.1660971344038309
37,0,0.5,0.836016742246782,1.1091974977282093
37,0,0.25,0.8062285395305078,4.088017769355634
37,0,0.0,0.7530784362118694,9.40302810121947
37,1,1.0,0.8471087172240641,0.0
37,1,0.75,0.8379168847448606,0.9191832479203521
37,1,0.5,0.8395899918803424,0.7518725343721666
37,1,0.25,0.8262284981161458,2.0880219107918263
37,1,0.0,0.8027187377529681,4.438997947109602
37,2,1.0,0.8471087172240641,0.0
37,2,0.75,0.8535815143201715,-0.6472797096107374
37,2,0.5,0.8362136804580584,1.0895036766005672
37,2,0.25,0.7896579398883814,5.745077733568271
37,2,0.0,0.736498052621761,11.061066460230307
37,3,1.0,0.8471087172240641,0.0
37,3,0.75,0.8430741182567634,0.403459896730074
37,3,0.5,0.8380030541928043,0.9105663031259814
37,3,0.25,0.8252927352222403,2.1815982001823775
37,3,0.0,0.8156421982979655,3.146651892609864
37,4,1.0,0.8471087172240641,0.0
37,4,0.75,0.863539889525668,-1.6431172301603847
37,4,0.5,0.8471146002862404,-0.0005883062176303966
37,4,0.25,0.7993338136150776,4.777490360898651
37,4,0.0,0.783938586928047,6.317013029601714
37,5,1.0,0.8471087172240641,0.0
37,5,0.75,0.8567135409277913,-0.9604823703727172
37,5,0.5,0.8683272858842789,-2.1218568660214765
37,5,0.25,0.8549223879143985,-0.781367069033434
37,5,0.0,0.8337294811925949,1.3379236031469177
37,6,1.0,0.8471087172240641,0.0
37,6,0.75,0.838397677838173,0.8711039385891128
37,6,0.5,0.8318749051792671,1.5233812044797013
37,6,0.25,0.798892388578628,4.821632864543613
37,6,0.0,0.7792213656344091,6.788735158965498
37,7,1.0,0.8471087172240641,0.0
37,7,0.75,0.854473700322276,-0.7364983098211875
37,7,0.5,0.8432127108281187,0.38960063959454505
37,7,0.25,0.8304428475004371,1.6665869723627047
37,7,0.0,0.7893985551074022,5.771016211666192
37,8,1.0,0.8471087172240641,0.0
37,8,0.75,0.8436294771428913,0.3479240081172841
37,8,0.5,0.8195566437714042,2.7552073452659864
37,8,0.25,0.7972608436919068,4.9847873532157365
37,8,0.0,0.7848410451417352,6.226767208232886
38,0,1.0,0.8082409217155404,0.0
38,0,0.75,0.7873976448622712,2.0843276853269255
38,0,0.5,0.770161370155201,3.8079551560339375
38,0,0.25,0.7609364846514379,4.730443706410248
38,0,0.0,0.7247487128070809,8.349220890845954
38,1,1.0,0.8082409217155404,0.0
38,1,0.75,0.7884950290214815,1.9745892694058909
38,1,0.5,0.7610835595647806,4.715736215075983
38,1,0.25,0.7309839024968972,7.725701921864325
38,1,0.0,0.6981977054260533,11.00432162894871
38,2,1.0,0.8082409217155404,0.0
38,2,0.75,0.7782475672410278,2.999335447451257
38,2,0.5,0.765133281327284,4.310764038825643
38,2,0.25,0.7647732002604564,4.346772145508404
38,2,0.0,0.7770955690118537,3.114535270368668
38,3,1.0,0.8082409217155404,0.0
38,3,0.75,0.8315547243259138,-2.3313802610373413
38,3,0.5,0.8377634886746393,-2.952256695909894
38,3,0.25,0.793452692560094,1.478822915544642
38,3,0.0,0.6470265090220177,16.121441269352268
38,4,1.0,0.8082409217155404,0.0
38,4,0.75,0.7762163447044363,3.202457701110406
38,4,0.5,0.6607934173771552,14.744750433838515
38,4,0.25,0.5210853401377595,28.715558157778087
38,4,0.0,0.49502201835980963,31.321890335573077
38,5,1.0,0.8082409217155404,0.0
38,5,0.75,0.8046784252086231,0.3562496506917312
38,5,0.5,0.6884537738013907,11.97871479141497
38,5,0.25,0.5481247445379854,26.0116177177555
38,5,0.0,0.4246862514376585,38.355467027788194
38,6,1.0,0.8082409217155404,0.0
38,6,0.75,0.80747270931948,0.0768212396060397
38,6,0.5,0.7964348706009998,1.1806051114540583
38,6,0.25,0.7871241347879894,2.1116786927551034
38,6,0.0,0.7872132846967475,2.1027637018792955
38,7,1.0,0.8082409217155404,0.0
38,7,0.75,0.8114870659901112,-0.3246144274570817
38,7,0.5,0.8005179546444243,0.7722967071116082
38,7,0.25,0.7805750874248936,2.766583429064684
38,7,0.0,0.7250888179119888,8.315210380355165
38,8,1.0,0.8082409217155404,0.0
38,8,0.75,0.8073979192786345,0.08430024369059375
38,8,0.5,0.799441378733722,0.8799542981818398
38,8,0.25,0.7828733823300696,2.536753938547076
38,8,0.0,0.7769511051436235,3.1289816571916873
39,0,1.0,0.7399675770039862,0.0
39,0,0.75,0.7093634909317247,3.0604086072261505
39,0,0.5,0.6227709862387035,11.719659076528266
39,0,0.25,0.5797726791593039,16.019489784468234
39,0,0.0,0.5549984736178654,18.496910338612082
39,1,1.0,0.7399675770039862,0.0
39,1,0.75,0.7251558712487847,1.481170575520152
39,1,0.5,0.7020882617293424,3.787931527464383
39,1,0.25,0.7079918724145431,3.19757045894431
39,1,0.0,0.6785535525553077,6.1414024448678495
39,2,1.0,0.7399675770039862,0.0
39,2,0.75,0.749428517034,-0.9460940030013854
39,2,0.5,0.7438677024829125,-0.3900125478926264
39,2,0.25,0.7351891276437006,0.4778449360285597
39,2,0.0,0.7048767676271366,3.5090809376849608
39,3,1.0,0.7399675770039862,0.0
39,3,0.75,0.7013802235044626,3.858735349952358
39,3,0.5,0.6751401286579677,6.48274483460185
39,3,0.25,0.6479607579484434,9.200681905554276
39,3,0.0,0.5836455460148211,15.63220309891651
39,4,1.0,0.7399675770039862,0.0
39,4,0.75,0.7598045947746119,-1.9837017770625742
39,4,0.5,0.7629533555495213,-2.2985778545535074
39,4,0.25,0.7258464978610272,1.4121079142959014
39,4,0.0,0.6705192485047552,6.944832849923099
39,5,1.0,0.7399675770039862,0.0
39,5,0.75,0.6547992163469775,8.516836065700872
39,5,0.5,0.5412928769575241,19.867470004646204
39,5,0.25,0.39938242820164127,34.05851488023449
39,5,0.0,0.3901225165251567,34.984506047882945
39,6,1.0,0.7399675770039862,0.0
39,6,0.75,0.7534430843665918,-1.347550736260561
39,6,0.5,0.7518942618200478,-1.1926684816061628
39,6,0.25,0.7642150101337019,-2.4247433129715668
39,6,0.0,0.7637710786680239,-2.3803501664037663
39,7,1.0,0.7399675770039862,0.0
39,7,0.75,0.7517638029554786,-1.1796225951492434
39,7,0.5,0.7416122658685756,-0.16446888645894608
39,7,0.25,0.714167597515587,2.5799979488399183
39,7,0.0,0.6968777041736712,4.308987283031495
39,8,1.0,0.7399675770039862,0.0
39,8,0.75,0.765943691456195,-2.597611445220882
39,8,0.5,0.747402883468696,-0.7435306464709801
39,8,0.25,0.7294047884603163,1.0562788543669877
39,8,0.0,0.7230589274305687,1.6908649573417533
40,0,1.0,0.7005010250971357,0.0
40,0,0.75,0.68838005130423,1.2120973792905776
40,0,0.5,0.6779758233029126,2.2525201794223126
40,0,0.25,0.638037374566754,6.246365053038172
40,0,0.0,0.6099470062730584,9.055401882407732
40,1,1.0,0.7005010250971357,0.0
40,1,0.75,0.6938398735767157,0.6661151520420017
40,1,0.5,0.6856141069982487,1.4886918098887092
40,1,0.25,0.6581385077203259,4.236251737680985
40,1,0.0,0.6496446189380877,5.085640615904808
40,2,1.0,0.7005010250971357,0.0
40,2,0.75,0.7027038795436049,-0.22028544464691713
40,2,0.5,0.6810661744413197,1.9434850655816072
40,2,0.25,0.6620157233033036,3.848530179383214
40,2,0.0,0.6382203483221986,6.228067677493709
40,3,1.0,0.7005010250971357,0.0
40,3,0.75,0.6821876912636922,1.831333383344358
40,3,0.5,0.6795412912405482,2.095973385658756
40,3,0.25,0.6504852430082536,5.001578208888214
40,3,0.0,0.5927077880801886,10.77932370169471
40,4,1.0,0.7005010250971357,0.0
40,4,0.75,0.7041793298266121,-0.36783047294763893
40,4,0.5,0.7047900974506612,-0.42890723535254915
40,4,0.25,0.6853479853479854,1.5153039749150388
40,4,0.0,0.6668980492463917,3.360297585074401
40,5,1.0,0.7005010250971357,0.0
40,5,0.75,0.7073813463476991,-0.688032125056337
40,5,0.5,0.7085096078793927,-0.8008582782256912
40,5,0.25,0.6610458770147134,3.945514808242234
40,5,0.0,0.5463087754253877,15.419224967174806
40,6,1.0,0.7005010250971357,0.0
40,6,0.75,0.7012736517936394,-0.07726266965036865
40,6,0.5,0.7059805782945554,-0.5479553197419662
40,6,0.25,0.6870663531870429,1.3434671910092844
40,6,0.0,0.6450154415023839,5.548558359475186
40,7,1.0,0.7005010250971357,0.0
40,7,0.75,0.6819736745341191,1.8527350563016687
40,7,0.5,0.6494601965033976,5.104082859373815
40,7,0.25,0.6099252867246352,9.057573837250054
40,7,0.0,0.5498021274437774,15.06988976533583
40,8,1.0,0.7005010250971357,0.0
40,8,0.75,0.7021595679667311,-0.16585428695953253
40,8,0.5,0.6688205982526676,3.1680426844468146
40,8,0.25,0.6220348516638116,7.846617343332419
40,8,0.0,0.5760152189257332,12.448580617140259
