subject,channel,r,f1_drop_mean,f1_drop_sd
1,0,5,0.08492762770898579,0.014228281023525845
1,1,5,0.07272281181290119,0.008142378787149001
1,2,5,0.08031217953753186,0.0032924104465485993
1,3,5,0.12571728324571824,0.013372656812297413
1,4,5,0.06140938559973626,0.0055638634287145956
1,5,5,0.05698143984564621,0.008187606198422025
1,6,5,0.0002782545753057253,0.006601308194109546
1,7,5,0.12184043723706146,0.0068025549085923625
1,8,5,0.1380726947094561,0.013747573029809619
2,0,5,0.08568017587228494,0.01770717525763478
2,1,5,0.08568334063679675,0.01131110985033515
2,2,5,0.14474107403218492,0.01554197476465385
2,3,5,0.09852922787944804,0.006839978200518841
2,4,5,0.1331292296967467,0.007997012685713827
2,5,5,0.21923206704053072,0.010719029257293905
2,6,5,0.05403502485918295,0.01655664988433632
2,7,5,0.16821796665631475,0.024583750562028096
2,8,5,0.10877652660624293,0.023642022176850443
3,0,5,0.1747097812909149,0.005914127095851305
3,1,5,0.20795729429278262,0.029173190336487517
3,2,5,0.23127247448788948,0.015437315889636392
3,3,5,0.24449961314575672,0.005776440280294842
3,4,5,0.11548242274069956,0.015197674260308639
3,5,5,0.18081928059745642,0.014225684987689722
3,6,5,0.019832466045074337,0.006991815165004672
3,7,5,0.16385328895821413,0.014468126673693862
3,8,5,0.1546298742072179,0.010678382262860225
4,0,5,0.10577566396754487,0.011144855202901694
4,1,5,0.1382405028792158,0.018108035588005163
4,2,5,0.11885375677092806,0.008662944790210608
4,3,5,0.0863975427599331,0.010904110974644773
4,4,5,0.06603403400782545,0.00822354122523134
4,5,5,0.1395419371783109,0.014232983383304705
4,6,5,0.0511347991117127,0.011329589563825968
4,7,5,0.13620524182176874,0.008277502405667492
4,8,5,0.09492714195946025,0.03080766313204279
5,0,5,0.10475921174114791,0.0206112164095906
5,1,5,0.0690277178699044,0.010649983938182839
5,2,5,0.08692657586630041,0.008876762174721166
5,3,5,0.04862191103607556,0.012656621804212334
5,4,5,0.0699856726443135,0.006826660120089205
5,5,5,0.10181159751121674,0.006654474710696225
5,6,5,0.00558673686184088,0.010178291157594449
5,7,5,0.07137555508372231,0.00579521703020433
5,8,5,0.1621209298006182,0.0163549225046202
6,0,5,0.01925351096063348,0.012577848258878817
6,1,5,0.07588063425497056,0.010956691286761099
6,2,5,0.08187838941327372,0.004898900805558565
6,3,5,0.04795121449898574,0.014072153081029387
6,4,5,0.09632476196594016,0.0025234319452627036
6,5,5,0.14964226312122403,0.0092172862286546
6,6,5,0.08942973138425234,0.014298786632531124
6,7,5,0.12898294526337076,0.0074221512407166325
6,8,5,0.09394765309972061,0.007047739116367718
7,0,5,0.13202425002489987,0.01885606414055549
7,1,5,0.15604096396964096,0.01987669989105376
7,2,5,0.15430905178103282,0.008758786071783715
7,3,5,0.1582314360600127,0.020840271705645334
7,4,5,0.12158855148368153,0.01625690755141517
7,5,5,0.20277154740012165,0.010665425331328087
7,6,5,0.07524445184418087,0.007815421571448515
7,7,5,0.1430993944095778,0.010286147114206742
7,8,5,0.20139239126698025,0.005322695355983707
8,0,5,0.14395323109556762,0.009166988187890197
8,1,5,0.18973713335237546,0.012395615859938753
8,2,5,0.07869372003371652,0.01454336326785279
8,3,5,0.11651725102010173,0.024296181226471626
8,4,5,0.08380100719864488,0.008146185414874671
8,5,5,0.14593944436336465,0.010103426176046485
8,6,5,0.028820285832850366,0.010605707624383206
8,7,5,0.14433390889890474,0.007316352450089229
8,8,5,0.1303695793512003,0.018794154618439408
9,0,5,0.09680598136776897,0.014205250739912332
9,1,5,0.1310925374225857,0.006462687775711538
9,2,5,0.1661583222398961,0.003981624103098845
9,3,5,0.05741405903122678,0.019895266953900717
9,4,5,0.030976479999863527,0.010288440808386564
9,5,5,0.13602837707292642,0.011571548450546143
9,6,5,0.028919151787135687,0.011559487410681815
9,7,5,0.14523515499314416,0.013360878768537688
9,8,5,0.1304813978221006,0.00704335246523091
10,0,5,0.1694467519361756,0.013338787116134895
10,1,5,0.0984999629159039,0.012761204899314168
10,2,5,0.13208566552529433,0.011797626218528954
10,3,5,0.18735569517294853,0.010371499690704939
10,4,5,0.08557291679034695,0.00826751424833321
10,5,5,0.10166382760423039,0.0088633202742619
10,6,5,0.053143976737549094,0.01575485415832621
10,7,5,0.17568228907587166,0.011994479523858395
10,8,5,0.1799040817335056,0.01702418853251374
11,0,5,0.09606526444751266,0.00588054626475024
11,1,5,0.14624302937722308,0.015464960062460936
11,2,5,0.11337727942830125,0.018563169135630577
11,3,5,0.10890009142762602,0.021424810243183646
11,4,5,0.1533988338496352,0.01998098688440137
11,5,5,0.1407910067877761,0.010786761980272619
11,6,5,0.0511074840514262,0.016332590135527427
11,7,5,0.20401773967834122,0.0260203689766921
11,8,5,0.17480301433985704,0.013106513658812277
12,0,5,0.0882978064123791,0.004608012509527611
12,1,5,0.12180074879721678,0.008945208748440906
12,2,5,0.13892922939535707,0.021736740689593956
12,3,5,0.1467254663702274,0.01756753840461315
12,4,5,0.14522787046354763,0.012942551587882302
12,5,5,0.14175409813228654,0.025084341597880574
12,6,5,0.07246538213115217,0.014981260535577147
12,7,5,0.11741065268512323,0.013068495256430957
12,8,5,0.13747706279138494,0.014307351806372439
13,0,5,0.1411503703907529,0.008273272060595664
13,1,5,0.12278072082794726,0.011437058060238507
13,2,5,0.1411618694650934,0.007021197596861367
13,3,5,0.07514316428210568,0.012562249191048933
13,4,5,0.13755033229350094,0.013301972850449179
13,5,5,0.2657759379354907,0.016117928353921715
13,6,5,0.08987963476616187,0.004590280032324181
13,7,5,0.08272174615128684,0.005147930430858777
13,8,5,0.09103544951494602,0.009856469813525197
14,0,5,0.1225239258515655,0.012826686081803516
14,1,5,0.10270198394948646,0.00720808533111692
14,2,5,0.12737241679492733,0.010242382634306636
14,3,5,0.11220614060283504,0.006870211174863178
14,4,5,0.15722306455070173,0.0091682241321354
14,5,5,0.16620677129938968,0.020189199103253827
14,6,5,0.028542368005870022,0.00689113045087631
14,7,5,0.12063176303197783,0.012612931895336382
14,8,5,0.1843553791085512,0.0066261193077738825
15,0,5,0.1695053183390625,0.012227331118857808
15,1,5,0.19259726181936906,0.016511760317943477
15,2,5,0.1578819174740561,0.01704166287377503
15,3,5,0.050172065678038134,0.013101873396544925
15,4,5,0.15570439142980447,0.017854673675210007
15,5,5,0.1406849453225811,0.01414258903478219
15,6,5,0.0950205503885928,0.01570527303675492
15,7,5,0.1360222482187588,0.00844966489266238
15,8,5,0.1483986661586551,0.013917810146099082
16,0,5,0.17415971992672924,0.008769837309885738
16,1,5,0.1374788520966822,0.007132476777168324
16,2,5,0.13536101157949115,0.007852269645329167
16,3,5,0.16826360714173388,0.018385289906247684
16,4,5,0.15524488028811992,0.011585926121558038
16,5,5,0.19687608396830558,0.00911812767088972
16,6,5,0.056005454547208046,0.010701817538948862
16,7,5,0.18632294592570947,0.01098241988099693
16,8,5,0.18922425200518433,0.009809088170539427
17,0,5,0.23965520343666755,0.009705676862313203
17,1,5,0.20527022572196385,0.017967619928331617
17,2,5,0.16102584753895346,0.011545390504996908
17,3,5,0.12011185164463536,0.010116526273123767
17,4,5,0.11492108743323297,0.013322673393464903
17,5,5,0.2193082054718845,0.010025653149240792
17,6,5,0.06090562684404717,0.023679695710964465
17,7,5,0.12888352185603041,0.009402510683626982
17,8,5,0.16496377518992256,0.017217310146539662
18,0,5,0.08683909014549585,0.0050769821042364344
18,1,5,0.054312285603646135,0.0060499223156171575
18,2,5,0.12175474753973572,0.017717897945401097
18,3,5,0.13938811095633202,0.0224846261659368
18,4,5,0.03985238969457032,0.005390876156657953
18,5,5,0.14341486728079028,0.019641580823985164
18,6,5,0.014887512762561995,0.010104099059560879
18,7,5,0.16849174116963436,0.0064300625494281135
18,8,5,0.060950428937281774,0.010158374245330752
19,0,5,0.1269441651299083,0.012664879493975314
19,1,5,0.13870420919552068,0.010211541569070252
19,2,5,0.11898098086374136,0.00669624973034417
19,3,5,0.15661111825204202,0.009780790233889277
19,4,5,0.1169511537826656,0.012327626446670974
19,5,5,0.18663037021073395,0.01030136167405943
19,6,5,0.07287170655291178,0.006858825139094781
19,7,5,0.2017732548918083,0.00859405754638649
19,8,5,0.18663273309710532,0.016831970906308304
20,0,5,0.12469535609486138,0.0059804285242631055
20,1,5,0.15818516441584354,0.024199219944822128
20,2,5,0.16930332124737768,0.016918449331032464
20,3,5,0.07394627003316619,0.013338323837313091
20,4,5,0.13954517569269514,0.012504316863881863
20,5,5,0.16551913886973868,0.014644520301157381
20,6,5,0.05759382633965804,0.013320988434567319
20,7,5,0.12178350483393845,0.009403115573850304
20,8,5,0.15259007375877617,0.01872746054224786
21,0,5,0.2138988220900054,0.012304389705708851
21,1,5,0.09325454667743982,0.013049291085733711
21,2,5,0.14979696889710573,0.007743877996621608
21,3,5,0.1168419846518485,0.008386423329308505
21,4,5,0.10656989585410752,0.011862955761988711
21,5,5,0.1607957516847245,0.019609747789267894
21,6,5,0.07729863697011949,0.006864300151177696
21,7,5,0.14823571840183722,0.008012027248348123
21,8,5,0.17451888292970158,0.016103346686049833
22,0,5,0.12292428487300089,0.01909081894772118
22,1,5,0.0862998907356991,0.015361495088161876
22,2,5,0.1182835555054094,0.016597241206986395
22,3,5,0.06668855659838827,0.00908243092389737
22,4,5,0.12114938224246785,0.007110423329143672
22,5,5,0.09648219906242901,0.010527430949608108
22,6,5,0.025170574369628308,0.007489865483723343
22,7,5,0.149719807964384,0.008147805974484812
22,8,5,0.15336246868914752,0.012115604236409498
23,0,5,0.14822032893898987,0.011823330727110766
23,1,5,0.13469583617444064,0.01846771707680513
23,2,5,0.10521305478508847,0.00889944202168775
23,3,5,0.11363530070271075,0.013076352953160763
23,4,5,0.0625718840055304,0.013969544790650159
23,5,5,0.1775659453430239,0.006386674270838371
23,6,5,0.1145039234329371,0.009489327208287079
23,7,5,0.17689269379578593,0.0076785078066500066
23,8,5,0.18203030888732935,0.010211278229594958
24,0,5,0.08393168907004486,0.0027517148838042474
24,1,5,0.10761865084264073,0.013993662161572336
24,2,5,0.11135813880046778,0.009303111781829947
24,3,5,0.037440102967995804,0.01258778716674925
24,4,5,0.17170189866763724,0.011001341406160181
24,5,5,0.1307548732162079,0.01907624629808247
24,6,5,0.06726052611521319,0.007721486916107732
24,7,5,0.1321941766704519,0.005302800450482374
24,8,5,0.0856673824833208,0.007699541787603115
25,0,5,0.13964762472173778,0.008639788176076581
25,1,5,0.13489095525523226,0.007634661176885648
25,2,5,0.1779427189114031,0.0139934744169565
25,3,5,0.17786783814109988,0.028399380200139934
25,4,5,0.18077934600563972,0.014037929859924945
25,5,5,0.21728814990245002,0.012053558485271263
25,6,5,0.08241039137207717,0.013562390254753738
25,7,5,0.15652371647685398,0.013186003017292626
25,8,5,0.08547271385371646,0.004936825303096902
26,0,5,0.13599052487964666,0.008630352376495452
26,1,5,0.09930748803378975,0.006682793484528386
26,2,5,0.10779323206172028,0.009652987758947794
26,3,5,0.058067523604296255,0.01191202907256997
26,4,5,0.10922525040764745,0.01369223255956031
26,5,5,0.20224540650771922,0.010188269110084528
26,6,5,0.07645869903665896,0.011413424498459075
26,7,5,0.13394577861186174,0.013125178268522334
26,8,5,0.10553848943526416,0.010708690389334865
27,0,5,0.15174258511467195,0.010726724304671729
27,1,5,0.050999377882282614,0.021681326494023427
27,2,5,0.14052761104560513,0.013666861866222063
27,3,5,0.12344893369131389,0.010531830209941036
27,4,5,0.13849023471259814,0.017075139265359432
27,5,5,0.2526402579617334,0.010112990143240908
27,6,5,0.09063104659504317,0.014065062571636673
27,7,5,0.16391119743027185,0.00927129740128304
27,8,5,0.1391413714405258,0.012920269468951934
28,0,5,0.09978626338990466,0.009763863015470487
28,1,5,0.11141748825493203,0.023334552017515327
28,2,5,0.10392572335314525,0.005259972716536047
28,3,5,0.1356040941287941,0.017155599770889287
28,4,5,0.15688479878133574,0.006635643049677836
28,5,5,0.2600031737762015,0.005360971903652718
28,6,5,0.039168779523576246,0.006617266446387029
28,7,5,0.13879500889733873,0.01637873986962588
28,8,5,0.13812443642721817,0.014456583533228392
29,0,5,0.16751690173150152,0.010761798429847496
29,1,5,0.10162286659733324,0.0073586072828084985
29,2,5,0.16508770556375518,0.019591529211890942
29,3,5,0.07203704202122693,0.013846247377253743
29,4,5,0.11896058607224096,0.019931948886690757
29,5,5,0.18930423471329963,0.01252863289375811
29,6,5,0.03454001976866896,0.0032953553081027393
29,7,5,0.13207120017086144,0.009049461422311746
29,8,5,0.13174392317411543,0.0047235995405735575
30,0,5,0.11599530498362418,0.018447260902194833
30,1,5,0.08305187241037071,0.01661450997291897
30,2,5,0.12138901733133141,0.021940449117016723
30,3,5,0.06638275098175359,0.016041654953060522
30,4,5,0.0764341338258008,0.01305837030323181
30,5,5,0.11589184224968233,0.025191908000710948
30,6,5,0.021948124401235412,0.010089800089396606
30,7,5,0.14156594547687765,0.013019891322445555
30,8,5,0.056115296701739516,0.005047033735777827
31,0,5,0.1272783381680062,0.006630200275094223
31,1,5,0.08193332699296411,0.008642755194809188
31,2,5,0.10411331211304742,0.014735324235327111
31,3,5,0.052512959929898906,0.014617908297407277
31,4,5,0.09936722469461028,0.01635425683958374
31,5,5,0.17066339644687134,0.010835496743515274
31,6,5,0.06110912136424196,0.008076965932690543
31,7,5,0.15823121083221853,0.01825271171023403
31,8,5,0.1558529158522397,0.007932206404284518
32,0,5,0.1071588513129835,0.007275415973650178
32,1,5,0.13253231498784698,0.014970695781382779
32,2,5,0.13162055707658996,0.011392557980512249
32,3,5,0.03466685503378657,0.009343985129130025
32,4,5,0.16756539790204286,0.010655827508371138
32,5,5,0.1996075413090697,0.012427178373410843
32,6,5,0.037531695603503154,0.007517155857748558
32,7,5,0.152558062261078,0.015083370184538744
32,8,5,0.13596645079523456,0.01658761293391766
33,0,5,0.17747346053797403,0.015296360197867192
33,1,5,0.18724420666664596,0.01586103653011987
33,2,5,0.1518921146527566,0.008312844229619752
33,3,5,0.11202447267324116,0.012340651480536704
33,4,5,0.08076650225754656,0.015459936563908571
33,5,5,0.15381889792971068,0.014686103305237182
33,6,5,0.0907933310570633,0.011840651541498782
33,7,5,0.17443640309565,0.009234336732234233
33,8,5,0.16794657744638813,0.00820158945534345
34,0,5,0.15670675104196757,0.014999390754132568
34,1,5,0.09743450447133466,0.011196091470269762
34,2,5,0.13150049126761382,0.008258078499964289
34,3,5,0.12435002414817639,0.014710972273060596
34,4,5,0.11225238114634857,0.009869078277249685
34,5,5,0.16682665415243642,0.013285597038962241
34,6,5,0.06551620266735489,0.004932636425193742
34,7,5,0.1959341634741202,0.010038347900303099
34,8,5,0.12906889687856873,0.005164141172323649
35,0,5,0.13712698268892712,0.006213216975573016
35,1,5,0.0573542555795874,0.008216471268240986
35,2,5,0.06033040289908442,0.009916303636105177
35,3,5,0.04428044307665271,0.010575646546896987
35,4,5,0.021165873602625673,0.009718587999112216
35,5,5,0.15727743715447168,0.00911184528808162
35,6,5,0.04797971453555121,0.01288309765249903
35,7,5,0.07066996812753765,0.009524008575002288
35,8,5,0.11473900625893155,0.013456254004690577
36,0,5,0.042299486230817876,0.007163824423191921
36,1,5,0.08943093570299651,0.01350946805716325
36,2,5,0.05123842521380588,0.016283110466050996
36,3,5,0.07935699746353739,0.015634394180233456
36,4,5,0.055780981457973076,0.016746285054044786
36,5,5,0.1257180106667105,0.011828988995150454
36,6,5,0.04593647641449124,0.012502705029427132
36,7,5,0.12068516424806497,0.0102035757891249
36,8,5,0.11395455300100366,0.004830004840565072
37,0,5,0.1422194854208631,0.01038127980576923
37,1,5,0.13395339906345485,0.013081319724343163
37,2,5,0.21050413464694212,0.0066227532684445855
37,3,5,0.06443547192385637,0.007654444255878456
37,4,5,0.08011049637738259,0.02134130820120943
37,5,5,0.1015127646939161,0.011053494991815956
37,6,5,0.07243442715334836,0.007988750630417013
37,7,5,0.11862151510720378,0.007187054563607108
37,8,5,0.08559691604253024,0.01331673500306652
38,0,5,0.14833650266424614,0.0077350100809705285
38,1,5,0.12027716161732613,0.01424454842835952
38,2,5,0.09169226752016066,0.013342046169470193
38,3,5,0.16373232222158024,0.015000538560156377
38,4,5,0.27481109901430756,0.010095749150115746
38,5,5,0.20112484387681412,0.015559521607673736
38,6,5,0.07500425698575519,0.006644668895097081
38,7,5,0.14088446238697283,0.011554401258033484
38,8,5,0.09731914200724898,0.010845436219529714
39,0,5,0.13100242487291341,0.012666905263316547
39,1,5,0.08548196060795302,0.014936278704215638
39,2,5,0.12561730744819985,0.015365076416427694
39,3,5,0.12749407697124318,0.013128164898162676
39,4,5,0.060491576020656954,0.01589969659028581
39,5,5,0.23861590401669366,0.017225890136522547
39,6,5,0.05578493852931887,0.011876580707623381
39,7,5,0.11187513560674274,0.006827321162285003
39,8,5,0.06578505767331884,0.014830883333490846
40,0,5,0.14056866803517243,0.011833661688709227
40,1,5,0.060762663592947505,0.009537169688587067
40,2,5,0.13368916413197277,0.0109837036520306
40,3,5,0.07674957510764957,0.00654890346636035
40,4,5,0.04227433810727366,0.007224915543892403
40,5,5,0.09757235986226584,0.011320046786156444
40,6,5,0.13251177012191526,0.006263060953544247
40,7,5,0.17985289704024973,0.011690908052152352
40,8,5,0.15407991789398243,0.01776502789837187
