subject,channel,alpha,f1,drop_pp
1,0,1.0,0.5787643450900407,0.0
1,0,0.75,0.5792950283811329,-0.053068329109218215
1,0,0.5,0.5644450351085517,1.4319309981489003
1,0,0.25,0.5468476765162453,3.191666857379538
1,0,0.0,0.5260020997219504,5.276224536809027
1,1,1.0,0.5787643450900407,0.0
1,1,0.75,0.5744804844035946,0.42838606864461504
1,1,0.5,0.5592077663774018,1.955657871263894
1,1,0.25,0.5322351549567096,4.652919013333112
1,1,0.0,0.49372137071547123,8.504297437456948
1,2,1.0,0.5787643450900407,0.0
1,2,0.75,0.5748601888320416,0.3904156257999114
1,2,0.5,0.5361350433381091,4.2629301751931585
1,2,0.25,0.48691365890618543,9.185068618385529
1,2,0.0,0.41070884899766835,16.805549609237236
1,3,1.0,0.5787643450900407,0.0
1,3,0.75,0.5697297234297204,0.9034621660320319
1,3,0.5,0.5490920754676741,2.9672269622366576
1,3,0.25,0.5396608362070616,3.910350888297909
1,3,0.0,0.506223323880406,7.254102120963468
1,4,1.0,0.5787643450900407,0.0
1,4,0.75,0.569795634920635,0.8968710169405703
1,4,0.5,0.5627925529515563,1.597179213848443
1,4,0.25,0.531619619583695,4.714472550634574
1,4,0.0,0.4840382133043777,9.472613178566302
1,5,1.0,0.5787643450900407,0.0
1,5,0.75,0.5498216080298947,2.894273706014605
1,5,0.5,0.5291054015278961,4.965894356214462
1,5,0.25,0.4638234548702987,11.494089021974203
1,5,0.0,0.4089292480370178,16.98350970530229
1,6,1.0,0.5787643450900407,0.0
1,6,0.75,0.5868096064972662,-0.8045261407225501
1,6,0.5,0.5887099868639627,-0.9945641773921987
1,6,0.25,0.5856852739293292,-0.692092883928852
1,6,0.0,0.5838016222729187,-0.5037277182877942
1,7,1.0,0.5787643450900407,0.0
1,7,0.75,0.5660733838011526,1.2690961288888136
1,7,0.5,0.5627231714494296,1.6041173640611084
1,7,0.25,0.5440135366076948,3.4750808482345907
1,7,0.0,0.5091313616479656,6.963298344207514
1,8,1.0,0.5787643450900407,0.0
1,8,0.75,0.5528140734937599,2.5950271596280827
1,8,0.5,0.5302147161617375,4.854962892830317
1,8,0.25,0.4914544684049714,8.730987668506929
1,8,0.0,0.4483345256370657,13.0429819452975
2,0,1.0,0.8078363599570811,0.0
2,0,0.75,0.7991214822704142,0.87148776866669
2,0,0.5,0.7870786924380611,2.0757667519020084
2,0,0.25,0.8053320117982987,0.2504348158782421
2,0,0.0,0.7839427259584573,2.3893633998623875
2,1,1.0,0.8078363599570811,0.0
2,1,0.75,0.7754877624843731,3.234859747270802
2,1,0.5,0.7458382878827425,6.19980720743386
2,1,0.25,0.7336747014401124,7.416165851696876
2,1,0.0,0.7166418931090296,9.119446684805155
2,2,1.0,0.8078363599570811,0.0
2,2,0.75,0.8330586375727614,-2.52222776156803
2,2,0.5,0.8106212596285881,-0.27848996715069685
2,2,0.25,0.7836031560113126,2.4233203945768556
2,2,0.0,0.7327146485909047,7.51217113661764
2,3,1.0,0.8078363599570811,0.0
2,3,0.75,0.8277788857226804,-1.9942525765599295
2,3,0.5,0.823501602936727,-1.5665242979645888
2,3,0.25,0.808792190239626,-0.09558302825448672
2,3,0.0,0.7753549278750891,3.2481432081992057
2,4,1.0,0.8078363599570811,0.0
2,4,0.75,0.8075553293959603,0.02810305611208319
2,4,0.5,0.8075257718873571,0.03105880697240604
2,4,0.25,0.7872852514971137,2.0551108459967438
2,4,0.0,0.7810832004601609,2.6753159496920254
2,5,1.0,0.8078363599570811,0.0
2,5,0.75,0.831705921601697,-2.3869561644615844
2,5,0.5,0.8073586366101676,0.04777233469135389
2,5,0.25,0.8007471134515257,0.7089246505555424
2,5,0.0,0.7795367509585114,2.829960899856976
2,6,1.0,0.8078363599570811,0.0
2,6,0.75,0.8148012128123284,-0.6964852855247283
2,6,0.5,0.7977270058430366,1.0109354114044566
2,6,0.25,0.7971738533942815,1.0662506562799656
2,6,0.0,0.7581033242666841,4.9733035690397
2,7,1.0,0.8078363599570811,0.0
2,7,0.75,0.8210452233413807,-1.3208863384299607
2,7,0.5,0.7821561760833668,2.568018387371429
2,7,0.25,0.74910853396831,5.872782598877113
2,7,0.0,0.6698784404111339,13.795791954594726
2,8,1.0,0.8078363599570811,0.0
2,8,0.75,0.8076259862529753,0.021037370410581513
2,8,0.5,0.7863043603150466,2.153199964203456
2,8,0.25,0.7470836377585506,6.075272219853057
2,8,0.0,0.7225773253319676,8.525903462511353
3,0,1.0,0.8178954327924345,0.0
3,0,0.75,0.832431552709815,-1.4536119917380463
3,0,0.5,0.8271336170060375,-0.9238184213603007
3,0,0.25,0.7280526675770449,8.984276521538959
3,0,0.0,0.65891424091744,15.898119187499448
3,1,1.0,0.8178954327924345,0.0
3,1,0.75,0.823465125698783,-0.5569692906348567
3,1,0.5,0.8197580648852394,-0.18626320928049056
3,1,0.25,0.7518703147246455,6.6025118067788995
3,1,0.0,0.6565887618721088,16.130667092032567
3,2,1.0,0.8178954327924345,0.0
3,2,0.75,0.8210899842050461,-0.31945514126116015
3,2,0.5,0.796299130709036,2.1596302083398466
3,2,0.25,0.7736938399782892,4.420159281414526
3,2,0.0,0.650887325080736,16.70081077116985
3,3,1.0,0.8178954327924345,0.0
3,3,0.75,0.8000996816019353,1.7795751190499143
3,3,0.5,0.653544160550662,16.435127224177247
3,3,0.25,0.614170860150523,20.372457264191148
3,3,0.0,0.5675889763162252,25.03064564762093
3,4,1.0,0.8178954327924345,0.0
3,4,0.75,0.8108538371277225,0.7041595664711964
3,4,0.5,0.7986477682263297,1.9247664566104827
3,4,0.25,0.7250534553166132,9.284197747582123
3,4,0.0,0.642033143885061,17.586228890737342
3,5,1.0,0.8178954327924345,0.0
3,5,0.75,0.8340203032326621,-1.612487044022759
3,5,0.5,0.7995595458748688,1.8335886917565714
3,5,0.25,0.7126457592446418,10.52496735477927
3,5,0.0,0.6145609487625443,20.333448402989017
3,6,1.0,0.8178954327924345,0.0
3,6,0.75,0.8128666275582829,0.5028805234151612
3,6,0.5,0.8128666275582829,0.5028805234151612
3,6,0.25,0.8173286386541199,0.05667941383146191
3,6,0.0,0.8176633979218654,0.023203487056910888
3,7,1.0,0.8178954327924345,0.0
3,7,0.75,0.8123396416128477,0.5555791179586822
3,7,0.5,0.7935241901065329,2.437124268590163
3,7,0.25,0.7664722590371909,5.142317375524364
3,7,0.0,0.7221280616430329,9.576737114940158
3,8,1.0,0.8178954327924345,0.0
3,8,0.75,0.8341826884976342,-1.6287255705199732
3,8,0.5,0.8408848448858472,-2.2989412093412764
3,8,0.25,0.8266494132861849,-0.8753980493750424
3,8,0.0,0.7660130808729434,5.188235191949109
4,0,1.0,0.732425942083156,0.0
4,0,0.75,0.704946146434259,2.747979564889702
4,0,0.5,0.6821845330217644,5.024140906139163
4,0,0.25,0.6251131721744948,10.731276990866123
4,0,0.0,0.5847146959877172,14.771124609543884
4,1,1.0,0.732425942083156,0.0
4,1,0.75,0.7137075707014529,1.871837138170318
4,1,0.5,0.7062048703040308,2.622107177912525
4,1,0.25,0.6844293272864701,4.799661479668593
4,1,0.0,0.6576172615635936,7.4808680519562465
4,2,1.0,0.732425942083156,0.0
4,2,0.75,0.7292270266453601,0.3198915437795935
4,2,0.5,0.7258224413462231,0.6603500736932943
4,2,0.25,0.7181393572858192,1.4286584797336799
4,2,0.0,0.7336830810124727,-0.12571389293166702
4,3,1.0,0.732425942083156,0.0
4,3,0.75,0.7344227504244483,-0.19968083412922333
4,3,0.5,0.7298593299032827,0.25666121798733066
4,3,0.25,0.6963503934862176,3.60755485969384
4,3,0.0,0.6792189330586191,5.32070090245369
4,4,1.0,0.732425942083156,0.0
4,4,0.75,0.7598229687000654,-2.739702661690935
4,4,0.5,0.7535452719861467,-2.1119329902990702
4,4,0.25,0.7581149863505282,-2.5689044267372174
4,4,0.0,0.7324233087711155,0.0002633312040534186
4,5,1.0,0.732425942083156,0.0
4,5,0.75,0.7021815479290653,3.024439415409075
4,5,0.5,0.6714011698556579,6.102477222749814
4,5,0.25,0.6589980859403525,7.342785614280356
4,5,0.0,0.5680229304722244,16.440301161093164
4,6,1.0,0.732425942083156,0.0
4,6,0.75,0.7159485471705453,1.6477394912610688
4,6,0.5,0.7041102654315656,2.8315676651590405
4,6,0.25,0.7090517056654706,2.3374236417685434
4,6,0.0,0.6929418272188264,3.948411486432968
4,7,1.0,0.732425942083156,0.0
4,7,0.75,0.6929132424128434,3.951269967031268
4,7,0.5,0.6813790797809425,5.104686230221356
4,7,0.25,0.6554121615503526,7.701378053280338
4,7,0.0,0.6227875288912526,10.963841319190347
4,8,1.0,0.732425942083156,0.0
4,8,0.75,0.7762645248297301,-4.383858274657404
4,8,0.5,0.7950453274937224,-6.261938541056633
4,8,0.25,0.7956990920400031,-6.3273149956847075
4,8,0.0,0.7366413112090455,-0.421536912588949
5,0,1.0,0.5298540364145816,0.0
5,0,0.75,0.5224537562772856,0.7400280137295989
5,0,0.5,0.5274980387915285,0.23559976230531632
5,0,0.25,0.516196962013089,1.3657074401492664
5,0,0.0,0.44206627125345677,8.778776516112485
5,1,1.0,0.5298540364145816,0.0
5,1,0.75,0.5467146776059103,-1.6860641191328685
5,1,0.5,0.5331394359842491,-0.32853995696674465
5,1,0.25,0.5296407611757242,0.021327523885739108
5,1,0.0,0.5300491330229564,-0.01950966083748007
5,2,1.0,0.5298540364145816,0.0
5,2,0.75,0.5357910857196301,-0.5937049305048459
5,2,0.5,0.5303165319536605,-0.04624955390788443
5,2,0.25,0.5228445686430654,0.7009467771516231
5,2,0.0,0.5044189630048216,2.5435073409760034
5,3,1.0,0.5298540364145816,0.0
5,3,0.75,0.540387167012554,-1.053313059797234
5,3,0.5,0.5543908124794962,-2.4536776064914556
5,3,0.25,0.5574092935719512,-2.7555257157369617
5,3,0.0,0.5356535571957849,-0.5799520781203271
5,4,1.0,0.5298540364145816,0.0
5,4,0.75,0.5253442676197623,0.45097687948193466
5,4,0.5,0.5170302994042222,1.2823737010359437
5,4,0.25,0.5163498467783868,1.3504189636194819
5,4,0.0,0.4956678509083715,3.418618550621011
5,5,1.0,0.5298540364145816,0.0
5,5,0.75,0.5141175446851848,1.573649172939684
5,5,0.5,0.5051241144072426,2.4729922007339034
5,5,0.25,0.4883558193712686,4.149821704331302
5,5,0.0,0.47096836091282085,5.888567550176077
5,6,1.0,0.5298540364145816,0.0
5,6,0.75,0.537960634086517,-0.8106597671935334
5,6,0.5,0.5475356208127556,-1.7681584398174022
5,6,0.25,0.5461569315041144,-1.6302895089532754
5,6,0.0,0.532955861843614,-0.31018254290323677
5,7,1.0,0.5298540364145816,0.0
5,7,0.75,0.5264369683260592,0.3417068088522379
5,7,0.5,0.5155100074588589,1.4344028955722732
5,7,0.25,0.5152909188677891,1.4563117546792514
5,7,0.0,0.4925127211495853,3.7341315264996346
5,8,1.0,0.5298540364145816,0.0
5,8,0.75,0.5182522546911461,1.1601781723435511
5,8,0.5,0.48605047465203566,4.380356176254596
5,8,0.25,0.4453831675852704,8.44708688293112
5,8,0.0,0.42907140900062485,10.078262741395678
6,0,1.0,0.7142010578935132,0.0
6,0,0.75,0.7219261211387719,-0.7725063245258679
6,0,0.5,0.723152899967416,-0.8951842073902871
6,0,0.25,0.698925557502107,1.5275500391406127
6,0,0.0,0.6556281749120959,5.857288298141727
6,1,1.0,0.7142010578935132,0.0
6,1,0.75,0.6883133104692932,2.5887747424219953
6,1,0.5,0.6622652976285,5.193576026501323
6,1,0.25,0.6571616273926091,5.70394305009041
6,1,0.0,0.6492211407224051,6.497991717110807
6,2,1.0,0.7142010578935132,0.0
6,2,0.75,0.7015007090956761,1.2700348797837102
6,2,0.5,0.716612511078499,-0.24114531849858123
6,2,0.25,0.6988458573493426,1.535520054417061
6,2,0.0,0.5941275020103525,12.00735558831607
6,3,1.0,0.7142010578935132,0.0
6,3,0.75,0.6996072870328067,1.4593770860706456
6,3,0.5,0.6640506358027107,5.015042209080245
6,3,0.25,0.6217572756908702,9.244378220264293
6,3,0.0,0.6003296358527448,11.387142204076838
6,4,1.0,0.7142010578935132,0.0
6,4,0.75,0.691964134383588,2.2236923509925233
6,4,0.5,0.6626443558880937,5.155670200541951
6,4,0.25,0.6409545229813552,7.324653491215793
6,4,0.0,0.6195690451428495,9.463201275066368
6,5,1.0,0.7142010578935132,0.0
6,5,0.75,0.7006550310415169,1.354602685199624
6,5,0.5,0.6276842945365898,8.651676335692338
6,5,0.25,0.5630292774907836,15.117178040272961
6,5,0.0,0.4075579826166953,30.66430752768179
6,6,1.0,0.7142010578935132,0.0
6,6,0.75,0.7028101329401423,1.1390924953370907
6,6,0.5,0.6963913515989271,1.7809706294586114
6,6,0.25,0.6709519050648294,4.32491528286838
6,6,0.0,0.6453527917355818,6.884826615793138
6,7,1.0,0.7142010578935132,0.0
6,7,0.75,0.6968671366481585,1.733392124535471
6,7,0.5,0.673414242789637,4.078681510387616
6,7,0.25,0.6534837587547646,6.071729913874857
6,7,0.0,0.6252127787517987,8.898827914171449
6,8,1.0,0.7142010578935132,0.0
6,8,0.75,0.7177022062032011,-0.35011483096879514
6,8,0.5,0.7018570879501669,1.23439699433463
6,8,0.25,0.6906541034212188,2.354695447229438
6,8,0.0,0.6320184240372941,8.218263385621905
7,0,1.0,0.7084839192459014,0.0
7,0,0.75,0.6950958726945569,1.3388046551344512
7,0,0.5,0.6939790291519998,1.4504890093901546
7,0,0.25,0.609869088710968,9.861483053493336
7,0,0.0,0.5664659871565114,14.201793208938994
7,1,1.0,0.7084839192459014,0.0
7,1,0.75,0.6868774675149052,2.160645173099618
7,1,0.5,0.6433378328396141,6.514608640628728
7,1,0.25,0.6311652843202941,7.731863492560731
7,1,0.0,0.6260357313008658,8.244818794503562
7,2,1.0,0.7084839192459014,0.0
7,2,0.75,0.7380196533854118,-2.9535734139510383
7,2,0.5,0.7323680959161076,-2.388417667020626
7,2,0.25,0.7201044341384308,-1.1620514892529465
7,2,0.0,0.688315303405087,2.016861584081442
7,3,1.0,0.7084839192459014,0.0
7,3,0.75,0.7204288688704981,-1.194494962459669
7,3,0.5,0.7181511970948138,-0.9667277848912414
7,3,0.25,0.6255106904579698,8.297322878793157
7,3,0.0,0.598104165286868,11.037975395903333
7,4,1.0,0.7084839192459014,0.0
7,4,0.75,0.6773498152174622,3.113410402843919
7,4,0.5,0.6498344755236548,5.864944372224656
7,4,0.25,0.6524385798165401,5.604533942936129
7,4,0.0,0.6476881669358159,6.079575231008549
7,5,1.0,0.7084839192459014,0.0
7,5,0.75,0.7345814356420899,-2.6097516396188514
7,5,0.5,0.7346777659339854,-2.6193846688084
7,5,0.25,0.7182890378820275,-0.9805118636126098
7,5,0.0,0.6862378207763794,2.224609846952197
7,6,1.0,0.7084839192459014,0.0
7,6,0.75,0.6984126853465602,1.007123389934117
7,6,0.5,0.673262904419327,3.522101482657436
7,6,0.25,0.6295081408293307,7.897577841657066
7,6,0.0,0.6125259433080288,9.595797593787259
7,7,1.0,0.7084839192459014,0.0
7,7,0.75,0.6857197131970731,2.276420604882823
7,7,0.5,0.668134899186339,4.034902005956242
7,7,0.25,0.6405067644388148,6.797715480708655
7,7,0.0,0.5397928392966478,16.869107994925358
7,8,1.0,0.7084839192459014,0.0
7,8,0.75,0.7075687942306542,0.09151250152471535
7,8,0.5,0.6702042539721083,3.8279665273793118
7,8,0.25,0.622576381077399,8.590753816850238
7,8,0.0,0.5459768389478095,16.25070802980919
8,0,1.0,0.7885670416955904,0.0
8,0,0.75,0.7925027566160378,-0.39357149204473085
8,0,0.5,0.7705326124116479,1.80344292839425
8,0,0.25,0.6067242422857395,18.184279940985093
8,0,0.0,0.5831002603662884,20.546678132930207
8,1,1.0,0.7885670416955904,0.0
8,1,0.75,0.801473594527149,-1.2906552831558504
8,1,0.5,0.779758909160724,0.8808132534866453
8,1,0.25,0.7409321796329242,4.76348620626662
8,1,0.0,0.7120740699343096,7.649297176128089
8,2,1.0,0.7885670416955904,0.0
8,2,0.75,0.7856578069795279,0.29092347160625254
8,2,0.5,0.7943425559024333,-0.5775514206842858
8,2,0.25,0.7937393558146236,-0.5172314119033183
8,2,0.0,0.7757745385810342,1.2792503114556264
8,3,1.0,0.7885670416955904,0.0
8,3,0.75,0.7845589432906558,0.4008098404934657
8,3,0.5,0.7686579404893257,1.9909101206264768
8,3,0.25,0.7566818027137525,3.1885238981837927
8,3,0.0,0.7166392093904879,7.192783230510258
8,4,1.0,0.7885670416955904,0.0
8,4,0.75,0.7768423473263686,1.1724694369221855
8,4,0.5,0.7490303866343014,3.9536655061289006
8,4,0.25,0.7201696984225324,6.839734327305802
8,4,0.0,0.6882412055981572,10.032583609743329
8,5,1.0,0.7885670416955904,0.0
8,5,0.75,0.7695691296437892,1.8997912051801236
8,5,0.5,0.7510150492486889,3.755199244690155
8,5,0.25,0.6706263710059033,11.794067068968717
8,5,0.0,0.588693118704832,19.987392299075847
8,6,1.0,0.7885670416955904,0.0
8,6,0.75,0.7967893217893218,-0.8222280093731382
8,6,0.5,0.8088268077599323,-2.0259766064341878
8,6,0.25,0.7997009862095278,-1.1133944513937344
8,6,0.0,0.7890129727194404,-0.044593102384993255
8,7,1.0,0.7885670416955904,0.0
8,7,0.75,0.797003996623658,-0.8436954928067508
8,7,0.5,0.7802148234357704,0.8352218259820021
8,7,0.25,0.7310783183926852,5.7488723302905225
8,7,0.0,0.6825630923081701,10.600394938742031
8,8,1.0,0.7885670416955904,0.0
8,8,0.75,0.7818205505220119,0.6746491173578506
8,8,0.5,0.7579473592693262,3.0619682426264228
8,8,0.25,0.7084401378826857,8.012690381290478
8,8,0.0,0.6605293922685227,12.803764942706774
9,0,1.0,0.8241230289231807,0.0
9,0,0.75,0.8164754065302824,0.764762239289829
9,0,0.5,0.8147850128337933,0.9338016089387335
9,0,0.25,0.7648152055764394,5.930782334674123
9,0,0.0,0.7543901195713473,6.973290935183341
9,1,1.0,0.8241230289231807,0.0
9,1,0.75,0.8213931843093227,0.2729844613857946
9,1,0.5,0.7906888523758144,3.3434176547366246
9,1,0.25,0.7120802430866094,11.204278583657123
9,1,0.0,0.6816666480246969,14.245638089848377
9,2,1.0,0.8241230289231807,0.0
9,2,0.75,0.845460799348889,-2.133777042570828
9,2,0.5,0.8312422224825814,-0.7119193559400716
9,2,0.25,0.8099907595844129,1.4132269338767767
9,2,0.0,0.7784959833667068,4.5627045556473895
9,3,1.0,0.8241230289231807,0.0
9,3,0.75,0.8196845984133443,0.44384305098363885
9,3,0.5,0.8322425324223265,-0.8119503499145808
9,3,0.25,0.8280775851518105,-0.3954556228629835
9,3,0.0,0.808848607134576,1.527442178860472
9,4,1.0,0.8241230289231807,0.0
9,4,0.75,0.8223283291051711,0.17946998180096152
9,4,0.5,0.7967537997396811,2.73692291834996
9,4,0.25,0.7848884908669889,3.9234538056191814
9,4,0.0,0.7669150582965549,5.720797062662575
9,5,1.0,0.8241230289231807,0.0
9,5,0.75,0.829091855156932,-0.4968826233751278
9,5,0.5,0.8096460426930219,1.4476986230158806
9,5,0.25,0.7524311698268871,7.169185909629361
9,5,0.0,0.7370640528610547,8.705897606212599
9,6,1.0,0.8241230289231807,0.0
9,6,0.75,0.8306634323932084,-0.6540403470027711
9,6,0.5,0.8282442227596822,-0.41211938365015577
9,6,0.25,0.8209257788860648,0.3197250037115906
9,6,0.0,0.814520686655206,0.9602342267974628
9,7,1.0,0.8241230289231807,0.0
9,7,0.75,0.8313277106770008,-0.7204681753820164
9,7,0.5,0.8021980665472825,2.192496237589814
9,7,0.25,0.7364206708634531,8.77023580597276
9,7,0.0,0.6373612785453717,18.676175037780894
9,8,1.0,0.8241230289231807,0.0
9,8,0.75,0.8181804954219603,0.5942533501220426
9,8,0.5,0.8199254545216627,0.4197574401518023
9,8,0.25,0.7828959810874705,4.122704783571018
9,8,0.0,0.6909575242977999,13.316550462538078
10,0,1.0,0.7590265874185839,0.0
10,0,0.75,0.7540181790771612,0.5008408341422688
10,0,0.5,0.727129834426255,3.189675299232886
10,0,0.25,0.6875536157390996,7.14729716794843
10,0,0.0,0.6620356209208444,9.699096649773942
10,1,1.0,0.7590265874185839,0.0
10,1,0.75,0.7679277607100188,-0.8901173291434916
10,1,0.5,0.6955857220536308,6.344086536495308
10,1,0.25,0.6622260069245545,9.68005804940294
10,1,0.0,0.6424158602970853,11.661072712149856
10,2,1.0,0.7590265874185839,0.0
10,2,0.75,0.7398530817009078,1.9173505717676065
10,2,0.5,0.7307653248732482,2.8261262545335675
10,2,0.25,0.7091543155817281,4.987227183685572
10,2,0.0,0.6766360479629688,8.239053945561503
10,3,1.0,0.7590265874185839,0.0
10,3,0.75,0.748252761473402,1.0773825945181836
10,3,0.5,0.7373143873370821,2.1712200081501765
10,3,0.25,0.7200034642106985,3.902312320788537
10,3,0.0,0.6775641951455397,8.14623922730442
10,4,1.0,0.7590265874185839,0.0
10,4,0.75,0.771424716182527,-1.2398128763943084
10,4,0.5,0.7427384684281236,1.6288118990460232
10,4,0.25,0.7231309845315124,3.58956028870715
10,4,0.0,0.6968611072573607,6.216548016122314
10,5,1.0,0.7590265874185839,0.0
10,5,0.75,0.7274940482000373,3.1532539218546596
10,5,0.5,0.7075881843799336,5.143840303865021
10,5,0.25,0.6775848913351682,8.144169608341567
10,5,0.0,0.6436494967799168,11.537709063866707
10,6,1.0,0.7590265874185839,0.0
10,6,0.75,0.7512183177091899,0.7808269709393967
10,6,0.5,0.7248812226788767,3.4145364739707196
10,6,0.25,0.7193485003368725,3.967808708171139
10,6,0.0,0.7159052376813286,4.312134973725524
10,7,1.0,0.7590265874185839,0.0
10,7,0.75,0.7073027859792566,5.172380143932731
10,7,0.5,0.6877202390339555,7.130634838462835
10,7,0.25,0.6040700765676472,15.495651085093664
10,7,0.0,0.5335879651581915,22.543862226039234
10,8,1.0,0.7590265874185839,0.0
10,8,0.75,0.7270343494036583,3.1992238014925567
10,8,0.5,0.7056171887359595,5.34093986826244
10,8,0.25,0.6648178181402636,9.420876927832023
10,8,0.0,0.6371362495227211,12.18903378958628
11,0,1.0,0.8824343603240388,0.0
11,0,0.75,0.8624339675789228,2.0000392745116002
11,0,0.5,0.8371098942384729,4.532446608556584
11,0,0.25,0.8242107780612244,5.822358226281432
11,0,0.0,0.8169045893253949,6.552977099864387
11,1,1.0,0.8824343603240388,0.0
11,1,0.75,0.8875446217540142,-0.5110261429975393
11,1,0.5,0.8695401959801071,1.2894164343931647
11,1,0.25,0.8185860082642875,6.384835205975126
11,1,0.0,0.7517550284539489,13.067933187008984
11,2,1.0,0.8824343603240388,0.0
11,2,0.75,0.8687972090352646,1.3637151288774185
11,2,0.5,0.8430299427194028,3.9404417604635977
11,2,0.25,0.8120387025213331,7.0395657802705625
11,2,0.0,0.7666076027044771,11.582675761956162
11,3,1.0,0.8824343603240388,0.0
11,3,0.75,0.8760541425565808,0.6380217767458007
11,3,0.5,0.8617254981976468,2.0708862126392003
11,3,0.25,0.7914123648945469,9.102199542949185
11,3,0.0,0.7336380398933767,14.879632043066204
11,4,1.0,0.8824343603240388,0.0
11,4,0.75,0.8722586272903455,1.0175733033693235
11,4,0.5,0.8578005553201506,2.463380500388812
11,4,0.25,0.7966212025840019,8.581315774003684
11,4,0.0,0.7710868578822558,11.134750244178292
11,5,1.0,0.8824343603240388,0.0
11,5,0.75,0.8624774273627354,1.9956932961303409
11,5,0.5,0.7823732164377047,10.006114388633403
11,5,0.25,0.7292787275181641,15.315563280587464
11,5,0.0,0.6637613381570866,21.867302216695215
11,6,1.0,0.8824343603240388,0.0
11,6,0.75,0.8730173231220539,0.9417037201984835
11,6,0.5,0.8485208266758926,3.39135336481462
11,6,0.25,0.8343037901219973,4.813057020204148
11,6,0.0,0.7958389280756628,8.659543224837595
11,7,1.0,0.8824343603240388,0.0
11,7,0.75,0.8713945043966004,1.1039855927438391
11,7,0.5,0.8527165956526701,2.9717764671368663
11,7,0.25,0.818668639812365,6.376572051167373
11,7,0.0,0.7375575195549086,14.487684076913022
11,8,1.0,0.8824343603240388,0.0
11,8,0.75,0.8703880629848835,1.2046297339155299
11,8,0.5,0.8393611687110105,4.307319161302825
11,8,0.25,0.8069920149583811,7.544234536565764
11,8,0.0,0.7768135359706083,10.562082435343045
12,0,1.0,0.8376912651761503,0.0
12,0,0.75,0.8484515708801189,-1.0760305703968576
12,0,0.5,0.8515312880738306,-1.384002289768027
12,0,0.25,0.81847938762308,1.92118775530703
12,0,0.0,0.7976021106128754,4.008915456327489
12,1,1.0,0.8376912651761503,0.0
12,1,0.75,0.8282239028195755,0.946736235657486
12,1,0.5,0.8038167557343971,3.3874509441753187
12,1,0.25,0.7215925297063044,11.609873546984595
12,1,0.0,0.6655838932601178,17.210737191603254
12,2,1.0,0.8376912651761503,0.0
12,2,0.75,0.8114129807641128,2.62782844120375
12,2,0.5,0.7852134220459344,5.247784313021597
12,2,0.25,0.7469014917342613,9.0789773441889
12,2,0.0,0.6949764732954049,14.271479188074544
12,3,1.0,0.8376912651761503,0.0
12,3,0.75,0.8412609742265678,-0.35697090504174245
12,3,0.5,0.8309021596019496,0.678910557420076
12,3,0.25,0.7782559635284049,5.943530164774547
12,3,0.0,0.630754407424666,20.69368577514843
12,4,1.0,0.8376912651761503,0.0
12,4,0.75,0.7807213146800241,5.696995049612619
12,4,0.5,0.6747032121483532,16.29880530277972
12,4,0.25,0.613309789625579,22.43814755505713
12,4,0.0,0.5932638096154992,24.442745556065116
12,5,1.0,0.8376912651761503,0.0
12,5,0.75,0.7907329695607085,4.695829561544185
12,5,0.5,0.7172758799233107,12.041538525283968
12,5,0.25,0.6585118254608475,17.91794397153028
12,5,0.0,0.6046321959117803,23.305906926437004
12,6,1.0,0.8376912651761503,0.0
12,6,0.75,0.8522868071386471,-1.4595541962496794
12,6,0.5,0.8574420427223608,-1.9750777546210463
12,6,0.25,0.8527494267683149,-1.5058161592164554
12,6,0.0,0.8283794284011818,0.9311836774968496
12,7,1.0,0.8376912651761503,0.0
12,7,0.75,0.8488024697452042,-1.11112045690539
12,7,0.5,0.8496584560986661,-1.1967190922515747
12,7,0.25,0.8140321362825887,2.3659128893561587
12,7,0.0,0.752081725652084,8.560953952406635
12,8,1.0,0.8376912651761503,0.0
12,8,0.75,0.8386509574459184,-0.09596922697681087
12,8,0.5,0.8207831606855701,1.6908104490580222
12,8,0.25,0.792749067697261,4.494219747888939
12,8,0.0,0.7560527992692125,8.16384659069378
13,0,1.0,0.9106025475500117,0.0
13,0,0.75,0.9175888690446463,-0.6986321494634629
13,0,0.5,0.8937287787856256,1.6873768764386066
13,0,0.25,0.885316941839215,2.5285605710796633
13,0,0.0,0.8356762516719892,7.492629587802247
13,1,1.0,0.9106025475500117,0.0
13,1,0.75,0.909716088691664,0.08864588583477051
13,1,0.5,0.9000060757955495,1.0596471754462211
13,1,0.25,0.8575482469424556,5.3054300607556115
13,1,0.0,0.8167671052417657,9.383544230824603
13,2,1.0,0.9106025475500117,0.0
13,2,0.75,0.9070498217837955,0.3552725766216236
13,2,0.5,0.9014610081519963,0.914153939801543
13,2,0.25,0.8555089727504775,5.5093574799534135
13,2,0.0,0.783931395624792,12.667115192521972
13,3,1.0,0.9106025475500117,0.0
13,3,0.75,0.9051662757712307,0.5436271778781032
13,3,0.5,0.9009876763579061,0.9614871192105579
13,3,0.25,0.8857782885164616,2.4824259033550122
13,3,0.0,0.875232994022837,3.5369553527174635
13,4,1.0,0.9106025475500117,0.0
13,4,0.75,0.9083081341228552,0.22944134271565275
13,4,0.5,0.898838680259027,1.1763867290984664
13,4,0.25,0.8371471692582881,7.345537829172355
13,4,0.0,0.8052003743199556,10.540217323005606
13,5,1.0,0.9106025475500117,0.0
13,5,0.75,0.9005822508092656,1.0020296740746115
13,5,0.5,0.8577519726666042,5.285057488340749
13,5,0.25,0.8140301444877998,9.657240306221194
13,5,0.0,0.7301411427242188,18.046140482579286
13,6,1.0,0.9106025475500117,0.0
13,6,0.75,0.9083974459026263,0.22051016473854101
13,6,0.5,0.907561075535551,0.30414720144607
13,6,0.25,0.8998334645427001,1.0769083007311608
13,6,0.0,0.8904994447809409,2.010310276907079
13,7,1.0,0.9106025475500117,0.0
13,7,0.75,0.9101985550583684,0.04039924916432458
13,7,0.5,0.8986179689304689,1.198457861954283
13,7,0.25,0.8606819439288992,4.99206036211125
13,7,0.0,0.8372325180827851,7.337002946722659
13,8,1.0,0.9106025475500117,0.0
13,8,0.75,0.9133379842821392,-0.2735436732127505
13,8,0.5,0.9202299319242229,-0.9627384374211179
13,8,0.25,0.908940067316952,0.16624802330597044
13,8,0.0,0.8682209692440812,4.238157830593048
14,0,1.0,0.8321299778864459,0.0
14,0,0.75,0.8311839870115336,0.09459908749123169
14,0,0.5,0.807751111835366,2.4378866051079973
14,0,0.25,0.7815423667570084,5.058761112943754
14,0,0.0,0.7375667335037012,9.456324438274477
14,1,1.0,0.8321299778864459,0.0
14,1,0.75,0.8021704993904832,2.99594784959627
14,1,0.5,0.7793176390959059,5.281233879054003
14,1,0.25,0.7617791113942496,7.035086649219635
14,1,0.0,0.7440258423446197,8.810413554182627
14,2,1.0,0.8321299778864459,0.0
14,2,0.75,0.8160854348369486,1.6044543049497317
14,2,0.5,0.7969808349064131,3.51491429800328
14,2,0.25,0.7747135107397163,5.7416467146729655
14,2,0.0,0.7307499436165932,10.138003426985275
14,3,1.0,0.8321299778864459,0.0
14,3,0.75,0.7936291585848471,3.8500819301598876
14,3,0.5,0.7732676547188546,5.886232316759132
14,3,0.25,0.744167884223278,8.796209366316798
14,3,0.0,0.7148302700498106,11.729970783663536
14,4,1.0,0.8321299778864459,0.0
14,4,0.75,0.827196278206492,0.493369967995394
14,4,0.5,0.8236429630889908,0.8487014797455172
14,4,0.25,0.8024313080310757,2.9698669855370285
14,4,0.0,0.7442143063438874,8.791567154255853
14,5,1.0,0.8321299778864459,0.0
14,5,0.75,0.8284020608028508,0.37279170835951003
14,5,0.5,0.7630944039937353,6.903557389271064
14,5,0.25,0.7122217944226268,11.990818346381914
14,5,0.0,0.6615221198027751,17.060785808367086
14,6,1.0,0.8321299778864459,0.0
14,6,0.75,0.8324525706973925,-0.03225928109465981
14,6,0.5,0.822397941157119,0.9732036729326987
14,6,0.25,0.8162303493968772,1.5899628489568718
14,6,0.0,0.7958320452828139,3.629793260363201
14,7,1.0,0.8321299778864459,0.0
14,7,0.75,0.8196949161429525,1.2435061743493403
14,7,0.5,0.7964914749950953,3.563850289135062
14,7,0.25,0.7710116536861792,6.1118324200266745
14,7,0.0,0.7298481382183275,10.228183966811844
14,8,1.0,0.8321299778864459,0.0
14,8,0.75,0.8130505191890488,1.9079458697397134
14,8,0.5,0.806150904819998,2.5979073066447977
14,8,0.25,0.7894986665589563,4.263131132748965
14,8,0.0,0.7209788666457652,11.115111124068077
15,0,1.0,0.8008356296807486,0.0
15,0,0.75,0.7998865158348027,0.09491138459458703
15,0,0.5,0.8021684424905796,-0.13328128098309966
15,0,0.25,0.7630743254761045,3.7761304204644075
15,0,0.0,0.7115122904931822,8.93233391875664
15,1,1.0,0.8008356296807486,0.0
15,1,0.75,0.7811197326623031,1.971589701844556
15,1,0.5,0.7750133780281907,2.5822251652557915
15,1,0.25,0.7485071256190475,5.232850406170108
15,1,0.0,0.7391938995498081,6.164173013094054
15,2,1.0,0.8008356296807486,0.0
15,2,0.75,0.7931422053193976,0.7693424361351009
15,2,0.5,0.7792138034508627,2.1621826229885954
15,2,0.25,0.7666450917352827,3.4190537945465893
15,2,0.0,0.7495700901077633,5.12655395729853
15,3,1.0,0.8008356296807486,0.0
15,3,0.75,0.780514585339598,2.0321044341150563
15,3,0.5,0.7852388511264368,1.5596778554311852
15,3,0.25,0.7689673965831705,3.1868233097578136
15,3,0.0,0.7563439345512413,4.449169512950735
15,4,1.0,0.8008356296807486,0.0
15,4,0.75,0.7932081774395972,0.7627452241151467
15,4,0.5,0.7762393848641145,2.459624481663414
15,4,0.25,0.758726921414544,4.210870826620461
15,4,0.0,0.7192183399761787,8.161728970456995
15,5,1.0,0.8008356296807486,0.0
15,5,0.75,0.7823869176300734,1.844871205067522
15,5,0.5,0.7596680943938082,4.116753528694039
15,5,0.25,0.6743792127730666,12.645641690768205
15,5,0.0,0.568977759333801,23.185787034694762
15,6,1.0,0.8008356296807486,0.0
15,6,0.75,0.7954398285742609,0.5395801106487741
15,6,0.5,0.7829321301893992,1.7903499491349395
15,6,0.25,0.7634095476863773,3.7426081994371363
15,6,0.0,0.7421172168168595,5.8718412863889125
15,7,1.0,0.8008356296807486,0.0
15,7,0.75,0.7928912676491973,0.7944362031551355
15,7,0.5,0.7758860954851826,2.4949534195566003
15,7,0.25,0.7848221795175233,1.6013450163225307
15,7,0.0,0.7677450616996867,3.3090567981061914
15,8,1.0,0.8008356296807486,0.0
15,8,0.75,0.7919087102511015,0.8926919429647073
15,8,0.5,0.7927733162540923,0.8062313426656309
15,8,0.25,0.8070230959905271,-0.6187466309778511
15,8,0.0,0.8235199581783275,-2.2684328497578843
16,0,1.0,0.8405073915871258,0.0
16,0,0.75,0.85318658555622,-1.2679193969094116
16,0,0.5,0.8332889680577077,0.721842352941815
16,0,0.25,0.7892951418995208,5.121224968760507
16,0,0.0,0.7521833566334951,8.832403495363073
16,1,1.0,0.8405073915871258,0.0
16,1,0.75,0.8463030593028817,-0.5795667715755903
16,1,0.5,0.8425417611501412,-0.20343695630153924
16,1,0.25,0.7978024694376962,4.270492214942967
16,1,0.0,0.7506813708303833,8.98260207567425
16,2,1.0,0.8405073915871258,0.0
16,2,0.75,0.817780829506869,2.2726562080256807
16,2,0.5,0.7939902664141507,4.651712517297513
16,2,0.25,0.76443709924728,7.607029233984585
16,2,0.0,0.7304974732781452,11.000991830898066
16,3,1.0,0.8405073915871258,0.0
16,3,0.75,0.8298773379198754,1.063005366725045
16,3,0.5,0.8251439989893745,1.5363392597751324
16,3,0.25,0.8015660819331105,3.894130965401532
16,3,0.0,0.6591208454950581,18.13865460920677
16,4,1.0,0.8405073915871258,0.0
16,4,0.75,0.8092666871625719,3.1240704424553956
16,4,0.5,0.7682227557951529,7.228463579197298
16,4,0.25,0.7062204767091385,13.428691487798739
16,4,0.0,0.689119859435763,15.13875321513628
16,5,1.0,0.8405073915871258,0.0
16,5,0.75,0.7887084736336561,5.179891795346969
16,5,0.5,0.7207975015680002,11.970989001912569
16,5,0.25,0.6251314501241145,21.53759414630113
16,5,0.0,0.615398215971111,22.510917561601484
16,6,1.0,0.8405073915871258,0.0
16,6,0.75,0.837681128874176,0.2826262712949834
16,6,0.5,0.8322863295204328,0.8221062066693041
16,6,0.25,0.8303521548644734,1.0155236722652394
16,6,0.0,0.8020717172907357,3.8435674296390165
16,7,1.0,0.8405073915871258,0.0
16,7,0.75,0.8438999449563497,-0.33925533692238385
16,7,0.5,0.8232107532751824,1.729663831194339
16,7,0.25,0.7737769265313961,6.673046505572977
16,7,0.0,0.7372029303930812,10.330446119404469
16,8,1.0,0.8405073915871258,0.0
16,8,0.75,0.8412706805377519,-0.0763288950626051
16,8,0.5,0.8400381676794867,0.04692239076391491
16,8,0.25,0.8117721478136136,2.873524377351222
16,8,0.0,0.7467039617201884,9.380342986693746
17,0,1.0,0.7958778958517381,0.0
17,0,0.75,0.7755420039445533,2.0335891907184767
17,0,0.5,0.737987140794009,5.789075505772912
17,0,0.25,0.661608368270733,13.426952758100509
17,0,0.0,0.5853365556125636,21.05413402391745
17,1,1.0,0.7958778958517381,0.0
17,1,0.75,0.7978091461915403,-0.19312503398022374
17,1,0.5,0.7775605310323486,1.8317364819389503
17,1,0.25,0.7234450715036513,7.243282434808673
17,1,0.0,0.6855719315057512,11.030596434598683
17,2,1.0,0.7958778958517381,0.0
17,2,0.75,0.8089051249298264,-1.3027229078088287
17,2,0.5,0.8047864051153524,-0.8908509263614306
17,2,0.25,0.7936536759674176,0.2224219884320422
17,2,0.0,0.7524154781120724,4.346241773966564
17,3,1.0,0.7958778958517381,0.0
17,3,0.75,0.7831639362342705,1.2713959617467574
17,3,0.5,0.7718048770374756,2.4073018814262492
17,3,0.25,0.7550934400029795,4.0784455848758565
17,3,0.0,0.6426014124176521,15.327648343408596
17,4,1.0,0.7958778958517381,0.0
17,4,0.75,0.7949219566062029,0.09559392455351645
17,4,0.5,0.7975783604896267,-0.17004646378886434
17,4,0.25,0.7976221083177393,-0.17442124660012048
17,4,0.0,0.7549275192024494,4.095037664928869
17,5,1.0,0.7958778958517381,0.0
17,5,0.75,0.7710663760042382,2.481151984749985
17,5,0.5,0.7357424954159235,6.013540043581456
17,5,0.25,0.6709335715334063,12.49443243183318
17,5,0.0,0.6099251749283829,18.595272092335513
17,6,1.0,0.7958778958517381,0.0
17,6,0.75,0.8051720504249714,-0.9294154573233349
17,6,0.5,0.8148347742033715,-1.89568783516334
17,6,0.25,0.8176409202770839,-2.1763024425345834
17,6,0.0,0.8054949311808377,-0.9617035329099632
17,7,1.0,0.7958778958517381,0.0
17,7,0.75,0.7961322927569162,-0.025439690517814473
17,7,0.5,0.7758359596692077,2.004193618253036
17,7,0.25,0.759031108316855,3.684678753488302
17,7,0.0,0.7302877508085688,6.559014504316929
17,8,1.0,0.7958778958517381,0.0
17,8,0.75,0.774958479577889,2.091941627384908
17,8,0.5,0.7460744549290186,4.980344092271949
17,8,0.25,0.693982094282722,10.189580156901613
17,8,0.0,0.6696233553075187,12.625454054421937
18,0,1.0,0.7533513586631357,0.0
18,0,0.75,0.7288813983143712,2.4469960348764586
18,0,0.5,0.7102807475957211,4.307061106741461
18,0,0.25,0.6822508250643942,7.110053359874158
18,0,0.0,0.6677858519459992,8.556550671713659
18,1,1.0,0.7533513586631357,0.0
18,1,0.75,0.7371623758805497,1.618898278258607
18,1,0.5,0.7313884162663382,2.1962942396797525
18,1,0.25,0.7205640549656431,3.278730369749261
18,1,0.0,0.7032426158610365,5.01087428020992
18,2,1.0,0.7533513586631357,0.0
18,2,0.75,0.7542838936897096,-0.09325350265738663
18,2,0.5,0.748560545313679,0.4790813349456746
18,2,0.25,0.7380023732255335,1.5348985437602214
18,2,0.0,0.6960583097564512,5.729304890668452
18,3,1.0,0.7533513586631357,0.0
18,3,0.75,0.7349052754763694,1.8446083186766327
18,3,0.5,0.7137676059912959,3.958375267183989
18,3,0.25,0.6892449114157139,6.410644724742188
18,3,0.0,0.660000835791975,9.335052287116074
18,4,1.0,0.7533513586631357,0.0
18,4,0.75,0.7400151960702158,1.333616259291992
18,4,0.5,0.7272839369537483,2.6067421709387473
18,4,0.25,0.7242999569990001,2.9051401664135668
18,4,0.0,0.6954041370199519,5.794722164318388
18,5,1.0,0.7533513586631357,0.0
18,5,0.75,0.7613578107631748,-0.800645210003903
18,5,0.5,0.7557129050421459,-0.23615463790102043
18,5,0.25,0.6945908387152849,5.876051994785081
18,5,0.0,0.6029128697200667,15.0438488943069
18,6,1.0,0.7533513586631357,0.0
18,6,0.75,0.761297741876189,-0.7946383213053299
18,6,0.5,0.7707563160596191,-1.74049573964834
18,6,0.25,0.7813715322789734,-2.802017361583764
18,6,0.0,0.7833586497019206,-3.0007291038784856
18,7,1.0,0.7533513586631357,0.0
18,7,0.75,0.7270212720626398,2.633008660049596
18,7,0.5,0.6945844065967701,5.876695206636562
18,7,0.25,0.6621612075849482,9.11901510781875
18,7,0.0,0.6970048165984151,5.634654206472067
18,8,1.0,0.7533513586631357,0.0
18,8,0.75,0.7396300870211241,1.3721271642011645
18,8,0.5,0.7059827196650765,4.736863899805921
18,8,0.25,0.685171653840865,6.817970482227076
18,8,0.0,0.6616515289150542,9.169982974808155
19,0,1.0,0.8117087012444094,0.0
19,0,0.75,0.8105082120646323,0.12004891797771089
19,0,0.5,0.7702402986677259,4.14684025766835
19,0,0.25,0.7372917949615758,7.441690628283359
19,0,0.0,0.7153397344926281,9.63689667517813
19,1,1.0,0.8117087012444094,0.0
19,1,0.75,0.8124732945246426,-0.07645932802331501
19,1,0.5,0.8007838915275927,1.0924809716816752
19,1,0.25,0.7646522293726358,4.705647187177364
19,1,0.0,0.7457565747954222,6.595212644898718
19,2,1.0,0.8117087012444094,0.0
19,2,0.75,0.8085116111993871,0.3197090045022333
19,2,0.5,0.7979094813386584,1.379921990575106
19,2,0.25,0.7471167630637111,6.4591938180698305
19,2,0.0,0.7002784190701042,11.143028217430517
19,3,1.0,0.8117087012444094,0.0
19,3,0.75,0.8018032550661159,0.9905446178293476
19,3,0.5,0.7741685441448884,3.7540157099520965
19,3,0.25,0.7048162865918998,10.689241465250966
19,3,0.0,0.6385927236627404,17.311597758166897
19,4,1.0,0.8117087012444094,0.0
19,4,0.75,0.8092078847976776,0.2500816446731835
19,4,0.5,0.783794109040452,2.7914592203957422
19,4,0.25,0.7211839643270977,9.052473691731166
19,4,0.0,0.632540563325452,17.916813791895734
19,5,1.0,0.8117087012444094,0.0
19,5,0.75,0.7727448738638204,3.896382738058901
19,5,0.5,0.6895235614059143,12.21851398384951
19,5,0.25,0.5983094458149788,21.33992554294306
19,5,0.0,0.5526137774674322,25.909492377697717
19,6,1.0,0.8117087012444094,0.0
19,6,0.75,0.8190609412087377,-0.7352239964328322
19,6,0.5,0.8150320663921085,-0.3323365147699042
19,6,0.25,0.7966826473687086,1.5026053875700773
19,6,0.0,0.7944952853467917,1.7213415897617712
19,7,1.0,0.8117087012444094,0.0
19,7,0.75,0.8171332273799021,-0.5424526135492713
19,7,0.5,0.8201632954584571,-0.8454594214047706
19,7,0.25,0.7874472615654363,2.4261439678973096
19,7,0.0,0.7357735572173028,7.593514402710666
19,8,1.0,0.8117087012444094,0.0
19,8,0.75,0.8095675675675675,0.21411336768418776
19,8,0.5,0.803921551693116,0.7787149551293449
19,8,0.25,0.7873233440079299,2.43853572364795
19,8,0.0,0.7314228547015671,8.028584654284233
20,0,1.0,0.8001662035795244,0.0
20,0,0.75,0.8103874051048879,-1.0221201525363544
20,0,0.5,0.7846667760245383,1.5499427554986123
20,0,0.25,0.7433296362258789,5.683656735364551
20,0,0.0,0.6854716450519016,11.469455852762279
20,1,1.0,0.8001662035795244,0.0
20,1,0.75,0.7831668757636139,1.6999327815910514
20,1,0.5,0.7789121358520147,2.1254067727509707
20,1,0.25,0.739974083558245,6.019212002127938
20,1,0.0,0.6532938258333951,14.687237774612926
20,2,1.0,0.8001662035795244,0.0
20,2,0.75,0.807816083631047,-0.7649880051522562
20,2,0.5,0.783982539629223,1.6183663950301352
20,2,0.25,0.7292077782019615,7.095842537756292
20,2,0.0,0.6618693777508736,13.829682582865077
20,3,1.0,0.8001662035795244,0.0
20,3,0.75,0.7939993565491595,0.6166847030364853
20,3,0.5,0.7996743200631736,0.04918835163507662
20,3,0.25,0.7910489210986648,0.9117282480859634
20,3,0.0,0.7691408947172238,3.1025308862300593
20,4,1.0,0.8001662035795244,0.0
20,4,0.75,0.8111471945010372,-1.0980990921512834
20,4,0.5,0.8091865273882947,-0.902032380877027
20,4,0.25,0.7439308188950637,5.623538468446066
20,4,0.0,0.708273708665275,9.189249491424945
20,5,1.0,0.8001662035795244,0.0
20,5,0.75,0.8001173729992729,0.004883058025151321
20,5,0.5,0.7691769785381459,3.0989225041378465
20,5,0.25,0.7609621410077646,3.920406257175979
20,5,0.0,0.7041397566098293,9.60264469696951
20,6,1.0,0.8001662035795244,0.0
20,6,0.75,0.7959865860901589,0.41796174893654614
20,6,0.5,0.7669184235073417,3.3247780072182653
20,6,0.25,0.7691447879138369,3.10214156656875
20,6,0.0,0.7633768603384642,3.67893432410602
20,7,1.0,0.8001662035795244,0.0
20,7,0.75,0.761539099392011,3.862710418751336
20,7,0.5,0.7136526778165275,8.651352576299686
20,7,0.25,0.6690870875526702,13.107911602685418
20,7,0.0,0.6110470954426712,18.911910813685317
20,8,1.0,0.8001662035795244,0.0
20,8,0.75,0.8062896430070413,-0.6123439427516919
20,8,0.5,0.7936316641299153,0.6534539449609134
20,8,0.25,0.7589446630947861,4.122154048473825
20,8,0.0,0.7004281303684887,9.973807321103568
21,0,1.0,0.7703293019609165,0.0
21,0,0.75,0.7397979834520341,3.0531318508882466
21,0,0.5,0.7168009423223889,5.3528359638527645
21,0,0.25,0.5834412182697077,18.688808369120878
21,0,0.0,0.5397411050178742,23.058819694304233
21,1,1.0,0.7703293019609165,0.0
21,1,0.75,0.7571027529954713,1.3226548965445284
21,1,0.5,0.7508274226136262,1.9501879347290307
21,1,0.25,0.7331838017603889,3.714550020052765
21,1,0.0,0.7259550815052385,4.437422045567807
21,2,1.0,0.7703293019609165,0.0
21,2,0.75,0.7694779030594142,0.08513989015023204
21,2,0.5,0.7603625320567344,0.9966769904182105
21,2,0.25,0.7552537492269635,1.5075552733953002
21,2,0.0,0.7607756514121771,0.9553650548739467
21,3,1.0,0.7703293019609165,0.0
21,3,0.75,0.7449676083617177,2.536169359919882
21,3,0.5,0.7424215997462896,2.7907702214626906
21,3,0.25,0.7299635979081228,4.036570405279372
21,3,0.0,0.6963708109065687,7.395849105434782
21,4,1.0,0.7703293019609165,0.0
21,4,0.75,0.7649749550130261,0.5354346947890387
21,4,0.5,0.7767278799118422,-0.6398577950925688
21,4,0.25,0.7980720880051375,-2.774278604422098
21,4,0.0,0.7680882637559824,0.22410382049341537
21,5,1.0,0.7703293019609165,0.0
21,5,0.75,0.7631607812095919,0.7168520751324681
21,5,0.5,0.7685873991096445,0.17419028512720702
21,5,0.25,0.6883077574341881,8.202154452672838
21,5,0.0,0.5000305270643122,27.029877489660436
21,6,1.0,0.7703293019609165,0.0
21,6,0.75,0.7794436732312124,-0.9114371270295907
21,6,0.5,0.7784478885893981,-0.8118586628481528
21,6,0.25,0.768916937337305,0.1412364623611495
21,6,0.0,0.7656857939763113,0.4643507984605222
21,7,1.0,0.7703293019609165,0.0
21,7,0.75,0.7535440063577772,1.678529560313935
21,7,0.5,0.73139177766099,3.8937524299926585
21,7,0.25,0.7070123520066037,6.331694995431281
21,7,0.0,0.6922818080092847,7.80474939516318
21,8,1.0,0.7703293019609165,0.0
21,8,0.75,0.7529422387049312,1.738706325598538
21,8,0.5,0.7406902534666002,2.963904849431631
21,8,0.25,0.7196662934174001,5.066300854351646
21,8,0.0,0.6938234455925004,7.650585636841612
22,0,1.0,0.7775659822607623,0.0
22,0,0.75,0.7533444339948494,2.422154826591294
22,0,0.5,0.7383162621828361,3.9249720077926264
22,0,0.25,0.6954657644185618,8.210021784220057
22,0,0.0,0.6255208279887896,15.204515427197274
22,1,1.0,0.7775659822607623,0.0
22,1,0.75,0.779265668279985,-0.1699686019222657
22,1,0.5,0.7930759224667613,-1.550994020599894
22,1,0.25,0.7606153601320369,1.6950622128725445
22,1,0.0,0.7133481057979796,6.421787646278276
22,2,1.0,0.7775659822607623,0.0
22,2,0.75,0.779145632404238,-0.15796501434756083
22,2,0.5,0.7662164889016726,1.1349493359089746
22,2,0.25,0.7538271736965718,2.3738808564190528
22,2,0.0,0.718056580199285,5.950940206147736
22,3,1.0,0.7775659822607623,0.0
22,3,0.75,0.7662010850989862,1.1364897161776133
22,3,0.5,0.7456900543866045,3.187592787415783
22,3,0.25,0.689794644615524,8.777133764523837
22,3,0.0,0.6071538995182858,17.041208274247655
22,4,1.0,0.7775659822607623,0.0
22,4,0.75,0.7753298248307086,0.22361574300537868
22,4,0.5,0.7403474867165092,3.721849554425316
22,4,0.25,0.7005547867279296,7.7011195532832755
22,4,0.0,0.6658737049967598,11.169227726400255
22,5,1.0,0.7775659822607623,0.0
22,5,0.75,0.7559264528074705,2.163952945329184
22,5,0.5,0.7162611303922286,6.130485186853374
22,5,0.25,0.6640510609312025,11.351492132955986
22,5,0.0,0.6017831976255286,17.57827846352338
22,6,1.0,0.7775659822607623,0.0
22,6,0.75,0.7685709473621903,0.8995034898572007
22,6,0.5,0.7506488298589082,2.6917152401854105
22,6,0.25,0.7460191002296013,3.154688203116107
22,6,0.0,0.7333641916505848,4.420179061017759
22,7,1.0,0.7775659822607623,0.0
22,7,0.75,0.7572888779236226,2.0277104337139695
22,7,0.5,0.7258145460007115,5.175143626005085
22,7,0.25,0.6882630848691099,8.930289739165243
22,7,0.0,0.6394217798892771,13.814420237148529
22,8,1.0,0.7775659822607623,0.0
22,8,0.75,0.7526756651206535,2.489031714010881
22,8,0.5,0.71986477497591,5.77012072848524
22,8,0.25,0.6875494111876409,9.001657107312145
22,8,0.0,0.6669480466914005,11.061793556936184
23,0,1.0,0.7926712368492468,0.0
23,0,0.75,0.7801133661313213,1.2557870717925468
23,0,0.5,0.716309369664475,7.636186718477179
23,0,0.25,0.6444358005401353,14.823543630911152
23,0,0.0,0.5956482599735872,19.702297687565963
23,1,1.0,0.7926712368492468,0.0
23,1,0.75,0.7966299860955866,-0.39587492463397655
23,1,0.5,0.7934399306897677,-0.07686938405209176
23,1,0.25,0.7683740244879679,2.429721236127891
23,1,0.0,0.7231411136946181,6.953012315462869
23,2,1.0,0.7926712368492468,0.0
23,2,0.75,0.7991215644227396,-0.6450327573492842
23,2,0.5,0.7911215071407582,0.15497297084885453
23,2,0.25,0.7755514053389297,1.711983151031704
23,2,0.0,0.7194275284078366,7.324370844141015
23,3,1.0,0.7926712368492468,0.0
23,3,0.75,0.7955115452593754,-0.28403084101286113
23,3,0.5,0.7333274267688275,5.9343810080419335
23,3,0.25,0.7022575123290764,9.041372452017038
23,3,0.0,0.6866268566628502,10.604438018639662
23,4,1.0,0.7926712368492468,0.0
23,4,0.75,0.7991662883581454,-0.6495051508898619
23,4,0.5,0.7950944615249811,-0.24232246757343034
23,4,0.25,0.7713849645151418,2.128627233410496
23,4,0.0,0.7311329584731838,6.153827837606296
23,5,1.0,0.7926712368492468,0.0
23,5,0.75,0.7844256511000682,0.8245585749178552
23,5,0.5,0.7179519093710411,7.471932747820564
23,5,0.25,0.6560206922819298,13.665054456731696
23,5,0.0,0.6133342468848955,17.933698996435133
23,6,1.0,0.7926712368492468,0.0
23,6,0.75,0.7866557986836312,0.6015438165615561
23,6,0.5,0.7744764323480846,1.8194804501162176
23,6,0.25,0.7689040767185734,2.376716013067337
23,6,0.0,0.7612766120287786,3.1394624820468175
23,7,1.0,0.7926712368492468,0.0
23,7,0.75,0.8044944408747021,-1.1823204025455336
23,7,0.5,0.7818912950408548,1.0779941808392035
23,7,0.25,0.7443315761675569,4.833966068168993
23,7,0.0,0.6775049437940843,11.516629305516247
23,8,1.0,0.7926712368492468,0.0
23,8,0.75,0.7783199202463034,1.435131660294342
23,8,0.5,0.7406499308981517,5.2021305951095105
23,8,0.25,0.719206686804345,7.346455004490182
23,8,0.0,0.6922518437346068,10.041939311463999
24,0,1.0,0.7058033986799868,0.0
24,0,0.75,0.6655287550983344,4.027464358165234
24,0,0.5,0.6322390117560586,7.356438692392819
24,0,0.25,0.6061989784254896,9.960442025449712
24,0,0.0,0.5758841525830218,12.991924609696493
24,1,1.0,0.7058033986799868,0.0
24,1,0.75,0.6955078952324495,1.0295503447537269
24,1,0.5,0.6814316481193202,2.437175056066654
24,1,0.25,0.643663959494213,6.21394391857738
24,1,0.0,0.6084812887148665,9.732210996512025
24,2,1.0,0.7058033986799868,0.0
24,2,0.75,0.7183918241470195,-1.258842546703276
24,2,0.5,0.7035829209124773,0.22204777675094434
24,2,0.25,0.6695989078178872,3.6204490862099536
24,2,0.0,0.6252388637052361,8.056453497475069
24,3,1.0,0.7058033986799868,0.0
24,3,0.75,0.7462444127026877,-4.044101402270095
24,3,0.5,0.7691453028537425,-6.334190417375574
24,3,0.25,0.7952597212748463,-8.945632259485958
24,3,0.0,0.7918744091970347,-8.607101051704792
24,4,1.0,0.7058033986799868,0.0
24,4,0.75,0.696436401967468,0.9366996712518727
24,4,0.5,0.6833590214703782,2.244437720960857
24,4,0.25,0.6379899696230467,6.78134290569401
24,4,0.0,0.5859455928126244,11.985780586736238
24,5,1.0,0.7058033986799868,0.0
24,5,0.75,0.6376728962481778,6.813050243180896
24,5,0.5,0.561150387888094,14.465301079189274
24,5,0.25,0.46579957934891414,24.000381933107263
24,5,0.0,0.4109742306266222,29.48291680533646
24,6,1.0,0.7058033986799868,0.0
24,6,0.75,0.6855333639186727,2.027003476131406
24,6,0.5,0.6616683794001963,4.413501927979047
24,6,0.25,0.626736643831961,7.906675484802572
24,6,0.0,0.6025292110166287,10.327418766335805
24,7,1.0,0.7058033986799868,0.0
24,7,0.75,0.6941144257894841,1.1688972890502636
24,7,0.5,0.6660077607692843,3.979563791070251
24,7,0.25,0.5838479199407988,12.1955478739188
24,7,0.0,0.5216405740378343,18.41628246421525
24,8,1.0,0.7058033986799868,0.0
24,8,0.75,0.6948796361640399,1.0923762515946844
24,8,0.5,0.6766681600019504,2.9135238678036357
24,8,0.25,0.6576097874878364,4.819361119215038
24,8,0.0,0.6424594231690368,6.334397551094995
25,0,1.0,0.769047502676535,0.0
25,0,0.75,0.7634219439189528,0.5625558757582194
25,0,0.5,0.7488293569175922,2.0218145758942763
25,0,0.25,0.734844147228193,3.4203355448341966
25,0,0.0,0.7232399144697561,4.580758820677888
25,1,1.0,0.769047502676535,0.0
25,1,0.75,0.7709529786484044,-0.1905475971869408
25,1,0.5,0.7723663727846003,-0.3318870108065308
25,1,0.25,0.7579349320652625,1.1112570611272465
25,1,0.0,0.7225880663260003,4.645943635053474
25,2,1.0,0.769047502676535,0.0
25,2,0.75,0.7668138850162693,0.2233617660265641
25,2,0.5,0.744477839653145,2.456966302339003
25,2,0.25,0.7192602444489289,4.978725822760611
25,2,0.0,0.6615691052554735,10.747839742106146
25,3,1.0,0.769047502676535,0.0
25,3,0.75,0.7679819710585695,0.10655316179655205
25,3,0.5,0.7527598105026286,1.6287692173906354
25,3,0.25,0.7106147876735253,5.843271500300973
25,3,0.0,0.6521351180710324,11.691238460550258
25,4,1.0,0.769047502676535,0.0
25,4,0.75,0.7530687948867689,1.5978707789766067
25,4,0.5,0.6969362705929907,7.211123208354431
25,4,0.25,0.6213989643982492,14.764853827828583
25,4,0.0,0.5576207432607938,21.14267594157412
25,5,1.0,0.769047502676535,0.0
25,5,0.75,0.7440098495501437,2.503765312639128
25,5,0.5,0.7006466361205101,6.840086655602484
25,5,0.25,0.6740956381686293,9.495186450790571
25,5,0.0,0.6415845639952417,12.746293868129332
25,6,1.0,0.769047502676535,0.0
25,6,0.75,0.7615310738996908,0.751642877684422
25,6,0.5,0.7577649467711298,1.1282555905405167
25,6,0.25,0.7475981620718462,2.144934060468884
25,6,0.0,0.7434814907286175,2.556601194791752
25,7,1.0,0.769047502676535,0.0
25,7,0.75,0.7751286214301656,-0.6081118753630599
25,7,0.5,0.777535356948422,-0.848785427188703
25,7,0.25,0.7511493070096433,1.7898195666891659
25,7,0.0,0.7112061458465448,5.784135682999015
25,8,1.0,0.769047502676535,0.0
25,8,0.75,0.7681446185199592,0.09028841565758006
25,8,0.5,0.7782786632166561,-0.9231160540121075
25,8,0.25,0.7707425536994017,-0.16950510228667115
25,8,0.0,0.7240937537380789,4.4953748938456055
26,0,1.0,0.7213090969662516,0.0
26,0,0.75,0.7099545524388822,1.1354544527369392
26,0,0.5,0.6989431938095315,2.2365903156720046
26,0,0.25,0.6373423380429356,8.396675892331595
26,0,0.0,0.6020092229879848,11.92998739782668
26,1,1.0,0.7213090969662516,0.0
26,1,0.75,0.7183438259663304,0.29652709999211657
26,1,0.5,0.706680953162339,1.462814380391253
26,1,0.25,0.6636364926774048,5.767260428884679
26,1,0.0,0.635929015288858,8.538008167739353
26,2,1.0,0.7213090969662516,0.0
26,2,0.75,0.7202996218534704,0.10094751127811552
26,2,0.5,0.7092528390495272,1.2056257916724378
26,2,0.25,0.6615174653204052,5.979163164584634
26,2,0.0,0.6147477299572652,10.656136700898633
26,3,1.0,0.7213090969662516,0.0
26,3,0.75,0.7176920107705793,0.3617086195672248
26,3,0.5,0.7123088476040305,0.9000249362221102
26,3,0.25,0.7135617801751623,0.7747316791089309
26,3,0.0,0.6767827050500421,4.4526391916209445
26,4,1.0,0.7213090969662516,0.0
26,4,0.75,0.6957249901014659,2.5584106864785627
26,4,0.5,0.6767014296994683,4.460766726678322
26,4,0.25,0.6528300229405424,6.847907402570918
26,4,0.0,0.602950043247868,11.83590537183835
26,5,1.0,0.7213090969662516,0.0
26,5,0.75,0.7034564720966675,1.7852624869584055
26,5,0.5,0.6804038813332637,4.090521563298788
26,5,0.25,0.6200621772211481,10.124691974510347
26,5,0.0,0.5324688084096791,18.88402885565724
26,6,1.0,0.7213090969662516,0.0
26,6,0.75,0.7238310731365196,-0.2521976170268059
26,6,0.5,0.7311416125677138,-0.9832515601462255
26,6,0.25,0.7290833218213972,-0.7774224855145673
26,6,0.0,0.7251516897270661,-0.3842592760814556
26,7,1.0,0.7213090969662516,0.0
26,7,0.75,0.7225719748761223,-0.12628779098707854
26,7,0.5,0.7257014062349254,-0.4392309268673844
26,7,0.25,0.693465599002492,2.784349796375951
26,7,0.0,0.6422383467596233,7.907075020662823
26,8,1.0,0.7213090969662516,0.0
26,8,0.75,0.6980419744150037,2.3267122551247854
26,8,0.5,0.6688154861796122,5.249361078663939
26,8,0.25,0.6441274312376021,7.7181665728649484
26,8,0.0,0.6197345821784663,10.157451478778523
27,0,1.0,0.7992239645986864,0.0
27,0,0.75,0.8083097379084551,-0.9085773309768674
27,0,0.5,0.8261914499932268,-2.6967485394540414
27,0,0.25,0.8113308189515702,-1.2106854352883833
27,0,0.0,0.7859743808591082,1.3249583739578186
27,1,1.0,0.7992239645986864,0.0
27,1,0.75,0.7829317613431755,1.629220325551084
27,1,0.5,0.7734532832161443,2.5770681382542127
27,1,0.25,0.7628402246337549,3.6383739964931494
27,1,0.0,0.757570266477965,4.165369812072139
27,2,1.0,0.7992239645986864,0.0
27,2,0.75,0.8053046119698625,-0.6080647371176084
27,2,0.5,0.7938477535153818,0.537621108330455
27,2,0.25,0.7766486281104523,2.2575336488234066
27,2,0.0,0.7627152927847198,3.6508671813966553
27,3,1.0,0.7992239645986864,0.0
27,3,0.75,0.7960762267458554,0.31477378528309563
27,3,0.5,0.7808939005720501,1.8330064026636284
27,3,0.25,0.7562599110044559,4.29640535942305
27,3,0.0,0.6596970633243693,13.95269012743171
27,4,1.0,0.7992239645986864,0.0
27,4,0.75,0.7921220437358996,0.7101920862786826
27,4,0.5,0.7746106193147022,2.461334528398418
27,4,0.25,0.741166798718031,5.805716588065534
27,4,0.0,0.6576819585036016,14.154200609508482
27,5,1.0,0.7992239645986864,0.0
27,5,0.75,0.7708314227905035,2.8392541808182847
27,5,0.5,0.667541877972442,13.168208662624437
27,5,0.25,0.6117159059264323,18.750805867225406
27,5,0.0,0.5570295063439177,24.21944582547687
27,6,1.0,0.7992239645986864,0.0
27,6,0.75,0.7957349649829315,0.3488999615754884
27,6,0.5,0.7956903083346949,0.35336562639914915
27,6,0.25,0.7821444471292185,1.7079517469467898
27,6,0.0,0.7905399210819691,0.8684043516717255
27,7,1.0,0.7992239645986864,0.0
27,7,0.75,0.7985465656835504,0.06773989151359627
27,7,0.5,0.8142882311486963,-1.506426655000992
27,7,0.25,0.7975769084854131,0.16470561132733152
27,7,0.0,0.7627374407153058,3.6486523883380584
27,8,1.0,0.7992239645986864,0.0
27,8,0.75,0.8047409673031054,-0.5517002704419016
27,8,0.5,0.8141286320976293,-1.4904667498942925
27,8,0.25,0.8104293577073236,-1.1205393108637218
27,8,0.0,0.7777672261693584,2.1456738429327937
28,0,1.0,0.7969485272794828,0.0
28,0,0.75,0.8263366282172306,-2.9388100937747796
28,0,0.5,0.8301623891350854,-3.32138618556026
28,0,0.25,0.8334920495359266,-3.654352225644375
28,0,0.0,0.7842349152514493,1.271361202803356
28,1,1.0,0.7969485272794828,0.0
28,1,0.75,0.814495872283936,-1.7547345004453208
28,1,0.5,0.8189614579098494,-2.201293063036658
28,1,0.25,0.7774396794771956,1.9508847802287232
28,1,0.0,0.7449648381786126,5.198368910087026
28,2,1.0,0.7969485272794828,0.0
28,2,0.75,0.8008694894359876,-0.3920962156504726
28,2,0.5,0.782732440441867,1.4216086837615882
28,2,0.25,0.7764423150266972,2.0506212252785594
28,2,0.0,0.7578337393310135,3.9114787948469343
28,3,1.0,0.7969485272794828,0.0
28,3,0.75,0.8287440934515291,-3.1795566172046263
28,3,0.5,0.8323343561902377,-3.5385828910754813
28,3,0.25,0.7905189322480912,0.6429595031391622
28,3,0.0,0.7324268955287871,6.45216317506957
28,4,1.0,0.7969485272794828,0.0
28,4,0.75,0.8090703807747437,-1.2121853495260848
28,4,0.5,0.7835318804232417,1.341664685624111
28,4,0.25,0.7673464638814298,2.9602063398053047
28,4,0.0,0.7293303604517796,6.761816682770327
28,5,1.0,0.7969485272794828,0.0
28,5,0.75,0.7666565231366174,3.029200414286548
28,5,0.5,0.7224850747841133,7.446345249536956
28,5,0.25,0.6502804307848646,14.66680964946182
28,5,0.0,0.6161808630262141,18.076766425326873
28,6,1.0,0.7969485272794828,0.0
28,6,0.75,0.8027570807361522,-0.5808553456669308
28,6,0.5,0.8008845675447098,-0.3936040265226981
28,6,0.25,0.8043794674431397,-0.7430940163656863
28,6,0.0,0.8002651805488572,-0.3316653269374359
28,7,1.0,0.7969485272794828,0.0
28,7,0.75,0.7864449666354963,1.0503560643986498
28,7,0.5,0.7700123969527626,2.6936130326720265
28,7,0.25,0.7391482211117517,5.780030616773113
28,7,0.0,0.7131161126934487,8.383241458603418
28,8,1.0,0.7969485272794828,0.0
28,8,0.75,0.8085701216867374,-1.162159440725452
28,8,0.5,0.7917418151530705,0.5206712126412327
28,8,0.25,0.7710191106085477,2.592941667093518
28,8,0.0,0.7177728442018234,7.917568307765944
29,0,1.0,0.7702845655692893,0.0
29,0,0.75,0.7632426918740655,0.7041873695223799
29,0,0.5,0.7397927574542469,3.0491808115042374
29,0,0.25,0.6951214574188653,7.516310815042393
29,0,0.0,0.6251780367673737,14.510652880191554
29,1,1.0,0.7702845655692893,0.0
29,1,0.75,0.7765863916906623,-0.6301826121373089
29,1,0.5,0.7760690320751736,-0.5784466505884378
29,1,0.25,0.7604351499728849,0.9849415596404398
29,1,0.0,0.7109587996116835,5.932576595760574
29,2,1.0,0.7702845655692893,0.0
29,2,0.75,0.7785546581375173,-0.8270092568228082
29,2,0.5,0.7830536621058933,-1.2769096536604074
29,2,0.25,0.7921918950711738,-2.1907329501884565
29,2,0.0,0.7829321968544104,-1.2647631285121141
29,3,1.0,0.7702845655692893,0.0
29,3,0.75,0.7673262251128783,0.29583404564109683
29,3,0.5,0.7563020255218699,1.398254004741939
29,3,0.25,0.7572325721265065,1.3051993442782739
29,3,0.0,0.7283507164785027,4.193384909078657
29,4,1.0,0.7702845655692893,0.0
29,4,0.75,0.7583987226043089,1.1885842964980409
29,4,0.5,0.762558578081765,0.7725987487524288
29,4,0.25,0.7173480777009712,5.293648786831806
29,4,0.0,0.6596320470494366,11.06525185198527
29,5,1.0,0.7702845655692893,0.0
29,5,0.75,0.7697215342796737,0.05630312896155454
29,5,0.5,0.7543269606854904,1.5957604883798826
29,5,0.25,0.7038583757835517,6.642618978573756
29,5,0.0,0.6383244087191455,13.196015685014373
29,6,1.0,0.7702845655692893,0.0
29,6,0.75,0.7806898234349703,-1.0405257865681028
29,6,0.5,0.7883235089150726,-1.8038943345783376
29,6,0.25,0.7871794860595314,-1.6894920490242105
29,6,0.0,0.7797328778396299,-0.9448312270340598
29,7,1.0,0.7702845655692893,0.0
29,7,0.75,0.7878065107522538,-1.7521945182964571
29,7,0.5,0.7837929468457028,-1.3508381276413517
29,7,0.25,0.7655404305993069,0.4744134969982383
29,7,0.0,0.7291612802338489,4.112328533544041
29,8,1.0,0.7702845655692893,0.0
29,8,0.75,0.7497779718874701,2.0506593681819174
29,8,0.5,0.735271952265601,3.501261330368821
29,8,0.25,0.6997152360310255,7.056932953826378
29,8,0.0,0.6557628826462841,11.452168292300513
30,0,1.0,0.7925948603367958,0.0
30,0,0.75,0.8087250631884833,-1.6130202851687425
30,0,0.5,0.8193191858966391,-2.6724325559843276
30,0,0.25,0.7931935469186897,-0.059868658189388135
30,0,0.0,0.7617262451143976,3.0868615222398255
30,1,1.0,0.7925948603367958,0.0
30,1,0.75,0.7779407669346524,1.4654093402143409
30,1,0.5,0.7700208610809054,2.257399925589043
30,1,0.25,0.7554566998490535,3.713816048774232
30,1,0.0,0.7322682804465069,6.032657989028889
30,2,1.0,0.7925948603367958,0.0
30,2,0.75,0.7961059691358925,-0.3511108799096663
30,2,0.5,0.7701038502929091,2.249101004388676
30,2,0.25,0.7511211824758667,4.147367786092914
30,2,0.0,0.7346946486313406,5.790021170545523
30,3,1.0,0.7925948603367958,0.0
30,3,0.75,0.7730753796800452,1.9519480656750576
30,3,0.5,0.7614273755581316,3.1167484778664267
30,3,0.25,0.7584465810591173,3.4148279277678495
30,3,0.0,0.6560956987811181,13.649916155567777
30,4,1.0,0.7925948603367958,0.0
30,4,0.75,0.7822216951242874,1.0373165212508417
30,4,0.5,0.7621007528869717,3.049410744982417
30,4,0.25,0.7559298329350047,3.6665027401791117
30,4,0.0,0.7349322012638736,5.766265907292222
30,5,1.0,0.7925948603367958,0.0
30,5,0.75,0.7939898567331026,-0.13949963963068024
30,5,0.5,0.7732967627316556,1.929809760514023
30,5,0.25,0.6994874709543362,9.310738938245965
30,5,0.0,0.6379702268345461,15.462463350224976
30,6,1.0,0.7925948603367958,0.0
30,6,0.75,0.7853721951263072,0.7222665210488644
30,6,0.5,0.7981110938068978,-0.5516233470101994
30,6,0.25,0.8004710621372599,-0.7876201800464111
30,6,0.0,0.7980436424289392,-0.5448782092143389
30,7,1.0,0.7925948603367958,0.0
30,7,0.75,0.782483335290645,1.011152504615087
30,7,0.5,0.7701494793037983,2.2445381032997536
30,7,0.25,0.7252608110667348,6.733404927006104
30,7,0.0,0.6640878861565426,12.850697418025325
30,8,1.0,0.7925948603367958,0.0
30,8,0.75,0.7882766963345867,0.43181640022090795
30,8,0.5,0.7999537453925253,-0.7358885055729458
30,8,0.25,0.7803031626037127,1.229169773308314
30,8,0.0,0.7221410700960994,7.045379024069643
31,0,1.0,0.6852808028724209,0.0
31,0,0.75,0.6705503201524365,1.473048271998434
31,0,0.5,0.6553709359427093,2.9909866929711537
31,0,0.25,0.6274873968786223,5.779340599379856
31,0,0.0,0.612720786620049,7.256001625237185
31,1,1.0,0.6852808028724209,0.0
31,1,0.75,0.6791996685345665,0.6081134337854399
31,1,0.5,0.6589094992385719,2.6371303633848986
31,1,0.25,0.6241119495554996,6.1168853316921235
31,1,0.0,0.6100557639029612,7.522503896945965
31,2,1.0,0.6852808028724209,0.0
31,2,0.75,0.7006337921806615,-1.5352989308240583
31,2,0.5,0.6978176409730869,-1.253683810066597
31,2,0.25,0.6914176519352191,-0.6136849062798211
31,2,0.0,0.657467736671534,2.781306620088686
31,3,1.0,0.6852808028724209,0.0
31,3,0.75,0.6986731648807352,-1.3392362008314285
31,3,0.5,0.6902351851431887,-0.4954382270767832
31,3,0.25,0.6777886351929898,0.7492167679431061
31,3,0.0,0.6484902636172742,3.6790539255146637
31,4,1.0,0.6852808028724209,0.0
31,4,0.75,0.7017287444895932,-1.6447941617172335
31,4,0.5,0.688775900981428,-0.34950981090071664
31,4,0.25,0.6820678075125735,0.3212995359847426
31,4,0.0,0.6566751726818669,2.8605630190553955
31,5,1.0,0.6852808028724209,0.0
31,5,0.75,0.6984583988291515,-1.3177595956730626
31,5,0.5,0.654279795064778,3.100100780764292
31,5,0.25,0.5914360368714078,9.38447660010131
31,5,0.0,0.5556339683657257,12.964683450669522
31,6,1.0,0.6852808028724209,0.0
31,6,0.75,0.7083730155555616,-2.3092212683140767
31,6,0.5,0.6805679609652453,0.471284190717558
31,6,0.25,0.6786898837207498,0.6590919151671093
31,6,0.0,0.6480513278508864,3.722947502153451
31,7,1.0,0.6852808028724209,0.0
31,7,0.75,0.6800453354174656,0.5235467454955289
31,7,0.5,0.6573959541218691,2.788484875055175
31,7,0.25,0.6030155088700285,8.226529400239235
31,7,0.0,0.5626028120367808,12.267799083564013
31,8,1.0,0.6852808028724209,0.0
31,8,0.75,0.6883701320493417,-0.3089329176920841
31,8,0.5,0.6711200343810138,1.4160768491407127
31,8,0.25,0.6476513469343452,3.762945593807565
31,8,0.0,0.6185933403613764,6.6687462511044515
32,0,1.0,0.6635885228300181,0.0
32,0,0.75,0.6532600738198574,1.0328449010160723
32,0,0.5,0.6387245419826428,2.486398084737529
32,0,0.25,0.6055437932576472,5.8044729572370946
32,0,0.0,0.5884148083990106,7.5173714431007514
32,1,1.0,0.6635885228300181,0.0
32,1,0.75,0.6577046815776655,0.588384125235264
32,1,0.5,0.657752076174556,0.5836446655462124
32,1,0.25,0.630089428013946,3.349909481607216
32,1,0.0,0.5866204431985262,7.696807963149189
32,2,1.0,0.6635885228300181,0.0
32,2,0.75,0.6738623186438607,-1.027379581384258
32,2,0.5,0.6819336539647305,-1.8345131134712367
32,2,0.25,0.6793942288558454,-1.5805706025827315
32,2,0.0,0.6828477046405538,-1.9259181810535653
32,3,1.0,0.6635885228300181,0.0
32,3,0.75,0.6710928319862925,-0.7504309156274425
32,3,0.5,0.6593433095917808,0.4245213238237344
32,3,0.25,0.6656776357232219,-0.20891128932037928
32,3,0.0,0.656147047160436,0.7441475669582087
32,4,1.0,0.6635885228300181,0.0
32,4,0.75,0.6601771364955606,0.3411386334457478
32,4,0.5,0.642431937072003,2.1156585758015156
32,4,0.25,0.6211788315292279,4.240969130079019
32,4,0.0,0.624181486740195,3.94070360898231
32,5,1.0,0.6635885228300181,0.0
32,5,0.75,0.6582764241461163,0.5312098683901811
32,5,0.5,0.642025259698835,2.1563263131183175
32,5,0.25,0.5416313751467123,12.195714768330578
32,5,0.0,0.3579518662683163,30.56366565617018
32,6,1.0,0.6635885228300181,0.0
32,6,0.75,0.6573603327488513,0.6228190081166818
32,6,0.5,0.6420598935718516,2.1528629258166565
32,6,0.25,0.6392501671149935,2.433835571502463
32,6,0.0,0.6390932516893151,2.4495271140703045
32,7,1.0,0.6635885228300181,0.0
32,7,0.75,0.6513979861594889,1.2190536670529273
32,7,0.5,0.6410628185311845,2.2525704298833604
32,7,0.25,0.6491816250111444,1.440689781887372
32,7,0.0,0.6012849919223505,6.23035309076676
32,8,1.0,0.6635885228300181,0.0
32,8,0.75,0.6618801985847432,0.17083242452748948
32,8,0.5,0.6513089252712343,1.2279597558783828
32,8,0.25,0.6286027344261831,3.498578840383504
32,8,0.0,0.6162719282360843,4.731659459393378
33,0,1.0,0.8350895170471736,0.0
33,0,0.75,0.8428843674084571,-0.7794850361283467
33,0,0.5,0.8236716756583085,1.1417841388865146
33,0,0.25,0.7775003297116094,5.758918733556417
33,0,0.0,0.7452000936678822,8.98894233792914
33,1,1.0,0.8350895170471736,0.0
33,1,0.75,0.8340755819092658,0.10139351379078176
33,1,0.5,0.8138692540459675,2.1220263001206052
33,1,0.25,0.7937134049284427,4.137611211873093
33,1,0.0,0.7666667656787927,6.842275136838094
33,2,1.0,0.8350895170471736,0.0
33,2,0.75,0.8371846901582085,-0.20951731110349092
33,2,0.5,0.7961412878638024,3.8948229183371152
33,2,0.25,0.7793848018647717,5.570471518240194
33,2,0.0,0.74907132514461,8.601819190256366
33,3,1.0,0.8350895170471736,0.0
33,3,0.75,0.8508768237934905,-1.5787306746316898
33,3,0.5,0.8591107122425116,-2.4021195195337963
33,3,0.25,0.8251378765046327,0.995164054254094
33,3,0.0,0.7851392144377416,4.995030260943201
33,4,1.0,0.8350895170471736,0.0
33,4,0.75,0.8372158468722924,-0.21263298251188445
33,4,0.5,0.8240059067008606,1.1083610346313
33,4,0.25,0.8089499374354573,2.6139579611716313
33,4,0.0,0.7901644720203913,4.49250450267823
33,5,1.0,0.8350895170471736,0.0
33,5,0.75,0.8221582256001342,1.2931291447039417
33,5,0.5,0.8054731646208872,2.961635242628635
33,5,0.25,0.6233847539789333,21.17047630682403
33,5,0.0,0.5716298643930223,26.345965265415128
33,6,1.0,0.8350895170471736,0.0
33,6,0.75,0.836786438048255,-0.16969210010814306
33,6,0.5,0.8382768233966825,-0.31873063495089227
33,6,0.25,0.8377430076517836,-0.2653490604609954
33,6,0.0,0.8102631360796618,2.4826380967511774
33,7,1.0,0.8350895170471736,0.0
33,7,0.75,0.8410741218818765,-0.5984604834702867
33,7,0.5,0.818040424375266,1.7049092671907573
33,7,0.25,0.7761072073004642,5.898230974670938
33,7,0.0,0.6891075208356876,14.5981996211486
33,8,1.0,0.8350895170471736,0.0
33,8,0.75,0.8289574258065786,0.6132091240594995
33,8,0.5,0.814749673005399,2.033984404177458
33,8,0.25,0.7762699815377957,5.881953550937791
33,8,0.0,0.7415045922110592,9.358492483611435
34,0,1.0,0.8743210523455754,0.0
34,0,0.75,0.8670660670947489,0.7254985250826573
34,0,0.5,0.8642007388310868,1.012031351448861
34,0,0.25,0.8174066117675141,5.691444057806139
34,0,0.0,0.7829459956046652,9.13750567409103
34,1,1.0,0.8743210523455754,0.0
34,1,0.75,0.8742039015174978,0.011715082807761679
34,1,0.5,0.8545136147454695,1.9807437600105948
34,1,0.25,0.8435621956075057,3.0758856738069773
34,1,0.0,0.8103201142131979,6.400093813237751
34,2,1.0,0.8743210523455754,0.0
34,2,0.75,0.8556365881632565,1.868446418231895
34,2,0.5,0.8499557393534656,2.4365312992109867
34,2,0.25,0.7943252034583439,7.999584888723154
34,2,0.0,0.7661206401422855,10.82004122032899
34,3,1.0,0.8743210523455754,0.0
34,3,0.75,0.8545411503987178,1.9779901946857636
34,3,0.5,0.866186001377639,0.813505096793643
34,3,0.25,0.8418970616169056,3.242399072866986
34,3,0.0,0.766647712956388,10.767333938918744
34,4,1.0,0.8743210523455754,0.0
34,4,0.75,0.8740344920971689,0.028656024840656436
34,4,0.5,0.8711471679951609,0.31738843504145464
34,4,0.25,0.864968380019197,0.9352672326378486
34,4,0.0,0.8457048439235123,2.861620842206314
34,5,1.0,0.8743210523455754,0.0
34,5,0.75,0.8781078005571974,-0.37867482116219486
34,5,0.5,0.8593613198947622,1.495973245081328
34,5,0.25,0.836231794174855,3.8089258170720397
34,5,0.0,0.8215125351543364,5.280851719123902
34,6,1.0,0.8743210523455754,0.0
34,6,0.75,0.8698669655080734,0.4454086837502036
34,6,0.5,0.869709938964034,0.46111133815414096
34,6,0.25,0.866087159477874,0.8233892867701487
34,6,0.0,0.8578776859101909,1.6443366435384577
34,7,1.0,0.8743210523455754,0.0
34,7,0.75,0.8589893147517104,1.533173759386508
34,7,0.5,0.8436369068433929,3.068414550218257
34,7,0.25,0.8255917155868939,4.872933675868152
34,7,0.0,0.7528197738252086,12.150127852036686
34,8,1.0,0.8743210523455754,0.0
34,8,0.75,0.8651881142014899,0.9132938144085556
34,8,0.5,0.8494986299448133,2.4822422400762156
34,8,0.25,0.8224754090793114,5.184564326626406
34,8,0.0,0.7710094981096662,10.331155423590921
35,0,1.0,0.67320951300474,0.0
35,0,0.75,0.6718186960206673,0.1390816984072618
35,0,0.5,0.6541469709392247,1.9062542065515276
35,0,0.25,0.5993484523503738,7.386106065436615
35,0,0.0,0.505122767471608,16.808674553313196
35,1,1.0,0.67320951300474,0.0
35,1,0.75,0.6662684802723293,0.6941032732410646
35,1,0.5,0.6506672746176118,2.254223838712821
35,1,0.25,0.6239363434971532,4.927316950758676
35,1,0.0,0.5971627114034667,7.60468016012733
35,2,1.0,0.67320951300474,0.0
35,2,0.75,0.6881598579133134,-1.4950344908573387
35,2,0.5,0.6890727844718315,-1.5863271467091544
35,2,0.25,0.6759438402238089,-0.2734327219068966
35,2,0.0,0.6401119037769706,3.3097609227769387
35,3,1.0,0.67320951300474,0.0
35,3,0.75,0.6544977925838349,1.8711720420905076
35,3,0.5,0.6475211129376338,2.5688400067106154
35,3,0.25,0.6288409443315699,4.436856867317007
35,3,0.0,0.6128446461154022,6.036486688933773
35,4,1.0,0.67320951300474,0.0
35,4,0.75,0.6580311871215588,1.5178325883181132
35,4,0.5,0.6599924570236391,1.32170559811009
35,4,0.25,0.670166833899594,0.30426791051459956
35,4,0.0,0.6749568163895774,-0.17473033848374175
35,5,1.0,0.67320951300474,0.0
35,5,0.75,0.6778599738554594,-0.4650460850719407
35,5,0.5,0.6691589669052129,0.40505460995270415
35,5,0.25,0.6454498322417119,2.775968076302804
35,5,0.0,0.5608494838665573,11.236002913818266
35,6,1.0,0.67320951300474,0.0
35,6,0.75,0.6780107484761667,-0.4801235471426746
35,6,0.5,0.6985479749493323,-2.5338461944592328
35,6,0.25,0.6960200527991511,-2.2810539794411167
35,6,0.0,0.6871773665705199,-1.3967853565779897
35,7,1.0,0.67320951300474,0.0
35,7,0.75,0.6786219141682373,-0.5412401163497282
35,7,0.5,0.6836318840777853,-1.0422371073045333
35,7,0.25,0.6706515543576559,0.255795864708408
35,7,0.0,0.6395793821927548,3.363013081198518
35,8,1.0,0.67320951300474,0.0
35,8,0.75,0.6690373571630575,0.4172155841682512
35,8,0.5,0.6341500505669663,3.9059462437773695
35,8,0.25,0.6146216558833395,5.858785712140047
35,8,0.0,0.5881454555610692,8.506405744367074
36,0,1.0,0.6910862517327181,0.0
36,0,0.75,0.6759726341769685,1.511361755574958
36,0,0.5,0.6631703909247083,2.7915860808009785
36,0,0.25,0.6608757384409193,3.02105132917988
36,0,0.0,0.652515851305452,3.8570400427266116
36,1,1.0,0.6910862517327181,0.0
36,1,0.75,0.6889528660268576,0.21333857058605243
36,1,0.5,0.6946489461444287,-0.3562694411710643
36,1,0.25,0.6762416223725836,1.4844629360134531
36,1,0.0,0.6430935240480187,4.799272768469942
36,2,1.0,0.6910862517327181,0.0
36,2,0.75,0.6809694495553349,1.01168021773832
36,2,0.5,0.7052778608193823,-1.419160908666417
36,2,0.25,0.7028854880183953,-1.179923628567725
36,2,0.0,0.68437969753102,0.6706554201698078
36,3,1.0,0.6910862517327181,0.0
36,3,0.75,0.6846083122890505,0.6477939443667591
36,3,0.5,0.678083714423809,1.3002537308909101
36,3,0.25,0.6390740115304925,5.201224020222561
36,3,0.0,0.6266280220482241,6.4458229684493995
36,4,1.0,0.6910862517327181,0.0
36,4,0.75,0.6959036250075199,-0.4817373274801806
36,4,0.5,0.690700472703359,0.038577902935910124
36,4,0.25,0.6750393582896551,1.6046893443062982
36,4,0.0,0.6530152916918015,3.807096004091659
36,5,1.0,0.6910862517327181,0.0
36,5,0.75,0.7076033891068731,-1.6517137374155055
36,5,0.5,0.6927383832681646,-0.16521315354465216
36,5,0.25,0.6608682017858267,3.0218049946891368
36,5,0.0,0.6647091634533093,2.6377088279408767
36,6,1.0,0.6910862517327181,0.0
36,6,0.75,0.6902933724234968,0.07928793092213393
36,6,0.5,0.69111141882267,-0.00251670899519274
36,6,0.25,0.673450265050715,1.7635986682003058
36,6,0.0,0.6655613272012748,2.5524924531443283
36,7,1.0,0.6910862517327181,0.0
36,7,0.75,0.7024584455929055,-1.1372193860187396
36,7,0.5,0.6746060438783557,1.6480207854362439
36,7,0.25,0.6284239855827416,6.26622661499765
36,7,0.0,0.5853592361300041,10.572701560271403
36,8,1.0,0.6910862517327181,0.0
36,8,0.75,0.6696123543534142,2.147389737930394
36,8,0.5,0.6587470455748645,3.2339206157853573
36,8,0.25,0.634572957464572,5.651329426814611
36,8,0.0,0.6100397061550101,8.104654557770797
37,0,1.0,0.8858224077599935,0.0
37,0,0.75,0.8840217347897641,0.18006729702294555
37,0,0.5,0.8716755919553122,1.4146815804681356
37,0,0.25,0.8365291098771664,4.92932978828271
37,0,0.0,0.7920945947683178,9.372781299167576
37,1,1.0,0.8858224077599935,0.0
37,1,0.75,0.8655102473284292,2.0312160431564363
37,1,0.5,0.8673830876267004,1.843932013329319
37,1,0.25,0.8557183447617795,3.0104062998214
37,1,0.0,0.8165607507093013,6.92616570506922
37,2,1.0,0.8858224077599935,0.0
37,2,0.75,0.875336370382102,1.0486037377891555
37,2,0.5,0.8767261813453713,0.9096226414622266
37,2,0.25,0.8603156138104693,2.5506793949524265
37,2,0.0,0.7900464382159561,9.577596954403745
37,3,1.0,0.8858224077599935,0.0
37,3,0.75,0.8782851946313692,0.753721312862432
37,3,0.5,0.8701268116498413,1.5695596110152255
37,3,0.25,0.8500968752245299,3.572553253546362
37,3,0.0,0.8120613798277418,7.37610279322517
37,4,1.0,0.8858224077599935,0.0
37,4,0.75,0.8896962947456099,-0.3873886985616304
37,4,0.5,0.8902718159907577,-0.4449408230764118
37,4,0.25,0.8394319790069583,4.639042875303523
37,4,0.0,0.7961634452583005,8.965896250169303
37,5,1.0,0.8858224077599935,0.0
37,5,0.75,0.8887974871044106,-0.29750793444170975
37,5,0.5,0.8912615400212013,-0.5439132261207735
37,5,0.25,0.8299412443257107,5.588116343428284
37,5,0.0,0.77192694264682,11.38954651131735
37,6,1.0,0.8858224077599935,0.0
37,6,0.75,0.8857138882133545,0.010851954663904095
37,6,0.5,0.872855547855548,1.2966859904445571
37,6,0.25,0.8697526044478805,1.6069803312113051
37,6,0.0,0.8553249219915887,3.049748576840483
37,7,1.0,0.8858224077599935,0.0
37,7,0.75,0.8678579925546155,1.796441520537806
37,7,0.5,0.8502121299623888,3.561027779760473
37,7,0.25,0.7949735204401237,9.084888731986984
37,7,0.0,0.7736646920909466,11.215771566904698
37,8,1.0,0.8858224077599935,0.0
37,8,0.75,0.8597428106935964,2.6079597066397175
37,8,0.5,0.8481537458835193,3.766866187647422
37,8,0.25,0.8182187905964404,6.7603617163553125
37,8,0.0,0.8099908438634016,7.583156389659196
38,0,1.0,0.7813870623968641,0.0
38,0,0.75,0.7902768910595365,-0.8889828662672405
38,0,0.5,0.7674447264834638,1.3942335913400217
38,0,0.25,0.7225022971377997,5.888476525906439
38,0,0.0,0.7051853035708361,7.620175882602798
38,1,1.0,0.7813870623968641,0.0
38,1,0.75,0.7902474762843076,-0.8860413887443519
38,1,0.5,0.7830834442226178,-0.16963818257537122
38,1,0.25,0.7493614348321956,3.2025627564668424
38,1,0.0,0.7324029464318174,4.898411596504671
38,2,1.0,0.7813870623968641,0.0
38,2,0.75,0.7872079672779551,-0.5820904881090994
38,2,0.5,0.7822763684913218,-0.0889306094457698
38,2,0.25,0.7618420162803031,1.9545046116560938
38,2,0.0,0.7279176414483761,5.346942094848794
38,3,1.0,0.7813870623968641,0.0
38,3,0.75,0.7962619513970288,-1.487488900016476
38,3,0.5,0.817026849790674,-3.5639787393809907
38,3,0.25,0.8106725693306089,-2.9285506933744876
38,3,0.0,0.7806283963406402,0.07586660562238778
38,4,1.0,0.7813870623968641,0.0
38,4,0.75,0.7698373580934175,1.1549704303446595
38,4,0.5,0.7733066795219081,0.8080382874955938
38,4,0.25,0.7553869183367976,2.6000144060066455
38,4,0.0,0.6926903950224761,8.869666737438797
38,5,1.0,0.7813870623968641,0.0
38,5,0.75,0.7694860788868927,1.1900983509971375
38,5,0.5,0.757282650230926,2.410441216593806
38,5,0.25,0.7308457630045719,5.054129939229213
38,5,0.0,0.6742213244113378,10.71657379855263
38,6,1.0,0.7813870623968641,0.0
38,6,0.75,0.7847950150451982,-0.3407952648334156
38,6,0.5,0.7871533393014402,-0.5766276904576095
38,6,0.25,0.7802702499950913,0.11168124017727488
38,6,0.0,0.7770834194882111,0.4303642908652927
38,7,1.0,0.7813870623968641,0.0
38,7,0.75,0.7949513860652231,-1.3564323668359024
38,7,0.5,0.7770736265843287,0.43134358125354044
38,7,0.25,0.7525404522038549,2.884661019300916
38,7,0.0,0.6991472549974639,8.223980739940018
38,8,1.0,0.7813870623968641,0.0
38,8,0.75,0.7929249371308229,-1.1537874733958842
38,8,0.5,0.7687820141375719,1.2605048259292206
38,8,0.25,0.7625088926694221,1.887816972744194
38,8,0.0,0.7307139588043026,5.067310359256149
39,0,1.0,0.7437737321841612,0.0
39,0,0.75,0.7049328340543907,3.884089812977054
39,0,0.5,0.65556238321945,8.821134896471117
39,0,0.25,0.6283419360871966,11.543179609696463
39,0,0.0,0.596566068262077,14.720766392208418
39,1,1.0,0.7437737321841612,0.0
39,1,0.75,0.7327161724183029,1.1057559765858316
39,1,0.5,0.7101270686090837,3.3646663575077507
39,1,0.25,0.6944828594324675,4.929087275169374
39,1,0.0,0.6586470305095906,8.51267016745706
39,2,1.0,0.7437737321841612,0.0
39,2,0.75,0.7527453175101237,-0.8971585325962539
39,2,0.5,0.7323415025370981,1.1432229647063141
39,2,0.25,0.7073968621029251,3.6376870081236135
39,2,0.0,0.6826337044955741,6.114002768858706
39,3,1.0,0.7437737321841612,0.0
39,3,0.75,0.7051909136884031,3.8582818495758064
39,3,0.5,0.6768921330605552,6.688159912360603
39,3,0.25,0.6470669248979359,9.670680728622527
39,3,0.0,0.5709802681498601,17.279346403430107
39,4,1.0,0.7437737321841612,0.0
39,4,0.75,0.7317089815097448,1.206475067441637
39,4,0.5,0.6955398759923352,4.823385619182597
39,4,0.25,0.6570476230974353,8.672610908672596
39,4,0.0,0.600739151620151,14.30345805640102
39,5,1.0,0.7437737321841612,0.0
39,5,0.75,0.6494751365892892,9.429859559487197
39,5,0.5,0.572275270677465,17.149846150669624
39,5,0.25,0.5651141613400187,17.86595708441425
39,5,0.0,0.5025416132830277,24.12321189011335
39,6,1.0,0.7437737321841612,0.0
39,6,0.75,0.7496376212525743,-0.5863889068413064
39,6,0.5,0.7555949117848672,-1.1821179600705944
39,6,0.25,0.7611981858799611,-1.7424453695799924
39,6,0.0,0.7493395889351152,-0.5565856750954001
39,7,1.0,0.7437737321841612,0.0
39,7,0.75,0.7630218865695666,-1.9248154385405392
39,7,0.5,0.7543075882528234,-1.0533856068662195
39,7,0.25,0.7178615968677977,2.5912135316363494
39,7,0.0,0.6734256853737075,7.034804681045371
39,8,1.0,0.7437737321841612,0.0
39,8,0.75,0.7782236782236782,-3.444994603951701
39,8,0.5,0.7819318083394355,-3.8158076155274334
39,8,0.25,0.7809755264334483,-3.7201794249287046
39,8,0.0,0.7648006692372689,-2.1026937053107653
40,0,1.0,0.76661361299173,0.0
40,0,0.75,0.773649096819835,-0.7035483828104927
40,0,0.5,0.760168453287128,0.6445159704602021
40,0,0.25,0.7400153910024461,2.6598221989283966
40,0,0.0,0.685106715767502,8.150689722422799
40,1,1.0,0.76661361299173,0.0
40,1,0.75,0.7327322783674995,3.3881334624230486
40,1,0.5,0.7192937781173074,4.7319834874422595
40,1,0.25,0.6933067243580102,7.330688863371981
40,1,0.0,0.7018289901140007,6.478462287772935
40,2,1.0,0.76661361299173,0.0
40,2,0.75,0.7512424910522646,1.5371121939465437
40,2,0.5,0.7314557434812426,3.5157869510487383
40,2,0.25,0.7173247128120421,4.92889001796879
40,2,0.0,0.7043702987751241,6.224331421660589
40,3,1.0,0.76661361299173,0.0
40,3,0.75,0.774052728239331,-0.7439115247600991
40,3,0.5,0.7403769483211493,2.6236664670580723
40,3,0.25,0.6999573743414729,6.665623865025716
40,3,0.0,0.6555163084564631,11.109730453526689
40,4,1.0,0.76661361299173,0.0
40,4,0.75,0.7521149041969458,1.449870879478421
40,4,0.5,0.7381328166211147,2.848079637061529
40,4,0.25,0.7247193418694142,4.189427112231581
40,4,0.0,0.7111369240048804,5.547668898684965
40,5,1.0,0.76661361299173,0.0
40,5,0.75,0.7723808088172447,-0.5767195825514659
40,5,0.5,0.7604682433823705,0.6145369609359519
40,5,0.25,0.746514079956901,2.009953303482903
40,5,0.0,0.7328486318666484,3.376498112508164
40,6,1.0,0.76661361299173,0.0
40,6,0.75,0.7530942493793583,1.3519363612371715
40,6,0.5,0.728968117995608,3.764549499612202
40,6,0.25,0.7320890111296364,3.4524601862093607
40,6,0.0,0.723515691856067,4.309792113566302
40,7,1.0,0.76661361299173,0.0
40,7,0.75,0.7471148888359886,1.9498724155741387
40,7,0.5,0.7301166020675243,3.6497010924205764
40,7,0.25,0.6878741387527474,7.873947423898264
40,7,0.0,0.6526364774636042,11.397713552812583
40,8,1.0,0.76661361299173,0.0
40,8,0.75,0.7734578852410705,-0.6844272249340477
40,8,0.5,0.7652512915345779,0.13623214571520936
40,8,0.25,0.7397452571684386,2.686835582329139
40,8,0.0,0.7208630118078202,4.575060118390983
