subject,channel,f1_full,f1_occluded,drop_pp
1,0,0.5787643450900407,0.5260020997219504,5.276224536809027
1,1,0.5787643450900407,0.49372137071547123,8.504297437456948
1,2,0.5787643450900407,0.41070884899766835,16.805549609237236
1,3,0.5787643450900407,0.506223323880406,7.254102120963468
1,4,0.5787643450900407,0.4840382133043777,9.472613178566302
1,5,0.5787643450900407,0.4089292480370178,16.98350970530229
1,6,0.5787643450900407,0.5838016222729187,-0.5037277182877942
1,7,0.5787643450900407,0.5091313616479656,6.963298344207514
1,8,0.5787643450900407,0.4483345256370657,13.0429819452975
2,0,0.8078363599570811,0.7839427259584573,2.3893633998623875
2,1,0.8078363599570811,0.7166418931090296,9.119446684805155
2,2,0.8078363599570811,0.7327146485909047,7.51217113661764
2,3,0.8078363599570811,0.7753549278750891,3.2481432081992057
2,4,0.8078363599570811,0.7810832004601609,2.6753159496920254
2,5,0.8078363599570811,0.7795367509585114,2.829960899856976
2,6,0.8078363599570811,0.7581033242666841,4.9733035690397
2,7,0.8078363599570811,0.6698784404111339,13.795791954594726
2,8,0.8078363599570811,0.7225773253319676,8.525903462511353
3,0,0.8178954327924345,0.65891424091744,15.898119187499448
3,1,0.8178954327924345,0.6565887618721088,16.130667092032567
3,2,0.8178954327924345,0.650887325080736,16.70081077116985
3,3,0.8178954327924345,0.5675889763162252,25.03064564762093
3,4,0.8178954327924345,0.642033143885061,17.586228890737342
3,5,0.8178954327924345,0.6145609487625443,20.333448402989017
3,6,0.8178954327924345,0.8176633979218654,0.023203487056910888
3,7,0.8178954327924345,0.7221280616430329,9.576737114940158
3,8,0.8178954327924345,0.7660130808729434,5.188235191949109
4,0,0.732425942083156,0.5847146959877172,14.771124609543884
4,1,0.732425942083156,0.6576172615635936,7.4808680519562465
4,2,0.732425942083156,0.7336830810124727,-0.12571389293166702
4,3,0.732425942083156,0.6792189330586191,5.32070090245369
4,4,0.732425942083156,0.7324233087711155,0.0002633312040534186
4,5,0.732425942083156,0.5680229304722244,16.440301161093164
4,6,0.732425942083156,0.6929418272188264,3.948411486432968
4,7,0.732425942083156,0.6227875288912526,10.963841319190347
4,8,0.732425942083156,0.7366413112090455,-0.421536912588949
5,0,0.5298540364145816,0.44206627125345677,8.778776516112485
5,1,0.5298540364145816,0.5300491330229564,-0.01950966083748007
5,2,0.5298540364145816,0.5044189630048216,2.5435073409760034
5,3,0.5298540364145816,0.5356535571957849,-0.5799520781203271
5,4,0.5298540364145816,0.4956678509083715,3.418618550621011
5,5,0.5298540364145816,0.47096836091282085,5.888567550176077
5,6,0.5298540364145816,0.532955861843614,-0.31018254290323677
5,7,0.5298540364145816,0.4925127211495853,3.7341315264996346
5,8,0.5298540364145816,0.42907140900062485,10.078262741395678
6,0,0.7142010578935132,0.6556281749120959,5.857288298141727
6,1,0.7142010578935132,0.6492211407224051,6.497991717110807
6,2,0.7142010578935132,0.5941275020103525,12.00735558831607
6,3,0.7142010578935132,0.6003296358527448,11.387142204076838
6,4,0.7142010578935132,0.6195690451428495,9.463201275066368
6,5,0.7142010578935132,0.4075579826166953,30.66430752768179
6,6,0.7142010578935132,0.6453527917355818,6.884826615793138
6,7,0.7142010578935132,0.6252127787517987,8.898827914171449
6,8,0.7142010578935132,0.6320184240372941,8.218263385621905
7,0,0.7084839192459014,0.5664659871565114,14.201793208938994
7,1,0.7084839192459014,0.6260357313008658,8.244818794503562
7,2,0.7084839192459014,0.688315303405087,2.016861584081442
7,3,0.7084839192459014,0.598104165286868,11.037975395903333
7,4,0.7084839192459014,0.6476881669358159,6.079575231008549
7,5,0.7084839192459014,0.6862378207763794,2.224609846952197
7,6,0.7084839192459014,0.6125259433080288,9.595797593787259
7,7,0.7084839192459014,0.5397928392966478,16.869107994925358
7,8,0.7084839192459014,0.5459768389478095,16.25070802980919
8,0,0.7885670416955904,0.5831002603662884,20.546678132930207
8,1,0.7885670416955904,0.7120740699343096,7.649297176128089
8,2,0.7885670416955904,0.7757745385810342,1.2792503114556264
8,3,0.7885670416955904,0.7166392093904879,7.192783230510258
8,4,0.7885670416955904,0.6882412055981572,10.032583609743329
8,5,0.7885670416955904,0.588693118704832,19.987392299075847
8,6,0.7885670416955904,0.7890129727194404,-0.044593102384993255
8,7,0.7885670416955904,0.6825630923081701,10.600394938742031
8,8,0.7885670416955904,0.6605293922685227,12.803764942706774
9,0,0.8241230289231807,0.7543901195713473,6.973290935183341
9,1,0.8241230289231807,0.6816666480246969,14.245638089848377
9,2,0.8241230289231807,0.7784959833667068,4.5627045556473895
9,3,0.8241230289231807,0.808848607134576,1.527442178860472
9,4,0.8241230289231807,0.7669150582965549,5.720797062662575
9,5,0.8241230289231807,0.7370640528610547,8.705897606212599
9,6,0.8241230289231807,0.814520686655206,0.9602342267974628
9,7,0.8241230289231807,0.6373612785453717,18.676175037780894
9,8,0.8241230289231807,0.6909575242977999,13.316550462538078
10,0,0.7590265874185839,0.6620356209208444,9.699096649773942
10,1,0.7590265874185839,0.6424158602970853,11.661072712149856
10,2,0.7590265874185839,0.6766360479629688,8.239053945561503
10,3,0.7590265874185839,0.6775641951455397,8.14623922730442
10,4,0.7590265874185839,0.6968611072573607,6.216548016122314
10,5,0.7590265874185839,0.6436494967799168,11.537709063866707
10,6,0.7590265874185839,0.7159052376813286,4.312134973725524
10,7,0.7590265874185839,0.5335879651581915,22.543862226039234
10,8,0.7590265874185839,0.6371362495227211,12.18903378958628
11,0,0.8824343603240388,0.8169045893253949,6.552977099864387
11,1,0.8824343603240388,0.7517550284539489,13.067933187008984
11,2,0.8824343603240388,0.7666076027044771,11.582675761956162
11,3,0.8824343603240388,0.7336380398933767,14.879632043066204
11,4,0.8824343603240388,0.7710868578822558,11.134750244178292
11,5,0.8824343603240388,0.6637613381570866,21.867302216695215
11,6,0.8824343603240388,0.7958389280756628,8.659543224837595
11,7,0.8824343603240388,0.7375575195549086,14.487684076913022
11,8,0.8824343603240388,0.7768135359706083,10.562082435343045
12,0,0.8376912651761503,0.7976021106128754,4.008915456327489
12,1,0.8376912651761503,0.6655838932601178,17.210737191603254
12,2,0.8376912651761503,0.6949764732954049,14.271479188074544
12,3,0.8376912651761503,0.630754407424666,20.69368577514843
12,4,0.8376912651761503,0.5932638096154992,24.442745556065116
12,5,0.8376912651761503,0.6046321959117803,23.305906926437004
12,6,0.8376912651761503,0.8283794284011818,0.9311836774968496
12,7,0.8376912651761503,0.752081725652084,8.560953952406635
12,8,0.8376912651761503,0.7560527992692125,8.16384659069378
13,0,0.9106025475500117,0.8356762516719892,7.492629587802247
13,1,0.9106025475500117,0.8167671052417657,9.383544230824603
13,2,0.9106025475500117,0.783931395624792,12.667115192521972
13,3,0.9106025475500117,0.875232994022837,3.5369553527174635
13,4,0.9106025475500117,0.8052003743199556,10.540217323005606
13,5,0.9106025475500117,0.7301411427242188,18.046140482579286
13,6,0.9106025475500117,0.8904994447809409,2.010310276907079
13,7,0.9106025475500117,0.8372325180827851,7.337002946722659
13,8,0.9106025475500117,0.8682209692440812,4.238157830593048
14,0,0.8321299778864459,0.7375667335037012,9.456324438274477
14,1,0.8321299778864459,0.7440258423446197,8.810413554182627
14,2,0.8321299778864459,0.7307499436165932,10.138003426985275
14,3,0.8321299778864459,0.7148302700498106,11.729970783663536
14,4,0.8321299778864459,0.7442143063438874,8.791567154255853
14,5,0.8321299778864459,0.6615221198027751,17.060785808367086
14,6,0.8321299778864459,0.7958320452828139,3.629793260363201
14,7,0.8321299778864459,0.7298481382183275,10.228183966811844
14,8,0.8321299778864459,0.7209788666457652,11.115111124068077
15,0,0.8008356296807486,0.7115122904931822,8.93233391875664
15,1,0.8008356296807486,0.7391938995498081,6.164173013094054
15,2,0.8008356296807486,0.7495700901077633,5.12655395729853
15,3,0.8008356296807486,0.7563439345512413,4.449169512950735
15,4,0.8008356296807486,0.7192183399761787,8.161728970456995
15,5,0.8008356296807486,0.568977759333801,23.185787034694762
15,6,0.8008356296807486,0.7421172168168595,5.8718412863889125
15,7,0.8008356296807486,0.7677450616996867,3.3090567981061914
15,8,0.8008356296807486,0.8235199581783275,-2.2684328497578843
16,0,0.8405073915871258,0.7521833566334951,8.832403495363073
16,1,0.8405073915871258,0.7506813708303833,8.98260207567425
16,2,0.8405073915871258,0.7304974732781452,11.000991830898066
16,3,0.8405073915871258,0.6591208454950581,18.13865460920677
16,4,0.8405073915871258,0.689119859435763,15.13875321513628
16,5,0.8405073915871258,0.615398215971111,22.510917561601484
16,6,0.8405073915871258,0.8020717172907357,3.8435674296390165
16,7,0.8405073915871258,0.7372029303930812,10.330446119404469
16,8,0.8405073915871258,0.7467039617201884,9.380342986693746
17,0,0.7958778958517381,0.5853365556125636,21.05413402391745
17,1,0.7958778958517381,0.6855719315057512,11.030596434598683
17,2,0.7958778958517381,0.7524154781120724,4.346241773966564
17,3,0.7958778958517381,0.6426014124176521,15.327648343408596
17,4,0.7958778958517381,0.7549275192024494,4.095037664928869
17,5,0.7958778958517381,0.6099251749283829,18.595272092335513
17,6,0.7958778958517381,0.8054949311808377,-0.9617035329099632
17,7,0.7958778958517381,0.7302877508085688,6.559014504316929
17,8,0.7958778958517381,0.6696233553075187,12.625454054421937
18,0,0.7533513586631357,0.6677858519459992,8.556550671713659
18,1,0.7533513586631357,0.7032426158610365,5.01087428020992
18,2,0.7533513586631357,0.6960583097564512,5.729304890668452
18,3,0.7533513586631357,0.660000835791975,9.335052287116074
18,4,0.7533513586631357,0.6954041370199519,5.794722164318388
18,5,0.7533513586631357,0.6029128697200667,15.0438488943069
18,6,0.7533513586631357,0.7833586497019206,-3.0007291038784856
18,7,0.7533513586631357,0.6970048165984151,5.634654206472067
18,8,0.7533513586631357,0.6616515289150542,9.169982974808155
19,0,0.8117087012444094,0.7153397344926281,9.63689667517813
19,1,0.8117087012444094,0.7457565747954222,6.595212644898718
19,2,0.8117087012444094,0.7002784190701042,11.143028217430517
19,3,0.8117087012444094,0.6385927236627404,17.311597758166897
19,4,0.8117087012444094,0.632540563325452,17.916813791895734
19,5,0.8117087012444094,0.5526137774674322,25.909492377697717
19,6,0.8117087012444094,0.7944952853467917,1.7213415897617712
19,7,0.8117087012444094,0.7357735572173028,7.593514402710666
19,8,0.8117087012444094,0.7314228547015671,8.028584654284233
20,0,0.8001662035795244,0.6854716450519016,11.469455852762279
20,1,0.8001662035795244,0.6532938258333951,14.687237774612926
20,2,0.8001662035795244,0.6618693777508736,13.829682582865077
20,3,0.8001662035795244,0.7691408947172238,3.1025308862300593
20,4,0.8001662035795244,0.708273708665275,9.189249491424945
20,5,0.8001662035795244,0.7041397566098293,9.60264469696951
20,6,0.8001662035795244,0.7633768603384642,3.67893432410602
20,7,0.8001662035795244,0.6110470954426712,18.911910813685317
20,8,0.8001662035795244,0.7004281303684887,9.973807321103568
21,0,0.7703293019609165,0.5397411050178742,23.058819694304233
21,1,0.7703293019609165,0.7259550815052385,4.437422045567807
21,2,0.7703293019609165,0.7607756514121771,0.9553650548739467
21,3,0.7703293019609165,0.6963708109065687,7.395849105434782
21,4,0.7703293019609165,0.7680882637559824,0.22410382049341537
21,5,0.7703293019609165,0.5000305270643122,27.029877489660436
21,6,0.7703293019609165,0.7656857939763113,0.4643507984605222
21,7,0.7703293019609165,0.6922818080092847,7.80474939516318
21,8,0.7703293019609165,0.6938234455925004,7.650585636841612
22,0,0.7775659822607623,0.6255208279887896,15.204515427197274
22,1,0.7775659822607623,0.7133481057979796,6.421787646278276
22,2,0.7775659822607623,0.718056580199285,5.950940206147736
22,3,0.7775659822607623,0.6071538995182858,17.041208274247655
22,4,0.7775659822607623,0.6658737049967598,11.169227726400255
22,5,0.7775659822607623,0.6017831976255286,17.57827846352338
22,6,0.7775659822607623,0.7333641916505848,4.420179061017759
22,7,0.7775659822607623,0.6394217798892771,13.814420237148529
22,8,0.7775659822607623,0.6669480466914005,11.061793556936184
23,0,0.7926712368492468,0.5956482599735872,19.702297687565963
23,1,0.7926712368492468,0.7231411136946181,6.953012315462869
23,2,0.7926712368492468,0.7194275284078366,7.324370844141015
23,3,0.7926712368492468,0.6866268566628502,10.604438018639662
23,4,0.7926712368492468,0.7311329584731838,6.153827837606296
23,5,0.7926712368492468,0.6133342468848955,17.933698996435133
23,6,0.7926712368492468,0.7612766120287786,3.1394624820468175
23,7,0.7926712368492468,0.6775049437940843,11.516629305516247
23,8,0.7926712368492468,0.6922518437346068,10.041939311463999
24,0,0.7058033986799868,0.5758841525830218,12.991924609696493
24,1,0.7058033986799868,0.6084812887148665,9.732210996512025
24,2,0.7058033986799868,0.6252388637052361,8.056453497475069
24,3,0.7058033986799868,0.7918744091970347,-8.607101051704792
24,4,0.7058033986799868,0.5859455928126244,11.985780586736238
24,5,0.7058033986799868,0.4109742306266222,29.48291680533646
24,6,0.7058033986799868,0.6025292110166287,10.327418766335805
24,7,0.7058033986799868,0.5216405740378343,18.41628246421525
24,8,0.7058033986799868,0.6424594231690368,6.334397551094995
25,0,0.769047502676535,0.7232399144697561,4.580758820677888
25,1,0.769047502676535,0.7225880663260003,4.645943635053474
25,2,0.769047502676535,0.6615691052554735,10.747839742106146
25,3,0.769047502676535,0.6521351180710324,11.691238460550258
25,4,0.769047502676535,0.5576207432607938,21.14267594157412
25,5,0.769047502676535,0.6415845639952417,12.746293868129332
25,6,0.769047502676535,0.7434814907286175,2.556601194791752
25,7,0.769047502676535,0.7112061458465448,5.784135682999015
25,8,0.769047502676535,0.7240937537380789,4.4953748938456055
26,0,0.7213090969662516,0.6020092229879848,11.92998739782668
26,1,0.7213090969662516,0.635929015288858,8.538008167739353
26,2,0.7213090969662516,0.6147477299572652,10.656136700898633
26,3,0.7213090969662516,0.6767827050500421,4.4526391916209445
26,4,0.7213090969662516,0.602950043247868,11.83590537183835
26,5,0.7213090969662516,0.5324688084096791,18.88402885565724
26,6,0.7213090969662516,0.7251516897270661,-0.3842592760814556
26,7,0.7213090969662516,0.6422383467596233,7.907075020662823
26,8,0.7213090969662516,0.6197345821784663,10.157451478778523
27,0,0.7992239645986864,0.7859743808591082,1.3249583739578186
27,1,0.7992239645986864,0.757570266477965,4.165369812072139
27,2,0.7992239645986864,0.7627152927847198,3.6508671813966553
27,3,0.7992239645986864,0.6596970633243693,13.95269012743171
27,4,0.7992239645986864,0.6576819585036016,14.154200609508482
27,5,0.7992239645986864,0.5570295063439177,24.21944582547687
27,6,0.7992239645986864,0.7905399210819691,0.8684043516717255
27,7,0.7992239645986864,0.7627374407153058,3.6486523883380584
27,8,0.7992239645986864,0.7777672261693584,2.1456738429327937
28,0,0.7969485272794828,0.7842349152514493,1.271361202803356
28,1,0.7969485272794828,0.7449648381786126,5.198368910087026
28,2,0.7969485272794828,0.7578337393310135,3.9114787948469343
28,3,0.7969485272794828,0.7324268955287871,6.45216317506957
28,4,0.7969485272794828,0.7293303604517796,6.761816682770327
28,5,0.7969485272794828,0.6161808630262141,18.076766425326873
28,6,0.7969485272794828,0.8002651805488572,-0.3316653269374359
28,7,0.7969485272794828,0.7131161126934487,8.383241458603418
28,8,0.7969485272794828,0.7177728442018234,7.917568307765944
29,0,0.7702845655692893,0.6251780367673737,14.510652880191554
29,1,0.7702845655692893,0.7109587996116835,5.932576595760574
29,2,0.7702845655692893,0.7829321968544104,-1.2647631285121141
29,3,0.7702845655692893,0.7283507164785027,4.193384909078657
29,4,0.7702845655692893,0.6596320470494366,11.06525185198527
29,5,0.7702845655692893,0.6383244087191455,13.196015685014373
29,6,0.7702845655692893,0.7797328778396299,-0.9448312270340598
29,7,0.7702845655692893,0.7291612802338489,4.112328533544041
29,8,0.7702845655692893,0.6557628826462841,11.452168292300513
30,0,0.7925948603367958,0.7617262451143976,3.0868615222398255
30,1,0.7925948603367958,0.7322682804465069,6.032657989028889
30,2,0.7925948603367958,0.7346946486313406,5.790021170545523
30,3,0.7925948603367958,0.6560956987811181,13.649916155567777
30,4,0.7925948603367958,0.7349322012638736,5.766265907292222
30,5,0.7925948603367958,0.6379702268345461,15.462463350224976
30,6,0.7925948603367958,0.7980436424289392,-0.5448782092143389
30,7,0.7925948603367958,0.6640878861565426,12.850697418025325
30,8,0.7925948603367958,0.7221410700960994,7.045379024069643
31,0,0.6852808028724209,0.612720786620049,7.256001625237185
31,1,0.6852808028724209,0.6100557639029612,7.522503896945965
31,2,0.6852808028724209,0.657467736671534,2.781306620088686
31,3,0.6852808028724209,0.6484902636172742,3.6790539255146637
31,4,0.6852808028724209,0.6566751726818669,2.8605630190553955
31,5,0.6852808028724209,0.5556339683657257,12.964683450669522
31,6,0.6852808028724209,0.6480513278508864,3.722947502153451
31,7,0.6852808028724209,0.5626028120367808,12.267799083564013
31,8,0.6852808028724209,0.6185933403613764,6.6687462511044515
32,0,0.6635885228300181,0.5884148083990106,7.5173714431007514
32,1,0.6635885228300181,0.5866204431985262,7.696807963149189
32,2,0.6635885228300181,0.6828477046405538,-1.9259181810535653
32,3,0.6635885228300181,0.656147047160436,0.7441475669582087
32,4,0.6635885228300181,0.624181486740195,3.94070360898231
32,5,0.6635885228300181,0.3579518662683163,30.56366565617018
32,6,0.6635885228300181,0.6390932516893151,2.4495271140703045
32,7,0.6635885228300181,0.6012849919223505,6.23035309076676
32,8,0.6635885228300181,0.6162719282360843,4.731659459393378
33,0,0.8350895170471736,0.7452000936678822,8.98894233792914
33,1,0.8350895170471736,0.7666667656787927,6.842275136838094
33,2,0.8350895170471736,0.74907132514461,8.601819190256366
33,3,0.8350895170471736,0.7851392144377416,4.995030260943201
33,4,0.8350895170471736,0.7901644720203913,4.49250450267823
33,5,0.8350895170471736,0.5716298643930223,26.345965265415128
33,6,0.8350895170471736,0.8102631360796618,2.4826380967511774
33,7,0.8350895170471736,0.6891075208356876,14.5981996211486
33,8,0.8350895170471736,0.7415045922110592,9.358492483611435
34,0,0.8743210523455754,0.7829459956046652,9.13750567409103
34,1,0.8743210523455754,0.8103201142131979,6.400093813237751
34,2,0.8743210523455754,0.7661206401422855,10.82004122032899
34,3,0.8743210523455754,0.766647712956388,10.767333938918744
34,4,0.8743210523455754,0.8457048439235123,2.861620842206314
34,5,0.8743210523455754,0.8215125351543364,5.280851719123902
34,6,0.8743210523455754,0.8578776859101909,1.6443366435384577
34,7,0.8743210523455754,0.7528197738252086,12.150127852036686
34,8,0.8743210523455754,0.7710094981096662,10.331155423590921
35,0,0.67320951300474,0.505122767471608,16.808674553313196
35,1,0.67320951300474,0.5971627114034667,7.60468016012733
35,2,0.67320951300474,0.6401119037769706,3.3097609227769387
35,3,0.67320951300474,0.6128446461154022,6.036486688933773
35,4,0.67320951300474,0.6749568163895774,-0.17473033848374175
35,5,0.67320951300474,0.5608494838665573,11.236002913818266
35,6,0.67320951300474,0.6871773665705199,-1.3967853565779897
35,7,0.67320951300474,0.6395793821927548,3.363013081198518
35,8,0.67320951300474,0.5881454555610692,8.506405744367074
36,0,0.6910862517327181,0.652515851305452,3.8570400427266116
36,1,0.6910862517327181,0.6430935240480187,4.799272768469942
36,2,0.6910862517327181,0.68437969753102,0.6706554201698078
36,3,0.6910862517327181,0.6266280220482241,6.4458229684493995
36,4,0.6910862517327181,0.6530152916918015,3.807096004091659
36,5,0.6910862517327181,0.6647091634533093,2.6377088279408767
36,6,0.6910862517327181,0.6655613272012748,2.5524924531443283
36,7,0.6910862517327181,0.5853592361300041,10.572701560271403
36,8,0.6910862517327181,0.6100397061550101,8.104654557770797
37,0,0.8858224077599935,0.7920945947683178,9.372781299167576
37,1,0.8858224077599935,0.8165607507093013,6.92616570506922
37,2,0.8858224077599935,0.7900464382159561,9.577596954403745
37,3,0.8858224077599935,0.8120613798277418,7.37610279322517
37,4,0.8858224077599935,0.7961634452583005,8.965896250169303
37,5,0.8858224077599935,0.77192694264682,11.38954651131735
37,6,0.8858224077599935,0.8553249219915887,3.049748576840483
37,7,0.8858224077599935,0.7736646920909466,11.215771566904698
37,8,0.8858224077599935,0.8099908438634016,7.583156389659196
38,0,0.7813870623968641,0.7051853035708361,7.620175882602798
38,1,0.7813870623968641,0.7324029464318174,4.898411596504671
38,2,0.7813870623968641,0.7279176414483761,5.346942094848794
38,3,0.7813870623968641,0.7806283963406402,0.07586660562238778
38,4,0.7813870623968641,0.6926903950224761,8.869666737438797
38,5,0.7813870623968641,0.6742213244113378,10.71657379855263
38,6,0.7813870623968641,0.7770834194882111,0.4303642908652927
38,7,0.7813870623968641,0.6991472549974639,8.223980739940018
38,8,0.7813870623968641,0.7307139588043026,5.067310359256149
39,0,0.7437737321841612,0.596566068262077,14.720766392208418
39,1,0.7437737321841612,0.6586470305095906,8.51267016745706
39,2,0.7437737321841612,0.6826337044955741,6.114002768858706
39,3,0.7437737321841612,0.5709802681498601,17.279346403430107
39,4,0.7437737321841612,0.600739151620151,14.30345805640102
39,5,0.7437737321841612,0.5025416132830277,24.12321189011335
39,6,0.7437737321841612,0.7493395889351152,-0.5565856750954001
39,7,0.7437737321841612,0.6734256853737075,7.034804681045371
39,8,0.7437737321841612,0.7648006692372689,-2.1026937053107653
40,0,0.76661361299173,0.685106715767502,8.150689722422799
40,1,0.76661361299173,0.7018289901140007,6.478462287772935
40,2,0.76661361299173,0.7043702987751241,6.224331421660589
40,3,0.76661361299173,0.6555163084564631,11.109730453526689
40,4,0.76661361299173,0.7111369240048804,5.547668898684965
40,5,0.76661361299173,0.7328486318666484,3.376498112508164
40,6,0.76661361299173,0.723515691856067,4.309792113566302
40,7,0.76661361299173,0.6526364774636042,11.397713552812583
40,8,0.76661361299173,0.7208630118078202,4.575060118390983
