subject,channel,r,f1_drop_mean,f1_drop_sd
1,0,5,0.10446279515554399,0.012267270354230201
1,1,5,0.11668305382586082,0.00445116884457294
1,2,5,0.08717546560947478,0.005243617895307169
1,3,5,0.09146699713333357,0.010112262978252556
1,4,5,0.053903097895727184,0.00583115347634495
1,5,5,0.06702083265490899,0.005781450202624
1,6,5,0.024254112059048417,0.006266636389418016
1,7,5,0.12141215373525935,0.013876980743653655
1,8,5,0.15429941094561608,0.016793660631075662
2,0,5,0.05789895480124383,0.011270177690711957
2,1,5,0.08635826993081157,0.008546574474378643
2,2,5,0.11239064324674788,0.018385134948136587
2,3,5,0.05469239288666918,0.012885299298869378
2,4,5,0.07327851255234256,0.019195004723077173
2,5,5,0.08913062892512746,0.007141258280355376
2,6,5,0.05727133748365765,0.018180455616413224
2,7,5,0.16156970087183997,0.02188326158848095
2,8,5,0.09831326369925278,0.018339647130905672
3,0,5,0.16429683007222565,0.016992648637205912
3,1,5,0.17487226358021782,0.027033174036429276
3,2,5,0.1735172338643452,0.00917138682615797
3,3,5,0.20691638902472248,0.008993548318651986
3,4,5,0.14517967942185384,0.017627736745955035
3,5,5,0.13410599244997728,0.014855838498721144
3,6,5,0.015744967884868455,0.005546914527265797
3,7,5,0.12971711493054403,0.02040990309157807
3,8,5,0.14547812548837813,0.016713864566630265
4,0,5,0.10971737319536871,0.018122624191965503
4,1,5,0.11977330142053728,0.0193615026926117
4,2,5,0.06034784155956159,0.01847046579644125
4,3,5,0.0903840340694007,0.01426414568368555
4,4,5,0.037675921420770184,0.008309908467122727
4,5,5,0.14502945294073508,0.016796317181637054
4,6,5,0.03996883303321297,0.014504454704354788
4,7,5,0.12375691973008647,0.014478999346270118
4,8,5,0.07910660220535108,0.008044160732301488
5,0,5,0.05999815298535599,0.017398373727079246
5,1,5,0.04715327110770975,0.012031832054541575
5,2,5,0.0668438631064595,0.010905019608368963
5,3,5,0.025573111160407336,0.012402178794633642
5,4,5,0.06253373901954229,0.015195662088029789
5,5,5,0.08580233930108873,0.01618023134344657
5,6,5,0.010190248159319992,0.0039010403784395433
5,7,5,0.062300820390832165,0.011807745086843775
5,8,5,0.09786915509359029,0.012059663189390654
6,0,5,0.08221843839413265,0.023583846633762708
6,1,5,0.09850430737758106,0.01783629529946645
6,2,5,0.08285306898139003,0.010727666673599277
6,3,5,0.06789508237939575,0.02813280575186569
6,4,5,0.13814176659943406,0.015198435847174297
6,5,5,0.1711210390663575,0.012321192220649863
6,6,5,0.07871716476909622,0.019697164376501514
6,7,5,0.12308181480459432,0.009106037805256399
6,8,5,0.09190673421662374,0.005837243500014282
7,0,5,0.10695039011063659,0.01232610588225393
7,1,5,0.12305138966833298,0.014922140760960656
7,2,5,0.08977949548982773,0.019016106170838088
7,3,5,0.10316689952646632,0.02499436721512556
7,4,5,0.07125933171089045,0.009595096936321178
7,5,5,0.14384547705599476,0.02232134966891361
7,6,5,0.09736268214685677,0.013057817945083428
7,7,5,0.1561383441664215,0.009641802837106195
7,8,5,0.21593815641842018,0.008516661673896189
8,0,5,0.1680307495538308,0.017458612831368334
8,1,5,0.11036129823420085,0.016470402429657423
8,2,5,0.07146289265702052,0.011229363311925904
8,3,5,0.13088808787489442,0.015500322291597814
8,4,5,0.11104889168483703,0.00950006781901852
8,5,5,0.19306520428637197,0.013537473983212436
8,6,5,0.05837127414176209,0.0076190124298077585
8,7,5,0.1661739616375963,0.011572850485639673
8,8,5,0.18298654525397035,0.0038111736194492815
9,0,5,0.12323310351193173,0.008266957897427592
9,1,5,0.15147139324621714,0.00897882669843111
9,2,5,0.1512882882751345,0.020322654021582127
9,3,5,0.07481226435833208,0.02081181163160219
9,4,5,0.10226482090591396,0.016901050604535714
9,5,5,0.15369025339509212,0.016842741534042815
9,6,5,0.036721373164115945,0.009696513705222782
9,7,5,0.22824321938688125,0.025744560371149364
9,8,5,0.16196255604250534,0.0065668059592198695
10,0,5,0.14071633712997397,0.014016573771308865
10,1,5,0.11551553664359285,0.014062680756099854
10,2,5,0.09678269902112427,0.024769766786573635
10,3,5,0.1727053570219353,0.009913691185811702
10,4,5,0.0989052843420074,0.021660536732408333
10,5,5,0.10657045910442302,0.0050278522111673616
10,6,5,0.06719620246188321,0.02211451488894973
10,7,5,0.18782624587855004,0.007185548616545833
10,8,5,0.15894376932648002,0.006795485145945058
11,0,5,0.10357183217226615,0.007669354395256177
11,1,5,0.20512637159125724,0.013310807721446796
11,2,5,0.18058668108384118,0.014075169579944624
11,3,5,0.18937282386559143,0.011749114158702516
11,4,5,0.16261043830822075,0.019611921813164623
11,5,5,0.1424712411103752,0.012295054588671915
11,6,5,0.09955308683540898,0.007684326773747089
11,7,5,0.2287965119546484,0.01140962642281087
11,8,5,0.16486938945627774,0.007958824327441147
12,0,5,0.1058183362882601,0.0136766874998869
12,1,5,0.20231558276667233,0.010307949853543143
12,2,5,0.17178203120865332,0.009304363476644921
12,3,5,0.19260903767008625,0.02815117907407728
12,4,5,0.20113408369625202,0.011700466749667515
12,5,5,0.17835056724325116,0.010661355987623774
12,6,5,0.05112254148528086,0.007364572383836271
12,7,5,0.18440487423013296,0.008695887541863019
12,8,5,0.1464809736333506,0.011391621599053088
13,0,5,0.12316290275451058,0.011531458734354854
13,1,5,0.09756093173374895,0.014441954494711924
13,2,5,0.1284011510680227,0.008149115395112804
13,3,5,0.04251735582346643,0.005638630643793092
13,4,5,0.12283606170947274,0.006707818715918953
13,5,5,0.20556135850895493,0.016336107927835523
13,6,5,0.04167450939481121,0.009774705816005064
13,7,5,0.11317686838461667,0.007437813919904861
13,8,5,0.12869738941770284,0.01139916810563404
14,0,5,0.1597041324979012,0.00824720885408179
14,1,5,0.10224503172016013,0.013423604023098529
14,2,5,0.14913341742692068,0.010433814996173997
14,3,5,0.14804368045566502,0.007842311708778775
14,4,5,0.09637579543217349,0.011581226395948585
14,5,5,0.13228602746084903,0.01572296994572832
14,6,5,0.049913600196282146,0.010070038215818538
14,7,5,0.13779840392199355,0.011592703326662488
14,8,5,0.16849790020276736,0.010552663082640993
15,0,5,0.17466608675681003,0.011629497008085615
15,1,5,0.1391430739766194,0.009840298868020656
15,2,5,0.15289948275054105,0.010163670898361742
15,3,5,0.07252410261616941,0.01163228867462646
15,4,5,0.13335703235101484,0.012154149197349973
15,5,5,0.20608977168417084,0.0188870917224231
15,6,5,0.1413964581879632,0.011366476587443827
15,7,5,0.06608714610114956,0.02058870259592251
15,8,5,0.054658208076671835,0.011266492983537763
16,0,5,0.1162934617733975,0.01373193798317163
16,1,5,0.14778200939920075,0.016172583702134983
16,2,5,0.16758865932012768,0.009593353324022965
16,3,5,0.16462129757457233,0.015375452293582663
16,4,5,0.17365745005170802,0.014759156462020752
16,5,5,0.15857590911207137,0.01829741434634561
16,6,5,0.08751051738898481,0.009944383513422876
16,7,5,0.16441205259244668,0.010820593736847692
16,8,5,0.14392844290876128,0.009186514923262293
17,0,5,0.2414384933224456,0.010813990909949453
17,1,5,0.19203520275549973,0.012253980650632618
17,2,5,0.14259729826381093,0.007305282745401665
17,3,5,0.15232928788691322,0.006152509366838324
17,4,5,0.07794591344251807,0.01144150322572432
17,5,5,0.21609739179037274,0.013713305535594349
17,6,5,0.06344813302737129,0.012708272172757213
17,7,5,0.11507555463805992,0.010886424592022517
17,8,5,0.21136750311122077,0.019621499446631933
18,0,5,0.09471506174177091,0.014709854158829862
18,1,5,0.03328009087465291,0.012958301510687517
18,2,5,0.1370305907199874,0.01372183523423644
18,3,5,0.09334968387217384,0.025884270134299753
18,4,5,0.0764952089061363,0.011576642608192366
18,5,5,0.14176321950732254,0.01697181404302721
18,6,5,0.03308194864447371,0.018272273165450263
18,7,5,0.14871866331194378,0.020098527903810948
18,8,5,0.12462147455417175,0.014540316008754217
19,0,5,0.12588402472980198,0.006951467189141857
19,1,5,0.09237324335444372,0.01299127415740751
19,2,5,0.10902149406766688,0.012802564458456102
19,3,5,0.13310625105973115,0.015608854008514042
19,4,5,0.07513081319858987,0.004207653122254015
19,5,5,0.15738110583728646,0.014276012117397279
19,6,5,0.057400685971677044,0.008192847704873798
19,7,5,0.1536948062765956,0.011150326943022917
19,8,5,0.14527298191312904,0.009562183559444166
20,0,5,0.17565269098987807,0.007384585801657133
20,1,5,0.09959961533585082,0.0072689016693841205
20,2,5,0.13770422872712962,0.004115899519661663
20,3,5,0.04619589541227207,0.029291512898720805
20,4,5,0.14292973754005714,0.016517375818174668
20,5,5,0.16792114217240595,0.014582403197612889
20,6,5,0.04634167509598754,0.012453098484754468
20,7,5,0.11813995508148548,0.009270482144124025
20,8,5,0.17185857649693698,0.013467577198471487
21,0,5,0.18309235396502826,0.009930528479560852
21,1,5,0.06874412130524803,0.01668078170921436
21,2,5,0.0826031023556838,0.008524637522772698
21,3,5,0.10868946192958773,0.018583980702094056
21,4,5,0.1022978053901998,0.012087278300719383
21,5,5,0.16176218694192543,0.019914026654530445
21,6,5,0.06207523591558737,0.011674443757812696
21,7,5,0.1487404813803229,0.012606429665568636
21,8,5,0.12336926144968803,0.010580896415594261
22,0,5,0.1404165348655566,0.01951439580848711
22,1,5,0.10180395960632509,0.008416196706086532
22,2,5,0.1254168767157668,0.004734415730583135
22,3,5,0.12403773934001487,0.008477819215525033
22,4,5,0.13832234006812189,0.011791496181570642
22,5,5,0.1248897764537911,0.01517075513830714
22,6,5,0.04859540256024615,0.014625630470412015
22,7,5,0.19464282511453931,0.012865719714699885
22,8,5,0.15176661725558332,0.013457139039576519
23,0,5,0.1769437798343127,0.01729409384679452
23,1,5,0.13258515986741706,0.004869798806550097
23,2,5,0.09201007814355293,0.008420219010109493
23,3,5,0.11260557478651116,0.010068883927733098
23,4,5,0.06136133263722563,0.009707986894100245
23,5,5,0.1287392970622982,0.01228648804908007
23,6,5,0.06002652435228606,0.013783085018833394
23,7,5,0.15525302985181613,0.016105908170323587
23,8,5,0.14139229261274294,0.0068545508710682115
24,0,5,0.12244754382754611,0.010377431228261524
24,1,5,0.13467479775112548,0.010413740284263003
24,2,5,0.1899556696671829,0.007866637997809971
24,3,5,0.06435862542063397,0.015412721806989795
24,4,5,0.17041039123402896,0.00947433435704951
24,5,5,0.15779024585989093,0.008638655628915606
24,6,5,0.08634866461103959,0.014268891634933346
24,7,5,0.16782938967194638,0.01499244668619681
24,8,5,0.109794923515987,0.01354717859977774
25,0,5,0.11584110648216954,0.006175854149001025
25,1,5,0.1459190814832182,0.007481126975196924
25,2,5,0.16670954580242178,0.010841109165312307
25,3,5,0.13248450947212914,0.017320630665556398
25,4,5,0.1545597677175026,0.010207608067146436
25,5,5,0.14822504765936168,0.009572373192458445
25,6,5,0.032585140180855655,0.010844275511759503
25,7,5,0.12389167947538189,0.018447731812282726
25,8,5,0.08625719764233086,0.012136436875609325
26,0,5,0.1618680810773156,0.018296544608935955
26,1,5,0.12452396340829316,0.01103988493154828
26,2,5,0.14189693288592298,0.012655182945821917
26,3,5,0.07060595348103085,0.012624035610904593
26,4,5,0.13788665197351116,0.013566999560737989
26,5,5,0.15204683189010698,0.008033149530246284
26,6,5,0.019652915125611292,0.009761430222859824
26,7,5,0.14526852304870372,0.01057964409927497
26,8,5,0.12371145378012183,0.010241406214336715
27,0,5,0.12163927739077474,0.010201846356404596
27,1,5,0.02971046014906844,0.014555202596577978
27,2,5,0.12123934934653435,0.007182680895262448
27,3,5,0.11693083192445616,0.014846160160841242
27,4,5,0.1147497106552027,0.014075408371139495
27,5,5,0.19997299930173237,0.015864353082058823
27,6,5,0.024955114840023017,0.009991664441371825
27,7,5,0.13286312179582005,0.01463519167470481
27,8,5,0.07597112771291525,0.013918667783137792
28,0,5,0.09272490157622118,0.022101496142603202
28,1,5,0.09843045184243335,0.010502350545014066
28,2,5,0.05895483367119292,0.009209808544681708
28,3,5,0.12850548782825416,0.013542701898563252
28,4,5,0.13169904377462197,0.0025796672889247477
28,5,5,0.21488915857129937,0.004268771342488748
28,6,5,0.044595979564006696,0.00946221714687337
28,7,5,0.12513294189963264,0.01370921406692606
28,8,5,0.1692426342998652,0.013390089470067887
29,0,5,0.16917468789888893,0.013609479827802652
29,1,5,0.1046316730795556,0.012877257476267286
29,2,5,0.10805954947380045,0.018115703342937092
29,3,5,0.07171384804938138,0.009258147088023513
29,4,5,0.14811754599149682,0.01888539640892793
29,5,5,0.20226807545698583,0.00971283757694762
29,6,5,0.039798018186718284,0.0059912957133841675
29,7,5,0.1245089326789216,0.006080653703763236
29,8,5,0.15830564689190668,0.007759909402425058
30,0,5,0.08160871557327476,0.011735682665104104
30,1,5,0.056458945177418604,0.01969946239758977
30,2,5,0.13774798053570256,0.011735247405971622
30,3,5,0.0913601545476517,0.009272592319675073
30,4,5,0.0843304142636947,0.0032047636568187767
30,5,5,0.18646088401991873,0.017931166144340274
30,6,5,0.016194871809322598,0.012000340802583727
30,7,5,0.1693062894712243,0.01313018503337851
30,8,5,0.10343215764104981,0.01701396923022932
31,0,5,0.05975288576999747,0.004712880071680517
31,1,5,0.10342501196291506,0.013208079567526839
31,2,5,0.0839552624758424,0.018315556468525545
31,3,5,0.06280150579851289,0.006892323800866635
31,4,5,0.1127840029780667,0.018282126112683393
31,5,5,0.11283258061200344,0.012795737860144926
31,6,5,0.09252712237484398,0.009471876489900407
31,7,5,0.14885956894064153,0.012344132658328299
31,8,5,0.0990796525324589,0.011078473999980198
32,0,5,0.10988736439399391,0.020146535255772206
32,1,5,0.07381916857184279,0.0185017121236221
32,2,5,0.07869766294807023,0.012893227280796055
32,3,5,0.030107663448110843,0.015114122596745598
32,4,5,0.09661207688232894,0.018345390495782807
32,5,5,0.2176270590314088,0.00778773832326242
32,6,5,0.01470792001355874,0.01039254801135005
32,7,5,0.09770512479732237,0.009336449256071721
32,8,5,0.028403231051420952,0.012985942279353697
33,0,5,0.18802459601219665,0.012280925205760077
33,1,5,0.13934549349044015,0.012203040265189497
33,2,5,0.16610779279934482,0.008353563219712614
33,3,5,0.09617135234589931,0.009037888398745678
33,4,5,0.10684967144048249,0.014708188212162451
33,5,5,0.18770565898212474,0.012917995961358127
33,6,5,0.04482022704599635,0.00861572394331736
33,7,5,0.139462562075427,0.008811173871908728
33,8,5,0.148009120809429,0.012383622948482617
34,0,5,0.17054054517256548,0.00932039439037351
34,1,5,0.10634557448899129,0.014740689731166596
34,2,5,0.14077512198007996,0.008932690140973374
34,3,5,0.17604766231598937,0.00967787539958234
34,4,5,0.05852568264525877,0.005362433874942276
34,5,5,0.04395534326095547,0.017076418035817185
34,6,5,0.03481863430719412,0.00921937895804997
34,7,5,0.1583797076879063,0.012000501305017956
34,8,5,0.13020569954228417,0.012463620777098127
35,0,5,0.16255339443462175,0.01037705093674677
35,1,5,0.09823858948566762,0.007815775976457587
35,2,5,0.09407169670752773,0.011153807476432314
35,3,5,0.05473608063657511,0.004668313231191457
35,4,5,0.008401135374878632,0.018276028199330527
35,5,5,0.10734009561879554,0.008748081470103771
35,6,5,0.035614900509641,0.012663175144487162
35,7,5,0.09487798995787151,0.005292707971107289
35,8,5,0.08674022744837998,0.014412311330394771
36,0,5,0.039349518969557316,0.01725997101937406
36,1,5,0.05600925077935579,0.008150236466953256
36,2,5,0.05117428858105479,0.008133211841286951
36,3,5,0.07212252150658756,0.015637488412248622
36,4,5,0.07425325261447147,0.011420599407533448
36,5,5,0.12931060190301033,0.013578828745821406
36,6,5,0.04236577926921903,0.011030942578658184
36,7,5,0.1387245025710724,0.0050544471094470305
36,8,5,0.09497375261496688,0.006916855647255975
37,0,5,0.1451369819629103,0.012387360562673698
37,1,5,0.14580315553580964,0.00903465858748227
37,2,5,0.16173456094027344,0.004682876094565773
37,3,5,0.12476867344462823,0.018079414282492885
37,4,5,0.09956136355849146,0.016524807763572406
37,5,5,0.12132955110996321,0.005158082080239838
37,6,5,0.06509163933032724,0.008126886921880667
37,7,5,0.16770436660890795,0.01382630625707031
37,8,5,0.10753790646380383,0.024171686848531625
38,0,5,0.08980363879859836,0.009492699449267582
38,1,5,0.08186125113058598,0.006605528171612823
38,2,5,0.08119228129581899,0.014716186235969632
38,3,5,0.08445533139477648,0.024641624263739555
38,4,5,0.17719181251194074,0.015539588957451432
38,5,5,0.07474804241350264,0.017993300927813864
38,6,5,0.03480771244976229,0.00610718330465117
38,7,5,0.10949880565554788,0.008193907885865876
38,8,5,0.06501471513207387,0.013399072237268238
39,0,5,0.09954140660295296,0.01645596385046619
39,1,5,0.11243417532148219,0.010935657589675166
39,2,5,0.09962297569262332,0.012015239788333179
39,3,5,0.12091429743515762,0.005201461824698093
39,4,5,0.09409917180436626,0.015597591978902097
39,5,5,0.13680207524423493,0.012245729062602144
39,6,5,0.05091513899987108,0.007271194750688299
39,7,5,0.09812361654135252,0.009329409290759089
39,8,5,0.0639967405187059,0.011858718370346515
40,0,5,0.12475740972821128,0.011479595551571617
40,1,5,0.07631558825529627,0.011910759805258825
40,2,5,0.0800386125797506,0.021406530214180913
40,3,5,0.03119730648323036,0.014854052058973811
40,4,5,0.09957593812416472,0.020349265675835244
40,5,5,0.1023216790808387,0.008634392222413956
40,6,5,0.06910850296024366,0.006742737702089769
40,7,5,0.1518391178961151,0.014739962096093297
40,8,5,0.09606399219190656,0.017175459464205355
