subject,channel,alpha,f1,drop_pp
1,0,1.0,0.5496060127339748,0.0
1,0,0.75,0.5558445747909895,-0.6238562057014674
1,0,0.5,0.532270787562959,1.7335225171015822
1,0,0.25,0.4929494279183391,5.665658481563568
1,0,0.0,0.46292673273534524,8.667927999862957
1,1,1.0,0.5496060127339748,0.0
1,1,0.75,0.5994534235605664,-4.984741082659161
1,1,0.5,0.6116170095484328,-6.201099681445799
1,1,0.25,0.5960342148036898,-4.642820206971498
1,1,0.0,0.5810719786278011,-3.146596589382633
1,2,1.0,0.5496060127339748,0.0
1,2,0.75,0.5681839796250135,-1.8577966891038744
1,2,0.5,0.5538199497822821,-0.42139370483073035
1,2,0.25,0.5360653488984446,1.354066383553021
1,2,0.0,0.4978340282179968,5.177198451597798
1,3,1.0,0.5496060127339748,0.0
1,3,0.75,0.5217541510110997,2.7851861722875126
1,3,0.5,0.4950324120610826,5.457360067289219
1,3,0.25,0.4702828715116626,7.932314122231221
1,3,0.0,0.4364713393889595,11.313467334501532
1,4,1.0,0.5496060127339748,0.0
1,4,0.75,0.5648000455909973,-1.5194032857022477
1,4,0.5,0.5702044309793365,-2.0598418245361683
1,4,0.25,0.5740210036337402,-2.44149908997654
1,4,0.0,0.5499076844417512,-0.03016717077763964
1,5,1.0,0.5496060127339748,0.0
1,5,0.75,0.515919591681145,3.368642105282982
1,5,0.5,0.4595830448405461,9.002296789342873
1,5,0.25,0.4045672344712856,14.50387782626892
1,5,0.0,0.38193644364088475,16.766956909309005
1,6,1.0,0.5496060127339748,0.0
1,6,0.75,0.5709357691162278,-2.1329756382252985
1,6,0.5,0.6041081015817491,-5.45020888477743
1,6,0.25,0.6124479623137599,-6.284194957978507
1,6,0.0,0.6075544826696788,-5.794846993570402
1,7,1.0,0.5496060127339748,0.0
1,7,0.75,0.5714574624471562,-2.1851449713181426
1,7,0.5,0.5882625284492075,-3.8656515715232653
1,7,0.25,0.5823928907496477,-3.2786878015672927
1,7,0.0,0.5523602813027642,-0.2754268568789353
1,8,1.0,0.5496060127339748,0.0
1,8,0.75,0.5512277979219055,-0.16217851879306577
1,8,0.5,0.544900626032814,0.47053867011608297
1,8,0.25,0.5275668766790629,2.2039136054911923
1,8,0.0,0.49145755865874086,5.814845407523395
2,0,1.0,0.8296374584632948,0.0
2,0,0.75,0.8160327039645638,1.3604754498730998
2,0,0.5,0.801850523568696,2.7786934894598825
2,0,0.25,0.7717424923988205,5.789496606447431
2,0,0.0,0.7328567618232995,9.678069663999533
2,1,1.0,0.8296374584632948,0.0
2,1,0.75,0.7901364966223365,3.9500961840958304
2,1,0.5,0.7630046651569774,6.6632793306317435
2,1,0.25,0.7390026951169185,9.063476334637633
2,1,0.0,0.7047617438432524,12.487571462004244
2,2,1.0,0.8296374584632948,0.0
2,2,0.75,0.8236365450629903,0.6000913400304508
2,2,0.5,0.8221890092661246,0.7448449197170248
2,2,0.25,0.7839079091541811,4.5729549309113775
2,2,0.0,0.7436122059152817,8.602525254801318
2,3,1.0,0.8296374584632948,0.0
2,3,0.75,0.8222616623345087,0.7375796128786138
2,3,0.5,0.8031446016303605,2.649285683293434
2,3,0.25,0.7612995576586645,6.833790080463031
2,3,0.0,0.7612534510693233,6.838400739397155
2,4,1.0,0.8296374584632948,0.0
2,4,0.75,0.8621708594694436,-3.2533401006148766
2,4,0.5,0.8527814744176215,-2.314401595432669
2,4,0.25,0.8398216086665836,-1.0184150203288778
2,4,0.0,0.8204983443285003,0.9139114134794513
2,5,1.0,0.8296374584632948,0.0
2,5,0.75,0.8432794202935634,-1.3641961830268556
2,5,0.5,0.8242006421268248,0.5436816336470085
2,5,0.25,0.7689776961929512,6.065976227034364
2,5,0.0,0.7088617320388186,12.07757264244762
2,6,1.0,0.8296374584632948,0.0
2,6,0.75,0.8268540389871833,0.2783419476111493
2,6,0.5,0.8128540912077484,1.678336725554641
2,6,0.25,0.7896845254672313,3.9952932996063506
2,6,0.0,0.770954207962169,5.868325050112588
2,7,1.0,0.8296374584632948,0.0
2,7,0.75,0.8283403646772904,0.12970937860043996
2,7,0.5,0.8071988802009071,2.243857826238771
2,7,0.25,0.7472511752593731,8.238628320392172
2,7,0.0,0.6905691770379038,13.906828142539107
2,8,1.0,0.8296374584632948,0.0
2,8,0.75,0.812809156466227,1.6828301997067863
2,8,0.5,0.7854551723935058,4.418228606978902
2,8,0.25,0.7334613209286251,9.61761375346697
2,8,0.0,0.699377990430622,13.025946803267285
3,0,1.0,0.8755605934882251,0.0
3,0,0.75,0.8605249130341095,1.503568045411563
3,0,0.5,0.8285455804133728,4.701501307485234
3,0,0.25,0.7916817846735087,8.387880881471643
3,0,0.0,0.7183466572018405,15.721393628638458
3,1,1.0,0.8755605934882251,0.0
3,1,0.75,0.873491066206298,0.20695272819271082
3,1,0.5,0.8593412969806814,1.6219296507543723
3,1,0.25,0.8500867227562143,2.5473870732010795
3,1,0.0,0.7856181455622425,8.994244792598261
3,2,1.0,0.8755605934882251,0.0
3,2,0.75,0.8627223893629199,1.283820412530523
3,2,0.5,0.8269005942180814,4.865999927014375
3,2,0.25,0.8049489819606985,7.06116115275266
3,2,0.0,0.748993041272453,12.65675522157721
3,3,1.0,0.8755605934882251,0.0
3,3,0.75,0.8514083665327468,2.415222695547836
3,3,0.5,0.8334391952362551,4.212139825197003
3,3,0.25,0.7772033094707499,9.835728401747524
3,3,0.0,0.6097029270150253,26.585766647319986
3,4,1.0,0.8755605934882251,0.0
3,4,0.75,0.853582799667137,2.197779382108811
3,4,0.5,0.8223676466413854,5.319294684683973
3,4,0.25,0.7867902913543289,8.877030213389626
3,4,0.0,0.7157141222833369,15.984647120488827
3,5,1.0,0.8755605934882251,0.0
3,5,0.75,0.8345901356879861,4.0970457800239
3,5,0.5,0.808937430023152,6.662316346507313
3,5,0.25,0.7811673833412964,9.439321014692869
3,5,0.0,0.7130489256611442,16.251166782708093
3,6,1.0,0.8755605934882251,0.0
3,6,0.75,0.8801458411294013,-0.4585247641176182
3,6,0.5,0.8695125569968776,0.6048036491347553
3,6,0.25,0.8564039361188798,1.9156657369345353
3,6,0.0,0.8580523131474009,1.750828034082419
3,7,1.0,0.8755605934882251,0.0
3,7,0.75,0.8374135279516739,3.814706553655123
3,7,0.5,0.7824883850911698,9.307220839705533
3,7,0.25,0.7562071531091836,11.93534403790415
3,7,0.0,0.7357888987924834,13.977169469574168
3,8,1.0,0.8755605934882251,0.0
3,8,0.75,0.8637208408132333,1.1839752674991821
3,8,0.5,0.8483844858471836,2.7176107641041503
3,8,0.25,0.8148171313238848,6.0743462164340345
3,8,0.0,0.7613656617363755,11.419493175184957
4,0,1.0,0.8135748498835325,0.0
4,0,0.75,0.7793100759789353,3.4264773904597146
4,0,0.5,0.7367956442220276,7.677920566150487
4,0,0.25,0.6686187782763445,14.495607160718793
4,0,0.0,0.6445337512216492,16.90410986618832
4,1,1.0,0.8135748498835325,0.0
4,1,0.75,0.8098764661264661,0.3698383757066326
4,1,0.5,0.7910383074976748,2.253654238585767
4,1,0.25,0.7487000816105002,6.4874768273032295
4,1,0.0,0.6935478293740891,12.002702050944336
4,2,1.0,0.8135748498835325,0.0
4,2,0.75,0.737245347796408,7.632950208712441
4,2,0.5,0.7042682996734904,10.93065502100421
4,2,0.25,0.6334688974688976,18.01059524146349
4,2,0.0,0.5415508331663661,27.202401671716636
4,3,1.0,0.8135748498835325,0.0
4,3,0.75,0.7719112227379783,4.166362714555416
4,3,0.5,0.756386448862177,5.718840102135547
4,3,0.25,0.7287802911801338,8.47945587033987
4,3,0.0,0.7172701641336823,9.630468574985018
4,4,1.0,0.8135748498835325,0.0
4,4,0.75,0.8470583338660274,-3.34834839824949
4,4,0.5,0.8325551105169715,-1.898026063343905
4,4,0.25,0.8014328072174197,1.214204266611274
4,4,0.0,0.7553469095938736,5.822794028965883
4,5,1.0,0.8135748498835325,0.0
4,5,0.75,0.7250157501705063,8.855909971302612
4,5,0.5,0.6854254630872767,12.814938679625577
4,5,0.25,0.6277872799515828,18.57875699319497
4,5,0.0,0.5423475095058754,27.122734037765706
4,6,1.0,0.8135748498835325,0.0
4,6,0.75,0.7748194585777735,3.8755391305759
4,6,0.5,0.7475943651928763,6.5980484690656205
4,6,0.25,0.7079638718997934,10.561097798373908
4,6,0.0,0.6854528333837935,12.812201649973897
4,7,1.0,0.8135748498835325,0.0
4,7,0.75,0.7750585372983919,3.8516312585140544
4,7,0.5,0.7303242353764141,8.325061450711836
4,7,0.25,0.6833637140819377,13.021113580159472
4,7,0.0,0.6283564180831559,18.521843180037656
4,8,1.0,0.8135748498835325,0.0
4,8,0.75,0.8414059959066823,-2.7831146023149844
4,8,0.5,0.8386547015271378,-2.5079851643605378
4,8,0.25,0.8006988844765666,1.2875965406965895
4,8,0.0,0.7662726966461868,4.730215323734566
5,0,1.0,0.5104272558948777,0.0
5,0,0.75,0.5155340410337942,-0.5106785138916492
5,0,0.5,0.5045534129672851,0.5873842927592632
5,0,0.25,0.5115632486047942,-0.1135992709916489
5,0,0.0,0.427645885115906,8.278137077897169
5,1,1.0,0.5104272558948777,0.0
5,1,0.75,0.49321331903733723,1.7213936857540468
5,1,0.5,0.5032975122505232,0.712974364435448
5,1,0.25,0.509207038796899,0.12202170979787041
5,1,0.0,0.4904678212278443,1.995943466703337
5,2,1.0,0.5104272558948777,0.0
5,2,0.75,0.5248748452413181,-1.4447589346440415
5,2,0.5,0.5351333858957813,-2.4706130000903603
5,2,0.25,0.48577111587146526,2.465614002341243
5,2,0.0,0.466642184309334,4.378507158554368
5,3,1.0,0.5104272558948777,0.0
5,3,0.75,0.5371183328505531,-2.669107695567541
5,3,0.5,0.5740179011304094,-6.359064523553171
5,3,0.25,0.6030277885388332,-9.260053264395552
5,3,0.0,0.593605073020626,-8.317781712574835
5,4,1.0,0.5104272558948777,0.0
5,4,0.75,0.5105540082095301,-0.012675231465242298
5,4,0.5,0.5079459002462862,0.24813556485915322
5,4,0.25,0.5048571729901372,0.5570082904740481
5,4,0.0,0.48949439681842283,2.0932859076454866
5,5,1.0,0.5104272558948777,0.0
5,5,0.75,0.4865619567583328,2.3865299136544893
5,5,0.5,0.46188620375734063,4.854105213753707
5,5,0.25,0.4449804282126356,6.544682768224208
5,5,0.0,0.43967748163727083,7.074977425760687
5,6,1.0,0.5104272558948777,0.0
5,6,0.75,0.5141205010817845,-0.3693245186906835
5,6,0.5,0.5182498822588242,-0.7822626363946483
5,6,0.25,0.5159663674215594,-0.5539111526681739
5,6,0.0,0.5188036591615012,-0.8376403266623478
5,7,1.0,0.5104272558948777,0.0
5,7,0.75,0.5071582255033049,0.32690303915727803
5,7,0.5,0.534605591893312,-2.417833599843433
5,7,0.25,0.5442600726475783,-3.3832816752700556
5,7,0.0,0.5090441237442563,0.13831321506213579
5,8,1.0,0.5104272558948777,0.0
5,8,0.75,0.5095873802246774,0.08398756702002741
5,8,0.5,0.5219178445633776,-1.1490588668499946
5,8,0.25,0.5094776435094385,0.09496123854392247
5,8,0.0,0.4973900619785979,1.3037193916279777
6,0,1.0,0.6946116254378509,0.0
6,0,0.75,0.7455153379127601,-5.090371247490921
6,0,0.5,0.7024295377082496,-0.781791227039863
6,0,0.25,0.6646013372747129,3.0010288163138
6,0,0.0,0.6305067653411256,6.410486009672534
6,1,1.0,0.6946116254378509,0.0
6,1,0.75,0.6549912772050995,3.96203482327514
6,1,0.5,0.6262230445584638,6.838858087938715
6,1,0.25,0.6024182652412344,9.21933601966165
6,1,0.0,0.5986555019974593,9.59561234403916
6,2,1.0,0.6946116254378509,0.0
6,2,0.75,0.6903749634261955,0.4236662011655401
6,2,0.5,0.663335347229288,3.1276278208562935
6,2,0.25,0.5710881479342055,12.352347750364546
6,2,0.0,0.5157033135978385,17.890831184001243
6,3,1.0,0.6946116254378509,0.0
6,3,0.75,0.7127230767442131,-1.8111451306362158
6,3,0.5,0.7789694362396847,-8.43578108018338
6,3,0.25,0.7796392621348851,-8.502763669703416
6,3,0.0,0.7507092046353778,-5.609757919752689
6,4,1.0,0.6946116254378509,0.0
6,4,0.75,0.7434578693451881,-4.884624390733716
6,4,0.5,0.706267107018276,-1.1655481580425064
6,4,0.25,0.6593380650578873,3.5273560379963653
6,4,0.0,0.6459971187253326,4.861450671251832
6,5,1.0,0.6946116254378509,0.0
6,5,0.75,0.6644039553861666,3.0207670051684343
6,5,0.5,0.6401787523205118,5.443287311733913
6,5,0.25,0.5822759098820924,11.23357155557585
6,5,0.0,0.5443809580467283,15.023066739112267
6,6,1.0,0.6946116254378509,0.0
6,6,0.75,0.6470905614243048,4.752106401354617
6,6,0.5,0.6520824100015425,4.252921543630839
6,6,0.25,0.6424558466979559,5.215577873989508
6,6,0.0,0.6038804283532916,9.073119708455934
6,7,1.0,0.6946116254378509,0.0
6,7,0.75,0.6073246769816494,8.728694845620154
6,7,0.5,0.561926627612344,13.268499782550691
6,7,0.25,0.47756419388244803,21.70474315554029
6,7,0.0,0.40685625869511177,28.775536674273916
6,8,1.0,0.6946116254378509,0.0
6,8,0.75,0.7446571763165967,-5.004555087874573
6,8,0.5,0.7319882896548178,-3.7376664216966837
6,8,0.25,0.692099610078054,0.25120153597969486
6,8,0.0,0.647542140420418,4.706948501743291
7,0,1.0,0.774314510989853,0.0
7,0,0.75,0.6633291334141925,11.098537757566051
7,0,0.5,0.6237175820967176,15.059692889313547
7,0,0.25,0.6030440229834308,17.12704880064222
7,0,0.0,0.5762165886656483,19.809792232420477
7,1,1.0,0.774314510989853,0.0
7,1,0.75,0.684363948881043,8.995056210881003
7,1,0.5,0.6423685079729398,13.194600301691327
7,1,0.25,0.6338044811287166,14.051002986113648
7,1,0.0,0.6307235322971694,14.359097869268368
7,2,1.0,0.774314510989853,0.0
7,2,0.75,0.774033935888405,0.02805751014480773
7,2,0.5,0.7588190287377514,1.5495482252101622
7,2,0.25,0.7350046748142401,3.93098361756129
7,2,0.0,0.7073086531506045,6.700585783924851
7,3,1.0,0.774314510989853,0.0
7,3,0.75,0.6785088793300482,9.580563165980482
7,3,0.5,0.6671676122605772,10.714689872927586
7,3,0.25,0.6558984163837667,11.841609460608638
7,3,0.0,0.6131665145632692,16.114799642658383
7,4,1.0,0.774314510989853,0.0
7,4,0.75,0.767765363628385,0.6549147361468055
7,4,0.5,0.7507307694037721,2.3583741586080897
7,4,0.25,0.7213143357452486,5.3000175244604435
7,4,0.0,0.7112236153159293,6.309089567392379
7,5,1.0,0.774314510989853,0.0
7,5,0.75,0.7797144918701615,-0.5399980880308464
7,5,0.5,0.7557984950990346,1.8516015890818416
7,5,0.25,0.701026482039014,7.328802895083908
7,5,0.0,0.5935920018487324,18.072250914112065
7,6,1.0,0.774314510989853,0.0
7,6,0.75,0.7571328147411276,1.7181696248725453
7,6,0.5,0.7436308149023517,3.068369608750132
7,6,0.25,0.7378577122217584,3.64567987680946
7,6,0.0,0.7262305577876658,4.808395320218728
7,7,1.0,0.774314510989853,0.0
7,7,0.75,0.7651505497176644,0.9163961272188659
7,7,0.5,0.750017697082598,2.429681390725502
7,7,0.25,0.7087267172650045,6.5587793724848575
7,7,0.0,0.5882809579520488,18.603355303780422
7,8,1.0,0.774314510989853,0.0
7,8,0.75,0.7585459215937096,1.576858939614345
7,8,0.5,0.7394647422448768,3.484976874497625
7,8,0.25,0.6984786487321906,7.583586225766248
7,8,0.0,0.6420802578196276,13.223425317022542
8,0,1.0,0.7913661330942215,0.0
8,0,0.75,0.7770735906750557,1.4292542419165888
8,0,0.5,0.7595500938890714,3.1816039205150193
8,0,0.25,0.7282680873684575,6.309804572576406
8,0,0.0,0.7090111518821192,8.235498121210238
8,1,1.0,0.7913661330942215,0.0
8,1,0.75,0.805904277938806,-1.4538144844584489
8,1,0.5,0.8138881507400331,-2.252201764581152
8,1,0.25,0.7869181863646604,0.44479467295611697
8,1,0.0,0.7333814465533725,5.7984686540849095
8,2,1.0,0.7913661330942215,0.0
8,2,0.75,0.8016015435422927,-1.0235410448071192
8,2,0.5,0.8126619871973,-2.1295854103078438
8,2,0.25,0.7951503510801643,-0.37842179859427505
8,2,0.0,0.7983166088536998,-0.695047575947827
8,3,1.0,0.7913661330942215,0.0
8,3,0.75,0.7829112907220719,0.8454842372149662
8,3,0.5,0.7715424750146973,1.9823658079524242
8,3,0.25,0.7744219555884992,1.6944177505722302
8,3,0.0,0.7328386751916164,5.852745790260516
8,4,1.0,0.7913661330942215,0.0
8,4,0.75,0.7883598205981555,0.3006312496066088
8,4,0.5,0.7832492572012831,0.8116875892938413
8,4,0.25,0.7682323317105926,2.313380138362897
8,4,0.0,0.7550734240481147,3.629270904610682
8,5,1.0,0.7913661330942215,0.0
8,5,0.75,0.7853025166475468,0.6063616446674747
8,5,0.5,0.7742023579452517,1.7163775148969829
8,5,0.25,0.713699966201408,7.766616689281358
8,5,0.0,0.648813847683132,14.255228541108956
8,6,1.0,0.7913661330942215,0.0
8,6,0.75,0.8029424461124353,-1.1576313018213713
8,6,0.5,0.8055936315113017,-1.4227498417080153
8,6,0.25,0.8010486766950629,-0.9682543600841309
8,6,0.0,0.7958097127739985,-0.4443579679776932
8,7,1.0,0.7913661330942215,0.0
8,7,0.75,0.7986938854999575,-0.732775240573591
8,7,0.5,0.7905849522136761,0.07811808805454623
8,7,0.25,0.770865115617335,2.0501017476886596
8,7,0.0,0.703865683219846,8.750044987437555
8,8,1.0,0.7913661330942215,0.0
8,8,0.75,0.7818909603942139,0.9475172700007639
8,8,0.5,0.7612331707180859,3.013296237613561
8,8,0.25,0.726594058191619,6.47720749026025
8,8,0.0,0.6820604097616145,10.930572333260702
9,0,1.0,0.8116918530178696,0.0
9,0,0.75,0.8022086985385097,0.9483154479359879
9,0,0.5,0.7926598237199998,1.9032029297869846
9,0,0.25,0.7715764009777022,4.011545204016742
9,0,0.0,0.7449206471439536,6.677120587391605
9,1,1.0,0.8116918530178696,0.0
9,1,0.75,0.7948007094111348,1.6891143606734826
9,1,0.5,0.757822280842107,5.38695721757626
9,1,0.25,0.7246284705336667,8.706338248420288
9,1,0.0,0.7069075623870145,10.478429063085514
9,2,1.0,0.8116918530178696,0.0
9,2,0.75,0.7967263509944316,1.4965502023438049
9,2,0.5,0.8013223793916393,1.0369473626230308
9,2,0.25,0.7769911512382635,3.470070177960616
9,2,0.0,0.7812813012207606,3.0410551797109053
9,3,1.0,0.8116918530178696,0.0
9,3,0.75,0.8035564492269112,0.8135403790958451
9,3,0.5,0.7991402116402117,1.2551641377657963
9,3,0.25,0.7794503202551797,3.224153276268993
9,3,0.0,0.7662423065367061,4.5449546481163505
9,4,1.0,0.8116918530178696,0.0
9,4,0.75,0.8187329686451574,-0.704111562728782
9,4,0.5,0.8101703683321699,0.1521484685699681
9,4,0.25,0.7708673414289116,4.082451158895806
9,4,0.0,0.7232265418001089,8.846531121776069
9,5,1.0,0.8116918530178696,0.0
9,5,0.75,0.8156743491250533,-0.39824961071837084
9,5,0.5,0.8224970696082363,-1.0805216590366706
9,5,0.25,0.7766765612791819,3.501529173868767
9,5,0.0,0.6829332388943828,12.875861412348677
9,6,1.0,0.8116918530178696,0.0
9,6,0.75,0.800348254092468,1.13435989254016
9,6,0.5,0.7900146433943926,2.1677209623476967
9,6,0.25,0.7859710711816338,2.572078183623583
9,6,0.0,0.7770822904372922,3.4609562580577458
9,7,1.0,0.8116918530178696,0.0
9,7,0.75,0.8011153502568302,1.0576502761039386
9,7,0.5,0.8019527414560956,0.9739111561773983
9,7,0.25,0.7686109643434113,4.308088867445836
9,7,0.0,0.704285156194513,10.740669682335657
9,8,1.0,0.8116918530178696,0.0
9,8,0.75,0.7992209903015715,1.247086271629816
9,8,0.5,0.806925530074271,0.47663229435985777
9,8,0.25,0.8137066617070997,-0.20148086892300965
9,8,0.0,0.7746133549711735,3.7078498046696162
10,0,1.0,0.74954719872595,0.0
10,0,0.75,0.7419263034729948,0.7620895252955173
10,0,0.5,0.7090435272495584,4.050367147639156
10,0,0.25,0.6685028646362724,8.10443340896776
10,0,0.0,0.6005651842564594,14.898201446949056
10,1,1.0,0.74954719872595,0.0
10,1,0.75,0.7688522217397598,-1.9305023013809763
10,1,0.5,0.7700341217910849,-2.0486923065134888
10,1,0.25,0.7257644305687567,2.378276815719327
10,1,0.0,0.6808588477576449,6.868835096830505
10,2,1.0,0.74954719872595,0.0
10,2,0.75,0.7567063219443148,-0.715912321836476
10,2,0.5,0.7593903982594062,-0.9843199533456248
10,2,0.25,0.7302118496720672,1.9335349053882789
10,2,0.0,0.6715672065412999,7.797999218465012
10,3,1.0,0.74954719872595,0.0
10,3,0.75,0.7548716862604614,-0.5324487534511424
10,3,0.5,0.7598876829883897,-1.034048426243972
10,3,0.25,0.7445585667186001,0.49886320073498913
10,3,0.0,0.668199872285689,8.1347326440261
10,4,1.0,0.74954719872595,0.0
10,4,0.75,0.7525748322684196,-0.3027633542469599
10,4,0.5,0.7624750487292867,-1.2927850003336738
10,4,0.25,0.7351169023760767,1.443029634987325
10,4,0.0,0.7038975433779815,4.564965534796849
10,5,1.0,0.74954719872595,0.0
10,5,0.75,0.7354163214097155,1.4130877316234525
10,5,0.5,0.7223710485627556,2.7176150163194412
10,5,0.25,0.6923849518958101,5.7162246830139924
10,5,0.0,0.665889224146906,8.3657974579044
10,6,1.0,0.74954719872595,0.0
10,6,0.75,0.7798013003516691,-3.0254101625719065
10,6,0.5,0.7780724194849387,-2.8525220758988667
10,6,0.25,0.7539839047014452,-0.443670597549517
10,6,0.0,0.6939449114463092,5.560228727964079
10,7,1.0,0.74954719872595,0.0
10,7,0.75,0.7505170584426603,-0.0969859716710264
10,7,0.5,0.7362026165470713,1.3344582178878683
10,7,0.25,0.6725355872516278,7.701161147432223
10,7,0.0,0.5952273478570789,15.431985086887112
10,8,1.0,0.74954719872595,0.0
10,8,0.75,0.7682384553216562,-1.8691256595706252
10,8,0.5,0.7324692224720033,1.7077976253946692
10,8,0.25,0.6948434689781413,5.470372974780869
10,8,0.0,0.640242246077943,10.9304952648007
11,0,1.0,0.8698237497556998,0.0
11,0,0.75,0.847970787520356,2.185296223534372
11,0,0.5,0.7621560511093777,10.76676986463221
11,0,0.25,0.7151225500668682,15.470119968883155
11,0,0.0,0.6790240786472066,19.079967110849317
11,1,1.0,0.8698237497556998,0.0
11,1,0.75,0.8717669676593407,-0.1943217903640937
11,1,0.5,0.8456017349597018,2.422201479599795
11,1,0.25,0.8156295533976604,5.419419635803935
11,1,0.0,0.7703689443905052,9.945480536519458
11,2,1.0,0.8698237497556998,0.0
11,2,0.75,0.8444219698221475,2.5401779933552304
11,2,0.5,0.8605908833951059,0.9232866360593839
11,2,0.25,0.8334339530575801,3.6389796698119703
11,2,0.0,0.8144696191939993,5.5354130561700465
11,3,1.0,0.8698237497556998,0.0
11,3,0.75,0.8843531238710429,-1.4529374115343163
11,3,0.5,0.8624706873188911,0.7353062436808666
11,3,0.25,0.8180936470527798,5.173010270292
11,3,0.0,0.782763202368326,8.706054738737379
11,4,1.0,0.8698237497556998,0.0
11,4,0.75,0.8727278260068482,-0.2904076251148413
11,4,0.5,0.8567779589091826,1.3045790846517136
11,4,0.25,0.8213222263013857,4.850152345431402
11,4,0.0,0.799947135787278,6.987661396842171
11,5,1.0,0.8698237497556998,0.0
11,5,0.75,0.8656997937149686,0.4123956040731125
11,5,0.5,0.8068058178397529,6.301793191594685
11,5,0.25,0.7100895973832226,15.973415237247712
11,5,0.0,0.6328176849104812,23.700606484521856
11,6,1.0,0.8698237497556998,0.0
11,6,0.75,0.8807167782855162,-1.089302852981644
11,6,0.5,0.8806012804376143,-1.077753068191456
11,6,0.25,0.8673470931450217,0.24766566106780852
11,6,0.0,0.8598614299438432,0.9962319811856579
11,7,1.0,0.8698237497556998,0.0
11,7,0.75,0.8662429287239144,0.3580821031785364
11,7,0.5,0.8620373736905663,0.7786376065133438
11,7,0.25,0.7963740924642396,7.344965729146013
11,7,0.0,0.6869304448417723,18.28933049139274
11,8,1.0,0.8698237497556998,0.0
11,8,0.75,0.8497035492631511,2.01202004925487
11,8,0.5,0.8075136820892291,6.231006766647063
11,8,0.25,0.7687672494185696,10.10565003371302
11,8,0.0,0.7264657824791009,14.335796727659888
12,0,1.0,0.8611753034547152,0.0
12,0,0.75,0.8605159296988782,0.06593737558369117
12,0,0.5,0.8562961757469889,0.48791277077262496
12,0,0.25,0.8556696338618234,0.5505669592891782
12,0,0.0,0.8288730227035563,3.230228075115882
12,1,1.0,0.8611753034547152,0.0
12,1,0.75,0.8437596864649933,1.7415616989721827
12,1,0.5,0.8404987749788198,2.0676528475895406
12,1,0.25,0.8303065264070426,3.0868777047672546
12,1,0.0,0.771056596311582,9.01187071431332
12,2,1.0,0.8611753034547152,0.0
12,2,0.75,0.849705995501203,1.1469307953512198
12,2,0.5,0.8608606218573613,0.03146815973538164
12,2,0.25,0.8343253228292842,2.684998062543098
12,2,0.0,0.7810741079880226,8.010119546669259
12,3,1.0,0.8611753034547152,0.0
12,3,0.75,0.8682619238390392,-0.708662038432406
12,3,0.5,0.8519210677304802,0.9254235724235005
12,3,0.25,0.805835773446473,5.533953000824221
12,3,0.0,0.7242222717735585,13.695303168115668
12,4,1.0,0.8611753034547152,0.0
12,4,0.75,0.809571247981844,5.160405547287117
12,4,0.5,0.7547935562373775,10.638174721733762
12,4,0.25,0.6970809783851436,16.409432506957156
12,4,0.0,0.6798095356812457,18.136576777346946
12,5,1.0,0.8611753034547152,0.0
12,5,0.75,0.8512625650327205,0.9912738421994693
12,5,0.5,0.8213282570029102,3.9847046451804924
12,5,0.25,0.7710216809842978,9.015362247041736
12,5,0.0,0.7484201274544301,11.275517600028506
12,6,1.0,0.8611753034547152,0.0
12,6,0.75,0.8741317766300453,-1.2956473175330108
12,6,0.5,0.8668576894383346,-0.5682385983619476
12,6,0.25,0.8653085964115377,-0.4133292956822521
12,6,0.0,0.8590982505014125,0.20770529533026272
12,7,1.0,0.8611753034547152,0.0
12,7,0.75,0.8570919320880935,0.4083371366621624
12,7,0.5,0.8455175843695213,1.5657719085193866
12,7,0.25,0.7956603521187425,6.551495133597262
12,7,0.0,0.7517844767844768,10.939082667023836
12,8,1.0,0.8611753034547152,0.0
12,8,0.75,0.8596879640702456,0.14873393844695437
12,8,0.5,0.8282617723565943,3.2913531098120896
12,8,0.25,0.8046387329252224,5.65365705294928
12,8,0.0,0.7473143884569603,11.386091499775485
13,0,1.0,0.890710301170929,0.0
13,0,0.75,0.9133261739570606,-2.261587278613164
13,0,0.5,0.9106580695606379,-1.9947768389708909
13,0,0.25,0.8842736804963938,0.643662067453521
13,0,0.0,0.8509848732331982,3.9725427937730817
13,1,1.0,0.890710301170929,0.0
13,1,0.75,0.892374868441277,-0.16645672703480274
13,1,0.5,0.8587778358019855,3.1932465368943452
13,1,0.25,0.8120618656568472,7.864843551408174
13,1,0.0,0.7973973692636886,9.331293190724033
13,2,1.0,0.890710301170929,0.0
13,2,0.75,0.9075010054461325,-1.6790704275203572
13,2,0.5,0.888214737782485,0.2495563388443922
13,2,0.25,0.834948516777239,5.576178439368995
13,2,0.0,0.8164315351789515,7.427876599197747
13,3,1.0,0.890710301170929,0.0
13,3,0.75,0.8863947353728107,0.4315565798118315
13,3,0.5,0.8764985994397758,1.421170173115316
13,3,0.25,0.8606406175431413,3.0069683627787724
13,3,0.0,0.831136572527372,5.957372864355692
13,4,1.0,0.890710301170929,0.0
13,4,0.75,0.9017431418726416,-1.103284070171262
13,4,0.5,0.8616191071765162,2.9091193994412734
13,4,0.25,0.8120334146954802,7.867688647544879
13,4,0.0,0.7722799621015218,11.843033906940715
13,5,1.0,0.890710301170929,0.0
13,5,0.75,0.8876446200089514,0.3065681161977585
13,5,0.5,0.8439088055436789,4.680149562725012
13,5,0.25,0.8211922398974669,6.951806127346205
13,5,0.0,0.7818942229932575,10.881607817767147
13,6,1.0,0.890710301170929,0.0
13,6,0.75,0.898232451776414,-0.7522150605485001
13,6,0.5,0.8816854343010201,0.9024866869908887
13,6,0.25,0.8675412560176864,2.3169045153242585
13,6,0.0,0.8568981976342946,3.381210353663433
13,7,1.0,0.890710301170929,0.0
13,7,0.75,0.9001198923889028,-0.9409591217973801
13,7,0.5,0.8749930673318118,1.5717233839117162
13,7,0.25,0.8380076143766346,5.270268679429435
13,7,0.0,0.7697776447288085,12.093265644212048
13,8,1.0,0.890710301170929,0.0
13,8,0.75,0.9085127831603688,-1.780248198943979
13,8,0.5,0.8989227435989712,-0.8212442428042199
13,8,0.25,0.8745133949654378,1.619690620549119
13,8,0.0,0.8308882225432974,5.982207862763156
14,0,1.0,0.8181927167965877,0.0
14,0,0.75,0.8137929547926448,0.43997620039428753
14,0,0.5,0.7928854911560342,2.5307225640553432
14,0,0.25,0.7610843304551842,5.710838634140347
14,0,0.0,0.7378967781146952,8.029593868189245
14,1,1.0,0.8181927167965877,0.0
14,1,0.75,0.8143641924972675,0.3828524299320124
14,1,0.5,0.7937455510256908,2.4447165770896895
14,1,0.25,0.7684703965667673,4.972232022982038
14,1,0.0,0.7398341824319709,7.835853436461681
14,2,1.0,0.8181927167965877,0.0
14,2,0.75,0.8135686980702128,0.46240187263748567
14,2,0.5,0.7379262327328648,8.026648406372283
14,2,0.25,0.6994832656296924,11.870945116689525
14,2,0.0,0.6711381643750483,14.705455242153942
14,3,1.0,0.8181927167965877,0.0
14,3,0.75,0.8104419725777622,0.7750744218825489
14,3,0.5,0.7903693688479071,2.7823347948680577
14,3,0.25,0.7623173633730369,5.587535342355077
14,3,0.0,0.7263221363474446,9.187058044914309
14,4,1.0,0.8181927167965877,0.0
14,4,0.75,0.8258332418702476,-0.7640525073659976
14,4,0.5,0.8302131567686345,-1.2020439972046826
14,4,0.25,0.7792613647574315,3.893135203915621
14,4,0.0,0.7352747222368747,8.291799455971294
14,5,1.0,0.8181927167965877,0.0
14,5,0.75,0.8037440319414392,1.4448684855148497
14,5,0.5,0.7424927821313209,7.569993466526681
14,5,0.25,0.6704577081582913,14.773500863829636
14,5,0.0,0.5907767271407207,22.741598965586697
14,6,1.0,0.8181927167965877,0.0
14,6,0.75,0.8200371360576835,-0.18444192610957977
14,6,0.5,0.8026214782753982,1.5571238521189468
14,6,0.25,0.7924198548341732,2.577286196241446
14,6,0.0,0.7833687827625659,3.482393403402173
14,7,1.0,0.8181927167965877,0.0
14,7,0.75,0.8219296280598226,-0.3736911263234943
14,7,0.5,0.8106526536477878,0.7540063148799847
14,7,0.25,0.7705530833901788,4.763963340640887
14,7,0.0,0.7426002922413176,7.559242455527004
14,8,1.0,0.8181927167965877,0.0
14,8,0.75,0.8014452677752792,1.6747449021308425
14,8,0.5,0.7902799633055522,2.7912753491035502
14,8,0.25,0.753988627253843,6.42040895427447
14,8,0.0,0.6967727269305856,12.14199898660021
15,0,1.0,0.8433129855715871,0.0
15,0,0.75,0.8453818193747009,-0.20688338031138453
15,0,0.5,0.8509941864121431,-0.7681200840556013
15,0,0.25,0.8133858756053027,2.9927109966284338
15,0,0.0,0.7947523803142271,4.856060525735995
15,1,1.0,0.8433129855715871,0.0
15,1,0.75,0.8463024180128518,-0.29894324412647055
15,1,0.5,0.8066355487408119,3.667743683077518
15,1,0.25,0.7537730613275244,8.953992424406266
15,1,0.0,0.7240897489759743,11.922323659561274
15,2,1.0,0.8433129855715871,0.0
15,2,0.75,0.8396410137606747,0.3671971810912389
15,2,0.5,0.83396140393423,0.9351581637357054
15,2,0.25,0.7931763643534759,5.013662121811113
15,2,0.0,0.7601052661960681,8.320771937551896
15,3,1.0,0.8433129855715871,0.0
15,3,0.75,0.8433461128639193,-0.0033127292332180147
15,3,0.5,0.8290585693445685,1.4254416227018618
15,3,0.25,0.8033306740532682,3.998231151831888
15,3,0.0,0.7843412551431275,5.89717304284596
15,4,1.0,0.8433129855715871,0.0
15,4,0.75,0.8537926959858058,-1.047971041421869
15,4,0.5,0.8727763284362727,-2.946334286468566
15,4,0.25,0.8563052133880802,-1.2992227816493118
15,4,0.0,0.7934327662609286,4.988021931065845
15,5,1.0,0.8433129855715871,0.0
15,5,0.75,0.8430913535784093,0.022163199317781768
15,5,0.5,0.8311663668199706,1.214661875161649
15,5,0.25,0.7315043902461752,11.180859532541188
15,5,0.0,0.7047316133766868,13.858137219490029
15,6,1.0,0.8433129855715871,0.0
15,6,0.75,0.8333105648242741,1.0002420747312946
15,6,0.5,0.8210947014470462,2.2218284124540855
15,6,0.25,0.8045026999032237,3.881028566836342
15,6,0.0,0.7771353240858118,6.61776614857753
15,7,1.0,0.8433129855715871,0.0
15,7,0.75,0.8247369799696007,1.8576005601986356
15,7,0.5,0.8207761818495514,2.2536803722035703
15,7,0.25,0.7810872093887937,6.222577618279335
15,7,0.0,0.704177720396523,13.913526517506403
15,8,1.0,0.8433129855715871,0.0
15,8,0.75,0.8753410699435478,-3.2028084371960697
15,8,0.5,0.8726778484673222,-2.9364862895735144
15,8,0.25,0.8742241781207573,-3.0911192549170186
15,8,0.0,0.8563356203197605,-1.3022634748173445
16,0,1.0,0.777064997703983,0.0
16,0,0.75,0.7935891581434666,-1.6524160439483682
16,0,0.5,0.7899214638926093,-1.2856466188626348
16,0,0.25,0.7574871603707412,1.957783733324181
16,0,0.0,0.7277694314198179,4.92955662841651
16,1,1.0,0.777064997703983,0.0
16,1,0.75,0.7729052747713818,0.415972293260114
16,1,0.5,0.7803931842999466,-0.3328186595963678
16,1,0.25,0.7678605536190676,0.9204444084915386
16,1,0.0,0.7431893440087459,3.387565369523704
16,2,1.0,0.777064997703983,0.0
16,2,0.75,0.7768185675092745,0.024643019470849126
16,2,0.5,0.7590952032703355,1.7969794433647435
16,2,0.25,0.7260554043787496,5.100959332523336
16,2,0.0,0.6954972178519981,8.156777985198483
16,3,1.0,0.777064997703983,0.0
16,3,0.75,0.7847402908349322,-0.7675293130949279
16,3,0.5,0.8037509900233459,-2.6685992319362972
16,3,0.25,0.7888028241435449,-1.1737826439561894
16,3,0.0,0.6342653170229992,14.27996806809838
16,4,1.0,0.777064997703983,0.0
16,4,0.75,0.7593725828584474,1.769241484553552
16,4,0.5,0.712496437109972,6.456856059401095
16,4,0.25,0.6571068234643791,11.995817423960386
16,4,0.0,0.6224439739103882,15.462102379359477
16,5,1.0,0.777064997703983,0.0
16,5,0.75,0.7269917436944531,5.007325400952989
16,5,0.5,0.6979274737488586,7.913752395512441
16,5,0.25,0.6415532683844903,13.551172931949262
16,5,0.0,0.5510869844203178,22.59780132836652
16,6,1.0,0.777064997703983,0.0
16,6,0.75,0.7724052254177559,0.46597722862270485
16,6,0.5,0.7639545172328076,1.3110480471175356
16,6,0.25,0.7527342241255024,2.433077357848057
16,6,0.0,0.7361017255218965,4.096327218208651
16,7,1.0,0.777064997703983,0.0
16,7,0.75,0.7915356694890483,-1.4470671785065337
16,7,0.5,0.793627871515243,-1.6562873811260093
16,7,0.25,0.7581259610474361,1.8939036656546837
16,7,0.0,0.7065879079418977,7.047708976208522
16,8,1.0,0.777064997703983,0.0
16,8,0.75,0.7850334659693052,-0.796846826532227
16,8,0.5,0.7865235763473803,-0.9458578643397386
16,8,0.25,0.7474759006034839,2.958909710049906
16,8,0.0,0.7036469703558684,7.341802734811454
17,0,1.0,0.787366056955883,0.0
17,0,0.75,0.7981170797086318,-1.0751022752748751
17,0,0.5,0.7855949869766758,0.17710699792071738
17,0,0.25,0.7520374366048993,3.532862035098372
17,0,0.0,0.5674760453369476,21.98900116189354
17,1,1.0,0.787366056955883,0.0
17,1,0.75,0.7908006142871656,-0.3434557331282617
17,1,0.5,0.7919677001994718,-0.46016432435888044
17,1,0.25,0.7689056668010603,1.8460390154822703
17,1,0.0,0.752156496323961,3.5209560631922043
17,2,1.0,0.787366056955883,0.0
17,2,0.75,0.7935512947630159,-0.6185237807132871
17,2,0.5,0.7619932430900392,2.537281386584378
17,2,0.25,0.7487135717110667,3.865248524481635
17,2,0.0,0.7127027098180185,7.466334713786448
17,3,1.0,0.787366056955883,0.0
17,3,0.75,0.8132313795838375,-2.586532262795449
17,3,0.5,0.7098568453802192,7.750921157566381
17,3,0.25,0.6498570436001841,13.750901335569887
17,3,0.0,0.6301177393349385,15.72483176209445
17,4,1.0,0.787366056955883,0.0
17,4,0.75,0.787509994909301,-0.014393795341793858
17,4,0.5,0.7754324346023055,1.1933622353577533
17,4,0.25,0.7038094712165397,8.355658573934333
17,4,0.0,0.6436679356174447,14.36981213384383
17,5,1.0,0.787366056955883,0.0
17,5,0.75,0.7539469716388827,3.341908531700033
17,5,0.5,0.564213993885938,22.315206306994504
17,5,0.25,0.4919917445957901,29.537431236009294
17,5,0.0,0.4450890563132676,34.22770006426154
17,6,1.0,0.787366056955883,0.0
17,6,0.75,0.8002834211537161,-1.291736419783307
17,6,0.5,0.798049617010921,-1.068356005503801
17,6,0.25,0.7997168820808892,-1.2350825125006182
17,6,0.0,0.7712490447000246,1.6117012255858376
17,7,1.0,0.787366056955883,0.0
17,7,0.75,0.8130843119416402,-2.5718254985757194
17,7,0.5,0.8122181135291601,-2.485205657327705
17,7,0.25,0.7646002677773693,2.2765789178513685
17,7,0.0,0.747477418882875,3.988863807300802
17,8,1.0,0.787366056955883,0.0
17,8,0.75,0.8040003014960652,-1.6634244540182141
17,8,0.5,0.8000876374572979,-1.272158050141492
17,8,0.25,0.7735082840424689,1.3857772913414168
17,8,0.0,0.7194540320658813,6.79120248900017
18,0,1.0,0.775278842725466,0.0
18,0,0.75,0.7692853796742353,0.5993463051230719
18,0,0.5,0.7375900513469973,3.76887913784687
18,0,0.25,0.7276403166692664,4.763852605619956
18,0,0.0,0.692360206512702,8.291863621276397
18,1,1.0,0.775278842725466,0.0
18,1,0.75,0.7750585119985662,0.02203307268997534
18,1,0.5,0.7483437435182922,2.693509920717374
18,1,0.25,0.7405897175624176,3.468912516304834
18,1,0.0,0.7517107258266404,2.356811689882554
18,2,1.0,0.775278842725466,0.0
18,2,0.75,0.7716525778975287,0.36262648279372645
18,2,0.5,0.7827385292464468,-0.7459686520980835
18,2,0.25,0.7566382349028997,1.8640607822566269
18,2,0.0,0.7032420779094981,7.203676481596788
18,3,1.0,0.775278842725466,0.0
18,3,0.75,0.726917389762724,4.836145296274196
18,3,0.5,0.7077097361890716,6.756910653639436
18,3,0.25,0.6609549814620808,11.432386126338523
18,3,0.0,0.6252187574783323,15.006008524713366
18,4,1.0,0.775278842725466,0.0
18,4,0.75,0.780185843475855,-0.4907000750388968
18,4,0.5,0.7825167337434171,-0.7237891017951137
18,4,0.25,0.7666758179803851,0.86030247450809
18,4,0.0,0.7286840500521403,4.659479267332567
18,5,1.0,0.775278842725466,0.0
18,5,0.75,0.767066061703515,0.8212781021950999
18,5,0.5,0.7558492749044744,1.942956782099159
18,5,0.25,0.7218534978077641,5.34253449177019
18,5,0.0,0.5838725444144396,19.14062983110264
18,6,1.0,0.775278842725466,0.0
18,6,0.75,0.8174600173611428,-4.218117463567683
18,6,0.5,0.8463502857271928,-7.107144300172685
18,6,0.25,0.8488201081591886,-7.354126543372264
18,6,0.0,0.824209414788988,-4.893057206352203
18,7,1.0,0.775278842725466,0.0
18,7,0.75,0.7605620037454921,1.471683897997389
18,7,0.5,0.7428901572108253,3.238868551464069
18,7,0.25,0.7300950887318308,4.518375399363517
18,7,0.0,0.6917736318463481,8.350521087911789
18,8,1.0,0.775278842725466,0.0
18,8,0.75,0.786143163431493,-1.0864320706027053
18,8,0.5,0.7567723111234548,1.8506531602011211
18,8,0.25,0.7253298589666848,4.994898375878121
18,8,0.0,0.711521316800943,6.375752592452299
19,0,1.0,0.8326544779875729,0.0
19,0,0.75,0.8397293218146776,-0.7074843827104771
19,0,0.5,0.8125226827390514,2.013179524852149
19,0,0.25,0.7747643628683113,5.789011511926157
19,0,0.0,0.7484023106019954,8.42521673855775
19,1,1.0,0.8326544779875729,0.0
19,1,0.75,0.8084353467778013,2.4219131209771594
19,1,0.5,0.7900823635265475,4.257211446102538
19,1,0.25,0.7393118048315497,9.334267315602318
19,1,0.0,0.7097829773289099,12.287150065866292
19,2,1.0,0.8326544779875729,0.0
19,2,0.75,0.8289504837519064,0.37039942356664746
19,2,0.5,0.8163275042727387,1.6326973714834159
19,2,0.25,0.7869817105311115,4.567276745646131
19,2,0.0,0.7473404460859641,8.53140319016088
19,3,1.0,0.8326544779875729,0.0
19,3,0.75,0.8147300881299757,1.7924389857597145
19,3,0.5,0.7614983056264547,7.115617236111815
19,3,0.25,0.671348024963074,16.130645302449885
19,3,0.0,0.6141873462462418,21.846713174133104
19,4,1.0,0.8326544779875729,0.0
19,4,0.75,0.8377252746102832,-0.5070796622710372
19,4,0.5,0.8285280353432214,0.4126442644351469
19,4,0.25,0.778257805652727,5.439667233484591
19,4,0.0,0.7072334817660603,12.542099622151259
19,5,1.0,0.8326544779875729,0.0
19,5,0.75,0.799324711314579,3.332976667299381
19,5,0.5,0.7585635443107204,7.409093367685249
19,5,0.25,0.6987359219681356,13.391855601943725
19,5,0.0,0.6234366392688472,20.921783871872567
19,6,1.0,0.8326544779875729,0.0
19,6,0.75,0.8486351443816027,-1.598066639402984
19,6,0.5,0.8527402852363621,-2.008580724878928
19,6,0.25,0.8534423927315118,-2.078791474393893
19,6,0.0,0.8370155162412669,-0.43610382536940495
19,7,1.0,0.8326544779875729,0.0
19,7,0.75,0.8098722148379401,2.278226314963272
19,7,0.5,0.7775492502172963,5.51052277702766
19,7,0.25,0.7106676145854247,12.198686340214815
19,7,0.0,0.6534435489724775,17.92109290150954
19,8,1.0,0.8326544779875729,0.0
19,8,0.75,0.8163307881866833,1.6323689800889607
19,8,0.5,0.796116101787375,3.653837620019784
19,8,0.25,0.7525774380210489,8.007703996652394
19,8,0.0,0.7088653310850748,12.37891469024981
20,0,1.0,0.7606004143167004,0.0
20,0,0.75,0.7775417184417627,-1.6941304125062229
20,0,0.5,0.7595100299789082,0.1090384337792294
20,0,0.25,0.7443291291671948,1.6271285149505599
20,0,0.0,0.721500165289696,3.9100249027004486
20,1,1.0,0.7606004143167004,0.0
20,1,0.75,0.7438614129408625,1.6739001375837947
20,1,0.5,0.7062849322062754,5.431548211042503
20,1,0.25,0.6637702650251531,9.683014929154732
20,1,0.0,0.6281944444444444,13.240596987225606
20,2,1.0,0.7606004143167004,0.0
20,2,0.75,0.7584140963484977,0.2186317968202789
20,2,0.5,0.735944188186451,2.4656226130249426
20,2,0.25,0.7038466187029648,5.675379561373561
20,2,0.0,0.6599346114736733,10.066580284302717
20,3,1.0,0.7606004143167004,0.0
20,3,0.75,0.7627370439631062,-0.21366296464057077
20,3,0.5,0.7522847253990398,0.8315688917660657
20,3,0.25,0.7538959591670311,0.670445514966933
20,3,0.0,0.7586383954896349,0.19620188270655925
20,4,1.0,0.7606004143167004,0.0
20,4,0.75,0.7845293062036285,-2.392889188692804
20,4,0.5,0.7654990631714222,-0.4898648854721799
20,4,0.25,0.7354146422580832,2.5185772058617273
20,4,0.0,0.6845489691609322,7.605144515576823
20,5,1.0,0.7606004143167004,0.0
20,5,0.75,0.7625848208871759,-0.19844065704754943
20,5,0.5,0.7426322786661932,1.7968135650507255
20,5,0.25,0.6795309158851384,8.106949843156208
20,5,0.0,0.6868598369429824,7.374057737371809
20,6,1.0,0.7606004143167004,0.0
20,6,0.75,0.7508629911795127,0.9737423137187728
20,6,0.5,0.7510732110712808,0.9527203245419669
20,6,0.25,0.7231261880537719,3.747422626292851
20,6,0.0,0.7035642304146875,5.703618390201292
20,7,1.0,0.7606004143167004,0.0
20,7,0.75,0.7432528236037761,1.7347590712924355
20,7,0.5,0.706744069795191,5.385634452150945
20,7,0.25,0.670750410500753,8.985000381594743
20,7,0.0,0.5871024802816268,17.349793403507363
20,8,1.0,0.7606004143167004,0.0
20,8,0.75,0.7672191846160347,-0.661877029933422
20,8,0.5,0.7724984583794794,-1.1898044062778945
20,8,0.25,0.763718168392515,-0.3117754075814605
20,8,0.0,0.6918920664444961,6.870834787220437
21,0,1.0,0.7281652678066706,0.0
21,0,0.75,0.7009106503581707,2.7254617448499885
21,0,0.5,0.6881084695119296,4.005679829474095
21,0,0.25,0.6684455811662433,5.971968664042726
21,0,0.0,0.6441314129473508,8.403385485931981
21,1,1.0,0.7281652678066706,0.0
21,1,0.75,0.7248363477413226,0.3328920065348018
21,1,0.5,0.7305751213559564,-0.2409853549285801
21,1,0.25,0.7383324168921658,-1.0167149085495208
21,1,0.0,0.7144876553412165,1.367761246545407
21,2,1.0,0.7281652678066706,0.0
21,2,0.75,0.7288660899510414,-0.07008221443708385
21,2,0.5,0.7405702066402752,-1.2404938833604606
21,2,0.25,0.7602509977309275,-3.2085729924256956
21,2,0.0,0.7516901207489872,-2.3524852942316654
21,3,1.0,0.7281652678066706,0.0
21,3,0.75,0.7305184509533755,-0.23531831467049624
21,3,0.5,0.7247255054400569,0.34397623666136967
21,3,0.25,0.6984429009458034,2.9722366860867155
21,3,0.0,0.6612748876875788,6.689038011909176
21,4,1.0,0.7281652678066706,0.0
21,4,0.75,0.7359560770965289,-0.7790809289858314
21,4,0.5,0.7357278818334094,-0.7562614026738856
21,4,0.25,0.7456190140668367,-1.7453746260166159
21,4,0.0,0.7081745056276183,1.9990762179052268
21,5,1.0,0.7281652678066706,0.0
21,5,0.75,0.732951276060086,-0.47860082534154635
21,5,0.5,0.7033977009191112,2.4767566887559322
21,5,0.25,0.5023268435048929,22.583842430177768
21,5,0.0,0.4865761753708632,24.15890924358074
21,6,1.0,0.7281652678066706,0.0
21,6,0.75,0.7373650600820991,-0.9199792275428553
21,6,0.5,0.7368709286310767,-0.8705660824406158
21,6,0.25,0.7430934373420535,-1.4928169535382896
21,6,0.0,0.7373889228862668,-0.9223655079596216
21,7,1.0,0.7281652678066706,0.0
21,7,0.75,0.7203718632381166,0.779340456855393
21,7,0.5,0.7129032053279123,1.5262062478758276
21,7,0.25,0.7049463627199692,2.3218905086701325
21,7,0.0,0.6938021759688091,3.436309183786146
21,8,1.0,0.7281652678066706,0.0
21,8,0.75,0.7206332836501487,0.7531984156521898
21,8,0.5,0.7055928089871901,2.2572458819480445
21,8,0.25,0.6791162921508317,4.904897565583887
21,8,0.0,0.671926871945859,5.623839586081159
22,0,1.0,0.7260225504202712,0.0
22,0,0.75,0.7319071593710856,-0.5884608950814441
22,0,0.5,0.7398476092273751,-1.382505880710394
22,0,0.25,0.7354522437379626,-0.942969331769139
22,0,0.0,0.7200619869166248,0.5960563503646377
22,1,1.0,0.7260225504202712,0.0
22,1,0.75,0.7371603850135706,-1.1137834593299423
22,1,0.5,0.7459171988060146,-1.9894648385743396
22,1,0.25,0.7558654357290814,-2.9842885308810185
22,1,0.0,0.7420908332599878,-1.6068282839716619
22,2,1.0,0.7260225504202712,0.0
22,2,0.75,0.7232307118175259,0.27918386027453446
22,2,0.5,0.7073132983875781,1.8709252032693136
22,2,0.25,0.7031536770206753,2.286887339959587
22,2,0.0,0.6918110687226603,3.42114816976109
22,3,1.0,0.7260225504202712,0.0
22,3,0.75,0.7229782817089893,0.3044268711281939
22,3,0.5,0.7129256897618577,1.3096860658413534
22,3,0.25,0.6935211073142108,3.25014431060604
22,3,0.0,0.6691792634843912,5.684328693588004
22,4,1.0,0.7260225504202712,0.0
22,4,0.75,0.7044632405476715,2.1559309872599686
22,4,0.5,0.6887277378886217,3.7294812531649457
22,4,0.25,0.673485694644979,5.253685577529222
22,4,0.0,0.6640790352117207,6.1943515208550455
22,5,1.0,0.7260225504202712,0.0
22,5,0.75,0.6980227021828501,2.7999848237421077
22,5,0.5,0.6678343740075141,5.818817641275709
22,5,0.25,0.5554073242760477,17.06152261442235
22,5,0.0,0.39387035311287283,33.21521973073984
22,6,1.0,0.7260225504202712,0.0
22,6,0.75,0.7200182061122009,0.6004344308070286
22,6,0.5,0.7247058759319296,0.1316674488341607
22,6,0.25,0.7190536503081199,0.6968900112151344
22,6,0.0,0.7003499603401215,2.567259008014966
22,7,1.0,0.7260225504202712,0.0
22,7,0.75,0.7189460478921902,0.7076502528081008
22,7,0.5,0.7014688302912526,2.4553720129018575
22,7,0.25,0.6639382377126182,6.208431270765303
22,7,0.0,0.614932276302692,11.109027411757921
22,8,1.0,0.7260225504202712,0.0
22,8,0.75,0.7241705761275132,0.1851974292757963
22,8,0.5,0.7073329340292633,1.8689616391007857
22,8,0.25,0.676202722368701,4.981982805157015
22,8,0.0,0.613264388396916,11.27581620233552
23,0,1.0,0.7305989120105578,0.0
23,0,0.75,0.721655846806974,0.8943065203583789
23,0,0.5,0.6954654337408249,3.51334782697329
23,0,0.25,0.6562154023296769,7.438350968088092
23,0,0.0,0.5993371237164086,13.126178829414926
23,1,1.0,0.7305989120105578,0.0
23,1,0.75,0.7169169329078555,1.3681979102702302
23,1,0.5,0.7003925869845012,3.020632502605658
23,1,0.25,0.6612432957770535,6.935561623350428
23,1,0.0,0.6418441851642538,8.875472684630402
23,2,1.0,0.7305989120105578,0.0
23,2,0.75,0.7482124402706221,-1.7613528260064237
23,2,0.5,0.7525462940129735,-2.194738200241564
23,2,0.25,0.7535433636214405,-2.2944451610882655
23,2,0.0,0.735961604012215,-0.5362692001657177
23,3,1.0,0.7305989120105578,0.0
23,3,0.75,0.7273301762789315,0.32687357316263377
23,3,0.5,0.7161915211173968,1.440739089316101
23,3,0.25,0.7019043637440375,2.8694548266520292
23,3,0.0,0.6820929207259943,4.8505991284563565
23,4,1.0,0.7305989120105578,0.0
23,4,0.75,0.7236543696742421,0.6944542336315696
23,4,0.5,0.6833464462010331,4.725246580952469
23,4,0.25,0.6518555732435395,7.874333876701833
23,4,0.0,0.61126182550704,11.933708650351782
23,5,1.0,0.7305989120105578,0.0
23,5,0.75,0.7189324927374181,1.1666419273139716
23,5,0.5,0.6982074234662533,3.2391488544304514
23,5,0.25,0.6487460040685846,8.18529079419732
23,5,0.0,0.6079312340943734,12.266767791618438
23,6,1.0,0.7305989120105578,0.0
23,6,0.75,0.7054276018322149,2.5171310178342954
23,6,0.5,0.6933783965968464,3.722051541371141
23,6,0.25,0.6700210910293359,6.057782098122189
23,6,0.0,0.6506751317691956,7.992378024136226
23,7,1.0,0.7305989120105578,0.0
23,7,0.75,0.7208935863251833,0.9705325685374522
23,7,0.5,0.6888035600174152,4.179535199314266
23,7,0.25,0.637566505993268,9.30324060172898
23,7,0.0,0.597110692145196,13.348821986536185
23,8,1.0,0.7305989120105578,0.0
23,8,0.75,0.7052245230179289,2.5374388992628893
23,8,0.5,0.6762774842718543,5.432142773870352
23,8,0.25,0.6287977151655266,10.180119684503119
23,8,0.0,0.5994884992896475,13.111041272091029
24,0,1.0,0.7545217295896943,0.0
24,0,0.75,0.7304355673421705,2.40861622475238
24,0,0.5,0.6910167560391776,6.350497355051676
24,0,0.25,0.6790654275789404,7.545630201075393
24,0,0.0,0.6465434672601899,10.797826232950447
24,1,1.0,0.7545217295896943,0.0
24,1,0.75,0.7442906006055523,1.0231128984142024
24,1,0.5,0.697387394678786,5.713433491090836
24,1,0.25,0.6827428861935736,7.177884339612072
24,1,0.0,0.6688138944042,8.57078351854943
24,2,1.0,0.7545217295896943,0.0
24,2,0.75,0.7508227817653822,0.36989478243121265
24,2,0.5,0.7593582391039813,-0.4836509514286935
24,2,0.25,0.7198836977930917,3.463803179660263
24,2,0.0,0.6661401940643713,8.838153552532301
24,3,1.0,0.7545217295896943,0.0
24,3,0.75,0.7948106937809417,-4.028896419124739
24,3,0.5,0.7959422335298533,-4.142050394015895
24,3,0.25,0.7715088781944905,-1.698714860479622
24,3,0.0,0.7543984407989198,0.012328879077450061
24,4,1.0,0.7545217295896943,0.0
24,4,0.75,0.7546537155274489,-0.013198593775454182
24,4,0.5,0.7246323506164127,2.988937897328159
24,4,0.25,0.6657203100485866,8.880141954110776
24,4,0.0,0.6324418348808593,12.207989470883508
24,5,1.0,0.7545217295896943,0.0
24,5,0.75,0.6904392061366437,6.4082523453050655
24,5,0.5,0.600663594258479,15.385813533121528
24,5,0.25,0.5470769518436098,20.74447777460845
24,5,0.0,0.5033080073236285,25.121372226606585
24,6,1.0,0.7545217295896943,0.0
24,6,0.75,0.7597145887409866,-0.5192859151292306
24,6,0.5,0.7475374607235693,0.6984268866125021
24,6,0.25,0.726596841943665,2.7924887646029295
24,6,0.0,0.7125027907786529,4.201893881104146
24,7,1.0,0.7545217295896943,0.0
24,7,0.75,0.7356685132351637,1.8853216354530633
24,7,0.5,0.6872046719019549,6.731705768773944
24,7,0.25,0.653082330041093,10.143939954860137
24,7,0.0,0.6058648353218836,14.86568942678107
24,8,1.0,0.7545217295896943,0.0
24,8,0.75,0.7350956157651332,1.9426113824561164
24,8,0.5,0.6973289682810975,5.719276130859685
24,8,0.25,0.6779888657457529,7.653286384394143
24,8,0.0,0.6336020344991115,12.091969509058288
25,0,1.0,0.8122722538619312,0.0
25,0,0.75,0.8146745749352444,-0.2402321073313174
25,0,0.5,0.7998184503714576,1.2453803490473647
25,0,0.25,0.7735941026440171,3.867815121791418
25,0,0.0,0.759112910759758,5.3159343102173295
25,1,1.0,0.8122722538619312,0.0
25,1,0.75,0.797504530799007,1.4767723062924287
25,1,0.5,0.7761804385726682,3.6091815289263085
25,1,0.25,0.7507407237870098,6.15315300749214
25,1,0.0,0.7459304207903964,6.634183307153485
25,2,1.0,0.8122722538619312,0.0
25,2,0.75,0.7848602000558119,2.741205380611933
25,2,0.5,0.7410800135152302,7.119224034670102
25,2,0.25,0.6830836554881325,12.91885983737987
25,2,0.0,0.6015588433438639,21.071341051806737
25,3,1.0,0.8122722538619312,0.0
25,3,0.75,0.796617191179751,1.5655062682180199
25,3,0.5,0.7793104625147048,3.2961791347226432
25,3,0.25,0.7322934685493997,7.997878531253155
25,3,0.0,0.6961689820302499,11.610327183168135
25,4,1.0,0.8122722538619312,0.0
25,4,0.75,0.7800246735845329,3.224758027739838
25,4,0.5,0.7158762642221521,9.639598963977914
25,4,0.25,0.6807878582413298,13.148439562060144
25,4,0.0,0.6079881628301306,20.428409103180066
25,5,1.0,0.8122722538619312,0.0
25,5,0.75,0.7524527664903521,5.981948737157916
25,5,0.5,0.69823223532989,11.404001853204127
25,5,0.25,0.6657914235080246,14.64808303539067
25,5,0.0,0.6060691879931909,20.620306586874037
25,6,1.0,0.8122722538619312,0.0
25,6,0.75,0.8153369898408066,-0.3064735978875355
25,6,0.5,0.8079605848142737,0.43116690476575625
25,6,0.25,0.8033974054164469,0.8874848445484362
25,6,0.0,0.8057752540339034,0.6496999828027872
25,7,1.0,0.8122722538619312,0.0
25,7,0.75,0.8079468039140625,0.43254499478687647
25,7,0.5,0.7932735763437614,1.899867751816986
25,7,0.25,0.7676962892414613,4.457596462046998
25,7,0.0,0.7154611996653628,9.681105419656843
25,8,1.0,0.8122722538619312,0.0
25,8,0.75,0.8154487947815571,-0.31765409196258254
25,8,0.5,0.8253969408047763,-1.3124686942845076
25,8,0.25,0.8258306508696004,-1.3558397007669143
25,8,0.0,0.7826270088714975,2.964524499043375
26,0,1.0,0.6965027942991893,0.0
26,0,0.75,0.7014418733635694,-0.4939079064380181
26,0,0.5,0.6841959107426794,1.2306883556509884
26,0,0.25,0.6496141099421572,4.688868435703208
26,0,0.0,0.6298380347229258,6.66647595762635
26,1,1.0,0.6965027942991893,0.0
26,1,0.75,0.6980104373939393,-0.1507643094750044
26,1,0.5,0.698968380288014,-0.24655859888247367
26,1,0.25,0.6534175678370299,4.308522646215939
26,1,0.0,0.6223387560549607,7.416403824422857
26,2,1.0,0.6965027942991893,0.0
26,2,0.75,0.6841876805748097,1.2315113724379545
26,2,0.5,0.646096924282842,5.040587001634722
26,2,0.25,0.5903647984529495,10.613799584623973
26,2,0.0,0.5423416971950088,15.416109710418047
26,3,1.0,0.6965027942991893,0.0
26,3,0.75,0.7116951987321639,-1.5192404432974649
26,3,0.5,0.7168231917986289,-2.032039749943959
26,3,0.25,0.6999643090604792,-0.34615147612899744
26,3,0.0,0.6701190013978725,2.638379290131676
26,4,1.0,0.6965027942991893,0.0
26,4,0.75,0.6712822575081279,2.52205367910614
26,4,0.5,0.6537489847275804,4.27538095716089
26,4,0.25,0.6349249253573261,6.157786894186312
26,4,0.0,0.6055038808895428,9.09989134096465
26,5,1.0,0.6965027942991893,0.0
26,5,0.75,0.6896480289552919,0.6854765343897395
26,5,0.5,0.6361414356278854,6.036135867130388
26,5,0.25,0.5747888338065168,12.171396049267248
26,5,0.0,0.5178337144236799,17.86690798755094
26,6,1.0,0.6965027942991893,0.0
26,6,0.75,0.6906317606568877,0.5871033642301571
26,6,0.5,0.6847879663423875,1.1714827956801788
26,6,0.25,0.6900693677371667,0.6433426562022615
26,6,0.0,0.6876685687470144,0.8834225552174835
26,7,1.0,0.6965027942991893,0.0
26,7,0.75,0.6956665672219549,0.08362270772344083
26,7,0.5,0.7042151091225195,-0.7712314823330235
26,7,0.25,0.7056089850536502,-0.9106190754460952
26,7,0.0,0.6394652290501346,5.703756524905468
26,8,1.0,0.6965027942991893,0.0
26,8,0.75,0.7034696428540157,-0.6966848554826433
26,8,0.5,0.6747722469018742,2.173054739731506
26,8,0.25,0.6510261682375644,4.547662606162484
26,8,0.0,0.6131469350511155,8.335585924807376
27,0,1.0,0.8812436969349458,0.0
27,0,0.75,0.9038011051079158,-2.255740817297003
27,0,0.5,0.9043477619090573,-2.310406497411155
27,0,0.25,0.8679455880021237,1.3298108932822017
27,0,0.0,0.8331487554917535,4.809494144319226
27,1,1.0,0.8812436969349458,0.0
27,1,0.75,0.8591941128957863,2.2049584039159464
27,1,0.5,0.8376010166057047,4.364268032924102
27,1,0.25,0.8305208386997063,5.072285823523948
27,1,0.0,0.8221946713059252,5.904902562902059
27,2,1.0,0.8812436969349458,0.0
27,2,0.75,0.8680570281518981,1.318666878304764
27,2,0.5,0.850342814450439,3.090088248450673
27,2,0.25,0.842016216056358,3.922748087858774
27,2,0.0,0.8270569939543961,5.418670298054962
27,3,1.0,0.8812436969349458,0.0
27,3,0.75,0.876962748517546,0.4280948417399788
27,3,0.5,0.8828258496090209,-0.15821526740751324
27,3,0.25,0.8714389821896773,0.980471474526845
27,3,0.0,0.8371515627319592,4.409213420298652
27,4,1.0,0.8812436969349458,0.0
27,4,0.75,0.8715004809831776,0.9743215951768192
27,4,0.5,0.8660012236234162,1.5242473311529503
27,4,0.25,0.8277442033254393,5.349949360950646
27,4,0.0,0.7622349631983495,11.900873373659627
27,5,1.0,0.8812436969349458,0.0
27,5,0.75,0.8729914065364138,0.8252290398531925
27,5,0.5,0.8310390268565729,5.020467007837281
27,5,0.25,0.7939646983703514,8.72789985645943
27,5,0.0,0.7333473492990918,14.78963476358539
27,6,1.0,0.8812436969349458,0.0
27,6,0.75,0.8609409301556247,2.030276677932108
27,6,0.5,0.8566710144209122,2.457268251403355
27,6,0.25,0.8472752322755519,3.396846465939385
27,6,0.0,0.8476433094898813,3.360038744506444
27,7,1.0,0.8812436969349458,0.0
27,7,0.75,0.8763575520140896,0.488614492085615
27,7,0.5,0.8551787799114896,2.6064917023456147
27,7,0.25,0.8565580911872664,2.4685605747679307
27,7,0.0,0.8084884321643384,7.275526477060734
27,8,1.0,0.8812436969349458,0.0
27,8,0.75,0.8791028373721008,0.21408595628449323
27,8,0.5,0.8869836982707292,-0.5740001335783451
27,8,0.25,0.8638224339260371,1.7421263008908672
27,8,0.0,0.7684113080064157,11.28323889285301
28,0,1.0,0.756825039290215,0.0
28,0,0.75,0.7755495961750003,-1.8724556884785248
28,0,0.5,0.7873198132602635,-3.0494773970048406
28,0,0.25,0.7578823297906585,-0.1057290500443453
28,0,0.0,0.7495276256707583,0.7297413619456794
28,1,1.0,0.756825039290215,0.0
28,1,0.75,0.759827679851526,-0.3002640561310943
28,1,0.5,0.7442333670194758,1.2591672270739207
28,1,0.25,0.716400182173446,4.0424857116769015
28,1,0.0,0.6827149589452767,7.411008034493838
28,2,1.0,0.756825039290215,0.0
28,2,0.75,0.7535561729461517,0.3268866344063315
28,2,0.5,0.7336085490924459,2.321649019776917
28,2,0.25,0.7184744639155257,3.8350575374689333
28,2,0.0,0.7008365455188946,5.5988493771320424
28,3,1.0,0.756825039290215,0.0
28,3,0.75,0.7713089761706651,-1.4483936880450021
28,3,0.5,0.7429458415047326,1.3879197785482411
28,3,0.25,0.7173942862873646,3.9430753002850483
28,3,0.0,0.6156041288246047,14.122091046561035
28,4,1.0,0.756825039290215,0.0
28,4,0.75,0.7353817410857854,2.1443298204429695
28,4,0.5,0.693582802605359,6.324223668485606
28,4,0.25,0.6900966838429593,6.672835544725575
28,4,0.0,0.6812247750923843,7.560026419783073
28,5,1.0,0.756825039290215,0.0
28,5,0.75,0.7507492251101486,0.6075814180066419
28,5,0.5,0.7373598996478143,1.9465139642400708
28,5,0.25,0.6709125613210278,8.591247796918722
28,5,0.0,0.6153240844502814,14.150095483993363
28,6,1.0,0.756825039290215,0.0
28,6,0.75,0.7526357269603957,0.4189312329819339
28,6,0.5,0.750187144161761,0.663789512845403
28,6,0.25,0.7454081599072455,1.1416879382969536
28,6,0.0,0.7418690191879739,1.4956020102241174
28,7,1.0,0.756825039290215,0.0
28,7,0.75,0.7553988178267086,0.14262214635064607
28,7,0.5,0.7625593125593126,-0.573427326909759
28,7,0.25,0.7235363271266886,3.328871216352647
28,7,0.0,0.6918518526161822,6.497318667403285
28,8,1.0,0.756825039290215,0.0
28,8,0.75,0.7601992239903598,-0.3374184700144722
28,8,0.5,0.7712089076441024,-1.4383868353887386
28,8,0.25,0.7643881778377833,-0.7563138547568293
28,8,0.0,0.7131746886130974,4.365035067711764
29,0,1.0,0.7785579939453289,0.0
29,0,0.75,0.7865174176101418,-0.7959423664812948
29,0,0.5,0.7775658911892875,0.09921027560413354
29,0,0.25,0.7039815433927826,7.457645055254625
29,0,0.0,0.6532451217384624,12.531287220686648
29,1,1.0,0.7785579939453289,0.0
29,1,0.75,0.7679150757879146,1.064291815741425
29,1,0.5,0.7590796766662784,1.9478317279050472
29,1,0.25,0.7437446038822907,3.4813390063038185
29,1,0.0,0.7570168512147495,2.154114273057939
29,2,1.0,0.7785579939453289,0.0
29,2,0.75,0.7799454307808638,-0.13874368355348832
29,2,0.5,0.790807977574361,-1.224998362903218
29,2,0.25,0.7674019964976051,1.1155997447723776
29,2,0.0,0.7428598340704107,3.56981598749182
29,3,1.0,0.7785579939453289,0.0
29,3,0.75,0.7806089016851283,-0.20509077397994346
29,3,0.5,0.7697944899620784,0.8763503983250431
29,3,0.25,0.7634374132061236,1.5120580739205303
29,3,0.0,0.7630706361471324,1.5487357798196433
29,4,1.0,0.7785579939453289,0.0
29,4,0.75,0.7671465684243223,1.1411425521006602
29,4,0.5,0.7465619271967007,3.1996066748628205
29,4,0.25,0.6996216117379467,7.89363822073822
29,4,0.0,0.6646755865795142,11.388240736581468
29,5,1.0,0.7785579939453289,0.0
29,5,0.75,0.773501048123398,0.5056945821930836
29,5,0.5,0.7482911244860038,3.0266869459325108
29,5,0.25,0.7248903800136752,5.366761393165365
29,5,0.0,0.6925213068343624,8.603668711096645
29,6,1.0,0.7785579939453289,0.0
29,6,0.75,0.7736903343080999,0.4867659637229016
29,6,0.5,0.7847073397723012,-0.6149345826972352
29,6,0.25,0.7880391430899335,-0.9481149144604628
29,6,0.0,0.7949929061471651,-1.6434912201836238
29,7,1.0,0.7785579939453289,0.0
29,7,0.75,0.7836950101061466,-0.5137016160817742
29,7,0.5,0.7922269752674004,-1.3668981322071505
29,7,0.25,0.758576368018791,1.998162592653785
29,7,0.0,0.7081545050326526,7.040348891267623
29,8,1.0,0.7785579939453289,0.0
29,8,0.75,0.7788795989528763,-0.03216050075474097
29,8,0.5,0.7839609706349622,-0.5402976689633299
29,8,0.25,0.7617904826935229,1.6767511251805978
29,8,0.0,0.6771034030307984,10.145459091453047
30,0,1.0,0.770619183458419,0.0
30,0,0.75,0.7582369650925231,1.2382218365895814
30,0,0.5,0.7625289472816428,0.8090236176776178
30,0,0.25,0.7554236151122183,1.5195568346200616
30,0,0.0,0.7184222020512343,5.2196981407184655
30,1,1.0,0.770619183458419,0.0
30,1,0.75,0.7508227868918117,1.9796396566607255
30,1,0.5,0.7351021237047011,3.5517059753717883
30,1,0.25,0.7121955253863774,5.842365807204153
30,1,0.0,0.6842505404154559,8.63686430429631
30,2,1.0,0.770619183458419,0.0
30,2,0.75,0.7552854817739367,1.5333701684482226
30,2,0.5,0.7561479820430825,1.447120141533642
30,2,0.25,0.7504663588112476,2.0152824647171386
30,2,0.0,0.7336430500075488,3.697613345087014
30,3,1.0,0.770619183458419,0.0
30,3,0.75,0.7652864372284758,0.5332746229943175
30,3,0.5,0.7647630519568136,0.5856131501605355
30,3,0.25,0.767341486250396,0.3277697208022956
30,3,0.0,0.7692321007947547,0.1387082663664274
30,4,1.0,0.770619183458419,0.0
30,4,0.75,0.738360247914388,3.225893554403092
30,4,0.5,0.7383260533315961,3.229313012682289
30,4,0.25,0.7122163335746198,5.840284988379918
30,4,0.0,0.6874479159490904,8.317126750932857
30,5,1.0,0.770619183458419,0.0
30,5,0.75,0.7650552962652551,0.5563887193163808
30,5,0.5,0.7223248458346079,4.829433762381107
30,5,0.25,0.6313868084213067,13.923237503711228
30,5,0.0,0.5508011628847256,21.981802057369336
30,6,1.0,0.770619183458419,0.0
30,6,0.75,0.7599848457395142,1.0634337718904763
30,6,0.5,0.7822420134342227,-1.1622829975803772
30,6,0.25,0.7772168021175719,-0.6597618659152982
30,6,0.0,0.7375514089276923,3.3067774530726624
30,7,1.0,0.770619183458419,0.0
30,7,0.75,0.7561445885244512,1.4474594933967744
30,7,0.5,0.7522689311347079,1.8350252323711014
30,7,0.25,0.7426787471580305,2.794043630038845
30,7,0.0,0.7539727536247418,1.6646429833677145
30,8,1.0,0.770619183458419,0.0
30,8,0.75,0.7623110314251921,0.8308152033226879
30,8,0.5,0.7795415865580959,-0.8922403099676957
30,8,0.25,0.7784378412498788,-0.7818657791459849
30,8,0.0,0.7200370779473189,5.05821055111001
31,0,1.0,0.7255159903520761,0.0
31,0,0.75,0.7296108867281799,-0.4094896376103718
31,0,0.5,0.7216389273765698,0.38770629755063846
31,0,0.25,0.6953501421648631,3.016584818721302
31,0,0.0,0.6743868075317876,5.112918282028856
31,1,1.0,0.7255159903520761,0.0
31,1,0.75,0.7141878201288674,1.1328170223208756
31,1,0.5,0.6854823466755777,4.0033643676498425
31,1,0.25,0.6690843086063193,5.643168174575686
31,1,0.0,0.6586986345078095,6.681735584426662
31,2,1.0,0.7255159903520761,0.0
31,2,0.75,0.7368291197299263,-1.1313129377850117
31,2,0.5,0.7196209483680284,0.5895041984047777
31,2,0.25,0.6798250896845721,4.5690900667504035
31,2,0.0,0.6530630794369969,7.245291091507921
31,3,1.0,0.7255159903520761,0.0
31,3,0.75,0.7191722766596871,0.6343713692389064
31,3,0.5,0.7034840647618654,2.203192559021072
31,3,0.25,0.6900189210978382,3.54970692542379
31,3,0.0,0.6569733538533299,6.854263649874626
31,4,1.0,0.7255159903520761,0.0
31,4,0.75,0.7413948628650331,-1.5878872512956943
31,4,0.5,0.7274976839215792,-0.19816935695030624
31,4,0.25,0.7017144735778794,2.380151677419673
31,4,0.0,0.6438744088540602,8.164158149801592
31,5,1.0,0.7255159903520761,0.0
31,5,0.75,0.7162247724048829,0.9291217947193231
31,5,0.5,0.6730838691752006,5.243212117687557
31,5,0.25,0.623505463267833,10.201052708424319
31,5,0.0,0.5674040094681114,15.811198088396472
31,6,1.0,0.7255159903520761,0.0
31,6,0.75,0.7303504705494697,-0.48344801973935203
31,6,0.5,0.732051734663786,-0.653574431170989
31,6,0.25,0.7272659423648409,-0.17499520127647328
31,6,0.0,0.6905028591469877,3.501313120508842
31,7,1.0,0.7255159903520761,0.0
31,7,0.75,0.7145286985340036,1.0987291818072564
31,7,0.5,0.706517167521309,1.8998822830767148
31,7,0.25,0.6883431815340753,3.717280881800089
31,7,0.0,0.6371957859887979,8.832020436327825
31,8,1.0,0.7255159903520761,0.0
31,8,0.75,0.6977982924685386,2.7717697883537507
31,8,0.5,0.6647411616161616,6.077482873591455
31,8,0.25,0.6222825241207595,10.323346623131668
31,8,0.0,0.5763175764723752,14.91984138797009
32,0,1.0,0.6674138474789939,0.0
32,0,0.75,0.6827408553800999,-1.5327007901105971
32,0,0.5,0.6898141839440755,-2.240033646508155
32,0,0.25,0.6585040392675289,0.8909808211465031
32,0,0.0,0.6379789305494417,2.9434916929552246
32,1,1.0,0.6674138474789939,0.0
32,1,0.75,0.6606853087465125,0.672853873248136
32,1,0.5,0.6519254005572181,1.5488446921775756
32,1,0.25,0.6569550041869472,1.0458843292046716
32,1,0.0,0.639488678329767,2.7925169149226936
32,2,1.0,0.6674138474789939,0.0
32,2,0.75,0.6716232950542782,-0.42094475752842975
32,2,0.5,0.6728005530945126,-0.5386705615518683
32,2,0.25,0.643200104459839,2.421374301915491
32,2,0.0,0.6273509619061145,4.00628855728794
32,3,1.0,0.6674138474789939,0.0
32,3,0.75,0.6605937388030568,0.6820108675937075
32,3,0.5,0.6718624054652726,-0.4448557986278745
32,3,0.25,0.6925314465408805,-2.5117599061886597
32,3,0.0,0.6931633769612973,-2.5749529482303357
32,4,1.0,0.6674138474789939,0.0
32,4,0.75,0.663063034085114,0.4350813393879882
32,4,0.5,0.6514073707286118,1.6006476750382137
32,4,0.25,0.6344670284374825,3.294681904151142
32,4,0.0,0.5988126506008717,6.860119687812216
32,5,1.0,0.6674138474789939,0.0
32,5,0.75,0.6785352533088981,-1.1121405829904174
32,5,0.5,0.6184207311897412,4.899311628925274
32,5,0.25,0.5048823105615318,16.253153691746213
32,5,0.0,0.3837022951861022,28.37115522928917
32,6,1.0,0.6674138474789939,0.0
32,6,0.75,0.6433569994493755,2.4056848029618383
32,6,0.5,0.6410021168904417,2.6411730588552174
32,6,0.25,0.6150871000794763,5.23267473995176
32,6,0.0,0.6073713193232718,6.004252815572208
32,7,1.0,0.6674138474789939,0.0
32,7,0.75,0.6782424511231544,-1.0828603644160495
32,7,0.5,0.6840584008285786,-1.66445533495847
32,7,0.25,0.6486622587323849,1.8751588746608983
32,7,0.0,0.5916234338708874,7.5790413608106455
32,8,1.0,0.6674138474789939,0.0
32,8,0.75,0.6519587178643977,1.5455129614596164
32,8,0.5,0.660660721082845,0.675312639614889
32,8,0.25,0.6540627224149529,1.3351125064041014
32,8,0.0,0.6288901177564488,3.852372972254514
33,0,1.0,0.8980012886911614,0.0
33,0,0.75,0.8899228070810994,0.8078481610061972
33,0,0.5,0.8729088802725467,2.509240841861471
33,0,0.25,0.7959126924836157,10.208859620754563
33,0,0.0,0.7100962196686418,18.79050690225196
33,1,1.0,0.8980012886911614,0.0
33,1,0.75,0.9089928943966625,-1.0991605705501173
33,1,0.5,0.8968015690431275,0.11997196480338923
33,1,0.25,0.8544423076196697,4.355898107149169
33,1,0.0,0.8196339125910184,7.8367376100143
33,2,1.0,0.8980012886911614,0.0
33,2,0.75,0.8856397354154284,1.2361553275732962
33,2,0.5,0.8387130187585972,5.92882699325642
33,2,0.25,0.7716282374069756,12.637305128418575
33,2,0.0,0.7320973643444489,16.59039243467124
33,3,1.0,0.8980012886911614,0.0
33,3,0.75,0.8973660422090689,0.06352464820924553
33,3,0.5,0.8189148795437458,7.908640914741561
33,3,0.25,0.7247931340703255,17.320815462083583
33,3,0.0,0.7044046227611174,19.3596665930044
33,4,1.0,0.8980012886911614,0.0
33,4,0.75,0.9214635727058913,-2.346228401472994
33,4,0.5,0.9155388355381687,-1.7537546847007368
33,4,0.25,0.9038225340022688,-0.5821245311107393
33,4,0.0,0.9105607571477388,-1.2559468456577405
33,5,1.0,0.8980012886911614,0.0
33,5,0.75,0.827036610343062,7.096467834809939
33,5,0.5,0.6416197080662458,25.638158062491556
33,5,0.25,0.5963021378944717,30.169915079668964
33,5,0.0,0.5513319808282624,34.666930786289896
33,6,1.0,0.8980012886911614,0.0
33,6,0.75,0.8931652052279317,0.48360834632296124
33,6,0.5,0.8870963880357716,1.0904900655389738
33,6,0.25,0.8840679979853525,1.3933290705808843
33,6,0.0,0.8843022393921445,1.3699049299016886
33,7,1.0,0.8980012886911614,0.0
33,7,0.75,0.9031388642209979,-0.5137575529836513
33,7,0.5,0.8961241614187357,0.1877127272425616
33,7,0.25,0.8472182167388894,5.078307195227194
33,7,0.0,0.7562100413358696,14.17912473552918
33,8,1.0,0.8980012886911614,0.0
33,8,0.75,0.8993049187639438,-0.13036300727824468
33,8,0.5,0.8906945009832902,0.7306787707871187
33,8,0.25,0.896055813503138,0.1945475188023349
33,8,0.0,0.8531743491815735,4.482693950958783
34,0,1.0,0.8553506130636107,0.0
34,0,0.75,0.8455938549333241,0.9756758130286647
34,0,0.5,0.8429711520138089,1.237946104980181
34,0,0.25,0.8057059274282781,4.964468563533265
34,0,0.0,0.7390605950836848,11.629001797992588
34,1,1.0,0.8553506130636107,0.0
34,1,0.75,0.8515993272329783,0.3751285830632445
34,1,0.5,0.8454807915789176,0.9869821484693064
34,1,0.25,0.8282751323045782,2.7075480759032544
34,1,0.0,0.7806080350815798,7.474257798203087
34,2,1.0,0.8553506130636107,0.0
34,2,0.75,0.8577412826643334,-0.23906696007226502
34,2,0.5,0.8492408193829996,0.6109793680611153
34,2,0.25,0.8220154117889904,3.3335201274620307
34,2,0.0,0.7939930682112644,6.135754485234635
34,3,1.0,0.8553506130636107,0.0
34,3,0.75,0.8518032193913132,0.3547393672297505
34,3,0.5,0.8513101081808893,0.4040504882721452
34,3,0.25,0.8518371611373312,0.35134519262794983
34,3,0.0,0.8184833482015385,3.6867264862072258
34,4,1.0,0.8553506130636107,0.0
34,4,0.75,0.8447244619845239,1.062615107908682
34,4,0.5,0.8245997444097863,3.075086865382437
34,4,0.25,0.775413058127566,7.993755493604471
34,4,0.0,0.7557033751809151,9.96472378826956
34,5,1.0,0.8553506130636107,0.0
34,5,0.75,0.8378400765877494,1.7510536475861316
34,5,0.5,0.8061687435544104,4.918186950920034
34,5,0.25,0.7325784259317905,12.277218713182025
34,5,0.0,0.645753255822334,20.959735724127672
34,6,1.0,0.8553506130636107,0.0
34,6,0.75,0.8463747284013207,0.8975884662290046
34,6,0.5,0.8290825033499255,2.6268109713685206
34,6,0.25,0.8154044355162987,3.9946177547312
34,6,0.0,0.8030013228674595,5.2349290196151195
34,7,1.0,0.8553506130636107,0.0
34,7,0.75,0.8589403748668082,-0.35897618031974776
34,7,0.5,0.8584208321009563,-0.3070219037345612
34,7,0.25,0.7660488930091267,8.9301720054484
34,7,0.0,0.6660535636612192,18.929704940239155
34,8,1.0,0.8553506130636107,0.0
34,8,0.75,0.8522475654038464,0.3103047659764324
34,8,0.5,0.8456425539266407,0.9708059136970038
34,8,0.25,0.8293775917528969,2.5973021310713773
34,8,0.0,0.7423740705737907,11.297654248982003
35,0,1.0,0.6715489142824497,0.0
35,0,0.75,0.6630835605705212,0.8465353711928469
35,0,0.5,0.6569161689328743,1.4632745349575371
35,0,0.25,0.617664252972091,5.388466131035862
35,0,0.0,0.5852696961761806,8.627921810626905
35,1,1.0,0.6715489142824497,0.0
35,1,0.75,0.6671847886410188,0.43641256414308494
35,1,0.5,0.673402847001318,-0.18539327188683563
35,1,0.25,0.6672894718506697,0.4259442431780003
35,1,0.0,0.6496303752188738,2.191853906357588
35,2,1.0,0.6715489142824497,0.0
35,2,0.75,0.6639898020867842,0.7559112195665518
35,2,0.5,0.6782224547166591,-0.6673540434209424
35,2,0.25,0.6600233594842304,1.1525554798219262
35,2,0.0,0.6580210068972542,1.3527907385195492
35,3,1.0,0.6715489142824497,0.0
35,3,0.75,0.6598490791623483,1.169983512010142
35,3,0.5,0.6444807435281752,2.706817075427448
35,3,0.25,0.6297105086308946,4.1838405651555055
35,3,0.0,0.6288397966237572,4.270911765869245
35,4,1.0,0.6715489142824497,0.0
35,4,0.75,0.6657991376990599,0.5749776583389821
35,4,0.5,0.6638475825256278,0.7701331756821861
35,4,0.25,0.6600185541578374,1.1530360124612282
35,4,0.0,0.6527536762661509,1.8795238016298788
35,5,1.0,0.6715489142824497,0.0
35,5,0.75,0.6824385616811864,-1.0889647398736768
35,5,0.5,0.6794117632179955,-0.7862848935545785
35,5,0.25,0.6623967674513864,0.9152146831063246
35,5,0.0,0.6464481973914088,2.5100716891040875
35,6,1.0,0.6715489142824497,0.0
35,6,0.75,0.6628310413827416,0.8717872899708046
35,6,0.5,0.6641329939103331,0.741592037211658
35,6,0.25,0.6688047349237485,0.2744179358701193
35,6,0.0,0.673412643050558,-0.18637287681083636
35,7,1.0,0.6715489142824497,0.0
35,7,0.75,0.6844431766178114,-1.2894262335361728
35,7,0.5,0.6939618702831271,-2.2412956000677386
35,7,0.25,0.684996024216138,-1.3447109933688361
35,7,0.0,0.627286636435554,4.426227784689562
35,8,1.0,0.6715489142824497,0.0
35,8,0.75,0.6857546279326233,-1.4205713650173646
35,8,0.5,0.68637003688276,-1.4821122600310321
35,8,0.25,0.6660427967337446,0.5506117548705114
35,8,0.0,0.634420117224428,3.7128797058021634
36,0,1.0,0.6979364717408195,0.0
36,0,0.75,0.6860325182588771,1.1903953481942398
36,0,0.5,0.668126511162358,2.9809960578461525
36,0,0.25,0.6468070902279751,5.112938151284441
36,0,0.0,0.6237837482654742,7.415272347534529
36,1,1.0,0.6979364717408195,0.0
36,1,0.75,0.691071214389539,0.6865257351280518
36,1,0.5,0.6811482434519535,1.6788228288866058
36,1,0.25,0.6560331308912812,4.190334084953829
36,1,0.0,0.6254892311971637,7.244724054365581
36,2,1.0,0.6979364717408195,0.0
36,2,0.75,0.6911491579349707,0.6787313805848849
36,2,0.5,0.6844271831944204,1.35092885463991
36,2,0.25,0.6909357830809746,0.7000688659844934
36,2,0.0,0.6817906883265392,1.6145783414280301
36,3,1.0,0.6979364717408195,0.0
36,3,0.75,0.6896515581460746,0.8284913594744925
36,3,0.5,0.6714655898846724,2.64708818561471
36,3,0.25,0.6646344291996975,3.3302042541122012
36,3,0.0,0.6437232702541177,5.421320148670183
36,4,1.0,0.6979364717408195,0.0
36,4,0.75,0.6998933903006712,-0.19569185598516947
36,4,0.5,0.6685869742982959,2.9349497442523576
36,4,0.25,0.6454633564637196,5.247311527709996
36,4,0.0,0.6249909015232376,7.294557021758196
36,5,1.0,0.6979364717408195,0.0
36,5,0.75,0.713423601156859,-1.548712941603947
36,5,0.5,0.7269950121966423,-2.905854045582279
36,5,0.25,0.7230340297981134,-2.5097558057293856
36,5,0.0,0.530382051212493,16.75544205283265
36,6,1.0,0.6979364717408195,0.0
36,6,0.75,0.6977210674913276,0.021540424949195724
36,6,0.5,0.6924205676182393,0.5515904122580184
36,6,0.25,0.6733422442839339,2.4594227456885664
36,6,0.0,0.6541664570254462,4.3770014715373335
36,7,1.0,0.6979364717408195,0.0
36,7,0.75,0.683918300276315,1.401817146450457
36,7,0.5,0.688550848591198,0.9385623149621547
36,7,0.25,0.6285419624577063,6.939450928311319
36,7,0.0,0.5924374317234504,10.549904001736909
36,8,1.0,0.6979364717408195,0.0
36,8,0.75,0.6763873958167436,2.1549075924075956
36,8,0.5,0.6686234947618477,2.931297697897184
36,8,0.25,0.6445995143182113,5.333695742260824
36,8,0.0,0.6275735225960228,7.036294914479669
37,0,1.0,0.7870439582165384,0.0
37,0,0.75,0.7849436132416449,0.2100344974893531
37,0,0.5,0.7872706255788368,-0.02266673622983717
37,0,0.25,0.7672846403900854,1.9759317826453016
37,0,0.0,0.7229063468173288,6.413761139920959
37,1,1.0,0.7870439582165384,0.0
37,1,0.75,0.7596533122594833,2.7390645957055093
37,1,0.5,0.7333779251442216,5.366603307231676
37,1,0.25,0.7098074032495338,7.723655496700454
37,1,0.0,0.6858929892665936,10.11509689499448
37,2,1.0,0.7870439582165384,0.0
37,2,0.75,0.7729286775795374,1.411528063700096
37,2,0.5,0.7729171635210657,1.4126794695472733
37,2,0.25,0.7618991760410696,2.5144782175468783
37,2,0.0,0.7186666729976866,6.837728521885178
37,3,1.0,0.7870439582165384,0.0
37,3,0.75,0.7939998788732725,-0.6955920656734116
37,3,0.5,0.780349470962432,0.6694487254106374
37,3,0.25,0.7825479574278249,0.44960007887134834
37,3,0.0,0.7743762570811595,1.266770113537885
37,4,1.0,0.7870439582165384,0.0
37,4,0.75,0.7968572454289222,-0.9813287212383837
37,4,0.5,0.7919887850413604,-0.4944826824822002
37,4,0.25,0.7353106827013793,5.173327551515905
37,4,0.0,0.7039924860814112,8.30514721351272
37,5,1.0,0.7870439582165384,0.0
37,5,0.75,0.8038611221619918,-1.6817163945453406
37,5,0.5,0.8079398130241477,-2.089585480760936
37,5,0.25,0.787966946179244,-0.09229879627056237
37,5,0.0,0.7112368066001911,7.580715161634732
37,6,1.0,0.7870439582165384,0.0
37,6,0.75,0.7692156434345641,1.782831478197433
37,6,0.5,0.755306285228515,3.1737672988023435
37,6,0.25,0.744143059352292,4.290089886424642
37,6,0.0,0.7418445954155042,4.519936280103421
37,7,1.0,0.7870439582165384,0.0
37,7,0.75,0.7825944304088016,0.4449527807736775
37,7,0.5,0.789318493011967,-0.22745347954286066
37,7,0.25,0.7649836931739329,2.20602650426055
37,7,0.0,0.7709579689066468,1.608598930989158
37,8,1.0,0.7870439582165384,0.0
37,8,0.75,0.7722314507198228,1.4812507496715588
37,8,0.5,0.7671038714035652,1.9940086812973212
37,8,0.25,0.7373066668536943,4.97372913628441
37,8,0.0,0.700885709679813,8.615824853672539
38,0,1.0,0.781086815609295,0.0
38,0,0.75,0.778452039585463,0.2634776023831997
38,0,0.5,0.7546864737928233,2.6400341816471773
38,0,0.25,0.7422878419172536,3.879897369204144
38,0,0.0,0.7101677904363326,7.091902517296244
38,1,1.0,0.781086815609295,0.0
38,1,0.75,0.7656370052711516,1.544981033814341
38,1,0.5,0.7626475967819387,1.843921882735633
38,1,0.25,0.7381529044186611,4.293391119063394
38,1,0.0,0.6782433167130697,10.284349889622534
38,2,1.0,0.781086815609295,0.0
38,2,0.75,0.7791559437095844,0.193087189971064
38,2,0.5,0.7574032467402257,2.3683568869069305
38,2,0.25,0.7292840175193116,5.180279808998344
38,2,0.0,0.6832063022611488,9.788051334814629
38,3,1.0,0.781086815609295,0.0
38,3,0.75,0.8199959560074338,-3.8909140398138753
38,3,0.5,0.8314909728964373,-5.040415728714221
38,3,0.25,0.8211321241704554,-4.004530856116039
38,3,0.0,0.785974999334078,-0.4888183724782946
38,4,1.0,0.781086815609295,0.0
38,4,0.75,0.7693925256650912,1.169428994420385
38,4,0.5,0.7254959280525837,5.559088755671137
38,4,0.25,0.6374442912976748,14.364252431162027
38,4,0.0,0.5581706388746089,22.29161767346861
38,5,1.0,0.781086815609295,0.0
38,5,0.75,0.7757388126317193,0.5348002977575761
38,5,0.5,0.7548890699103384,2.619774569895661
38,5,0.25,0.628533553179446,15.255326242984902
38,5,0.0,0.5317818605432485,24.930495506604654
38,6,1.0,0.781086815609295,0.0
38,6,0.75,0.7921998815253166,-1.111306591602157
38,6,0.5,0.7843231242732903,-0.3236308663995269
38,6,0.25,0.7777042067397706,0.33826088695244616
38,6,0.0,0.7755217021806079,0.5565113428687152
38,7,1.0,0.781086815609295,0.0
38,7,0.75,0.7926937177122728,-1.1606902102977767
38,7,0.5,0.7879653304559437,-0.6878514846648698
38,7,0.25,0.7550839243584849,2.6002891250810123
38,7,0.0,0.7177640392418113,6.3322776367483735
38,8,1.0,0.781086815609295,0.0
38,8,0.75,0.7636397287590233,1.7447086850271742
38,8,0.5,0.7318293295265478,4.925748608274727
38,8,0.25,0.6958097114274272,8.527710418186786
38,8,0.0,0.656563986441681,12.452282916761403
39,0,1.0,0.7624181611947844,0.0
39,0,0.75,0.7111294137355737,5.128874745921075
39,0,0.5,0.6382897608472039,12.412840034758055
39,0,0.25,0.6112497719051389,15.11683892896456
39,0,0.0,0.5966663724419304,16.575178875285403
39,1,1.0,0.7624181611947844,0.0
39,1,0.75,0.7347042595870704,2.771390160771403
39,1,0.5,0.7142567999698358,4.8161361224948624
39,1,0.25,0.694110109094896,6.830805209988844
39,1,0.0,0.6711194385096086,9.12987226851758
39,2,1.0,0.7624181611947844,0.0
39,2,0.75,0.7744267511152229,-1.2008589920438406
39,2,0.5,0.7535980971199153,0.8820064074869127
39,2,0.25,0.7168707904995086,4.554737069527581
39,2,0.0,0.6746615874420869,8.775657375269752
39,3,1.0,0.7624181611947844,0.0
39,3,0.75,0.7493132391017193,1.310492209306513
39,3,0.5,0.726913955556413,3.550420563837142
39,3,0.25,0.6600425569837032,10.237560421108128
39,3,0.0,0.6192641017183073,14.315405947647719
39,4,1.0,0.7624181611947844,0.0
39,4,0.75,0.781832368082368,-1.9414206887583552
39,4,0.5,0.7670602836250033,-0.4642122430218887
39,4,0.25,0.7279010513260478,3.4517109868736684
39,4,0.0,0.656920695726613,10.54974654681714
39,5,1.0,0.7624181611947844,0.0
39,5,0.75,0.748143244760347,1.4274916434437457
39,5,0.5,0.6791227327330435,8.329542846174098
39,5,0.25,0.5341060288075663,22.831213238721816
39,5,0.0,0.4494879481326973,31.29302130620871
39,6,1.0,0.7624181611947844,0.0
39,6,0.75,0.7539037164884081,0.8514444706376301
39,6,0.5,0.7455843952030067,1.6833765991777772
39,6,0.25,0.739894035532557,2.25241256622275
39,6,0.0,0.743827531012405,1.8590630182379497
39,7,1.0,0.7624181611947844,0.0
39,7,0.75,0.7624782471917374,-0.006008599695295214
39,7,0.5,0.806335531751826,-4.391737055704159
39,7,0.25,0.7846922839967584,-2.227412280197394
39,7,0.0,0.7486325166259318,1.3785644568852673
39,8,1.0,0.7624181611947844,0.0
39,8,0.75,0.7882981135965363,-2.5879952401751893
39,8,0.5,0.7918295612543933,-2.941140005960885
39,8,0.25,0.7670543962835334,-0.46362350887489967
39,8,0.0,0.7131433837902091,4.927477740457531
40,0,1.0,0.7605434447014472,0.0
40,0,0.75,0.7668824176338673,-0.6338972932420139
40,0,0.5,0.7554134160276312,0.5130028673815956
40,0,0.25,0.7233155753163473,3.722786938509992
40,0,0.0,0.6604682639184178,10.007518078302935
40,1,1.0,0.7605434447014472,0.0
40,1,0.75,0.7371831119404849,2.3360332760962277
40,1,0.5,0.7380071309942986,2.253631370714859
40,1,0.25,0.7140205832738802,4.652286142756701
40,1,0.0,0.7049224317473989,5.5621012954048314
40,2,1.0,0.7605434447014472,0.0
40,2,0.75,0.7635521873605208,-0.3008742659073582
40,2,0.5,0.7702406746668254,-0.9697229965378251
40,2,0.25,0.7500286328815085,1.051481181993874
40,2,0.0,0.7288983074230952,3.1645137278351942
40,3,1.0,0.7605434447014472,0.0
40,3,0.75,0.7482196216696505,1.2323823031796688
40,3,0.5,0.7317237647410061,2.8819679960441102
40,3,0.25,0.6682260576648428,9.231738703660442
40,3,0.0,0.6088939938437277,15.164945085771953
40,4,1.0,0.7605434447014472,0.0
40,4,0.75,0.7439353177413833,1.6608126960063863
40,4,0.5,0.7332352050879701,2.730823961347706
40,4,0.25,0.7253025618655367,3.5240882835910536
40,4,0.0,0.7099761639917368,5.056728070971039
40,5,1.0,0.7605434447014472,0.0
40,5,0.75,0.7495196191131768,1.102382558827042
40,5,0.5,0.743920085817619,1.6623358883828154
40,5,0.25,0.6899933604282338,7.055008427321341
40,5,0.0,0.6204924717260493,14.005097297539793
40,6,1.0,0.7605434447014472,0.0
40,6,0.75,0.747307867327592,1.3235577373855167
40,6,0.5,0.7387406193883639,2.1802825313083307
40,6,0.25,0.7370924180076218,2.345102669382537
40,6,0.0,0.7319615887249983,2.858185597644891
40,7,1.0,0.7605434447014472,0.0
40,7,0.75,0.7498281372563971,1.0715307445050115
40,7,0.5,0.7345282911654635,2.6015153535983715
40,7,0.25,0.6989951947661014,6.1548249935345805
40,7,0.0,0.584329837902067,17.621360679938014
40,8,1.0,0.7605434447014472,0.0
40,8,0.75,0.7592692532239131,0.1274191477534048
40,8,0.5,0.7422304484740765,1.8312996227370704
40,8,0.25,0.6780132091131832,8.2530235588264
40,8,0.0,0.6009269016634473,15.961654303799989
