subject,channel,f1_full,f1_occluded,drop_pp
1,0,0.5496060127339748,0.46292673273534524,8.667927999862957
1,1,0.5496060127339748,0.5810719786278011,-3.146596589382633
1,2,0.5496060127339748,0.4978340282179968,5.177198451597798
1,3,0.5496060127339748,0.4364713393889595,11.313467334501532
1,4,0.5496060127339748,0.5499076844417512,-0.03016717077763964
1,5,0.5496060127339748,0.38193644364088475,16.766956909309005
1,6,0.5496060127339748,0.6075544826696788,-5.794846993570402
1,7,0.5496060127339748,0.5523602813027642,-0.2754268568789353
1,8,0.5496060127339748,0.49145755865874086,5.814845407523395
2,0,0.8296374584632948,0.7328567618232995,9.678069663999533
2,1,0.8296374584632948,0.7047617438432524,12.487571462004244
2,2,0.8296374584632948,0.7436122059152817,8.602525254801318
2,3,0.8296374584632948,0.7612534510693233,6.838400739397155
2,4,0.8296374584632948,0.8204983443285003,0.9139114134794513
2,5,0.8296374584632948,0.7088617320388186,12.07757264244762
2,6,0.8296374584632948,0.770954207962169,5.868325050112588
2,7,0.8296374584632948,0.6905691770379038,13.906828142539107
2,8,0.8296374584632948,0.699377990430622,13.025946803267285
3,0,0.8755605934882251,0.7183466572018405,15.721393628638458
3,1,0.8755605934882251,0.7856181455622425,8.994244792598261
3,2,0.8755605934882251,0.748993041272453,12.65675522157721
3,3,0.8755605934882251,0.6097029270150253,26.585766647319986
3,4,0.8755605934882251,0.7157141222833369,15.984647120488827
3,5,0.8755605934882251,0.7130489256611442,16.251166782708093
3,6,0.8755605934882251,0.8580523131474009,1.750828034082419
3,7,0.8755605934882251,0.7357888987924834,13.977169469574168
3,8,0.8755605934882251,0.7613656617363755,11.419493175184957
4,0,0.8135748498835325,0.6445337512216492,16.90410986618832
4,1,0.8135748498835325,0.6935478293740891,12.002702050944336
4,2,0.8135748498835325,0.5415508331663661,27.202401671716636
4,3,0.8135748498835325,0.7172701641336823,9.630468574985018
4,4,0.8135748498835325,0.7553469095938736,5.822794028965883
4,5,0.8135748498835325,0.5423475095058754,27.122734037765706
4,6,0.8135748498835325,0.6854528333837935,12.812201649973897
4,7,0.8135748498835325,0.6283564180831559,18.521843180037656
4,8,0.8135748498835325,0.7662726966461868,4.730215323734566
5,0,0.5104272558948777,0.427645885115906,8.278137077897169
5,1,0.5104272558948777,0.4904678212278443,1.995943466703337
5,2,0.5104272558948777,0.466642184309334,4.378507158554368
5,3,0.5104272558948777,0.593605073020626,-8.317781712574835
5,4,0.5104272558948777,0.48949439681842283,2.0932859076454866
5,5,0.5104272558948777,0.43967748163727083,7.074977425760687
5,6,0.5104272558948777,0.5188036591615012,-0.8376403266623478
5,7,0.5104272558948777,0.5090441237442563,0.13831321506213579
5,8,0.5104272558948777,0.4973900619785979,1.3037193916279777
6,0,0.6946116254378509,0.6305067653411256,6.410486009672534
6,1,0.6946116254378509,0.5986555019974593,9.59561234403916
6,2,0.6946116254378509,0.5157033135978385,17.890831184001243
6,3,0.6946116254378509,0.7507092046353778,-5.609757919752689
6,4,0.6946116254378509,0.6459971187253326,4.861450671251832
6,5,0.6946116254378509,0.5443809580467283,15.023066739112267
6,6,0.6946116254378509,0.6038804283532916,9.073119708455934
6,7,0.6946116254378509,0.40685625869511177,28.775536674273916
6,8,0.6946116254378509,0.647542140420418,4.706948501743291
7,0,0.774314510989853,0.5762165886656483,19.809792232420477
7,1,0.774314510989853,0.6307235322971694,14.359097869268368
7,2,0.774314510989853,0.7073086531506045,6.700585783924851
7,3,0.774314510989853,0.6131665145632692,16.114799642658383
7,4,0.774314510989853,0.7112236153159293,6.309089567392379
7,5,0.774314510989853,0.5935920018487324,18.072250914112065
7,6,0.774314510989853,0.7262305577876658,4.808395320218728
7,7,0.774314510989853,0.5882809579520488,18.603355303780422
7,8,0.774314510989853,0.6420802578196276,13.223425317022542
8,0,0.7913661330942215,0.7090111518821192,8.235498121210238
8,1,0.7913661330942215,0.7333814465533725,5.7984686540849095
8,2,0.7913661330942215,0.7983166088536998,-0.695047575947827
8,3,0.7913661330942215,0.7328386751916164,5.852745790260516
8,4,0.7913661330942215,0.7550734240481147,3.629270904610682
8,5,0.7913661330942215,0.648813847683132,14.255228541108956
8,6,0.7913661330942215,0.7958097127739985,-0.4443579679776932
8,7,0.7913661330942215,0.703865683219846,8.750044987437555
8,8,0.7913661330942215,0.6820604097616145,10.930572333260702
9,0,0.8116918530178696,0.7449206471439536,6.677120587391605
9,1,0.8116918530178696,0.7069075623870145,10.478429063085514
9,2,0.8116918530178696,0.7812813012207606,3.0410551797109053
9,3,0.8116918530178696,0.7662423065367061,4.5449546481163505
9,4,0.8116918530178696,0.7232265418001089,8.846531121776069
9,5,0.8116918530178696,0.6829332388943828,12.875861412348677
9,6,0.8116918530178696,0.7770822904372922,3.4609562580577458
9,7,0.8116918530178696,0.704285156194513,10.740669682335657
9,8,0.8116918530178696,0.7746133549711735,3.7078498046696162
10,0,0.74954719872595,0.6005651842564594,14.898201446949056
10,1,0.74954719872595,0.6808588477576449,6.868835096830505
10,2,0.74954719872595,0.6715672065412999,7.797999218465012
10,3,0.74954719872595,0.668199872285689,8.1347326440261
10,4,0.74954719872595,0.7038975433779815,4.564965534796849
10,5,0.74954719872595,0.665889224146906,8.3657974579044
10,6,0.74954719872595,0.6939449114463092,5.560228727964079
10,7,0.74954719872595,0.5952273478570789,15.431985086887112
10,8,0.74954719872595,0.640242246077943,10.9304952648007
11,0,0.8698237497556998,0.6790240786472066,19.079967110849317
11,1,0.8698237497556998,0.7703689443905052,9.945480536519458
11,2,0.8698237497556998,0.8144696191939993,5.5354130561700465
11,3,0.8698237497556998,0.782763202368326,8.706054738737379
11,4,0.8698237497556998,0.799947135787278,6.987661396842171
11,5,0.8698237497556998,0.6328176849104812,23.700606484521856
11,6,0.8698237497556998,0.8598614299438432,0.9962319811856579
11,7,0.8698237497556998,0.6869304448417723,18.28933049139274
11,8,0.8698237497556998,0.7264657824791009,14.335796727659888
12,0,0.8611753034547152,0.8288730227035563,3.230228075115882
12,1,0.8611753034547152,0.771056596311582,9.01187071431332
12,2,0.8611753034547152,0.7810741079880226,8.010119546669259
12,3,0.8611753034547152,0.7242222717735585,13.695303168115668
12,4,0.8611753034547152,0.6798095356812457,18.136576777346946
12,5,0.8611753034547152,0.7484201274544301,11.275517600028506
12,6,0.8611753034547152,0.8590982505014125,0.20770529533026272
12,7,0.8611753034547152,0.7517844767844768,10.939082667023836
12,8,0.8611753034547152,0.7473143884569603,11.386091499775485
13,0,0.890710301170929,0.8509848732331982,3.9725427937730817
13,1,0.890710301170929,0.7973973692636886,9.331293190724033
13,2,0.890710301170929,0.8164315351789515,7.427876599197747
13,3,0.890710301170929,0.831136572527372,5.957372864355692
13,4,0.890710301170929,0.7722799621015218,11.843033906940715
13,5,0.890710301170929,0.7818942229932575,10.881607817767147
13,6,0.890710301170929,0.8568981976342946,3.381210353663433
13,7,0.890710301170929,0.7697776447288085,12.093265644212048
13,8,0.890710301170929,0.8308882225432974,5.982207862763156
14,0,0.8181927167965877,0.7378967781146952,8.029593868189245
14,1,0.8181927167965877,0.7398341824319709,7.835853436461681
14,2,0.8181927167965877,0.6711381643750483,14.705455242153942
14,3,0.8181927167965877,0.7263221363474446,9.187058044914309
14,4,0.8181927167965877,0.7352747222368747,8.291799455971294
14,5,0.8181927167965877,0.5907767271407207,22.741598965586697
14,6,0.8181927167965877,0.7833687827625659,3.482393403402173
14,7,0.8181927167965877,0.7426002922413176,7.559242455527004
14,8,0.8181927167965877,0.6967727269305856,12.14199898660021
15,0,0.8433129855715871,0.7947523803142271,4.856060525735995
15,1,0.8433129855715871,0.7240897489759743,11.922323659561274
15,2,0.8433129855715871,0.7601052661960681,8.320771937551896
15,3,0.8433129855715871,0.7843412551431275,5.89717304284596
15,4,0.8433129855715871,0.7934327662609286,4.988021931065845
15,5,0.8433129855715871,0.7047316133766868,13.858137219490029
15,6,0.8433129855715871,0.7771353240858118,6.61776614857753
15,7,0.8433129855715871,0.704177720396523,13.913526517506403
15,8,0.8433129855715871,0.8563356203197605,-1.3022634748173445
16,0,0.777064997703983,0.7277694314198179,4.92955662841651
16,1,0.777064997703983,0.7431893440087459,3.387565369523704
16,2,0.777064997703983,0.6954972178519981,8.156777985198483
16,3,0.777064997703983,0.6342653170229992,14.27996806809838
16,4,0.777064997703983,0.6224439739103882,15.462102379359477
16,5,0.777064997703983,0.5510869844203178,22.59780132836652
16,6,0.777064997703983,0.7361017255218965,4.096327218208651
16,7,0.777064997703983,0.7065879079418977,7.047708976208522
16,8,0.777064997703983,0.7036469703558684,7.341802734811454
17,0,0.787366056955883,0.5674760453369476,21.98900116189354
17,1,0.787366056955883,0.752156496323961,3.5209560631922043
17,2,0.787366056955883,0.7127027098180185,7.466334713786448
17,3,0.787366056955883,0.6301177393349385,15.72483176209445
17,4,0.787366056955883,0.6436679356174447,14.36981213384383
17,5,0.787366056955883,0.4450890563132676,34.22770006426154
17,6,0.787366056955883,0.7712490447000246,1.6117012255858376
17,7,0.787366056955883,0.747477418882875,3.988863807300802
17,8,0.787366056955883,0.7194540320658813,6.79120248900017
18,0,0.775278842725466,0.692360206512702,8.291863621276397
18,1,0.775278842725466,0.7517107258266404,2.356811689882554
18,2,0.775278842725466,0.7032420779094981,7.203676481596788
18,3,0.775278842725466,0.6252187574783323,15.006008524713366
18,4,0.775278842725466,0.7286840500521403,4.659479267332567
18,5,0.775278842725466,0.5838725444144396,19.14062983110264
18,6,0.775278842725466,0.824209414788988,-4.893057206352203
18,7,0.775278842725466,0.6917736318463481,8.350521087911789
18,8,0.775278842725466,0.711521316800943,6.375752592452299
19,0,0.8326544779875729,0.7484023106019954,8.42521673855775
19,1,0.8326544779875729,0.7097829773289099,12.287150065866292
19,2,0.8326544779875729,0.7473404460859641,8.53140319016088
19,3,0.8326544779875729,0.6141873462462418,21.846713174133104
19,4,0.8326544779875729,0.7072334817660603,12.542099622151259
19,5,0.8326544779875729,0.6234366392688472,20.921783871872567
19,6,0.8326544779875729,0.8370155162412669,-0.43610382536940495
19,7,0.8326544779875729,0.6534435489724775,17.92109290150954
19,8,0.8326544779875729,0.7088653310850748,12.37891469024981
20,0,0.7606004143167004,0.721500165289696,3.9100249027004486
20,1,0.7606004143167004,0.6281944444444444,13.240596987225606
20,2,0.7606004143167004,0.6599346114736733,10.066580284302717
20,3,0.7606004143167004,0.7586383954896349,0.19620188270655925
20,4,0.7606004143167004,0.6845489691609322,7.605144515576823
20,5,0.7606004143167004,0.6868598369429824,7.374057737371809
20,6,0.7606004143167004,0.7035642304146875,5.703618390201292
20,7,0.7606004143167004,0.5871024802816268,17.349793403507363
20,8,0.7606004143167004,0.6918920664444961,6.870834787220437
21,0,0.7281652678066706,0.6441314129473508,8.403385485931981
21,1,0.7281652678066706,0.7144876553412165,1.367761246545407
21,2,0.7281652678066706,0.7516901207489872,-2.3524852942316654
21,3,0.7281652678066706,0.6612748876875788,6.689038011909176
21,4,0.7281652678066706,0.7081745056276183,1.9990762179052268
21,5,0.7281652678066706,0.4865761753708632,24.15890924358074
21,6,0.7281652678066706,0.7373889228862668,-0.9223655079596216
21,7,0.7281652678066706,0.6938021759688091,3.436309183786146
21,8,0.7281652678066706,0.671926871945859,5.623839586081159
22,0,0.7260225504202712,0.7200619869166248,0.5960563503646377
22,1,0.7260225504202712,0.7420908332599878,-1.6068282839716619
22,2,0.7260225504202712,0.6918110687226603,3.42114816976109
22,3,0.7260225504202712,0.6691792634843912,5.684328693588004
22,4,0.7260225504202712,0.6640790352117207,6.1943515208550455
22,5,0.7260225504202712,0.39387035311287283,33.21521973073984
22,6,0.7260225504202712,0.7003499603401215,2.567259008014966
22,7,0.7260225504202712,0.614932276302692,11.109027411757921
22,8,0.7260225504202712,0.613264388396916,11.27581620233552
23,0,0.7305989120105578,0.5993371237164086,13.126178829414926
23,1,0.7305989120105578,0.6418441851642538,8.875472684630402
23,2,0.7305989120105578,0.735961604012215,-0.5362692001657177
23,3,0.7305989120105578,0.6820929207259943,4.8505991284563565
23,4,0.7305989120105578,0.61126182550704,11.933708650351782
23,5,0.7305989120105578,0.6079312340943734,12.266767791618438
23,6,0.7305989120105578,0.6506751317691956,7.992378024136226
23,7,0.7305989120105578,0.597110692145196,13.348821986536185
23,8,0.7305989120105578,0.5994884992896475,13.111041272091029
24,0,0.7545217295896943,0.6465434672601899,10.797826232950447
24,1,0.7545217295896943,0.6688138944042,8.57078351854943
24,2,0.7545217295896943,0.6661401940643713,8.838153552532301
24,3,0.7545217295896943,0.7543984407989198,0.012328879077450061
24,4,0.7545217295896943,0.6324418348808593,12.207989470883508
24,5,0.7545217295896943,0.5033080073236285,25.121372226606585
24,6,0.7545217295896943,0.7125027907786529,4.201893881104146
24,7,0.7545217295896943,0.6058648353218836,14.86568942678107
24,8,0.7545217295896943,0.6336020344991115,12.091969509058288
25,0,0.8122722538619312,0.759112910759758,5.3159343102173295
25,1,0.8122722538619312,0.7459304207903964,6.634183307153485
25,2,0.8122722538619312,0.6015588433438639,21.071341051806737
25,3,0.8122722538619312,0.6961689820302499,11.610327183168135
25,4,0.8122722538619312,0.6079881628301306,20.428409103180066
25,5,0.8122722538619312,0.6060691879931909,20.620306586874037
25,6,0.8122722538619312,0.8057752540339034,0.6496999828027872
25,7,0.8122722538619312,0.7154611996653628,9.681105419656843
25,8,0.8122722538619312,0.7826270088714975,2.964524499043375
26,0,0.6965027942991893,0.6298380347229258,6.66647595762635
26,1,0.6965027942991893,0.6223387560549607,7.416403824422857
26,2,0.6965027942991893,0.5423416971950088,15.416109710418047
26,3,0.6965027942991893,0.6701190013978725,2.638379290131676
26,4,0.6965027942991893,0.6055038808895428,9.09989134096465
26,5,0.6965027942991893,0.5178337144236799,17.86690798755094
26,6,0.6965027942991893,0.6876685687470144,0.8834225552174835
26,7,0.6965027942991893,0.6394652290501346,5.703756524905468
26,8,0.6965027942991893,0.6131469350511155,8.335585924807376
27,0,0.8812436969349458,0.8331487554917535,4.809494144319226
27,1,0.8812436969349458,0.8221946713059252,5.904902562902059
27,2,0.8812436969349458,0.8270569939543961,5.418670298054962
27,3,0.8812436969349458,0.8371515627319592,4.409213420298652
27,4,0.8812436969349458,0.7622349631983495,11.900873373659627
27,5,0.8812436969349458,0.7333473492990918,14.78963476358539
27,6,0.8812436969349458,0.8476433094898813,3.360038744506444
27,7,0.8812436969349458,0.8084884321643384,7.275526477060734
27,8,0.8812436969349458,0.7684113080064157,11.28323889285301
28,0,0.756825039290215,0.7495276256707583,0.7297413619456794
28,1,0.756825039290215,0.6827149589452767,7.411008034493838
28,2,0.756825039290215,0.7008365455188946,5.5988493771320424
28,3,0.756825039290215,0.6156041288246047,14.122091046561035
28,4,0.756825039290215,0.6812247750923843,7.560026419783073
28,5,0.756825039290215,0.6153240844502814,14.150095483993363
28,6,0.756825039290215,0.7418690191879739,1.4956020102241174
28,7,0.756825039290215,0.6918518526161822,6.497318667403285
28,8,0.756825039290215,0.7131746886130974,4.365035067711764
29,0,0.7785579939453289,0.6532451217384624,12.531287220686648
29,1,0.7785579939453289,0.7570168512147495,2.154114273057939
29,2,0.7785579939453289,0.7428598340704107,3.56981598749182
29,3,0.7785579939453289,0.7630706361471324,1.5487357798196433
29,4,0.7785579939453289,0.6646755865795142,11.388240736581468
29,5,0.7785579939453289,0.6925213068343624,8.603668711096645
29,6,0.7785579939453289,0.7949929061471651,-1.6434912201836238
29,7,0.7785579939453289,0.7081545050326526,7.040348891267623
29,8,0.7785579939453289,0.6771034030307984,10.145459091453047
30,0,0.770619183458419,0.7184222020512343,5.2196981407184655
30,1,0.770619183458419,0.6842505404154559,8.63686430429631
30,2,0.770619183458419,0.7336430500075488,3.697613345087014
30,3,0.770619183458419,0.7692321007947547,0.1387082663664274
30,4,0.770619183458419,0.6874479159490904,8.317126750932857
30,5,0.770619183458419,0.5508011628847256,21.981802057369336
30,6,0.770619183458419,0.7375514089276923,3.3067774530726624
30,7,0.770619183458419,0.7539727536247418,1.6646429833677145
30,8,0.770619183458419,0.7200370779473189,5.05821055111001
31,0,0.7255159903520761,0.6743868075317876,5.112918282028856
31,1,0.7255159903520761,0.6586986345078095,6.681735584426662
31,2,0.7255159903520761,0.6530630794369969,7.245291091507921
31,3,0.7255159903520761,0.6569733538533299,6.854263649874626
31,4,0.7255159903520761,0.6438744088540602,8.164158149801592
31,5,0.7255159903520761,0.5674040094681114,15.811198088396472
31,6,0.7255159903520761,0.6905028591469877,3.501313120508842
31,7,0.7255159903520761,0.6371957859887979,8.832020436327825
31,8,0.7255159903520761,0.5763175764723752,14.91984138797009
32,0,0.6674138474789939,0.6379789305494417,2.9434916929552246
32,1,0.6674138474789939,0.639488678329767,2.7925169149226936
32,2,0.6674138474789939,0.6273509619061145,4.00628855728794
32,3,0.6674138474789939,0.6931633769612973,-2.5749529482303357
32,4,0.6674138474789939,0.5988126506008717,6.860119687812216
32,5,0.6674138474789939,0.3837022951861022,28.37115522928917
32,6,0.6674138474789939,0.6073713193232718,6.004252815572208
32,7,0.6674138474789939,0.5916234338708874,7.5790413608106455
32,8,0.6674138474789939,0.6288901177564488,3.852372972254514
33,0,0.8980012886911614,0.7100962196686418,18.79050690225196
33,1,0.8980012886911614,0.8196339125910184,7.8367376100143
33,2,0.8980012886911614,0.7320973643444489,16.59039243467124
33,3,0.8980012886911614,0.7044046227611174,19.3596665930044
33,4,0.8980012886911614,0.9105607571477388,-1.2559468456577405
33,5,0.8980012886911614,0.5513319808282624,34.666930786289896
33,6,0.8980012886911614,0.8843022393921445,1.3699049299016886
33,7,0.8980012886911614,0.7562100413358696,14.17912473552918
33,8,0.8980012886911614,0.8531743491815735,4.482693950958783
34,0,0.8553506130636107,0.7390605950836848,11.629001797992588
34,1,0.8553506130636107,0.7806080350815798,7.474257798203087
34,2,0.8553506130636107,0.7939930682112644,6.135754485234635
34,3,0.8553506130636107,0.8184833482015385,3.6867264862072258
34,4,0.8553506130636107,0.7557033751809151,9.96472378826956
34,5,0.8553506130636107,0.645753255822334,20.959735724127672
34,6,0.8553506130636107,0.8030013228674595,5.2349290196151195
34,7,0.8553506130636107,0.6660535636612192,18.929704940239155
34,8,0.8553506130636107,0.7423740705737907,11.297654248982003
35,0,0.6715489142824497,0.5852696961761806,8.627921810626905
35,1,0.6715489142824497,0.6496303752188738,2.191853906357588
35,2,0.6715489142824497,0.6580210068972542,1.3527907385195492
35,3,0.6715489142824497,0.6288397966237572,4.270911765869245
35,4,0.6715489142824497,0.6527536762661509,1.8795238016298788
35,5,0.6715489142824497,0.6464481973914088,2.5100716891040875
35,6,0.6715489142824497,0.673412643050558,-0.18637287681083636
35,7,0.6715489142824497,0.627286636435554,4.426227784689562
35,8,0.6715489142824497,0.634420117224428,3.7128797058021634
36,0,0.6979364717408195,0.6237837482654742,7.415272347534529
36,1,0.6979364717408195,0.6254892311971637,7.244724054365581
36,2,0.6979364717408195,0.6817906883265392,1.6145783414280301
36,3,0.6979364717408195,0.6437232702541177,5.421320148670183
36,4,0.6979364717408195,0.6249909015232376,7.294557021758196
36,5,0.6979364717408195,0.530382051212493,16.75544205283265
36,6,0.6979364717408195,0.6541664570254462,4.3770014715373335
36,7,0.6979364717408195,0.5924374317234504,10.549904001736909
36,8,0.6979364717408195,0.6275735225960228,7.036294914479669
37,0,0.7870439582165384,0.7229063468173288,6.413761139920959
37,1,0.7870439582165384,0.6858929892665936,10.11509689499448
37,2,0.7870439582165384,0.7186666729976866,6.837728521885178
37,3,0.7870439582165384,0.7743762570811595,1.266770113537885
37,4,0.7870439582165384,0.7039924860814112,8.30514721351272
37,5,0.7870439582165384,0.7112368066001911,7.580715161634732
37,6,0.7870439582165384,0.7418445954155042,4.519936280103421
37,7,0.7870439582165384,0.7709579689066468,1.608598930989158
37,8,0.7870439582165384,0.700885709679813,8.615824853672539
38,0,0.781086815609295,0.7101677904363326,7.091902517296244
38,1,0.781086815609295,0.6782433167130697,10.284349889622534
38,2,0.781086815609295,0.6832063022611488,9.788051334814629
38,3,0.781086815609295,0.785974999334078,-0.4888183724782946
38,4,0.781086815609295,0.5581706388746089,22.29161767346861
38,5,0.781086815609295,0.5317818605432485,24.930495506604654
38,6,0.781086815609295,0.7755217021806079,0.5565113428687152
38,7,0.781086815609295,0.7177640392418113,6.3322776367483735
38,8,0.781086815609295,0.656563986441681,12.452282916761403
39,0,0.7624181611947844,0.5966663724419304,16.575178875285403
39,1,0.7624181611947844,0.6711194385096086,9.12987226851758
39,2,0.7624181611947844,0.6746615874420869,8.775657375269752
39,3,0.7624181611947844,0.6192641017183073,14.315405947647719
39,4,0.7624181611947844,0.656920695726613,10.54974654681714
39,5,0.7624181611947844,0.4494879481326973,31.29302130620871
39,6,0.7624181611947844,0.743827531012405,1.8590630182379497
39,7,0.7624181611947844,0.7486325166259318,1.3785644568852673
39,8,0.7624181611947844,0.7131433837902091,4.927477740457531
40,0,0.7605434447014472,0.6604682639184178,10.007518078302935
40,1,0.7605434447014472,0.7049224317473989,5.5621012954048314
40,2,0.7605434447014472,0.7288983074230952,3.1645137278351942
40,3,0.7605434447014472,0.6088939938437277,15.164945085771953
40,4,0.7605434447014472,0.7099761639917368,5.056728070971039
40,5,0.7605434447014472,0.6204924717260493,14.005097297539793
40,6,0.7605434447014472,0.7319615887249983,2.858185597644891
40,7,0.7605434447014472,0.584329837902067,17.621360679938014
40,8,0.7605434447014472,0.6009269016634473,15.961654303799989
