subject,channel,r,f1_drop_mean,f1_drop_sd
1,0,5,0.08436534567603614,0.019311718862829327
1,1,5,0.07332120921609718,0.012874868376707562
1,2,5,0.08104970558767269,0.0053760551048777205
1,3,5,0.10331830972296382,0.010041268944016328
1,4,5,-0.0024570456850646406,0.0139558635286401
1,5,5,0.08205331946465336,0.010355903579257756
1,6,5,0.0027301677870242404,0.01038477990521423
1,7,5,0.06656663913524169,0.010043239442775074
1,8,5,0.10802628465402817,0.010091256331358928
2,0,5,0.14561951048043653,0.011135525663895803
2,1,5,0.12777175715088795,0.014293157670225825
2,2,5,0.1579518288918486,0.004697923095197084
2,3,5,0.09584193477885765,0.01632511715089873
2,4,5,0.06655836836099975,0.012495073839441956
2,5,5,0.17827567549041462,0.0167790403032255
2,6,5,0.09226345865972115,0.007647980782901599
2,7,5,0.2117402973867933,0.014302420244228224
2,8,5,0.14007291616691916,0.01566383723648459
3,0,5,0.15926918824012815,0.013899627943979892
3,1,5,0.16943362188912087,0.018611356685826898
3,2,5,0.16734290921487296,0.023268255625720866
3,3,5,0.23954632765755096,0.015494794610722114
3,4,5,0.15152728754494588,0.008872402936750725
3,5,5,0.16824733345596543,0.015049329107830444
3,6,5,0.047138108722157734,0.00522360336796591
3,7,5,0.16648801437119973,0.014363582702187516
3,8,5,0.16915568237254777,0.0052789239598779476
4,0,5,0.18229066847742825,0.01678458261519844
4,1,5,0.15634125195699883,0.013842753351047477
4,2,5,0.17037539620438993,0.01379525791583835
4,3,5,0.122869837361017,0.013389151017674102
4,4,5,0.11403750769509173,0.007294339747445868
4,5,5,0.22258884041040838,0.020021295820790902
4,6,5,0.0955788994123283,0.008196888558731994
4,7,5,0.19773490328583107,0.021301903797880467
4,8,5,0.14142003840355935,0.006858060930427937
5,0,5,0.05446324192267164,0.008454516370587755
5,1,5,0.04553720445938867,0.013113634671543589
5,2,5,0.049096630008424416,0.00613312102438663
5,3,5,0.01694424614465072,0.00906185382010638
5,4,5,0.034358633630452426,0.007483325999901586
5,5,5,0.04325762452302556,0.014466292468445366
5,6,5,0.007637673187931149,0.019521170794326803
5,7,5,0.0370052269561289,0.0017099943851203753
5,8,5,0.06356338426133432,0.001997168401394307
6,0,5,0.07893269529350833,0.009410034116418213
6,1,5,0.10756201355203196,0.009461021484181318
6,2,5,0.09314870494745024,0.009574721139958534
6,3,5,0.04773916185930016,0.011810771616648766
6,4,5,0.04286352271618528,0.011493775695031048
6,5,5,0.12557121373130223,0.012153316834578695
6,6,5,0.09389454692105285,0.012309800848387177
6,7,5,0.20236720077752715,0.019402061122295488
6,8,5,0.12202669400375468,0.006406491070703158
7,0,5,0.1797232945845704,0.007541070640405389
7,1,5,0.1468589290866774,0.01098337459103214
7,2,5,0.16432766427723802,0.01561003792284203
7,3,5,0.1621554689953336,0.027323241941889193
7,4,5,0.08001582431740832,0.013335480199224871
7,5,5,0.1746422148491506,0.009015281418331057
7,6,5,0.06839682232376512,0.008039624233522771
7,7,5,0.14720643565872862,0.00630148664093369
7,8,5,0.22774293175709498,0.013265871208005754
8,0,5,0.14456561435480964,0.014074100228057829
8,1,5,0.09959574372129956,0.012152129149634235
8,2,5,0.052839362493599974,0.01375621501873193
8,3,5,0.13570338052346467,0.01720383747516683
8,4,5,0.13478845405486212,0.014568383599285058
8,5,5,0.16632101268573368,0.01901254850240243
8,6,5,0.04495471883575632,0.008572440604490278
8,7,5,0.15460789340785172,0.006955132347070849
8,8,5,0.15405204453252933,0.024567612697280625
9,0,5,0.07645347738522419,0.008822213416916174
9,1,5,0.1314761255983697,0.01717934376724072
9,2,5,0.1137750352825145,0.007226927867573872
9,3,5,0.07628386975123094,0.009964128115503321
9,4,5,0.09336696698423992,0.009925277695391956
9,5,5,0.13927066113172057,0.014342786157723414
9,6,5,0.05843242381483116,0.010399679584921575
9,7,5,0.1758061176018851,0.014525194413796
9,8,5,0.1422511652205251,0.01376353642582784
10,0,5,0.15171115219929046,0.018206245345758317
10,1,5,0.07243789149559235,0.014980774791574154
10,2,5,0.11284955590953025,0.011861172698691184
10,3,5,0.11749315674608755,0.010556686471999572
10,4,5,0.05748615593920059,0.012893022964092447
10,5,5,0.08978639450799286,0.016990928125053643
10,6,5,0.09688130121880703,0.009099412636978114
10,7,5,0.17933394495389104,0.01246039949355147
10,8,5,0.1390706593546492,0.01310737403540229
11,0,5,0.17044666680886258,0.009884025620634822
11,1,5,0.11856224520091825,0.021920322093810174
11,2,5,0.13736158837558976,0.010142342063914829
11,3,5,0.1364225844823797,0.013685337612807654
11,4,5,0.12388801269308425,0.018326277487374604
11,5,5,0.16103986513141283,0.020629700803495694
11,6,5,0.013595328507427973,0.004173773967045295
11,7,5,0.20533909351949492,0.00803941387061327
11,8,5,0.17871805680841588,0.008730194352312703
12,0,5,0.09544689470810923,0.0145287158697205
12,1,5,0.17737443242971074,0.011389163409488102
12,2,5,0.17508490853728412,0.007690795798339037
12,3,5,0.16489401401840836,0.009411375269865546
12,4,5,0.1512941075790782,0.012761543803257872
12,5,5,0.06740500630756234,0.005612971545250259
12,6,5,0.043236717910357214,0.0072381157778824215
12,7,5,0.1664761844908249,0.01205184232406469
12,8,5,0.12982151851204676,0.015725070408873814
13,0,5,0.14657426524112202,0.006808871163677056
13,1,5,0.0998853215771504,0.01584360421210329
13,2,5,0.11626297466724037,0.008713488464503124
13,3,5,0.05841713135075788,0.014307767152097172
13,4,5,0.11359729696930447,0.010239092686713315
13,5,5,0.15029800167338384,0.01657833056531926
13,6,5,0.04612915546594545,0.009506082740203639
13,7,5,0.15121562585582676,0.012269458316824333
13,8,5,0.09301903704278917,0.0101412994959265
14,0,5,0.12148998935432694,0.011375522628731413
14,1,5,0.13633212012085635,0.0067542039123315864
14,2,5,0.14470499901065234,0.0021492055917350953
14,3,5,0.1141174232950128,0.009343871917921631
14,4,5,0.12525865277054074,0.014404004218291818
14,5,5,0.18680932495521016,0.004858350681536238
14,6,5,0.03532353460913122,0.0032991759747077434
14,7,5,0.14063535182411957,0.009414131533067856
14,8,5,0.13609691201346102,0.015169655572238497
15,0,5,0.0925541358142721,0.01453997844766094
15,1,5,0.14290787567140933,0.0138495422402812
15,2,5,0.12244068029720381,0.00970928665415828
15,3,5,0.056372225777013486,0.008757568976059721
15,4,5,0.11328073128992541,0.00874796602156358
15,5,5,0.14658158455687884,0.009230071524772019
15,6,5,0.0837419471896492,0.010796977449136795
15,7,5,0.11615096370195432,0.010623145127023588
15,8,5,0.07059036441085217,0.01663758078401916
16,0,5,0.10962544452451864,0.006045952266100239
16,1,5,0.07749303617921141,0.013455826513582245
16,2,5,0.1511300240762221,0.012252790648122822
16,3,5,0.12834151446624226,0.012513970306557605
16,4,5,0.10733613397804083,0.008624562983554884
16,5,5,0.17279277548208885,0.010090496372287613
16,6,5,0.047399078201838266,0.011055050119903768
16,7,5,0.16932579982637153,0.011466905166053868
16,8,5,0.2158806482870589,0.015098710406895505
17,0,5,0.20699537665593443,0.007465263902877091
17,1,5,0.08772820702905884,0.010680357391004881
17,2,5,0.14040163276218362,0.010992175669846928
17,3,5,0.1304586824029481,0.010168432036062065
17,4,5,0.09166786941352396,0.00853202153474632
17,5,5,0.21786684938771145,0.013543586273497658
17,6,5,0.054372537093707776,0.008155380683128877
17,7,5,0.08656496187865068,0.010995161919907629
17,8,5,0.1729931508492439,0.008851907972912637
18,0,5,0.09822236587040137,0.014198958239608624
18,1,5,0.05984294036704045,0.010182676557624087
18,2,5,0.11905106423791019,0.013416845460598617
18,3,5,0.1323180613212104,0.017217211573630653
18,4,5,0.12041403273624303,0.01669268064864589
18,5,5,0.20204774598185815,0.017266774034181177
18,6,5,0.020571304450769025,0.010949975954356313
18,7,5,0.1565791255111603,0.011754450829217245
18,8,5,0.08356407489419511,0.007032090162154914
19,0,5,0.14039329507293236,0.012557450073316169
19,1,5,0.1275455536771509,0.01634249495613335
19,2,5,0.15623605564530657,0.008584328437093539
19,3,5,0.14217309324982022,0.015177673652678997
19,4,5,0.0746752772335925,0.008826164147883063
19,5,5,0.12982569472872424,0.005393023024178776
19,6,5,0.0711186426938554,0.00649292017119689
19,7,5,0.21287537740880796,0.011832792879648666
19,8,5,0.19343632396365545,0.009582841056133938
20,0,5,0.09789678190150852,0.00941975057336501
20,1,5,0.12758279831482888,0.013647888765549713
20,2,5,0.16388612814557962,0.013181843398041775
20,3,5,0.049657957504476505,0.01505774507010977
20,4,5,0.11215742419902922,0.02461909523031834
20,5,5,0.1598158571963515,0.014148771183611573
20,6,5,0.06932515630668545,0.016696392725700848
20,7,5,0.14935729571475836,0.016045791589685554
20,8,5,0.12503476200029176,0.010666644541642718
21,0,5,0.1314880577611894,0.007642286174358233
21,1,5,0.06607852621339491,0.024698421296279346
21,2,5,0.09652409959788044,0.011558165874602464
21,3,5,0.07308239816788006,0.015080432363059195
21,4,5,0.07819993029769634,0.014166881715483012
21,5,5,0.1274531140716243,0.015895416236213877
21,6,5,0.045581900923611564,0.005734374176257271
21,7,5,0.09872520376994591,0.007001141396032308
21,8,5,0.12079371076706802,0.005972221868471776
22,0,5,0.11247425244267348,0.0126303492719059
22,1,5,0.06951289871347624,0.007606043424379645
22,2,5,0.09216532807095193,0.009312644741247248
22,3,5,0.08938613572943366,0.006184393137049373
22,4,5,0.127699938100077,0.008936146078950772
22,5,5,0.14390596482301288,0.008884790642312892
22,6,5,0.062199695652899664,0.008322127874517854
22,7,5,0.16794526275908095,0.01232398185549585
22,8,5,0.13094681502881936,0.01989392193701296
23,0,5,0.12836704118843958,0.012886951874539724
23,1,5,0.11339310869402226,0.014385209130217987
23,2,5,0.09557751637925922,0.011768070659534608
23,3,5,0.0719817796056453,0.00630115986217349
23,4,5,0.1415559430303414,0.021841915111033314
23,5,5,0.12041052448364813,0.009971845937464483
23,6,5,0.0748406162076084,0.011942808058840135
23,7,5,0.1705017249206447,0.018609757491607544
23,8,5,0.11985486552324234,0.009012904383787941
24,0,5,0.13056265144786036,0.012162994609559705
24,1,5,0.10312014211761264,0.014587254694044737
24,2,5,0.17642835065336196,0.014254673648259235
24,3,5,0.07157438761136552,0.0054204756996593
24,4,5,0.12258812175417173,0.00209695409185826
24,5,5,0.14652642630114848,0.015393731203090328
24,6,5,0.033836114572905675,0.009789668437644549
24,7,5,0.16507083460091115,0.006409286005122239
24,8,5,0.12142206288370958,0.010796781840743369
25,0,5,0.15540842783577488,0.003938758398704604
25,1,5,0.14655692284752128,0.011461134540337462
25,2,5,0.2001603262860415,0.019656320473663388
25,3,5,0.14793147896909004,0.009245389418218524
25,4,5,0.15266506300760516,0.016371721772200372
25,5,5,0.20236281537942186,0.01358953693915145
25,6,5,0.034281842325894554,0.01152528265241222
25,7,5,0.14182214382614272,0.021105073792436257
25,8,5,0.07748464333790739,0.015029915825009364
26,0,5,0.12626193639138322,0.014315314280970272
26,1,5,0.11502908521141178,0.0185891266767321
26,2,5,0.17226893401206342,0.0124628436621377
26,3,5,0.08400119415959113,0.012408605681125569
26,4,5,0.1212656728689,0.013418280510020517
26,5,5,0.15133861164665208,0.016971173799353246
26,6,5,0.04222718653673056,0.0046565261424892194
26,7,5,0.14033382116530374,0.014261524381027428
26,8,5,0.11934305862372682,0.010254832064863939
27,0,5,0.07014042327134759,0.020731536518567868
27,1,5,0.04879286199273545,0.002069750551116135
27,2,5,0.07873785746854181,0.007943028779679845
27,3,5,0.0998757603143684,0.01710553231663053
27,4,5,0.1653523986250574,0.02695053786469299
27,5,5,0.17912696662039593,0.02192944215201344
27,6,5,0.06712255954802415,0.010979920797693032
27,7,5,0.15073645480386752,0.013738710070743598
27,8,5,0.1747875513536957,0.01010231629649284
28,0,5,0.09267768114755896,0.009314593400507167
28,1,5,0.12485893465529421,0.012073001028170213
28,2,5,0.08251718975382616,0.0031360807798477466
28,3,5,0.15763331691174834,0.011891518674916732
28,4,5,0.13712846555382283,0.020965581596175988
28,5,5,0.22300346988814254,0.006518300026153004
28,6,5,0.042340170779878575,0.01327021550642025
28,7,5,0.07921005935773298,0.006273327046307532
28,8,5,0.13308686720837057,0.007348588776322204
29,0,5,0.11838614886075174,0.004733131833279873
29,1,5,0.07643106683640913,0.004885990167728168
29,2,5,0.1266613910486221,0.009799229630673737
29,3,5,0.054811269017559436,0.009610262436001667
29,4,5,0.15009729341045558,0.0056513413934387675
29,5,5,0.1250059069881816,0.009393958499155199
29,6,5,0.030110323234935166,0.012468750979041786
29,7,5,0.12272500670412786,0.01562429710759733
29,8,5,0.15194208930118974,0.007466146095321513
30,0,5,0.12972162594375108,0.006338116378136639
30,1,5,0.08760574078208982,0.009788012969339184
30,2,5,0.07841979959271159,0.02148748816775855
30,3,5,0.03114462864732026,0.011634113617829487
30,4,5,0.08404102333974531,0.01592901365546782
30,5,5,0.20649151046488168,0.009791592166442408
30,6,5,0.07527167786567442,0.008074128995567434
30,7,5,0.1276379733978549,0.022901578292780368
30,8,5,0.13754705071063472,0.019209134912378655
31,0,5,0.10837180640020298,0.011301763046978688
31,1,5,0.09982521301346203,0.009284414360719065
31,2,5,0.11864748356846166,0.013554885021538001
31,3,5,0.05776226133755036,0.01721007143032253
31,4,5,0.11473596813768794,0.007894779147129079
31,5,5,0.1659099116423703,0.01374881201490199
31,6,5,0.08512987147984467,0.017955674994305157
31,7,5,0.14306580524323395,0.015377509333545957
31,8,5,0.16994891789107586,0.021564643732407806
32,0,5,0.08580721675343553,0.0051995657011395064
32,1,5,0.06917621699441903,0.024738385960080444
32,2,5,0.09454420805678995,0.011655809697374588
32,3,5,0.011941925720868763,0.014546003610518336
32,4,5,0.12334389275974023,0.012791896432715902
32,5,5,0.18475830290312387,0.01760679914588008
32,6,5,0.0914909027082462,0.009897223304705556
32,7,5,0.11179538612894876,0.012101553164566868
32,8,5,0.06127449840803578,0.01315581331297931
33,0,5,0.22059639961587757,0.017152584751871116
33,1,5,0.14127169447697102,0.011180236509983975
33,2,5,0.19092791602006082,0.011730894381635312
33,3,5,0.12301475753028841,0.005581449460580985
33,4,5,0.05055791024915941,0.009477173070674893
33,5,5,0.20915200489823174,0.01828517602544328
33,6,5,0.07340069448355965,0.00875408294020266
33,7,5,0.13044384879030532,0.012288485264377392
33,8,5,0.1149514326493847,0.02519112732637087
34,0,5,0.16441498993131717,0.01701623796611901
34,1,5,0.10276723175261075,0.019575359540593643
34,2,5,0.13122414391946702,0.007726910738606009
34,3,5,0.12446026111873106,0.009238422938399039
34,4,5,0.0947281416448568,0.012333198466792376
34,5,5,0.09616636034967097,0.012993616196066746
34,6,5,0.06317266080781044,0.00990704875119064
34,7,5,0.19978530694415544,0.008516973473482929
34,8,5,0.16833223929160995,0.011405679753329597
35,0,5,0.14892042672502803,0.006892067727487657
35,1,5,0.04070920940956439,0.01013380116302571
35,2,5,0.08074343005171822,0.013377447334199913
35,3,5,0.07299650146081046,0.012932477870701172
35,4,5,0.02089626262479973,0.008937254656234362
35,5,5,0.11311619373091375,0.008691336825905262
35,6,5,0.04403760877771967,0.011050740591275393
35,7,5,0.08502750186926204,0.007716320312465818
35,8,5,0.10114765290639707,0.010814259064635044
36,0,5,0.09097180682046131,0.009601315260286724
36,1,5,0.08541730340521289,0.009701229047572766
36,2,5,0.0550436916436063,0.009123521403759422
36,3,5,0.04909794098600721,0.007386254047582103
36,4,5,0.08841466413006034,0.008386001517356202
36,5,5,0.11483172199884024,0.012092027844244405
36,6,5,0.08224976434578093,0.011848469348457923
36,7,5,0.14589320509208614,0.011860850025691328
36,8,5,0.07751898069921079,0.006471177303726653
37,0,5,0.09876735876965637,0.011661480356555256
37,1,5,0.09938036895849378,0.02378959974044181
37,2,5,0.14391235718134363,0.012465273194977665
37,3,5,0.02654646776443832,0.013927514553348517
37,4,5,0.07432098873664934,0.005947800008706982
37,5,5,0.11270270561790816,0.01865672758701256
37,6,5,0.06992852672518746,0.013848198694646825
37,7,5,0.07896223583341103,0.012702070050856084
37,8,5,0.08769163733283074,0.01601609562485383
38,0,5,0.13369777148300402,0.008026904814593635
38,1,5,0.11630856888404724,0.019911216174356493
38,2,5,0.1401675931006337,0.010906471280766222
38,3,5,0.11636416391177803,0.010451959254678336
38,4,5,0.1779037855602255,0.006475447257188023
38,5,5,0.1679875546538591,0.0160265525295936
38,6,5,0.05823582494638298,0.014233775845830259
38,7,5,0.0894666649684213,0.005096498649809394
38,8,5,0.14567120791748625,0.015515821020394002
39,0,5,0.08871694535227519,0.00912286857293317
39,1,5,0.07098933724167714,0.020925916284382992
39,2,5,0.07771484090044815,0.010833307703279053
39,3,5,0.08730817614934154,0.005402543482831534
39,4,5,0.08269382115510275,0.010007403910349018
39,5,5,0.2579352500426181,0.004185641113370684
39,6,5,0.05813422331826037,0.02107834558004109
39,7,5,0.14667971152761572,0.013013416056904512
39,8,5,0.11277864797837907,0.008791821078109661
40,0,5,0.1747774915496882,0.01187920659759994
40,1,5,0.1018685839432951,0.011659657153762795
40,2,5,0.05798455680237753,0.01201275059977644
40,3,5,0.11412895230567258,0.02613573298625695
40,4,5,0.06291219365151365,0.018039530752438082
40,5,5,0.15792187723902035,0.007253567802455828
40,6,5,0.09471439819027368,0.011114498882987853
40,7,5,0.19249891196343555,0.0038679108260961676
40,8,5,0.19600521118960185,0.011209681324200516
