subject,channel,alpha,f1,drop_pp
1,0,1.0,0.7387129497456943,0.0
1,0,0.75,0.7325712944874883,0.6141655258206091
1,0,0.5,0.7281255506958155,1.058739904987882
1,0,0.25,0.7191356355680406,1.9577314177653737
1,0,0.0,0.7076788695183927,3.1034080227301697
1,1,1.0,0.7387129497456943,0.0
1,1,0.75,0.7291392979102883,0.9573651835406038
1,1,0.5,0.7232306833295523,1.5482266416142032
1,1,0.25,0.7167037508651957,2.200919888049868
1,1,0.0,0.7100825336557877,2.8630416089906685
1,2,1.0,0.7387129497456943,0.0
1,2,0.75,0.7217275062102648,1.6985443535429523
1,2,0.5,0.7139434575616787,2.4769492184015696
1,2,0.25,0.7095691670421832,2.9143782703511145
1,2,0.0,0.689232955100456,4.947999464523834
1,3,1.0,0.7387129497456943,0.0
1,3,0.75,0.7325445423775407,0.6168407368153606
1,3,0.5,0.7359840159478344,0.2728933797859989
1,3,0.25,0.7120582569165422,2.6654692829152116
1,3,0.0,0.6938481779531389,4.486477179255544
1,4,1.0,0.7387129497456943,0.0
1,4,0.75,0.7477070400441661,-0.8994090298471757
1,4,0.5,0.7480095136315811,-0.9296563885886733
1,4,0.25,0.732253724155435,0.6459225590259354
1,4,0.0,0.7042491331449063,3.446381660078801
1,5,1.0,0.7387129497456943,0.0
1,5,0.75,0.7142926356589147,2.4420314086779693
1,5,0.5,0.6797639994414189,5.894895030427549
1,5,0.25,0.6647386820125117,7.39742677331826
1,5,0.0,0.6349053953971614,10.380755434853295
1,6,1.0,0.7387129497456943,0.0
1,6,0.75,0.7448240306589736,-0.6111080913279276
1,6,0.5,0.7587539961305103,-2.0041046384815964
1,6,0.25,0.7680192149649747,-2.930626521928037
1,6,0.0,0.7653347009643457,-2.66217512186514
1,7,1.0,0.7387129497456943,0.0
1,7,0.75,0.7252438643930286,1.3469085352665777
1,7,0.5,0.6893320569179974,4.938089282769697
1,7,0.25,0.6652231620589626,7.348978768673176
1,7,0.0,0.6525449790069051,8.616797073878924
1,8,1.0,0.7387129497456943,0.0
1,8,0.75,0.7371849810182335,0.152796872746086
1,8,0.5,0.7371159325040127,0.15970172416815975
1,8,0.25,0.7139849245875688,2.4728025158125555
1,8,0.0,0.7066340293804734,3.2078920365220975
2,0,1.0,0.9086389345010034,0.0
2,0,0.75,0.9111081349733043,-0.24692004723009253
2,0,0.5,0.8853209897650627,2.331794473594073
2,0,0.25,0.909530658024634,-0.08917235236305388
2,0,0.0,0.8919869840741973,1.6651950426806117
2,1,1.0,0.9086389345010034,0.0
2,1,0.75,0.9041520248501892,0.4486909650814219
2,1,0.5,0.8815158520528189,2.712308244818451
2,1,0.25,0.8818244757908926,2.681445871011079
2,1,0.0,0.8912619649720313,1.7376969528972164
2,2,1.0,0.9086389345010034,0.0
2,2,0.75,0.9086011799032083,0.003775459779509216
2,2,0.5,0.905388468813791,0.3250465687212434
2,2,0.25,0.9020251778872468,0.6613756613756627
2,2,0.0,0.8772459315785532,3.1393002922450175
2,3,1.0,0.9086389345010034,0.0
2,3,0.75,0.9164385557691891,-0.7799621268185675
2,3,0.5,0.9214799401522742,-1.2841005651270776
2,3,0.25,0.9177926789013464,-0.9153744400343
2,3,0.0,0.9196870542850173,-1.1048119784013877
2,4,1.0,0.9086389345010034,0.0
2,4,0.75,0.9161150357247633,-0.7476101223759857
2,4,0.5,0.9233441011122673,-1.4705166611263865
2,4,0.25,0.929724221266523,-2.1085286765519573
2,4,0.0,0.9257954686958405,-1.7156534194837092
2,5,1.0,0.9086389345010034,0.0
2,5,0.75,0.9113292118663956,-0.26902773653921797
2,5,0.5,0.8969166120790252,1.1722322421978237
2,5,0.25,0.8804944248826292,2.8144509618374225
2,5,0.0,0.8816809585154874,2.695797598551597
2,6,1.0,0.9086389345010034,0.0
2,6,0.75,0.908831126757738,-0.01921922567346135
2,6,0.5,0.9074323821328355,0.12065523681679124
2,6,0.25,0.8997924942429476,0.884644025805581
2,6,0.0,0.897502769962937,1.1136164538066429
2,7,1.0,0.9086389345010034,0.0
2,7,0.75,0.9054261491586553,0.32127853423481456
2,7,0.5,0.8849848932515055,2.365404124949788
2,7,0.25,0.8704308550159179,3.8208079485085533
2,7,0.0,0.8607041380331996,4.793479646780385
2,8,1.0,0.9086389345010034,0.0
2,8,0.75,0.9089987924254037,-0.03598579244002975
2,8,0.5,0.9091400231131868,-0.050108861218334244
2,8,0.25,0.9009478183278175,0.7691116173185963
2,8,0.0,0.895018898745594,1.3620035755409376
3,0,1.0,0.8496444513508814,0.0
3,0,0.75,0.8721277704829311,-2.2483319132049706
3,0,0.5,0.8895964070520473,-3.995195570116594
3,0,0.25,0.9036476117846637,-5.400316043378228
3,0,0.0,0.9053697400265566,-5.572528867567517
3,1,1.0,0.8496444513508814,0.0
3,1,0.75,0.866575215850025,-1.6930764499143547
3,1,0.5,0.868230264499898,-1.858581314901664
3,1,0.25,0.8683499242675952,-1.8705472916713761
3,1,0.0,0.8522859164290986,-0.26414650782171645
3,2,1.0,0.8496444513508814,0.0
3,2,0.75,0.8517524558035418,-0.21080044526603503
3,2,0.5,0.8451411829199049,0.45032684309764814
3,2,0.25,0.8400229978354979,0.962145351538346
3,2,0.0,0.8222440640044304,2.7400387346451005
3,3,1.0,0.8496444513508814,0.0
3,3,0.75,0.8326217702870865,1.7022681063794898
3,3,0.5,0.7861458696830939,6.349858166778755
3,3,0.25,0.7492691994452509,10.037525190563045
3,3,0.0,0.7040954006318089,14.554905071907253
3,4,1.0,0.8496444513508814,0.0
3,4,0.75,0.842259335102349,0.7385116248532442
3,4,0.5,0.8346203053023847,1.5024146048496667
3,4,0.25,0.8429890699917134,0.6655381359167989
3,4,0.0,0.8402990107733589,0.9345440577522512
3,5,1.0,0.8496444513508814,0.0
3,5,0.75,0.8590508557754414,-0.9406404424559978
3,5,0.5,0.8657095596859433,-1.6065108335061917
3,5,0.25,0.8690520100646194,-1.9407558713738005
3,5,0.0,0.8706937690079728,-2.1049317657091393
3,6,1.0,0.8496444513508814,0.0
3,6,0.75,0.8521390965356483,-0.24946451847669415
3,6,0.5,0.8464199214577813,0.322452989310007
3,6,0.25,0.8474170664930614,0.22273848578200361
3,6,0.0,0.8459549056367683,0.3689545714113063
3,7,1.0,0.8496444513508814,0.0
3,7,0.75,0.8368972538824864,1.2747197468395033
3,7,0.5,0.8241463011965291,2.5498150154352306
3,7,0.25,0.7949418110042878,5.470264034659356
3,7,0.0,0.7661651220041347,8.347932934674674
3,8,1.0,0.8496444513508814,0.0
3,8,0.75,0.8607826444125646,-1.1138193061683177
3,8,0.5,0.854259245481516,-0.4614794130634592
3,8,0.25,0.8592913050351446,-0.9646853684263212
3,8,0.0,0.8578390516069107,-0.819460025602925
4,0,1.0,0.8827919206759989,0.0
4,0,0.75,0.8854044108623736,-0.2612490186374772
4,0,0.5,0.8859486791686311,-0.31567584926321945
4,0,0.25,0.8903264945631097,-0.7534573887110874
4,0,0.0,0.8758408129768734,0.6951107699125436
4,1,1.0,0.8827919206759989,0.0
4,1,0.75,0.8617707985400075,2.102112213599139
4,1,0.5,0.8505927252172808,3.2199195458718077
4,1,0.25,0.8433955351025497,3.9396385573449155
4,1,0.0,0.8261639685760979,5.662795209990101
4,2,1.0,0.8827919206759989,0.0
4,2,0.75,0.875701011610105,0.7090909065893825
4,2,0.5,0.8774965586069241,0.5295362069074772
4,2,0.25,0.8756159560576984,0.7175964618300501
4,2,0.0,0.8562116235185204,2.658029715747845
4,3,1.0,0.8827919206759989,0.0
4,3,0.75,0.8831951887137736,-0.040326803777468445
4,3,0.5,0.8786028750916391,0.41890455843597296
4,3,0.25,0.8757119215715161,0.7079999104482759
4,3,0.0,0.883965275680392,-0.1173355004393084
4,4,1.0,0.8827919206759989,0.0
4,4,0.75,0.8983008354857094,-1.5508914809710506
4,4,0.5,0.9086440120858144,-2.585209140981548
4,4,0.25,0.9140916511414243,-3.1299730465425446
4,4,0.0,0.9195969724051569,-3.6805051729158045
4,5,1.0,0.8827919206759989,0.0
4,5,0.75,0.870571879714328,1.2220040961670842
4,5,0.5,0.878293330771475,0.44985899045238975
4,5,0.25,0.9049987958490331,-2.2206875173034213
4,5,0.0,0.9077884604550805,-2.4996539779081672
4,6,1.0,0.8827919206759989,0.0
4,6,0.75,0.8807449083180728,0.2047012357926037
4,6,0.5,0.8726403571226764,1.0151563553322474
4,6,0.25,0.8644387545860628,1.835316608993609
4,6,0.0,0.8681682904931334,1.46236301828655
4,7,1.0,0.8827919206759989,0.0
4,7,0.75,0.8806854251918604,0.21064954841384376
4,7,0.5,0.8727787297559922,1.0013190920006632
4,7,0.25,0.873086924912722,0.970499576327688
4,7,0.0,0.8871814913407985,-0.43895706647996136
4,8,1.0,0.8827919206759989,0.0
4,8,0.75,0.8887197269096714,-0.5927806233672506
4,8,0.5,0.8916260004896577,-0.8834079813658802
4,8,0.25,0.8849175484800662,-0.21256278040673315
4,8,0.0,0.8756274976037375,0.7164423072261394
5,0,1.0,0.6538715520088205,0.0
5,0,0.75,0.6551284365353955,-0.12568845265750195
5,0,0.5,0.6543158894159242,-0.044433740710370095
5,0,0.25,0.645560429638717,0.8311122370103563
5,0,0.0,0.6288796302579269,2.4991921750893598
5,1,1.0,0.6538715520088205,0.0
5,1,0.75,0.6587676333462373,-0.48960813374168133
5,1,0.5,0.6639212349333355,-1.0049682924515024
5,1,0.25,0.6562668055629708,-0.23952535541502673
5,1,0.0,0.6442236899856351,0.9647862023185461
5,2,1.0,0.6538715520088205,0.0
5,2,0.75,0.6645697084122069,-1.0698156403386339
5,2,0.5,0.6626209607862233,-0.8749408777402823
5,2,0.25,0.6560437258762972,-0.2172173867476701
5,2,0.0,0.6474527345495088,0.6418817459311721
5,3,1.0,0.6538715520088205,0.0
5,3,0.75,0.6691651332978512,-1.5293581289030689
5,3,0.5,0.6785545356857441,-2.4682983676923564
5,3,0.25,0.6904874131449167,-3.661586113609616
5,3,0.0,0.6919840518613072,-3.811249985248666
5,4,1.0,0.6538715520088205,0.0
5,4,0.75,0.6481116254929211,0.5759926515899405
5,4,0.5,0.6376308482046188,1.6240703804201728
5,4,0.25,0.6418202506811306,1.2051301327689945
5,4,0.0,0.6596718768597548,-0.5800324850934291
5,5,1.0,0.6538715520088205,0.0
5,5,0.75,0.6342185842445921,1.9652967764228424
5,5,0.5,0.6303965460215459,2.347500598727459
5,5,0.25,0.6314378395318249,2.243371247699566
5,5,0.0,0.6373053558268658,1.6566196181954762
5,6,1.0,0.6538715520088205,0.0
5,6,0.75,0.6558976923789006,-0.20261403700800873
5,6,0.5,0.6525287557801591,0.13427962286614026
5,6,0.25,0.6463246921955911,0.7546859813229445
5,6,0.0,0.6499229105058424,0.3948641502978134
5,7,1.0,0.6538715520088205,0.0
5,7,0.75,0.6575795741731627,-0.3708022164342184
5,7,0.5,0.662043226771551,-0.8171674762730508
5,7,0.25,0.6599386900223843,-0.6067138013563733
5,7,0.0,0.662405656652192,-0.8534104643371454
5,8,1.0,0.6538715520088205,0.0
5,8,0.75,0.6450704162841154,0.8801135724705089
5,8,0.5,0.6535603835360642,0.03111684727563624
5,8,0.25,0.6423406720616389,1.1530879947181605
5,8,0.0,0.6171927309524871,3.6678821056333466
6,0,1.0,0.7967494824797993,0.0
6,0,0.75,0.7945822223772534,0.2167260102545865
6,0,0.5,0.800506123701385,-0.3756641221585699
6,0,0.25,0.7912873293260545,0.5462153153744764
6,0,0.0,0.7843111878055796,1.243829467421964
6,1,1.0,0.7967494824797993,0.0
6,1,0.75,0.7902703584107749,0.64791240690244
6,1,0.5,0.7793145046835084,1.7434977796290885
6,1,0.25,0.8028452413116883,-0.6095758831889064
6,1,0.0,0.8137763200279222,-1.7026837548122953
6,2,1.0,0.7967494824797993,0.0
6,2,0.75,0.8013897157793324,-0.4640233299533114
6,2,0.5,0.8112370790457015,-1.448759656590226
6,2,0.25,0.8013803367051844,-0.4630854225385117
6,2,0.0,0.7925328504806027,0.42166319991965295
6,3,1.0,0.7967494824797993,0.0
6,3,0.75,0.8018320818336704,-0.508259935387112
6,3,0.5,0.8065656110574113,-0.9816128577612049
6,3,0.25,0.8079251849371984,-1.1175702457399184
6,3,0.0,0.8257163657202851,-2.8966883240485797
6,4,1.0,0.7967494824797993,0.0
6,4,0.75,0.7899322976449158,0.6817184834883472
6,4,0.5,0.8005772374074506,-0.38277549276513056
6,4,0.25,0.7917366425479283,0.501283993187096
6,4,0.0,0.7869670264264086,0.9782456053390676
6,5,1.0,0.7967494824797993,0.0
6,5,0.75,0.7865999771500858,1.0149505329713482
6,5,0.5,0.7888003395671638,0.7949142912635487
6,5,0.25,0.7950603340855386,0.16891483942607088
6,5,0.0,0.809166213739138,-1.2416731259338731
6,6,1.0,0.7967494824797993,0.0
6,6,0.75,0.7969597903418315,-0.021030786203224405
6,6,0.5,0.7857297159813128,1.101976649848646
6,6,0.25,0.7711247213744554,2.562476110534384
6,6,0.0,0.7641787829554739,3.257069952432534
6,7,1.0,0.7967494824797993,0.0
6,7,0.75,0.787036932879122,0.9712549600677245
6,7,0.5,0.7650937429776057,3.165573950219358
6,7,0.25,0.7311224387029571,6.562704377684215
6,7,0.0,0.7186170037949202,7.813247868487904
6,8,1.0,0.7967494824797993,0.0
6,8,0.75,0.7946274114316125,0.21220710481867355
6,8,0.5,0.7947659075935889,0.19835748862103708
6,8,0.25,0.7739171863279869,2.283229615181237
6,8,0.0,0.7511487495212478,4.560073295855149
7,0,1.0,0.8251163797441611,0.0
7,0,0.75,0.8489890771580835,-2.3872697413922395
7,0,0.5,0.8441485865229076,-1.9032206778746508
7,0,0.25,0.832140083448326,-0.7023703704164941
7,0,0.0,0.7939204427491896,3.1195936994971474
7,1,1.0,0.8251163797441611,0.0
7,1,0.75,0.8093062249346252,1.5810154809535848
7,1,0.5,0.8024198911016627,2.2696488642498402
7,1,0.25,0.7888006463284613,3.6315733415699825
7,1,0.0,0.7798120075458741,4.530437219828698
7,2,1.0,0.8251163797441611,0.0
7,2,0.75,0.8267388205966422,-0.16224408524810885
7,2,0.5,0.7996446866011644,2.5471693142996688
7,2,0.25,0.7915826849771883,3.3533694766972766
7,2,0.0,0.7784819690519194,4.663441069224172
7,3,1.0,0.8251163797441611,0.0
7,3,0.75,0.830342779166663,-0.5226399422501915
7,3,0.5,0.8279937159067896,-0.287733616262853
7,3,0.25,0.8276842919131213,-0.256791216896024
7,3,0.0,0.8165713891752531,0.8544990568908006
7,4,1.0,0.8251163797441611,0.0
7,4,0.75,0.81003552167317,1.5080858070991132
7,4,0.5,0.7971283338411064,2.7988045903054704
7,4,0.25,0.7954849823497737,2.963139739438736
7,4,0.0,0.7737031998380047,5.141317990615635
7,5,1.0,0.8251163797441611,0.0
7,5,0.75,0.8238600560463804,0.12563236977807257
7,5,0.5,0.825839092699675,-0.072271295551396
7,5,0.25,0.8173892938744425,0.7727085869718597
7,5,0.0,0.8202656924178832,0.4850687326277914
7,6,1.0,0.8251163797441611,0.0
7,6,0.75,0.8116918815432356,1.3424498200925505
7,6,0.5,0.8015662799459524,2.3550099798208657
7,6,0.25,0.7936664252111642,3.1449954532996927
7,6,0.0,0.7799419772255926,4.517440251856852
7,7,1.0,0.8251163797441611,0.0
7,7,0.75,0.8229856071371681,0.21307726069930144
7,7,0.5,0.813408576064468,1.170780367969304
7,7,0.25,0.8106320089530626,1.4484370791098433
7,7,0.0,0.7879766264811531,3.7139753263008
7,8,1.0,0.8251163797441611,0.0
7,8,0.75,0.8180672400311052,0.7049139713055874
7,8,0.5,0.8041617348385617,2.0954644905599396
7,8,0.25,0.7709340944473275,5.418228529683356
7,8,0.0,0.7673508215431137,5.7765558201047345
8,0,1.0,0.8575053055299224,0.0
8,0,0.75,0.8868955642567178,-2.939025872679535
8,0,0.5,0.8807949881260211,-2.328968259609865
8,0,0.25,0.8655620174405632,-0.8056711910640724
8,0,0.0,0.8625645929657,-0.5059287435777549
8,1,1.0,0.8575053055299224,0.0
8,1,0.75,0.8683273839842934,-1.0822078454370998
8,1,0.5,0.8725599619290763,-1.505465639915382
8,1,0.25,0.8727447995663766,-1.5239494036454193
8,1,0.0,0.8645665356930204,-0.7061230163098009
8,2,1.0,0.8575053055299224,0.0
8,2,0.75,0.8778674485996592,-2.0362143069736716
8,2,0.5,0.8804358213743309,-2.2930515844408417
8,2,0.25,0.8763865840062621,-1.8881278476339691
8,2,0.0,0.8683891733129012,-1.0883867782978784
8,3,1.0,0.8575053055299224,0.0
8,3,0.75,0.8599669554315572,-0.2461649901634777
8,3,0.5,0.8673587488527624,-0.9853443322839994
8,3,0.25,0.8376126191708123,1.9892686359110123
8,3,0.0,0.8183282323664017,3.9177073163520704
8,4,1.0,0.8575053055299224,0.0
8,4,0.75,0.8526529778089496,0.4852327720972882
8,4,0.5,0.8572484123868105,0.0256893143111947
8,4,0.25,0.8549752476826236,0.2530057847298872
8,4,0.0,0.8463538869584039,1.1151418571518579
8,5,1.0,0.8575053055299224,0.0
8,5,0.75,0.8336886246517613,2.3816680878161134
8,5,0.5,0.801595361108346,5.5909944421576485
8,5,0.25,0.8134151665807969,4.40901389491255
8,5,0.0,0.8377145665196672,1.9790739010255187
8,6,1.0,0.8575053055299224,0.0
8,6,0.75,0.8776171291038236,-2.0111823573901177
8,6,0.5,0.8792851013250433,-2.1779795795120904
8,6,0.25,0.8801499657950116,-2.2644660265089156
8,6,0.0,0.8666479111550154,-0.9142605625092948
8,7,1.0,0.8575053055299224,0.0
8,7,0.75,0.8682479508417901,-1.0742645311867638
8,7,0.5,0.8499041321845671,0.7601173345355372
8,7,0.25,0.8355315834429218,2.1973722087000658
8,7,0.0,0.8199089148112797,3.7596390718642736
8,8,1.0,0.8575053055299224,0.0
8,8,0.75,0.8661044136372549,-0.8599108107332443
8,8,0.5,0.8454102469593634,1.2095058570559036
8,8,0.25,0.8408378112360597,1.6667494293862717
8,8,0.0,0.8288753753827225,2.8629930147199945
9,0,1.0,0.8139487505873816,0.0
9,0,0.75,0.8146524367630552,-0.07036861756736235
9,0,0.5,0.8123607646080462,0.15879859793354045
9,0,0.25,0.814190790830468,-0.024204024308638328
9,0,0.0,0.8014536097386973,1.2495140848684305
9,1,1.0,0.8139487505873816,0.0
9,1,0.75,0.8112127679670462,0.27359826203353643
9,1,0.5,0.8073314526651139,0.6617297922267729
9,1,0.25,0.8046757960291917,0.9272954558189883
9,1,0.0,0.7850404418364094,2.8908308750972167
9,2,1.0,0.8139487505873816,0.0
9,2,0.75,0.8133830138819939,0.05657367053877316
9,2,0.5,0.8160147647684366,-0.20660141810550092
9,2,0.25,0.8061946450562925,0.7754105531089128
9,2,0.0,0.7883672812122791,2.558146937510253
9,3,1.0,0.8139487505873816,0.0
9,3,0.75,0.816478324522927,-0.2529573935545426
9,3,0.5,0.8163136849692967,-0.2364934381915096
9,3,0.25,0.8121959121318062,0.17528384555753895
9,3,0.0,0.8003373361922821,1.3611414395099497
9,4,1.0,0.8139487505873816,0.0
9,4,0.75,0.8182735770391186,-0.43248264517370405
9,4,0.5,0.8220040105218934,-0.8055259934511838
9,4,0.25,0.8241448778574363,-1.01961272700547
9,4,0.0,0.8214836553077185,-0.753490472033691
9,5,1.0,0.8139487505873816,0.0
9,5,0.75,0.812940886415563,0.10078641718186399
9,5,0.5,0.8147730314837489,-0.08242808963673243
9,5,0.25,0.820088914622755,-0.614016403537343
9,5,0.0,0.8278390947358728,-1.3890344148491218
9,6,1.0,0.8139487505873816,0.0
9,6,0.75,0.8123871093679479,0.1561641219433696
9,6,0.5,0.8155215549547631,-0.15728043673814973
9,6,0.25,0.811417169277514,0.25315813098676365
9,6,0.0,0.8131164094179637,0.08323411694178828
9,7,1.0,0.8139487505873816,0.0
9,7,0.75,0.815996174550437,-0.20474239630554614
9,7,0.5,0.8237862647220476,-0.9837514134666048
9,7,0.25,0.8234374279452794,-0.9488677357897823
9,7,0.0,0.7986856532284398,1.5263097358941824
9,8,1.0,0.8139487505873816,0.0
9,8,0.75,0.8133650998366898,0.05836507506917776
9,8,0.5,0.8218965589769477,-0.7947808389566102
9,8,0.25,0.8266048655673721,-1.265611497999053
9,8,0.0,0.8367685967717374,-2.281984618435584
10,0,1.0,0.7849097147981002,0.0
10,0,0.75,0.7840447707393564,0.08649440587438217
10,0,0.5,0.7805989772420407,0.4310737556059485
10,0,0.25,0.7951858702931605,-1.0276155495060224
10,0,0.0,0.7985091153536088,-1.3599400555508567
10,1,1.0,0.7849097147981002,0.0
10,1,0.75,0.8065746055686637,-2.166489077056344
10,1,0.5,0.8160139418197139,-3.110422702161364
10,1,0.25,0.8005034592822357,-1.559374448413542
10,1,0.0,0.8016272476775169,-1.6717532879416686
10,2,1.0,0.7849097147981002,0.0
10,2,0.75,0.7813839780107477,0.35257367873525736
10,2,0.5,0.7801225996481871,0.4787115149913146
10,2,0.25,0.7669507864660041,1.7958928332096114
10,2,0.0,0.7570379325376967,2.7871782260403544
10,3,1.0,0.7849097147981002,0.0
10,3,0.75,0.7827999767996613,0.2109737998438943
10,3,0.5,0.7821217184528498,0.27879963452503986
10,3,0.25,0.7706609438033587,1.4248770994741533
10,3,0.0,0.7478492444672087,3.706047033089155
10,4,1.0,0.7849097147981002,0.0
10,4,0.75,0.7709750097815162,1.3934705016584004
10,4,0.5,0.7582713067934382,2.6638408004661995
10,4,0.25,0.7610062005505931,2.390351424750714
10,4,0.0,0.7676360925980549,1.7273622200045358
10,5,1.0,0.7849097147981002,0.0
10,5,0.75,0.748736006538487,3.617370825961319
10,5,0.5,0.7426850167560324,4.222469804206785
10,5,0.25,0.7412808727566769,4.362884204142336
10,5,0.0,0.760135249456205,2.47744653418952
10,6,1.0,0.7849097147981002,0.0
10,6,0.75,0.7959520904389252,-1.1042375640824997
10,6,0.5,0.8080912727161457,-2.3181557918045437
10,6,0.25,0.8152288359316618,-3.031912113356161
10,6,0.0,0.8224951262474106,-3.758541144931038
10,7,1.0,0.7849097147981002,0.0
10,7,0.75,0.770708482390573,1.4201232407527242
10,7,0.5,0.7682478336821255,1.6661881115974775
10,7,0.25,0.7388680212592198,4.604169353888043
10,7,0.0,0.7323681370040767,5.254157779402357
10,8,1.0,0.7849097147981002,0.0
10,8,0.75,0.7908611625596218,-0.5951447761521567
10,8,0.5,0.7792789551120681,0.5630759686032105
10,8,0.25,0.7839864739781555,0.09232408199447706
10,8,0.0,0.7815360439974461,0.3373670800654094
11,0,1.0,0.9227322918999349,0.0
11,0,0.75,0.9217691083019013,0.09631835980336012
11,0,0.5,0.9196707897983891,0.30615021015457655
11,0,0.25,0.9246158904386752,-0.18835985387403165
11,0,0.0,0.9334622655825187,-1.072997368258377
11,1,1.0,0.9227322918999349,0.0
11,1,0.75,0.9076252293635609,1.510706253637395
11,1,0.5,0.9058646190502105,1.6867672849724347
11,1,0.25,0.9056459267927639,1.7086365107170987
11,1,0.0,0.8858429368652732,3.688935503466173
11,2,1.0,0.9227322918999349,0.0
11,2,0.75,0.904935256458598,1.7797035441336928
11,2,0.5,0.9065133375771361,1.621895432279874
11,2,0.25,0.8926693551414662,3.0062936758468717
11,2,0.0,0.8694163794012125,5.331591249872236
11,3,1.0,0.9227322918999349,0.0
11,3,0.75,0.9156075107688011,0.7124781131133795
11,3,0.5,0.89991459126754,2.2817700632394855
11,3,0.25,0.9006479068062053,2.2084385093729564
11,3,0.0,0.8822353165784309,4.0496975321503985
11,4,1.0,0.9227322918999349,0.0
11,4,0.75,0.923206853803072,-0.04745619031371051
11,4,0.5,0.9204848534873444,0.22474384125904523
11,4,0.25,0.9175648536238261,0.5167438276108771
11,4,0.0,0.916819472138621,0.5912819761313859
11,5,1.0,0.9227322918999349,0.0
11,5,0.75,0.9066289288261682,1.6103363073766697
11,5,0.5,0.8965567234387508,2.6175568461184073
11,5,0.25,0.9118517270513186,1.0880564848616325
11,5,0.0,0.9219768263629451,0.07554655369897967
11,6,1.0,0.9227322918999349,0.0
11,6,0.75,0.916607269531406,0.6125022368528854
11,6,0.5,0.916962626201105,0.5769665698829862
11,6,0.25,0.918285652799525,0.4446639100409877
11,6,0.0,0.9179393732701839,0.4792918629750953
11,7,1.0,0.9227322918999349,0.0
11,7,0.75,0.9373280776347306,-1.4595785734795697
11,7,0.5,0.946222430931441,-2.3490139031506097
11,7,0.25,0.950128846997428,-2.739655509749306
11,7,0.0,0.9323949763948456,-0.96626844949107
11,8,1.0,0.9227322918999349,0.0
11,8,0.75,0.9281978448826986,-0.5465552982763744
11,8,0.5,0.910319415159541,1.241287674039393
11,8,0.25,0.9014332002943618,2.1299091605573084
11,8,0.0,0.9038906491423654,1.88416427575695
12,0,1.0,0.933625648924428,0.0
12,0,0.75,0.9272189969124739,0.6406652011954117
12,0,0.5,0.9163865255741465,1.7239123350281549
12,0,0.25,0.9144186653151442,1.9206983609283856
12,0,0.0,0.9050988761135257,2.8526772810902323
12,1,1.0,0.933625648924428,0.0
12,1,0.75,0.9148872301258304,1.8738418798597611
12,1,0.5,0.9110417470264526,2.2583901897975434
12,1,0.25,0.9086666118487741,2.4959037075653945
12,1,0.0,0.9046747693642674,2.8950879560160625
12,2,1.0,0.933625648924428,0.0
12,2,0.75,0.9327711806139806,0.08544683104474426
12,2,0.5,0.9183267308572187,1.5298918067209288
12,2,0.25,0.9008139439272168,3.28117049972112
12,2,0.0,0.8992692108924106,3.435643803201738
12,3,1.0,0.933625648924428,0.0
12,3,0.75,0.9152891503174467,1.8336498606981277
12,3,0.5,0.908814201739042,2.481144718538597
12,3,0.25,0.8763151483914343,5.731050053299369
12,3,0.0,0.8634141396893121,7.021150923511588
12,4,1.0,0.933625648924428,0.0
12,4,0.75,0.9112370819585738,2.238856696585423
12,4,0.5,0.8967040658767591,3.6921583047668904
12,4,0.25,0.9010337689972053,3.259187992722268
12,4,0.0,0.9111760318333089,2.2449617091119145
12,5,1.0,0.933625648924428,0.0
12,5,0.75,0.9255085864120322,0.8117062512395856
12,5,0.5,0.923448347836245,1.0177301088183044
12,5,0.25,0.9247451672822069,0.8880481642221105
12,5,0.0,0.9308351377155331,0.27905112088949524
12,6,1.0,0.933625648924428,0.0
12,6,0.75,0.9250184920869506,0.860715683747737
12,6,0.5,0.9218497078481236,1.177594107630442
12,6,0.25,0.9290183985737563,0.46072503506716656
12,6,0.0,0.9265007018504751,0.7124947073952947
12,7,1.0,0.933625648924428,0.0
12,7,0.75,0.9290252531848447,0.4600395739583263
12,7,0.5,0.9170149842138615,1.6610664710566492
12,7,0.25,0.916639231370135,1.6986417554292976
12,7,0.0,0.9165728942393614,1.7052754685066618
12,8,1.0,0.933625648924428,0.0
12,8,0.75,0.9359877567490361,-0.23621078246081062
12,8,0.5,0.9267587272287647,0.6866921695663275
12,8,0.25,0.9249126267561664,0.8713022168261642
12,8,0.0,0.9179428301208661,1.5682818803561926
13,0,1.0,0.9278722355589099,0.0
13,0,0.75,0.9394631125297604,-1.1590876970850594
13,0,0.5,0.9387646653252956,-1.0892429766385714
13,0,0.25,0.9343355213610363,-0.6463285802126406
13,0,0.0,0.9378695033869675,-0.9997267828057654
13,1,1.0,0.9278722355589099,0.0
13,1,0.75,0.9249347877026257,0.29374478562841366
13,1,0.5,0.9218145685833533,0.6057666975556542
13,1,0.25,0.9220199853628596,0.585225019605029
13,1,0.0,0.9083348015034062,1.9537434055503677
13,2,1.0,0.9278722355589099,0.0
13,2,0.75,0.9276080843899993,0.026415116891054247
13,2,0.5,0.9288384363489548,-0.09662007900449465
13,2,0.25,0.9264206204549746,0.1451615103935211
13,2,0.0,0.9183433066497583,0.9528928909151579
13,3,1.0,0.9278722355589099,0.0
13,3,0.75,0.9286550476462816,-0.07828120873717426
13,3,0.5,0.9216016106187005,0.6270624940209357
13,3,0.25,0.9210425388181491,0.6829696740760727
13,3,0.0,0.9053340835642743,2.2538151994635602
13,4,1.0,0.9278722355589099,0.0
13,4,0.75,0.9258304232445342,0.20418123143756128
13,4,0.5,0.9244508208293071,0.34214147296027786
13,4,0.25,0.9173591283205023,1.0513107238407593
13,4,0.0,0.9165322108732661,1.1340024685643768
13,5,1.0,0.9278722355589099,0.0
13,5,0.75,0.9243845114001237,0.3487724158786176
13,5,0.5,0.9212760014084552,0.6596234150454627
13,5,0.25,0.9152299033718351,1.2642332187074778
13,5,0.0,0.9178155929519745,1.0056642606935395
13,6,1.0,0.9278722355589099,0.0
13,6,0.75,0.9277173575497312,0.015487800917868277
13,6,0.5,0.9224564129163823,0.5415822642527601
13,6,0.25,0.9258347130695019,0.2037522489407917
13,6,0.0,0.9204808242895225,0.739141126938736
13,7,1.0,0.9278722355589099,0.0
13,7,0.75,0.9301567844128512,-0.22845488539413594
13,7,0.5,0.9283454963987248,-0.04732608398149152
13,7,0.25,0.9256707801100718,0.22014554488380966
13,7,0.0,0.9295035343508105,-0.1631298791900604
13,8,1.0,0.9278722355589099,0.0
13,8,0.75,0.9405568078048734,-1.2684572245963532
13,8,0.5,0.9446677276704637,-1.6795492111553845
13,8,0.25,0.9318106899660992,-0.3938454407189318
13,8,0.0,0.9209566999182561,0.6915535640653725
14,0,1.0,0.863224686291569,0.0
14,0,0.75,0.8633110273188784,-0.008634102730942228
14,0,0.5,0.849656120861775,1.356856542979401
14,0,0.25,0.8437859367481423,1.9438749543426725
14,0,0.0,0.8374225677648833,2.580211852668568
14,1,1.0,0.863224686291569,0.0
14,1,0.75,0.8593637666808398,0.38609196107292076
14,1,0.5,0.8374228693632596,2.5801816928309407
14,1,0.25,0.8326793189254723,3.05453673660967
14,1,0.0,0.8170598504948222,4.6164835796746795
14,2,1.0,0.863224686291569,0.0
14,2,0.75,0.8581856782793964,0.5039008012172608
14,2,0.5,0.8597514066603559,0.3473279631213133
14,2,0.25,0.8554293252515548,0.7795361040014215
14,2,0.0,0.8503182983412887,1.2906387950280318
14,3,1.0,0.863224686291569,0.0
14,3,0.75,0.8528006795324932,1.0424006759075843
14,3,0.5,0.8337047363220491,2.95199499695199
14,3,0.25,0.8003102042001191,6.29144820914499
14,3,0.0,0.7787478236354273,8.447686265614173
14,4,1.0,0.863224686291569,0.0
14,4,0.75,0.8523237712417493,1.0900915049819715
14,4,0.5,0.8563254691612764,0.6899217130292623
14,4,0.25,0.862678993512611,0.05456927789579957
14,4,0.0,0.8516322204942353,1.159246579733375
14,5,1.0,0.863224686291569,0.0
14,5,0.75,0.855164688383967,0.8059997907602034
14,5,0.5,0.8573649346580134,0.5859751633555565
14,5,0.25,0.8562606848018972,0.69640014896718
14,5,0.0,0.8546309305410557,0.8593755750513354
14,6,1.0,0.863224686291569,0.0
14,6,0.75,0.8646270124229054,-0.14023261313363955
14,6,0.5,0.8566592798415487,0.656540645002035
14,6,0.25,0.8591959563956149,0.4028729895954153
14,6,0.0,0.8473102972261315,1.5914389065437518
14,7,1.0,0.863224686291569,0.0
14,7,0.75,0.8546229538271135,0.8601732464455503
14,7,0.5,0.8487813293211992,1.4443356970369803
14,7,0.25,0.8387015079155777,2.4523178375991272
14,7,0.0,0.8171408091586827,4.60838771328863
14,8,1.0,0.863224686291569,0.0
14,8,0.75,0.8568869100544512,0.6337776237117843
14,8,0.5,0.8607594306374794,0.24652556540896153
14,8,0.25,0.8640686517893792,-0.0843965497810184
14,8,0.0,0.8409518490514725,2.2272837240096544
15,0,1.0,0.9486508772452289,0.0
15,0,0.75,0.943915691363957,0.4735185881271864
15,0,0.5,0.9274287991015173,2.1222078143711576
15,0,0.25,0.9242193493755142,2.4431527869714698
15,0,0.0,0.9132234003749053,3.542747687032355
15,1,1.0,0.9486508772452289,0.0
15,1,0.75,0.945602096757424,0.3048780487804881
15,1,0.5,0.9413883986014079,0.7262478643821013
15,1,0.25,0.9236598126209133,2.499106462431555
15,1,0.0,0.9188423433168278,2.9808533928401104
15,2,1.0,0.9486508772452289,0.0
15,2,0.75,0.9429565941119215,0.5694283133307443
15,2,0.5,0.9467294847915847,0.19213924536441995
15,2,0.25,0.9309094295382734,1.7741447706955515
15,2,0.0,0.9082437672361815,4.040711000904739
15,3,1.0,0.9486508772452289,0.0
15,3,0.75,0.9424479394976719,0.620293774755698
15,3,0.5,0.9444348067211783,0.4216070524050597
15,3,0.25,0.9331623456848503,1.548853156037855
15,3,0.0,0.9255166459946685,2.3134231250560355
15,4,1.0,0.9486508772452289,0.0
15,4,0.75,0.9423281772639418,0.6322699981287094
15,4,0.5,0.9255980481772518,2.305282906797712
15,4,0.25,0.9272395747261032,2.141130251912571
15,4,0.0,0.9452755126835541,0.3375364561674754
15,5,1.0,0.9486508772452289,0.0
15,5,0.75,0.9405791193934576,0.8071757851771277
15,5,0.5,0.9374443272980408,1.120654994718806
15,5,0.25,0.9374443272980408,1.120654994718806
15,5,0.0,0.9555392217556404,-0.6888344510411537
15,6,1.0,0.9486508772452289,0.0
15,6,0.75,0.9560986389207248,-0.7447761675495879
15,6,0.5,0.9560986389207248,-0.7447761675495879
15,6,0.25,0.9535619384718302,-0.4911061226601343
15,6,0.0,0.9471409089312257,0.1509968314003185
15,7,1.0,0.9486508772452289,0.0
15,7,0.75,0.9385144708149802,1.0136406430248712
15,7,0.5,0.9195342544726643,2.911662277256455
15,7,0.25,0.9235661022963749,2.508477494885397
15,7,0.0,0.9053134130251237,4.33374642201052
15,8,1.0,0.9486508772452289,0.0
15,8,0.75,0.9524996873045654,-0.38488100593364605
15,8,0.5,0.9514096818471939,-0.27588046019649815
15,8,0.25,0.9525847038177369,-0.3933826572507959
15,8,0.0,0.9419559000161752,0.6694977229053656
16,0,1.0,0.8758033463530845,0.0
16,0,0.75,0.872669299983404,0.313404636968051
16,0,0.5,0.8716287496273385,0.4174596725746049
16,0,0.25,0.8739389754633046,0.1864370889779976
16,0,0.0,0.8712308528973334,0.457249345575117
16,1,1.0,0.8758033463530845,0.0
16,1,0.75,0.8774859312920102,-0.1682584938925702
16,1,0.5,0.873025885205372,0.277746114771249
16,1,0.25,0.8789251109679758,-0.31217646148912204
16,1,0.0,0.8902798125811985,-1.4476466228113938
16,2,1.0,0.8758033463530845,0.0
16,2,0.75,0.8756542853472579,0.014906100582667836
16,2,0.5,0.8748556266823081,0.09477196707764479
16,2,0.25,0.8684385498320268,0.7364796521057704
16,2,0.0,0.8705951554585647,0.5208190894519849
16,3,1.0,0.8758033463530845,0.0
16,3,0.75,0.8791353248219419,-0.3331978468857355
16,3,0.5,0.8886705086455096,-1.2867162292425016
16,3,0.25,0.8938689366362811,-1.8065590283196542
16,3,0.0,0.8873153431920753,-1.1511996838990735
16,4,1.0,0.8758033463530845,0.0
16,4,0.75,0.8720205321466808,0.3782814206403695
16,4,0.5,0.8530563471788637,2.274699917422085
16,4,0.25,0.8464495194098609,2.9353826943223638
16,4,0.0,0.8540514322145719,2.175191413851263
16,5,1.0,0.8758033463530845,0.0
16,5,0.75,0.8479743636189501,2.7828982734134478
16,5,0.5,0.8485207712643101,2.728257508877441
16,5,0.25,0.8512853695118315,2.451797684125301
16,5,0.0,0.8525782808120577,2.322506554102688
16,6,1.0,0.8758033463530845,0.0
16,6,0.75,0.876632065302432,-0.082871894934744
16,6,0.5,0.8888109901957133,-1.3007643842628758
16,6,0.25,0.8862759970587303,-1.0472650705645736
16,6,0.0,0.8850825164237436,-0.9279170070659037
16,7,1.0,0.8758033463530845,0.0
16,7,0.75,0.8748478750207169,0.0955471332367619
16,7,0.5,0.8590097083066441,1.6793638046440407
16,7,0.25,0.8448938876615117,3.09094586915728
16,7,0.0,0.8051241908963194,7.0679155456765175
16,8,1.0,0.8758033463530845,0.0
16,8,0.75,0.8774510230953552,-0.16476767422706207
16,8,0.5,0.8756340529122731,0.01692934408114022
16,8,0.25,0.8839814999558517,-0.8178153602767191
16,8,0.0,0.8699257224029606,0.5877623950123922
17,0,1.0,0.8565222141481805,0.0
17,0,0.75,0.8542573733249685,0.22648408232119888
17,0,0.5,0.8483358737662249,0.8186340381955648
17,0,0.25,0.8305707199917022,2.595149415647835
17,0,0.0,0.8088629058257268,4.765930832245369
17,1,1.0,0.8565222141481805,0.0
17,1,0.75,0.8662378679265086,-0.9715653778328059
17,1,0.5,0.8752770654096133,-1.8754851261432726
17,1,0.25,0.8672762891894767,-1.0754075041296218
17,1,0.0,0.8564848899556392,0.0037324192541321466
17,2,1.0,0.8565222141481805,0.0
17,2,0.75,0.864928376132094,-0.8406161983913418
17,2,0.5,0.8614255379038007,-0.49033237556201925
17,2,0.25,0.864374647793246,-0.7852433645065493
17,2,0.0,0.8513274825597208,0.5194731588459733
17,3,1.0,0.8565222141481805,0.0
17,3,0.75,0.8532549058227608,0.3267308325419771
17,3,0.5,0.8532210038294353,0.3301210318745196
17,3,0.25,0.8507800869745952,0.5742127173585354
17,3,0.0,0.8298172290457972,2.6704985102383283
17,4,1.0,0.8565222141481805,0.0
17,4,0.75,0.8500260059715101,0.6496208176670404
17,4,0.5,0.8380677576336005,1.8454456514579998
17,4,0.25,0.8333359313924659,2.318628275571466
17,4,0.0,0.8577392592553272,-0.12170451071467081
17,5,1.0,0.8565222141481805,0.0
17,5,0.75,0.8344945385164269,2.2027675631753674
17,5,0.5,0.8294189370865456,2.7103277061634956
17,5,0.25,0.8266946815833074,2.982753256487314
17,5,0.0,0.8294467979531852,2.7075416194995316
17,6,1.0,0.8565222141481805,0.0
17,6,0.75,0.8679260075027997,-1.1403793354619163
17,6,0.5,0.8711069277906885,-1.4584713642508018
17,6,0.25,0.8598572676856865,-0.3335053537505961
17,6,0.0,0.8484144874468215,0.8107726701359064
17,7,1.0,0.8565222141481805,0.0
17,7,0.75,0.8741006311360449,-1.7578416987864331
17,7,0.5,0.8592496919632115,-0.2727477815031021
17,7,0.25,0.8497141606691689,0.6808053479011589
17,7,0.0,0.8364424233120986,2.007979083608191
17,8,1.0,0.8565222141481805,0.0
17,8,0.75,0.862210162669514,-0.5687948521333475
17,8,0.5,0.8338122674910601,2.270994665712045
17,8,0.25,0.8318262192251565,2.469599492302399
17,8,0.0,0.8182074929143259,3.83147212338546
18,0,1.0,0.844820790309122,0.0
18,0,0.75,0.8355329051759784,0.9287885133143603
18,0,0.5,0.8163287523901822,2.849203791893984
18,0,0.25,0.8117782406145158,3.3042549694606294
18,0,0.0,0.8165878825721913,2.823290773693077
18,1,1.0,0.844820790309122,0.0
18,1,0.75,0.8415536215136878,0.32671687954342055
18,1,0.5,0.834119108103734,1.070168220538803
18,1,0.25,0.8273791601276848,1.7441630181437295
18,1,0.0,0.8289438222098874,1.5876968099234667
18,2,1.0,0.844820790309122,0.0
18,2,0.75,0.8639245718987463,-1.9103781589624225
18,2,0.5,0.8577449981299681,-1.2924207820846023
18,2,0.25,0.8550142548928956,-1.019346458377357
18,2,0.0,0.8409973750629005,0.382341524622154
18,3,1.0,0.844820790309122,0.0
18,3,0.75,0.8332832658125645,1.1537524496557539
18,3,0.5,0.8165615379851328,2.8259252323989292
18,3,0.25,0.7910287458251308,5.379204448399122
18,3,0.0,0.74834894098934,9.647184931978202
18,4,1.0,0.844820790309122,0.0
18,4,0.75,0.847809923573726,-0.2989133264603927
18,4,0.5,0.8478780958105293,-0.3057305501407259
18,4,0.25,0.8428162572344202,0.20045330747018308
18,4,0.0,0.8297173162986207,1.5103474010501383
18,5,1.0,0.844820790309122,0.0
18,5,0.75,0.8271928625867029,1.7627927722419168
18,5,0.5,0.8340177133655395,1.0803076943582512
18,5,0.25,0.83495257153026,0.9868218778862015
18,5,0.0,0.8364090755977058,0.8411714711416218
18,6,1.0,0.844820790309122,0.0
18,6,0.75,0.846901493505903,-0.20807031967809975
18,6,0.5,0.858262929463327,-1.3442139154205002
18,6,0.25,0.8628075070348644,-1.7986716725742369
18,6,0.0,0.8646974861238347,-1.987669581471263
18,7,1.0,0.844820790309122,0.0
18,7,0.75,0.8334487714954161,1.1372018813705975
18,7,0.5,0.8269648517238092,1.785593858531287
18,7,0.25,0.816877673459917,2.794311684920503
18,7,0.0,0.8008824842699955,4.393830603912652
18,8,1.0,0.844820790309122,0.0
18,8,0.75,0.8363516612546527,0.8469129054469393
18,8,0.5,0.8345759110770643,1.0244879232057746
18,8,0.25,0.831408807184276,1.3411983124846039
18,8,0.0,0.8389138614526641,0.5906928856457938
19,0,1.0,0.8624808383280883,0.0
19,0,0.75,0.8444371753280856,1.8043663000002708
19,0,0.5,0.8361405396677635,2.6340298660324835
19,0,0.25,0.8295863193716282,3.2894518956460117
19,0,0.0,0.819170620043225,4.3310218284863256
19,1,1.0,0.8624808383280883,0.0
19,1,0.75,0.8651092974024553,-0.262845907436704
19,1,0.5,0.8677830941938992,-0.5302255865810901
19,1,0.25,0.8463582767314065,1.6122561596681795
19,1,0.0,0.8411797664113194,2.130107191676889
19,2,1.0,0.8624808383280883,0.0
19,2,0.75,0.8632362940785259,-0.07554557504375614
19,2,0.5,0.8581218866824839,0.4358951645604403
19,2,0.25,0.8560705229275877,0.6410315400500632
19,2,0.0,0.8405127378463839,2.196810048170439
19,3,1.0,0.8624808383280883,0.0
19,3,0.75,0.8503239739095575,1.215686441853081
19,3,0.5,0.8451002739810709,1.7380564347017402
19,3,0.25,0.8314748164034628,3.1006021924625538
19,3,0.0,0.812857897404623,4.96229409234653
19,4,1.0,0.8624808383280883,0.0
19,4,0.75,0.8603801527798026,0.21006855482856857
19,4,0.5,0.8481661178269451,1.431472050114324
19,4,0.25,0.8502501977168008,1.2230640611287535
19,4,0.0,0.8553972120440085,0.7083626284079769
19,5,1.0,0.8624808383280883,0.0
19,5,0.75,0.8512727529526891,1.120808537539919
19,5,0.5,0.8532083904011429,0.9272447926945371
19,5,0.25,0.8569176351829628,0.5563203145125484
19,5,0.0,0.8473392448556953,1.5141593472392967
19,6,1.0,0.8624808383280883,0.0
19,6,0.75,0.8624725406343122,0.0008297693776082582
19,6,0.5,0.8702609732811669,-0.778013495307861
19,6,0.25,0.8780343197769982,-1.555348144890989
19,6,0.0,0.8819112481308022,-1.9430409802713933
19,7,1.0,0.8624808383280883,0.0
19,7,0.75,0.8539474889296947,0.8533349398393564
19,7,0.5,0.8510188715906055,1.1461966737482787
19,7,0.25,0.849677657865648,1.2803180462440333
19,7,0.0,0.8365672362576687,2.5913602070419595
19,8,1.0,0.8624808383280883,0.0
19,8,0.75,0.8479747589597426,1.4506079368345692
19,8,0.5,0.8295279407031674,3.295289762492093
19,8,0.25,0.8323760170834689,3.010482124461944
19,8,0.0,0.826743243551393,3.573759477669536
20,0,1.0,0.858973021910099,0.0
20,0,0.75,0.8524338190611741,0.6539202848924952
20,0,0.5,0.8448650510580255,1.4107970852073604
20,0,0.25,0.8353757672362242,2.3597254673874857
20,0,0.0,0.8487415029667817,1.0231518943317308
20,1,1.0,0.858973021910099,0.0
20,1,0.75,0.8464486876966694,1.2524334213429689
20,1,0.5,0.8517418428726955,0.7231179037403557
20,1,0.25,0.8422130557424021,1.6759966167696927
20,1,0.0,0.8451546765996518,1.3818345310447233
20,2,1.0,0.858973021910099,0.0
20,2,0.75,0.8422407182871895,1.6732303622909561
20,2,0.5,0.8363959181785681,2.257710373153099
20,2,0.25,0.8301751626216196,2.8797859288479444
20,2,0.0,0.809629359626822,4.934366228327702
20,3,1.0,0.858973021910099,0.0
20,3,0.75,0.8484602795206793,1.0512742389419794
20,3,0.5,0.8328542548176877,2.6118767092411344
20,3,0.25,0.8312412423780495,2.7731779532049528
20,3,0.0,0.8387235819172006,2.024943999289841
20,4,1.0,0.858973021910099,0.0
20,4,0.75,0.8514980535127743,0.7474968397324755
20,4,0.5,0.8534764926511523,0.5496529258946725
20,4,0.25,0.8394754991008377,1.9497522809261314
20,4,0.0,0.8398347529095457,1.9138269000553376
20,5,1.0,0.858973021910099,0.0
20,5,0.75,0.8569254784470784,0.20475434630206069
20,5,0.5,0.8518550903582405,0.7117931551858581
20,5,0.25,0.8395185853351472,1.9454436574951828
20,5,0.0,0.8341191237118839,2.485389819821515
20,6,1.0,0.858973021910099,0.0
20,6,0.75,0.8494648811154519,0.9508140794647124
20,6,0.5,0.837488986784141,2.148403512595809
20,6,0.25,0.8409284372865682,1.8044584623530868
20,6,0.0,0.8356175992777433,2.3355422632355793
20,7,1.0,0.858973021910099,0.0
20,7,0.75,0.8340577561669829,2.49152657431162
20,7,0.5,0.8239788510683133,3.49941708417858
20,7,0.25,0.8364866976740276,2.248632423607144
20,7,0.0,0.8423751155696131,1.6597906340485968
20,8,1.0,0.858973021910099,0.0
20,8,0.75,0.8426022347091897,1.6370787200909342
20,8,0.5,0.8360584603179165,2.2914561592182525
20,8,0.25,0.8168709204876992,4.21021014223999
20,8,0.0,0.797914652115854,6.105836979424506
21,0,1.0,0.8281046748543957,0.0
21,0,0.75,0.83426038898805,-0.6155714133654344
21,0,0.5,0.8347785547785547,-0.6673879924159021
21,0,0.25,0.8258284034101235,0.22762714442721155
21,0,0.0,0.8057500973352908,2.2354577519104857
21,1,1.0,0.8281046748543957,0.0
21,1,0.75,0.8240901352986982,0.4014539555697416
21,1,0.5,0.8315835442374327,-0.34788693830370976
21,1,0.25,0.8379860701676053,-0.988139531320964
21,1,0.0,0.8393090281946269,-1.1204353340231288
21,2,1.0,0.8281046748543957,0.0
21,2,0.75,0.8393981200727714,-1.129344521837572
21,2,0.5,0.8321383015379562,-0.4033626683560554
21,2,0.25,0.8362288655823058,-0.8124190727910152
21,2,0.0,0.8291366699679004,-0.10319951135047134
21,3,1.0,0.8281046748543957,0.0
21,3,0.75,0.8312797492096656,-0.317507435526998
21,3,0.5,0.8174734178110096,1.0631257043386078
21,3,0.25,0.8092222915498523,1.8882383304543393
21,3,0.0,0.8018601599669148,2.6244514887480808
21,4,1.0,0.8281046748543957,0.0
21,4,0.75,0.8335348940230355,-0.5430219168639838
21,4,0.5,0.8274798065392125,0.0624868315183158
21,4,0.25,0.8212936584746772,0.6811016379718482
21,4,0.0,0.8157750300579618,1.2329644796433836
21,5,1.0,0.8281046748543957,0.0
21,5,0.75,0.832046533221221,-0.3941858366825368
21,5,0.5,0.8303587702373002,-0.2254095382904553
21,5,0.25,0.834141757645052,-0.6037082790656401
21,5,0.0,0.8329313716773222,-0.48266968229265794
21,6,1.0,0.8281046748543957,0.0
21,6,0.75,0.8320183016468886,-0.39136267924929635
21,6,0.5,0.8293960526652834,-0.12913778108877283
21,6,0.25,0.8263226031823586,0.17820716720370333
21,6,0.0,0.8236315329208584,0.4473141933537206
21,7,1.0,0.8281046748543957,0.0
21,7,0.75,0.8412240350978021,-1.311936024340643
21,7,0.5,0.8405364918464526,-1.2431816992056977
21,7,0.25,0.8354980121764761,-0.7393337322080473
21,7,0.0,0.817537981307354,1.056669354704165
21,8,1.0,0.8281046748543957,0.0
21,8,0.75,0.8489474777860389,-2.08428029316432
21,8,0.5,0.8346648713084325,-0.6560196454036826
21,8,0.25,0.8285281455561333,-0.042347070173764934
21,8,0.0,0.8140412611458814,1.4063413708514272
22,0,1.0,0.8069416697931268,0.0
22,0,0.75,0.8124400862196646,-0.5498416426537811
22,0,0.5,0.8150655493553445,-0.8123879562217717
22,0,0.25,0.8023025449937298,0.46391247993969875
22,0,0.0,0.7982371052184329,0.8704564574693818
22,1,1.0,0.8069416697931268,0.0
22,1,0.75,0.8090197787718308,-0.20781089787040852
22,1,0.5,0.8157903932416074,-0.8848723448480644
22,1,0.25,0.8141801646395342,-0.7238494846407484
22,1,0.0,0.8116760026261554,-0.47343328330285983
22,2,1.0,0.8069416697931268,0.0
22,2,0.75,0.8064869621219927,0.04547076711340914
22,2,0.5,0.8105958129902975,-0.3654143197170723
22,2,0.25,0.8110522795682406,-0.4110609775113794
22,2,0.0,0.8183772746510034,-1.1435604857876647
22,3,1.0,0.8069416697931268,0.0
22,3,0.75,0.8008226459190941,0.6119023874032625
22,3,0.5,0.7993124539928593,0.762921580026743
22,3,0.25,0.7901554506439549,1.6786219149171888
22,3,0.0,0.7559932042228916,5.094846557023514
22,4,1.0,0.8069416697931268,0.0
22,4,0.75,0.8047388327525353,0.22028370405914321
22,4,0.5,0.8045647927245418,0.2376877068584915
22,4,0.25,0.8016013588849976,0.5340310908129142
22,4,0.0,0.7998220188151539,0.7119650977972847
22,5,1.0,0.8069416697931268,0.0
22,5,0.75,0.8149947739709662,-0.8053104177839443
22,5,0.5,0.8082383409620844,-0.12966711689575972
22,5,0.25,0.8045599510438125,0.23817187493142544
22,5,0.0,0.7939479841233287,1.2993685669798083
22,6,1.0,0.8069416697931268,0.0
22,6,0.75,0.8008120713533476,0.6129598439779116
22,6,0.5,0.8005456951860219,0.6395974607104837
22,6,0.25,0.7953375316424413,1.1604138150685506
22,6,0.0,0.7937034568845548,1.3238212908571967
22,7,1.0,0.8069416697931268,0.0
22,7,0.75,0.792531424490568,1.4410245302558744
22,7,0.5,0.7818848852186207,2.505678457450611
22,7,0.25,0.767611477397358,3.9330192395768737
22,7,0.0,0.7417856792571242,6.515599053600251
22,8,1.0,0.8069416697931268,0.0
22,8,0.75,0.8048589837626383,0.20826860304884454
22,8,0.5,0.7954260865201669,1.1515583272959873
22,8,0.25,0.7890593456445982,1.7882324148528528
22,8,0.0,0.7762100348932514,3.0731634899875404
23,0,1.0,0.831052593888562,0.0
23,0,0.75,0.8117257035816449,1.9326890306917144
23,0,0.5,0.7980997769822487,3.2952816906313354
23,0,0.25,0.785003395747548,4.604919814101405
23,0,0.0,0.7304453408226993,10.06072530658627
23,1,1.0,0.831052593888562,0.0
23,1,0.75,0.8199194511690795,1.1133142719482514
23,1,0.5,0.8043815507622776,2.6671043126284433
23,1,0.25,0.8060673198616811,2.498527402688089
23,1,0.0,0.7927181283105775,3.833446557798448
23,2,1.0,0.831052593888562,0.0
23,2,0.75,0.8470317908708164,-1.5979196982254362
23,2,0.5,0.8431850015090568,-1.2132407620494834
23,2,0.25,0.8490466522704012,-1.7994058381839206
23,2,0.0,0.8391913047187485,-0.8138710830186469
23,3,1.0,0.831052593888562,0.0
23,3,0.75,0.8350957649262734,-0.4043171037711346
23,3,0.5,0.8358057506681087,-0.47531567795466856
23,3,0.25,0.8202169831822212,1.083561070634076
23,3,0.0,0.8084125824449315,2.264001144363048
23,4,1.0,0.831052593888562,0.0
23,4,0.75,0.8220083577843309,0.9044236104231107
23,4,0.5,0.8011849650016998,2.986762888686223
23,4,0.25,0.7888622550885296,4.219033880003242
23,4,0.0,0.7920914091558166,3.8961184732745457
23,5,1.0,0.831052593888562,0.0
23,5,0.75,0.8209868685448117,1.0065725343750276
23,5,0.5,0.8114136145179086,1.9638979370653398
23,5,0.25,0.8062434155024804,2.4809178386081654
23,5,0.0,0.7870226535372121,4.402994035134988
23,6,1.0,0.831052593888562,0.0
23,6,0.75,0.8183423182127828,1.2710275675779203
23,6,0.5,0.8064829749247479,2.4569618963814155
23,6,0.25,0.8105595594475579,2.0493034441004143
23,6,0.0,0.7919339249486569,3.911866893990512
23,7,1.0,0.831052593888562,0.0
23,7,0.75,0.8218355771316084,0.9217016756953633
23,7,0.5,0.8069026438023577,2.4149950086204353
23,7,0.25,0.8101046640009169,2.0947929887645156
23,7,0.0,0.7997831879292819,3.126940595928007
23,8,1.0,0.831052593888562,0.0
23,8,0.75,0.8226350191385734,0.841757474998861
23,8,0.5,0.8083424241457224,2.271016974283957
23,8,0.25,0.8105688067574457,2.0483787131116316
23,8,0.0,0.7945828034072451,3.6469790481316933
24,0,1.0,0.7587677183942221,0.0
24,0,0.75,0.750447920100566,0.8319798293656033
24,0,0.5,0.7400789286224869,1.868878977173516
24,0,0.25,0.7241221310912742,3.4645587302947867
24,0,0.0,0.7291296638361464,2.9638054558075666
24,1,1.0,0.7587677183942221,0.0
24,1,0.75,0.7651721859085876,-0.6404467514365519
24,1,0.5,0.7623424056735321,-0.3574687279309985
24,1,0.25,0.7584307922208555,0.03369261733665585
24,1,0.0,0.7652845573803797,-0.6516838986157625
24,2,1.0,0.7587677183942221,0.0
24,2,0.75,0.7510094484380693,0.7758269956152808
24,2,0.5,0.7522503358761952,0.6517382518026915
24,2,0.25,0.7396707963410356,1.9096922053186471
24,2,0.0,0.7407745455688276,1.7993172825394477
24,3,1.0,0.7587677183942221,0.0
24,3,0.75,0.7953437157711235,-3.6575997376901426
24,3,0.5,0.8203636488379639,-6.159593044374178
24,3,0.25,0.8334181904945972,-7.465047210037512
24,3,0.0,0.8340630364095043,-7.529531801528222
24,4,1.0,0.7587677183942221,0.0
24,4,0.75,0.7546374749496403,0.41302434445817937
24,4,0.5,0.7469600250739489,1.1807693320273205
24,4,0.25,0.7214140555488766,3.735366284534547
24,4,0.0,0.7099935250957845,4.877419329843757
24,5,1.0,0.7587677183942221,0.0
24,5,0.75,0.7375256492198958,2.124206917432625
24,5,0.5,0.714021513095074,4.474620529914808
24,5,0.25,0.7308387717890231,2.7928946605198957
24,5,0.0,0.7410239663911915,1.7743752003030577
24,6,1.0,0.7587677183942221,0.0
24,6,0.75,0.7600121753585982,-0.12444569643761394
24,6,0.5,0.7560523604398124,0.2715357954409692
24,6,0.25,0.7422228057596103,1.6544912634611775
24,6,0.0,0.7364084529466048,2.235926544761724
24,7,1.0,0.7587677183942221,0.0
24,7,0.75,0.7570260220861879,0.1741696308034224
24,7,0.5,0.7533000978052762,0.5467620588945898
24,7,0.25,0.744564512982488,1.4203205411734032
24,7,0.0,0.722878227283304,3.5889491110918104
24,8,1.0,0.7587677183942221,0.0
24,8,0.75,0.759287888320312,-0.05201699260899417
24,8,0.5,0.7646647394218643,-0.5897021027642224
24,8,0.25,0.7530683263281756,0.5699392066046527
24,8,0.0,0.7318534116516922,2.6914306742529925
25,0,1.0,0.9202967278580396,0.0
25,0,0.75,0.9228496589497558,-0.25529310917161707
25,0,0.5,0.925825808362542,-0.5529080504502404
25,0,0.25,0.9238104561721348,-0.35137283140951325
25,0,0.0,0.9295570044548246,-0.9260276596784967
25,1,1.0,0.9202967278580396,0.0
25,1,0.75,0.9246890916730923,-0.4392363815052702
25,1,0.5,0.9303257089173569,-1.0028981059317266
25,1,0.25,0.9342896271477534,-1.3992899289713812
25,1,0.0,0.934098773981664,-1.3802046123624345
25,2,1.0,0.9202967278580396,0.0
25,2,0.75,0.9232440792412235,-0.2947351383183916
25,2,0.5,0.9263188955294219,-0.6022167671382306
25,2,0.25,0.9162633455595568,0.4033382298482824
25,2,0.0,0.913528422974477,0.6768304883562615
25,3,1.0,0.9202967278580396,0.0
25,3,0.75,0.9216903632674461,-0.1393635409406513
25,3,0.5,0.9271749684312167,-0.6878240573177097
25,3,0.25,0.9242347990726003,-0.393807121456069
25,3,0.0,0.9012602169405043,1.9036510917535332
25,4,1.0,0.9202967278580396,0.0
25,4,0.75,0.9230734891318998,-0.2776761273860173
25,4,0.5,0.9070268912980707,1.326983655996894
25,4,0.25,0.8908136838235777,2.948304403446189
25,4,0.0,0.8824808017701419,3.7815926087897744
25,5,1.0,0.9202967278580396,0.0
25,5,0.75,0.9126131234597442,0.7683604398295407
25,5,0.5,0.9151917531849629,0.510497467307669
25,5,0.25,0.9088896685845826,1.1407059273456976
25,5,0.0,0.9199070858363418,0.038964202169777806
25,6,1.0,0.9202967278580396,0.0
25,6,0.75,0.9288404914559827,-0.8543763597943066
25,6,0.5,0.92385184365298,-0.3555115794940389
25,6,0.25,0.9231112129503005,-0.2814485092260899
25,6,0.0,0.9254407603260281,-0.5144032467988446
25,7,1.0,0.9202967278580396,0.0
25,7,0.75,0.9290852817744775,-0.8788553916437847
25,7,0.5,0.9235536691462128,-0.32569412881732207
25,7,0.25,0.9141360431683012,0.6160684689738405
25,7,0.0,0.8963161330796479,2.398059477839176
25,8,1.0,0.9202967278580396,0.0
25,8,0.75,0.9239357686644016,-0.3639040806362015
25,8,0.5,0.9175150401069518,0.278168775108778
25,8,0.25,0.9282392200191113,-0.7942492161071679
25,8,0.0,0.9346994295782638,-1.4402701720224176
26,0,1.0,0.7290331448387108,0.0
26,0,0.75,0.73373047833426,-0.46973334955491275
26,0,0.5,0.7334046653909139,-0.4371520552203023
26,0,0.25,0.7259747566274484,0.3058388211262475
26,0,0.0,0.7212608360752277,0.7772308763483116
26,1,1.0,0.7290331448387108,0.0
26,1,0.75,0.732912226699886,-0.38790818611751376
26,1,0.5,0.7418553751036305,-1.2822230264919687
26,1,0.25,0.7401447746835529,-1.1111629844842041
26,1,0.0,0.7410130975626246,-1.1979952723913723
26,2,1.0,0.7290331448387108,0.0
26,2,0.75,0.729978354978355,-0.09452101396441037
26,2,0.5,0.7263589803894573,0.2674164449253502
26,2,0.25,0.7166800333745322,1.2353111464178612
26,2,0.0,0.7090056565535519,2.002748828515899
26,3,1.0,0.7290331448387108,0.0
26,3,0.75,0.7200678557412887,0.8965289097422113
26,3,0.5,0.7175120320360449,1.152111280266599
26,3,0.25,0.7165616586767878,1.2471486161923062
26,3,0.0,0.7077121845760944,2.132096026261643
26,4,1.0,0.7290331448387108,0.0
26,4,0.75,0.7246103276789972,0.4422817159713599
26,4,0.5,0.7115062174035165,1.752692743519435
26,4,0.25,0.7131969666851975,1.5836178153513347
26,4,0.0,0.7205397935604076,0.8493351278303196
26,5,1.0,0.7290331448387108,0.0
26,5,0.75,0.7134709564111287,1.5562188427582169
26,5,0.5,0.7003854258447489,2.86477189939619
26,5,0.25,0.6984688620558186,3.056428278289225
26,5,0.0,0.6821830531355326,4.685009170317822
26,6,1.0,0.7290331448387108,0.0
26,6,0.75,0.7349702362983219,-0.5937091459611077
26,6,0.5,0.7399735057727115,-1.0940360934000637
26,6,0.25,0.7398681749449093,-1.0835030106198462
26,6,0.0,0.7334329942680764,-0.43998494293655543
26,7,1.0,0.7290331448387108,0.0
26,7,0.75,0.7207636398604362,0.8269504978274611
26,7,0.5,0.7129636614466336,1.6069483392077255
26,7,0.25,0.7057802595498477,2.3252885288863157
26,7,0.0,0.6833829707016363,4.565017413707451
26,8,1.0,0.7290331448387108,0.0
26,8,0.75,0.7365989574447329,-0.7565812606022071
26,8,0.5,0.7442053916420848,-1.5172246803373923
26,8,0.25,0.7307611184751595,-0.17279736364486098
26,8,0.0,0.7283778441558675,0.06553006828433627
27,0,1.0,0.9101465484322795,0.0
27,0,0.75,0.9048903077810098,0.5256240651269728
27,0,0.5,0.9074393788357735,0.2707169596505965
27,0,0.25,0.9064183830043165,0.37281654279629484
27,0,0.0,0.9164944350997943,-0.6347886667514846
27,1,1.0,0.9101465484322795,0.0
27,1,0.75,0.9072125550794958,0.2933993352783659
27,1,0.5,0.9152679841329613,-0.5121435700681798
27,1,0.25,0.9168446484164556,-0.6698099984176142
27,1,0.0,0.9108849941012289,-0.07384456689494279
27,2,1.0,0.9101465484322795,0.0
27,2,0.75,0.9021553593231183,0.799118910916119
27,2,0.5,0.9046659190052995,0.5480629426980022
27,2,0.25,0.8913403519205256,1.8806196511753859
27,2,0.0,0.8742782146140944,3.5868333818185105
27,3,1.0,0.9101465484322795,0.0
27,3,0.75,0.9199999929823873,-0.9853444550107837
27,3,0.5,0.9058197582172389,0.43267902150405657
27,3,0.25,0.8959794374657332,1.4167110966546326
27,3,0.0,0.8876249850172668,2.2521563415012658
27,4,1.0,0.9101465484322795,0.0
27,4,0.75,0.9065856665588659,0.3560881873413635
27,4,0.5,0.9040830638607973,0.6063484571482203
27,4,0.25,0.8962300079039649,1.3916540528314592
27,4,0.0,0.9027305421964343,0.7416006235845152
27,5,1.0,0.9101465484322795,0.0
27,5,0.75,0.9068731721901208,0.3273376242158732
27,5,0.5,0.9078714953251904,0.22750531070890867
27,5,0.25,0.892295226696791,1.7851321735488535
27,5,0.0,0.8835102404499863,2.6636307982293217
27,6,1.0,0.9101465484322795,0.0
27,6,0.75,0.9162700678977093,-0.6123519465429772
27,6,0.5,0.9110621678128799,-0.09156193806003632
27,6,0.25,0.9037440800155911,0.6402468416688345
27,6,0.0,0.901517803675361,0.8628744756918438
27,7,1.0,0.9101465484322795,0.0
27,7,0.75,0.9034286463977318,0.6717902034547696
27,7,0.5,0.913891873265583,-0.3745324833303476
27,7,0.25,0.906427697545015,0.37188508872645354
27,7,0.0,0.8955704022773747,1.4576146154904768
27,8,1.0,0.9101465484322795,0.0
27,8,0.75,0.912796543758751,-0.2649995326471477
27,8,0.5,0.9155715293344523,-0.5424980902172805
27,8,0.25,0.9020571736184165,0.808937481386296
27,8,0.0,0.8949462988151841,1.520024961709543
28,0,1.0,0.8196467251087156,0.0
28,0,0.75,0.8289300451322664,-0.9283320023550812
28,0,0.5,0.8431233653007847,-2.3476640192069076
28,0,0.25,0.8609602661457261,-4.131354103701046
28,0,0.0,0.8522850286028969,-3.2638303494181287
28,1,1.0,0.8196467251087156,0.0
28,1,0.75,0.8082395238728488,1.1407201235866804
28,1,0.5,0.8100161723470107,0.963055276170488
28,1,0.25,0.8224220505669746,-0.27753254582589815
28,1,0.0,0.8238905651943117,-0.42438400855960845
28,2,1.0,0.8196467251087156,0.0
28,2,0.75,0.81344823343861,0.6198491670105666
28,2,0.5,0.8167054114698094,0.2941313638906262
28,2,0.25,0.8187884615647285,0.08582635439871034
28,2,0.0,0.8075710217915547,1.2075703317160902
28,3,1.0,0.8196467251087156,0.0
28,3,0.75,0.8277208328173119,-0.807410770859629
28,3,0.5,0.8307604367439405,-1.1113711635224899
28,3,0.25,0.8258054543706749,-0.6158729261959262
28,3,0.0,0.8166101020017983,0.30366231069173244
28,4,1.0,0.8196467251087156,0.0
28,4,0.75,0.7926570428083426,2.698968230037302
28,4,0.5,0.7785173214355391,4.112940367317652
28,4,0.25,0.7823207251637014,3.7325999945014177
28,4,0.0,0.7925576152575138,2.708910985120183
28,5,1.0,0.8196467251087156,0.0
28,5,0.75,0.8048662300411469,1.4780495067568733
28,5,0.5,0.7869878666999086,3.2658858408807
28,5,0.25,0.7792045856419838,4.044213946673181
28,5,0.0,0.7910372213046717,2.8609503804043923
28,6,1.0,0.8196467251087156,0.0
28,6,0.75,0.8190478595840831,0.05988655246325081
28,6,0.5,0.8355242653275345,-1.587754021881893
28,6,0.25,0.8308408172366823,-1.1194092127966737
28,6,0.0,0.8181107093246313,0.15360157840843547
28,7,1.0,0.8196467251087156,0.0
28,7,0.75,0.8242150517836416,-0.45683266749260154
28,7,0.5,0.8123292902874921,0.731743482122349
28,7,0.25,0.8060465323592191,1.3600192749496531
28,7,0.0,0.7898387547683677,2.980797034034788
28,8,1.0,0.8196467251087156,0.0
28,8,0.75,0.8168502043406227,0.27965207680928916
28,8,0.5,0.8228152220674039,-0.31684969586882605
28,8,0.25,0.8320864461463591,-1.2439721037643459
28,8,0.0,0.8232605226987476,-0.36137975900319974
29,0,1.0,0.8531378163431986,0.0
29,0,0.75,0.8447916655057166,0.8346150837482025
29,0,0.5,0.8384728584499846,1.4664957893213981
29,0,0.25,0.8263452928437599,2.6792523499438725
29,0,0.0,0.8176989754804219,3.543884086277671
29,1,1.0,0.8531378163431986,0.0
29,1,0.75,0.8466453999778518,0.6492416365346809
29,1,0.5,0.8531130400286457,0.002477631455288787
29,1,0.25,0.8482646673623913,0.48731489808073736
29,1,0.0,0.842335671176472,1.0802145166726618
29,2,1.0,0.8531378163431986,0.0
29,2,0.75,0.8448387982258001,0.8299018117398527
29,2,0.5,0.8382947850328597,1.4843031310338928
29,2,0.25,0.8373418062281193,1.5796010115079362
29,2,0.0,0.8255470577353393,2.759075860785931
29,3,1.0,0.8531378163431986,0.0
29,3,0.75,0.8456410408309497,0.7496775512248921
29,3,0.5,0.843083883629822,1.0053932713376623
29,3,0.25,0.8331073908906982,2.0030425452500444
29,3,0.0,0.827489334587884,2.5648481755314645
29,4,1.0,0.8531378163431986,0.0
29,4,0.75,0.8375319994776693,1.560581686552931
29,4,0.5,0.8158939552968679,3.7243861046330706
29,4,0.25,0.804578402496078,4.855941384712059
29,4,0.0,0.8200703384426294,3.3067477900569187
29,5,1.0,0.8531378163431986,0.0
29,5,0.75,0.8526842256584871,0.04535906847115134
29,5,0.5,0.8465614284099052,0.6576387933293404
29,5,0.25,0.8357618157915421,1.7376000551656556
29,5,0.0,0.8363904635846288,1.6747352758569867
29,6,1.0,0.8531378163431986,0.0
29,6,0.75,0.8587414161387668,-0.5603599795568126
29,6,0.5,0.8620174590704076,-0.8879642727208981
29,6,0.25,0.8703824657209853,-1.7244649377786692
29,6,0.0,0.8734703073985821,-2.0332491055383484
29,7,1.0,0.8531378163431986,0.0
29,7,0.75,0.8470339946528042,0.6103821690394473
29,7,0.5,0.8273399041126205,2.5797912230578146
29,7,0.25,0.8249220315950776,2.821578474812103
29,7,0.0,0.8201415013604881,3.2996314982710495
29,8,1.0,0.8531378163431986,0.0
29,8,0.75,0.849058844143056,0.4078972200142639
29,8,0.5,0.8396300147905689,1.3507801552629761
29,8,0.25,0.8300392487181002,2.309856762509843
29,8,0.0,0.8166458087943295,3.6492007548869165
30,0,1.0,0.8687192522778726,0.0
30,0,0.75,0.8757323383892728,-0.7013086111400169
30,0,0.5,0.8705632450333542,-0.18439927554816382
30,0,0.25,0.8774329028469556,-0.871365056908302
30,0,0.0,0.8699534974000178,-0.12342451221452055
30,1,1.0,0.8687192522778726,0.0
30,1,0.75,0.8632194801041211,0.5499772173751527
30,1,0.5,0.849636764070936,1.9082488206936588
30,1,0.25,0.8358833479425705,3.2835904335302146
30,1,0.0,0.8261106230203752,4.260862925749742
30,2,1.0,0.8687192522778726,0.0
30,2,0.75,0.8640031311026117,0.4716121175260879
30,2,0.5,0.870324494576268,-0.16052422983954262
30,2,0.25,0.8698042171326528,-0.10849648547801571
30,2,0.0,0.8852085502365056,-1.6489297958632965
30,3,1.0,0.8687192522778726,0.0
30,3,0.75,0.8744270209815141,-0.5707768703641536
30,3,0.5,0.8517021093736679,1.7017142904204752
30,3,0.25,0.8537514176444608,1.496783463341178
30,3,0.0,0.8403838878709677,2.8335364406904873
30,4,1.0,0.8687192522778726,0.0
30,4,0.75,0.8579521487663933,1.076710351147936
30,4,0.5,0.8582818355158441,1.0437416762028473
30,4,0.25,0.8425039464596025,2.621530581827014
30,4,0.0,0.8471683442414745,2.155090803639814
30,5,1.0,0.8687192522778726,0.0
30,5,0.75,0.86207002553341,0.6649226744462666
30,5,0.5,0.855556910717843,1.31623415600296
30,5,0.25,0.8569996887059629,1.171956357190973
30,5,0.0,0.863487203618604,0.5232048659268629
30,6,1.0,0.8687192522778726,0.0
30,6,0.75,0.8651564030436768,0.35628492341958085
30,6,0.5,0.8670986473432531,0.1620604934619463
30,6,0.25,0.8750999933923287,-0.6380741114456079
30,6,0.0,0.8671684276790941,0.1550824598778533
30,7,1.0,0.8687192522778726,0.0
30,7,0.75,0.8571111885102182,1.1608063767654442
30,7,0.5,0.8501997328624917,1.851951941538088
30,7,0.25,0.8251124402406024,4.360681203727024
30,7,0.0,0.8318952297469017,3.6824022530970946
30,8,1.0,0.8687192522778726,0.0
30,8,0.75,0.8680976516562721,0.062160062160054874
30,8,0.5,0.858615755687183,1.0103496590689653
30,8,0.25,0.8592112660183063,0.9507986259566281
30,8,0.0,0.8604943582331681,0.82248940447045
31,0,1.0,0.8157649547851796,0.0
31,0,0.75,0.8103764188020495,0.538853598313016
31,0,0.5,0.8067950720336571,0.8969882751522551
31,0,0.25,0.8017496696177756,1.4015285167404024
31,0,0.0,0.7938762337140959,2.188872107108375
31,1,1.0,0.8157649547851796,0.0
31,1,0.75,0.8045668879029393,1.1198066882240343
31,1,0.5,0.800303394077166,1.5461560708013633
31,1,0.25,0.778922141347019,3.684281343816065
31,1,0.0,0.7751084918448639,4.065646294031577
31,2,1.0,0.8157649547851796,0.0
31,2,0.75,0.8115462497255975,0.42187050595821063
31,2,0.5,0.798224781013211,1.7540173771968592
31,2,0.25,0.7821388957736377,3.362605901154192
31,2,0.0,0.7844363580858251,3.1328596699354505
31,3,1.0,0.8157649547851796,0.0
31,3,0.75,0.8251763374916556,-0.9411382706476012
31,3,0.5,0.8217644774731436,-0.5999522687963998
31,3,0.25,0.802546464745446,1.3218490039733632
31,3,0.0,0.7803926628496958,3.5372291935483857
31,4,1.0,0.8157649547851796,0.0
31,4,0.75,0.8054906139246106,1.0274340860568998
31,4,0.5,0.7947404128844505,2.102454190072911
31,4,0.25,0.7900521204596866,2.5712834325492984
31,4,0.0,0.7846542372878267,3.1110717497352947
31,5,1.0,0.8157649547851796,0.0
31,5,0.75,0.8061570844315369,0.9607870353642745
31,5,0.5,0.7894203832957998,2.6344571489379853
31,5,0.25,0.7971470989977377,1.8617855787441906
31,5,0.0,0.7997463163934357,1.601863839174389
31,6,1.0,0.8157649547851796,0.0
31,6,0.75,0.8136834937597783,0.20814610254012988
31,6,0.5,0.8130977433263022,0.2667211458877383
31,6,0.25,0.809014917707304,0.6750037077875581
31,6,0.0,0.7924941151894584,2.327083959572118
31,7,1.0,0.8157649547851796,0.0
31,7,0.75,0.8064492313838437,0.9315723401335907
31,7,0.5,0.7940060151014214,2.1758939683758194
31,7,0.25,0.7760194262441716,3.974552854100799
31,7,0.0,0.7675733778097376,4.819157697544208
31,8,1.0,0.8157649547851796,0.0
31,8,0.75,0.8176723067884082,-0.19073520032285574
31,8,0.5,0.7839047992333746,3.186015555180499
31,8,0.25,0.7670148992904522,4.8750055494727444
31,8,0.0,0.7481763449808563,6.758860980432335
32,0,1.0,0.8590095295920482,0.0
32,0,0.75,0.8606386670716664,-0.16291374796181257
32,0,0.5,0.8666227759237993,-0.7613246331751089
32,0,0.25,0.8633477322116874,-0.4338202619639131
32,0,0.0,0.8427575692926156,1.6251960299432655
32,1,1.0,0.8590095295920482,0.0
32,1,0.75,0.8553348648870498,0.36746647049984427
32,1,0.5,0.8606967765503878,-0.168724695833955
32,1,0.25,0.8362317806587748,2.2777748933273445
32,1,0.0,0.8275266547559541,3.1482874836094132
32,2,1.0,0.8590095295920482,0.0
32,2,0.75,0.8442735793482246,1.4735950243823681
32,2,0.5,0.8365114291415814,2.249810045046685
32,2,0.25,0.8329789248486154,2.6030604743432884
32,2,0.0,0.8171974874561081,4.181204213594015
32,3,1.0,0.8590095295920482,0.0
32,3,0.75,0.8557700326916733,0.32394969003749496
32,3,0.5,0.8235043765649893,3.550515302705892
32,3,0.25,0.8022869330347425,5.672259655730572
32,3,0.0,0.8002839130045818,5.872561658746644
32,4,1.0,0.8590095295920482,0.0
32,4,0.75,0.8454602411073855,1.3549288484662747
32,4,0.5,0.8329008265283844,2.6108703063663863
32,4,0.25,0.8306940436954846,2.831548589656363
32,4,0.0,0.8310103534071581,2.7999176184890118
32,5,1.0,0.8590095295920482,0.0
32,5,0.75,0.8446701378063228,1.4339391785725408
32,5,0.5,0.8414940008570004,1.7515528735047803
32,5,0.25,0.8287000068250069,3.0309522767041353
32,5,0.0,0.8359300897921489,2.307943979989935
32,6,1.0,0.8590095295920482,0.0
32,6,0.75,0.8595355682832997,-0.05260386912514514
32,6,0.5,0.8610082935763312,-0.1998763984283003
32,6,0.25,0.854089302308975,0.4920227283073286
32,6,0.0,0.8404628940183667,1.8546635573681525
32,7,1.0,0.8590095295920482,0.0
32,7,0.75,0.8605347190833355,-0.15251894912872155
32,7,0.5,0.846846569288757,1.2162960303291226
32,7,0.25,0.8403482654338836,1.8661264158164603
32,7,0.0,0.8141418403521992,4.486768923984908
32,8,1.0,0.8590095295920482,0.0
32,8,0.75,0.8572166937420835,0.17928358499647024
32,8,0.5,0.8695560018848962,-1.0546472292847997
32,8,0.25,0.865834848593984,-0.6825319001935726
32,8,0.0,0.8587019265990156,0.030760299303267402
33,0,1.0,0.8774494140834931,0.0
33,0,0.75,0.8689922223987853,0.8457191684707821
33,0,0.5,0.8680627591790876,0.9386654904405489
33,0,0.25,0.8502018115397025,2.724760254379055
33,0,0.0,0.8298868881364813,4.7562525947011824
33,1,1.0,0.8774494140834931,0.0
33,1,0.75,0.8829627033514464,-0.5513289267953358
33,1,0.5,0.8862167996576362,-0.8767385574143138
33,1,0.25,0.8910394147190283,-1.359000063553517
33,1,0.0,0.8826485586630635,-0.5199144579570381
33,2,1.0,0.8774494140834931,0.0
33,2,0.75,0.8742423577424336,0.32070563410594444
33,2,0.5,0.8643946025631758,1.3054811520317289
33,2,0.25,0.8647895851176011,1.2659828965892017
33,2,0.0,0.840868944823872,3.6580469259621107
33,3,1.0,0.8774494140834931,0.0
33,3,0.75,0.875361787481562,0.20876266019310696
33,3,0.5,0.8622399469455484,1.5209467137944688
33,3,0.25,0.8504707610806299,2.6978653002863173
33,3,0.0,0.8471711219891049,3.027829209438815
33,4,1.0,0.8774494140834931,0.0
33,4,0.75,0.8840696028371395,-0.662018875364645
33,4,0.5,0.8850267165692033,-0.7577302485710202
33,4,0.25,0.8799523216016776,-0.2502907518184494
33,4,0.0,0.8913615410562055,-1.391212697271238
33,5,1.0,0.8774494140834931,0.0
33,5,0.75,0.8700850577579411,0.7364356325551991
33,5,0.5,0.8668149791287826,1.0634434954710503
33,5,0.25,0.8707598201309574,0.6689593952535655
33,5,0.0,0.8854279010307928,-0.7978486947299746
33,6,1.0,0.8774494140834931,0.0
33,6,0.75,0.8652437673419054,1.220564674158764
33,6,0.5,0.8585950650330736,1.8854349050419494
33,6,0.25,0.8604029855843719,1.7046428499121191
33,6,0.0,0.863984705428671,1.3464708654822077
33,7,1.0,0.8774494140834931,0.0
33,7,0.75,0.8719391597226345,0.5510254360858613
33,7,0.5,0.8680311163372264,0.941829774626668
33,7,0.25,0.8603194072174839,1.7130006866009184
33,7,0.0,0.8338018174712247,4.364759661226836
33,8,1.0,0.8774494140834931,0.0
33,8,0.75,0.8853246061475831,-0.7875192064090042
33,8,0.5,0.888312026536182,-1.0862612452688936
33,8,0.25,0.8820953966289417,-0.4645982545448568
33,8,0.0,0.8834009201827782,-0.5951506099285075
34,0,1.0,0.8948121624707652,0.0
34,0,0.75,0.8946748033686652,0.013735910209999869
34,0,0.5,0.8931651457572942,0.16470167134710056
34,0,0.25,0.8756521325248008,1.916002994596444
34,0,0.0,0.8801006513628795,1.471151110788571
34,1,1.0,0.8948121624707652,0.0
34,1,0.75,0.8995590878927258,-0.4746925421960535
34,1,0.5,0.9011421400267149,-0.6329977555949662
34,1,0.25,0.8976267874183335,-0.2814624947568234
34,1,0.0,0.8985387064747884,-0.3726544004023169
34,2,1.0,0.8948121624707652,0.0
34,2,0.75,0.9049553266238383,-1.0143164153073037
34,2,0.5,0.9066485769931351,-1.1836414522369831
34,2,0.25,0.9034269694502549,-0.8614806979489686
34,2,0.0,0.9032708869013989,-0.8458724430633668
34,3,1.0,0.8948121624707652,0.0
34,3,0.75,0.9034374988548411,-0.8625336384075921
34,3,0.5,0.8921497424191585,0.2662420051606773
34,3,0.25,0.8849076597033,0.990450276746524
34,3,0.0,0.864894515943816,2.991764652694928
34,4,1.0,0.8948121624707652,0.0
34,4,0.75,0.8896836462507461,0.5128516220019086
34,4,0.5,0.888247441789239,0.6564720681526248
34,4,0.25,0.8959372877314093,-0.1125125260644122
34,4,0.0,0.8940784194152228,0.07337430555424129
34,5,1.0,0.8948121624707652,0.0
34,5,0.75,0.8926509515696787,0.21612109010865632
34,5,0.5,0.8891612145643426,0.5650947906422621
34,5,0.25,0.8856276811265147,0.9184481344250539
34,5,0.0,0.8983053785449963,-0.34932160742310314
34,6,1.0,0.8948121624707652,0.0
34,6,0.75,0.8930654907421061,0.1746671728659166
34,6,0.5,0.8955586556981014,-0.07464932273362201
34,6,0.25,0.8939832563397372,0.08289061310280399
34,6,0.0,0.8824016361396902,1.2410526331074978
34,7,1.0,0.8948121624707652,0.0
34,7,0.75,0.8833365504993218,1.1475611971443422
34,7,0.5,0.8819210185518886,1.289114391887658
34,7,0.25,0.8606469103079283,3.4165252162836945
34,7,0.0,0.8629894171758177,3.182274529494755
34,8,1.0,0.8948121624707652,0.0
34,8,0.75,0.901292258897922,-0.6480096427156745
34,8,0.5,0.9013759595849149,-0.6563797114149672
34,8,0.25,0.8870818814606306,0.7730281010134621
34,8,0.0,0.8841387911562097,1.067337131455548
35,0,1.0,0.7219109341525589,0.0
35,0,0.75,0.704843455527181,1.706747862537794
35,0,0.5,0.7004656205075187,2.144531364504021
35,0,0.25,0.6905862348775355,3.132469927502346
35,0,0.0,0.6764372069970552,4.5473727155503685
35,1,1.0,0.7219109341525589,0.0
35,1,0.75,0.7142719255611385,0.7639008591420415
35,1,0.5,0.7161953891612516,0.5715544991307331
35,1,0.25,0.7126851675772128,0.9225766575346128
35,1,0.0,0.7121889193238751,0.9722014828683845
35,2,1.0,0.7219109341525589,0.0
35,2,0.75,0.7226611813088227,-0.07502471562638169
35,2,0.5,0.7189177444489471,0.29931897036118427
35,2,0.25,0.7126360874323239,0.9274846720235042
35,2,0.0,0.7156494101438635,0.6261524008695396
35,3,1.0,0.7219109341525589,0.0
35,3,0.75,0.7080685174365929,1.3842416715965977
35,3,0.5,0.7117697190007295,1.014121515182942
35,3,0.25,0.7138418316495688,0.8069102502990089
35,3,0.0,0.7039110974880972,1.79998366644617
35,4,1.0,0.7219109341525589,0.0
35,4,0.75,0.7254132230790508,-0.3502288926491848
35,4,0.5,0.731541304833003,-0.9630370680444034
35,4,0.25,0.7409842866459776,-1.9073352493418683
35,4,0.0,0.7479502490186531,-2.603931486609423
35,5,1.0,0.7219109341525589,0.0
35,5,0.75,0.7221007753257638,-0.018984117320486327
35,5,0.5,0.7112342727538957,1.067666139866319
35,5,0.25,0.6963641304252779,2.554680372728102
35,5,0.0,0.7163214022997968,0.558953185276212
35,6,1.0,0.7219109341525589,0.0
35,6,0.75,0.7165285506547019,0.5382383497857024
35,6,0.5,0.7151178514709813,0.6793082681577634
35,6,0.25,0.716477365774723,0.5433568377835929
35,6,0.0,0.7240135494582582,-0.2102615305699329
35,7,1.0,0.7219109341525589,0.0
35,7,0.75,0.7181476517542631,0.37632823982958197
35,7,0.5,0.7195211666849888,0.23897674675701364
35,7,0.25,0.7224962090033659,-0.05852748508069494
35,7,0.0,0.7161907248424051,0.5720209310153823
35,8,1.0,0.7219109341525589,0.0
35,8,0.75,0.7196546435617763,0.22562905907825836
35,8,0.5,0.7210359248449333,0.08750093076256293
35,8,0.25,0.7257467069565999,-0.38357728040410155
35,8,0.0,0.7210156993325856,0.0895234819973334
36,0,1.0,0.8127670156011888,0.0
36,0,0.75,0.8034016745096285,0.9365341091560286
36,0,0.5,0.7917775776804479,2.0989437920740928
36,0,0.25,0.7916003908251598,2.116662477602904
36,0,0.0,0.7995340095882595,1.3233006012929316
36,1,1.0,0.8127670156011888,0.0
36,1,0.75,0.8074387910652066,0.5328224535982251
36,1,0.5,0.7849891982979547,2.7777817303234142
36,1,0.25,0.7880831462921015,2.468386930908728
36,1,0.0,0.7686296657492466,4.413734985194218
36,2,1.0,0.8127670156011888,0.0
36,2,0.75,0.8005125560457973,1.2254459555391506
36,2,0.5,0.7926169985549731,2.0150017046215662
36,2,0.25,0.7789509830028094,3.3816032598379397
36,2,0.0,0.7665416797186989,4.62253358824899
36,3,1.0,0.8127670156011888,0.0
36,3,0.75,0.8089411481139663,0.38258674872224674
36,3,0.5,0.7964663106603947,1.6300704940794053
36,3,0.25,0.7713856872784549,4.138132832273389
36,3,0.0,0.7436695295536399,6.9097486047548955
36,4,1.0,0.8127670156011888,0.0
36,4,0.75,0.8124108638827892,0.03561517183996443
36,4,0.5,0.812197891321979,0.05691242792098539
36,4,0.25,0.8148993070421642,-0.21322914409753757
36,4,0.0,0.8204555481087438,-0.7688532507554968
36,5,1.0,0.8127670156011888,0.0
36,5,0.75,0.8339687497825263,-2.120173418133753
36,5,0.5,0.8327835669986522,-2.001655139746339
36,5,0.25,0.839215714063726,-2.644869846253717
36,5,0.0,0.8289856804839599,-1.6218664882771128
36,6,1.0,0.8127670156011888,0.0
36,6,0.75,0.819334103011765,-0.6567087410576211
36,6,0.5,0.815057565200258,-0.22905495990691582
36,6,0.25,0.7948826563010692,1.7884359300119557
36,6,0.0,0.8031617617569293,0.9605253844259476
36,7,1.0,0.8127670156011888,0.0
36,7,0.75,0.811136535613687,0.1630479987501765
36,7,0.5,0.7885553956896957,2.421161991149312
36,7,0.25,0.7821775125236052,3.058950307758357
36,7,0.0,0.7486658153250002,6.410120027618859
36,8,1.0,0.8127670156011888,0.0
36,8,0.75,0.8095637264485764,0.3203289152612365
36,8,0.5,0.8072468599939762,0.552015560721264
36,8,0.25,0.789064633748987,2.370238185220175
36,8,0.0,0.7757049964656383,3.7062019135550517
37,0,1.0,0.8855500821018063,0.0
37,0,0.75,0.8768542299325882,0.8695852169218088
37,0,0.5,0.8710942008374223,1.4455881264384018
37,0,0.25,0.868163987924467,1.7386094177339273
37,0,0.0,0.8667236016781277,1.8826480423678627
37,1,1.0,0.8855500821018063,0.0
37,1,0.75,0.8797004455827188,0.5849636519087542
37,1,0.5,0.870412601803173,1.5137480298633266
37,1,0.25,0.8639037537033571,2.1646328398449155
37,1,0.0,0.8584292385963401,2.7120843505466175
37,2,1.0,0.8855500821018063,0.0
37,2,0.75,0.8760255773810597,0.9524504720746618
37,2,0.5,0.8540505010807937,3.149958102101258
37,2,0.25,0.8536694830781464,3.1880599023659917
37,2,0.0,0.8554163824039402,3.0133699697866057
37,3,1.0,0.8855500821018063,0.0
37,3,0.75,0.882452147525677,0.309793457612928
37,3,0.5,0.8827119188399676,0.2838163261838722
37,3,0.25,0.8604377246023405,2.511235749946583
37,3,0.0,0.8455263131013111,4.00237690004952
37,4,1.0,0.8855500821018063,0.0
37,4,0.75,0.8819071912843771,0.36428908174291896
37,4,0.5,0.8895253304218146,-0.39752483200082844
37,4,0.25,0.8896701259316047,-0.4120043829798359
37,4,0.0,0.8964775266086511,-1.0927444506844797
37,5,1.0,0.8855500821018063,0.0
37,5,0.75,0.8835208941732722,0.20291879285341263
37,5,0.5,0.8795592479416009,0.5990834160205405
37,5,0.25,0.877696588937964,0.7853493163842318
37,5,0.0,0.8580207037460044,2.7529378355801937
37,6,1.0,0.8855500821018063,0.0
37,6,0.75,0.876411014135565,0.913906796624131
37,6,0.5,0.8602397602397602,2.531032186204607
37,6,0.25,0.8605426371779089,2.5007444923897393
37,6,0.0,0.8450882450882451,4.046183701356121
37,7,1.0,0.8855500821018063,0.0
37,7,0.75,0.8599116782456785,2.563840385612781
37,7,0.5,0.8283185160579286,5.7231566043877695
37,7,0.25,0.8093726429352258,7.617743916658048
37,7,0.0,0.8154250188060873,7.012506329571899
37,8,1.0,0.8855500821018063,0.0
37,8,0.75,0.8766782529002839,0.8871829201522408
37,8,0.5,0.8564812677481173,2.906881435368902
37,8,0.25,0.8433075022461815,4.224257985562485
37,8,0.0,0.8350100737874336,5.054000831437266
38,0,1.0,0.8672150882568177,0.0
38,0,0.75,0.8688318982151806,-0.1616809958362886
38,0,0.5,0.8633641350297279,0.3850953227089837
38,0,0.25,0.8434133287417123,2.3801759515105436
38,0,0.0,0.8429697028078497,2.4245385448968038
38,1,1.0,0.8672150882568177,0.0
38,1,0.75,0.8710417956099658,-0.3826707353148051
38,1,0.5,0.8629721449348203,0.4242943321997372
38,1,0.25,0.858411986318849,0.8803101937968738
38,1,0.0,0.8435040728333942,2.3711015423423465
38,2,1.0,0.8672150882568177,0.0
38,2,0.75,0.8658170645819099,0.13980236749078223
38,2,0.5,0.8645416714524267,0.2673416804391038
38,2,0.25,0.8736613538288467,-0.6446265572028986
38,2,0.0,0.8609929723774118,0.622211587940591
38,3,1.0,0.8672150882568177,0.0
38,3,0.75,0.8741079061276031,-0.6892817870785439
38,3,0.5,0.8662080255057709,0.10070627510467833
38,3,0.25,0.8544711719127462,1.274391634407146
38,3,0.0,0.8363673818299219,3.0847706426895827
38,4,1.0,0.8672150882568177,0.0
38,4,0.75,0.8528274794243865,1.4387608832431176
38,4,0.5,0.854861292965474,1.2353795291343728
38,4,0.25,0.8424387994173568,2.4776288839460925
38,4,0.0,0.8388273988651478,2.8387689391669912
38,5,1.0,0.8672150882568177,0.0
38,5,0.75,0.8530564480612658,1.4158640195551908
38,5,0.5,0.8523623487279383,1.4852739528879444
38,5,0.25,0.8565104875119879,1.0704600744829817
38,5,0.0,0.8564349940761987,1.0780094180618982
38,6,1.0,0.8672150882568177,0.0
38,6,0.75,0.8656093435245844,0.1605744732233294
38,6,0.5,0.8634627022025294,0.37523860542882925
38,6,0.25,0.8591560339476798,0.8059054309137892
38,6,0.0,0.8505508770812737,1.6664211175543953
38,7,1.0,0.8672150882568177,0.0
38,7,0.75,0.8629164190479245,0.4298669208893213
38,7,0.5,0.8563409147899231,1.0874173466894566
38,7,0.25,0.8430116648274109,2.4203423429406845
38,7,0.0,0.8218535135339546,4.536157472286306
38,8,1.0,0.8672150882568177,0.0
38,8,0.75,0.8760277204307055,-0.8812632173887835
38,8,0.5,0.8673996811441149,-0.018459288729721912
38,8,0.25,0.8512765679748602,1.5938520281957524
38,8,0.0,0.8467288725177414,2.0486215739076274
39,0,1.0,0.8603544836690036,0.0
39,0,0.75,0.8419580785399994,1.83964051290042
39,0,0.5,0.8236731378752866,3.6681345793716957
39,0,0.25,0.8167775759331404,4.35769077358632
39,0,0.0,0.8154647403977946,4.488974327120898
39,1,1.0,0.8603544836690036,0.0
39,1,0.75,0.8577166979822161,0.26377856867875193
39,1,0.5,0.8581295054941201,0.22249781748834296
39,1,0.25,0.8485318754414576,1.1822608227545994
39,1,0.0,0.8388605266776679,2.1493956991335716
39,2,1.0,0.8603544836690036,0.0
39,2,0.75,0.8632051616514893,-0.28506779824857276
39,2,0.5,0.8696525486117626,-0.9298064942758977
39,2,0.25,0.8667548785749537,-0.6400394905950124
39,2,0.0,0.859982903975152,0.037157969385159806
39,3,1.0,0.8603544836690036,0.0
39,3,0.75,0.8352485472707816,2.5105936398222006
39,3,0.5,0.821313762490233,3.9040721178770554
39,3,0.25,0.8001387606790148,6.021572298998878
39,3,0.0,0.7511977322558261,10.915675141317749
39,4,1.0,0.8603544836690036,0.0
39,4,0.75,0.8607085892808352,-0.035410561183157885
39,4,0.5,0.8445271326899592,1.582735097904442
39,4,0.25,0.8333185654969282,2.70359181720754
39,4,0.0,0.832919773913163,2.7434709755840614
39,5,1.0,0.8603544836690036,0.0
39,5,0.75,0.8605333516479664,-0.01788679789628267
39,5,0.5,0.8486315244935934,1.172295917541022
39,5,0.25,0.8529134227412504,0.7441060927753207
39,5,0.0,0.8391867886069267,2.116769506207683
39,6,1.0,0.8603544836690036,0.0
39,6,0.75,0.8609150217855955,-0.05605381165919576
39,6,0.5,0.8603185712508221,0.0035912418181460737
39,6,0.25,0.8700263352278719,-0.9671851558868294
39,6,0.0,0.8632878144214345,-0.29333307524309626
39,7,1.0,0.8603544836690036,0.0
39,7,0.75,0.8552715519840902,0.5082931684913361
39,7,0.5,0.8558769564027024,0.4477527266301129
39,7,0.25,0.8530949525393492,0.7259531129654384
39,7,0.0,0.8450252730426088,1.5329210626394807
39,8,1.0,0.8603544836690036,0.0
39,8,0.75,0.8579735312880512,0.23809523809523725
39,8,0.5,0.8670627320987865,-0.6708248429782904
39,8,0.25,0.8726285505615052,-1.2274066892501656
39,8,0.0,0.8677341734189974,-0.7379689749993812
40,0,1.0,0.8029449744432766,0.0
40,0,0.75,0.8043431588574688,-0.13981844141921496
40,0,0.5,0.7979156843455364,0.5029290097740224
40,0,0.25,0.7877178583498285,1.5227116093448068
40,0,0.0,0.7708875777335913,3.2057396709685326
40,1,1.0,0.8029449744432766,0.0
40,1,0.75,0.7891879753491534,1.3756999094123201
40,1,0.5,0.7892343891969008,1.3710585246375806
40,1,0.25,0.7759284171386747,2.701655730460195
40,1,0.0,0.7653552675506023,3.758970689267427
40,2,1.0,0.8029449744432766,0.0
40,2,0.75,0.8087248449515307,-0.5779870508254126
40,2,0.5,0.8216101265127622,-1.8665152069485602
40,2,0.25,0.8261693540187237,-2.3224379575447096
40,2,0.0,0.8342906198891082,-3.1345645445831627
40,3,1.0,0.8029449744432766,0.0
40,3,0.75,0.799798376782189,0.31465976610876023
40,3,0.5,0.7995957482978496,0.33492261454269867
40,3,0.25,0.8020053563644775,0.09396180787991648
40,3,0.0,0.7969513333672829,0.5993641075993761
40,4,1.0,0.8029449744432766,0.0
40,4,0.75,0.8023231521276157,0.06218223156608804
40,4,0.5,0.7932519948595699,0.969297958370674
40,4,0.25,0.8023065756803653,0.06383987629112742
40,4,0.0,0.8027054924803539,0.023948196292267188
40,5,1.0,0.8029449744432766,0.0
40,5,0.75,0.8096760106585151,-0.6731036215238517
40,5,0.5,0.8186139805126637,-1.5669006069387037
40,5,0.25,0.810846724170781,-0.7901749727504348
40,5,0.0,0.8066895772426451,-0.37446027993685016
40,6,1.0,0.8029449744432766,0.0
40,6,0.75,0.7893574738480367,1.3587500595239943
40,6,0.5,0.7876444440351489,1.5300530408127733
40,6,0.25,0.7939046956401398,0.9040278803136848
40,6,0.0,0.7690502937654397,3.3894680677836964
40,7,1.0,0.8029449744432766,0.0
40,7,0.75,0.7905274418691639,1.241753257411271
40,7,0.5,0.7792591449121242,2.368582953115239
40,7,0.25,0.7635082069132844,3.9436767529992256
40,7,0.0,0.7334697408214367,6.947523362183993
40,8,1.0,0.8029449744432766,0.0
40,8,0.75,0.8115194763217461,-0.8574501878469531
40,8,0.5,0.8036784903540318,-0.07335159107552114
40,8,0.25,0.7854903935662073,1.7454580877069303
40,8,0.0,0.7774430166146338,2.550195782864284
