subject,channel,f1_full,f1_occluded,drop_pp
1,0,0.7387129497456943,0.7076788695183927,3.1034080227301697
1,1,0.7387129497456943,0.7100825336557877,2.8630416089906685
1,2,0.7387129497456943,0.689232955100456,4.947999464523834
1,3,0.7387129497456943,0.6938481779531389,4.486477179255544
1,4,0.7387129497456943,0.7042491331449063,3.446381660078801
1,5,0.7387129497456943,0.6349053953971614,10.380755434853295
1,6,0.7387129497456943,0.7653347009643457,-2.66217512186514
1,7,0.7387129497456943,0.6525449790069051,8.616797073878924
1,8,0.7387129497456943,0.7066340293804734,3.2078920365220975
2,0,0.9086389345010034,0.8919869840741973,1.6651950426806117
2,1,0.9086389345010034,0.8912619649720313,1.7376969528972164
2,2,0.9086389345010034,0.8772459315785532,3.1393002922450175
2,3,0.9086389345010034,0.9196870542850173,-1.1048119784013877
2,4,0.9086389345010034,0.9257954686958405,-1.7156534194837092
2,5,0.9086389345010034,0.8816809585154874,2.695797598551597
2,6,0.9086389345010034,0.897502769962937,1.1136164538066429
2,7,0.9086389345010034,0.8607041380331996,4.793479646780385
2,8,0.9086389345010034,0.895018898745594,1.3620035755409376
3,0,0.8496444513508814,0.9053697400265566,-5.572528867567517
3,1,0.8496444513508814,0.8522859164290986,-0.26414650782171645
3,2,0.8496444513508814,0.8222440640044304,2.7400387346451005
3,3,0.8496444513508814,0.7040954006318089,14.554905071907253
3,4,0.8496444513508814,0.8402990107733589,0.9345440577522512
3,5,0.8496444513508814,0.8706937690079728,-2.1049317657091393
3,6,0.8496444513508814,0.8459549056367683,0.3689545714113063
3,7,0.8496444513508814,0.7661651220041347,8.347932934674674
3,8,0.8496444513508814,0.8578390516069107,-0.819460025602925
4,0,0.8827919206759989,0.8758408129768734,0.6951107699125436
4,1,0.8827919206759989,0.8261639685760979,5.662795209990101
4,2,0.8827919206759989,0.8562116235185204,2.658029715747845
4,3,0.8827919206759989,0.883965275680392,-0.1173355004393084
4,4,0.8827919206759989,0.9195969724051569,-3.6805051729158045
4,5,0.8827919206759989,0.9077884604550805,-2.4996539779081672
4,6,0.8827919206759989,0.8681682904931334,1.46236301828655
4,7,0.8827919206759989,0.8871814913407985,-0.43895706647996136
4,8,0.8827919206759989,0.8756274976037375,0.7164423072261394
5,0,0.6538715520088205,0.6288796302579269,2.4991921750893598
5,1,0.6538715520088205,0.6442236899856351,0.9647862023185461
5,2,0.6538715520088205,0.6474527345495088,0.6418817459311721
5,3,0.6538715520088205,0.6919840518613072,-3.811249985248666
5,4,0.6538715520088205,0.6596718768597548,-0.5800324850934291
5,5,0.6538715520088205,0.6373053558268658,1.6566196181954762
5,6,0.6538715520088205,0.6499229105058424,0.3948641502978134
5,7,0.6538715520088205,0.662405656652192,-0.8534104643371454
5,8,0.6538715520088205,0.6171927309524871,3.6678821056333466
6,0,0.7967494824797993,0.7843111878055796,1.243829467421964
6,1,0.7967494824797993,0.8137763200279222,-1.7026837548122953
6,2,0.7967494824797993,0.7925328504806027,0.42166319991965295
6,3,0.7967494824797993,0.8257163657202851,-2.8966883240485797
6,4,0.7967494824797993,0.7869670264264086,0.9782456053390676
6,5,0.7967494824797993,0.809166213739138,-1.2416731259338731
6,6,0.7967494824797993,0.7641787829554739,3.257069952432534
6,7,0.7967494824797993,0.7186170037949202,7.813247868487904
6,8,0.7967494824797993,0.7511487495212478,4.560073295855149
7,0,0.8251163797441611,0.7939204427491896,3.1195936994971474
7,1,0.8251163797441611,0.7798120075458741,4.530437219828698
7,2,0.8251163797441611,0.7784819690519194,4.663441069224172
7,3,0.8251163797441611,0.8165713891752531,0.8544990568908006
7,4,0.8251163797441611,0.7737031998380047,5.141317990615635
7,5,0.8251163797441611,0.8202656924178832,0.4850687326277914
7,6,0.8251163797441611,0.7799419772255926,4.517440251856852
7,7,0.8251163797441611,0.7879766264811531,3.7139753263008
7,8,0.8251163797441611,0.7673508215431137,5.7765558201047345
8,0,0.8575053055299224,0.8625645929657,-0.5059287435777549
8,1,0.8575053055299224,0.8645665356930204,-0.7061230163098009
8,2,0.8575053055299224,0.8683891733129012,-1.0883867782978784
8,3,0.8575053055299224,0.8183282323664017,3.9177073163520704
8,4,0.8575053055299224,0.8463538869584039,1.1151418571518579
8,5,0.8575053055299224,0.8377145665196672,1.9790739010255187
8,6,0.8575053055299224,0.8666479111550154,-0.9142605625092948
8,7,0.8575053055299224,0.8199089148112797,3.7596390718642736
8,8,0.8575053055299224,0.8288753753827225,2.8629930147199945
9,0,0.8139487505873816,0.8014536097386973,1.2495140848684305
9,1,0.8139487505873816,0.7850404418364094,2.8908308750972167
9,2,0.8139487505873816,0.7883672812122791,2.558146937510253
9,3,0.8139487505873816,0.8003373361922821,1.3611414395099497
9,4,0.8139487505873816,0.8214836553077185,-0.753490472033691
9,5,0.8139487505873816,0.8278390947358728,-1.3890344148491218
9,6,0.8139487505873816,0.8131164094179637,0.08323411694178828
9,7,0.8139487505873816,0.7986856532284398,1.5263097358941824
9,8,0.8139487505873816,0.8367685967717374,-2.281984618435584
10,0,0.7849097147981002,0.7985091153536088,-1.3599400555508567
10,1,0.7849097147981002,0.8016272476775169,-1.6717532879416686
10,2,0.7849097147981002,0.7570379325376967,2.7871782260403544
10,3,0.7849097147981002,0.7478492444672087,3.706047033089155
10,4,0.7849097147981002,0.7676360925980549,1.7273622200045358
10,5,0.7849097147981002,0.760135249456205,2.47744653418952
10,6,0.7849097147981002,0.8224951262474106,-3.758541144931038
10,7,0.7849097147981002,0.7323681370040767,5.254157779402357
10,8,0.7849097147981002,0.7815360439974461,0.3373670800654094
11,0,0.9227322918999349,0.9334622655825187,-1.072997368258377
11,1,0.9227322918999349,0.8858429368652732,3.688935503466173
11,2,0.9227322918999349,0.8694163794012125,5.331591249872236
11,3,0.9227322918999349,0.8822353165784309,4.0496975321503985
11,4,0.9227322918999349,0.916819472138621,0.5912819761313859
11,5,0.9227322918999349,0.9219768263629451,0.07554655369897967
11,6,0.9227322918999349,0.9179393732701839,0.4792918629750953
11,7,0.9227322918999349,0.9323949763948456,-0.96626844949107
11,8,0.9227322918999349,0.9038906491423654,1.88416427575695
12,0,0.933625648924428,0.9050988761135257,2.8526772810902323
12,1,0.933625648924428,0.9046747693642674,2.8950879560160625
12,2,0.933625648924428,0.8992692108924106,3.435643803201738
12,3,0.933625648924428,0.8634141396893121,7.021150923511588
12,4,0.933625648924428,0.9111760318333089,2.2449617091119145
12,5,0.933625648924428,0.9308351377155331,0.27905112088949524
12,6,0.933625648924428,0.9265007018504751,0.7124947073952947
12,7,0.933625648924428,0.9165728942393614,1.7052754685066618
12,8,0.933625648924428,0.9179428301208661,1.5682818803561926
13,0,0.9278722355589099,0.9378695033869675,-0.9997267828057654
13,1,0.9278722355589099,0.9083348015034062,1.9537434055503677
13,2,0.9278722355589099,0.9183433066497583,0.9528928909151579
13,3,0.9278722355589099,0.9053340835642743,2.2538151994635602
13,4,0.9278722355589099,0.9165322108732661,1.1340024685643768
13,5,0.9278722355589099,0.9178155929519745,1.0056642606935395
13,6,0.9278722355589099,0.9204808242895225,0.739141126938736
13,7,0.9278722355589099,0.9295035343508105,-0.1631298791900604
13,8,0.9278722355589099,0.9209566999182561,0.6915535640653725
14,0,0.863224686291569,0.8374225677648833,2.580211852668568
14,1,0.863224686291569,0.8170598504948222,4.6164835796746795
14,2,0.863224686291569,0.8503182983412887,1.2906387950280318
14,3,0.863224686291569,0.7787478236354273,8.447686265614173
14,4,0.863224686291569,0.8516322204942353,1.159246579733375
14,5,0.863224686291569,0.8546309305410557,0.8593755750513354
14,6,0.863224686291569,0.8473102972261315,1.5914389065437518
14,7,0.863224686291569,0.8171408091586827,4.60838771328863
14,8,0.863224686291569,0.8409518490514725,2.2272837240096544
15,0,0.9486508772452289,0.9132234003749053,3.542747687032355
15,1,0.9486508772452289,0.9188423433168278,2.9808533928401104
15,2,0.9486508772452289,0.9082437672361815,4.040711000904739
15,3,0.9486508772452289,0.9255166459946685,2.3134231250560355
15,4,0.9486508772452289,0.9452755126835541,0.3375364561674754
15,5,0.9486508772452289,0.9555392217556404,-0.6888344510411537
15,6,0.9486508772452289,0.9471409089312257,0.1509968314003185
15,7,0.9486508772452289,0.9053134130251237,4.33374642201052
15,8,0.9486508772452289,0.9419559000161752,0.6694977229053656
16,0,0.8758033463530845,0.8712308528973334,0.457249345575117
16,1,0.8758033463530845,0.8902798125811985,-1.4476466228113938
16,2,0.8758033463530845,0.8705951554585647,0.5208190894519849
16,3,0.8758033463530845,0.8873153431920753,-1.1511996838990735
16,4,0.8758033463530845,0.8540514322145719,2.175191413851263
16,5,0.8758033463530845,0.8525782808120577,2.322506554102688
16,6,0.8758033463530845,0.8850825164237436,-0.9279170070659037
16,7,0.8758033463530845,0.8051241908963194,7.0679155456765175
16,8,0.8758033463530845,0.8699257224029606,0.5877623950123922
17,0,0.8565222141481805,0.8088629058257268,4.765930832245369
17,1,0.8565222141481805,0.8564848899556392,0.0037324192541321466
17,2,0.8565222141481805,0.8513274825597208,0.5194731588459733
17,3,0.8565222141481805,0.8298172290457972,2.6704985102383283
17,4,0.8565222141481805,0.8577392592553272,-0.12170451071467081
17,5,0.8565222141481805,0.8294467979531852,2.7075416194995316
17,6,0.8565222141481805,0.8484144874468215,0.8107726701359064
17,7,0.8565222141481805,0.8364424233120986,2.007979083608191
17,8,0.8565222141481805,0.8182074929143259,3.83147212338546
18,0,0.844820790309122,0.8165878825721913,2.823290773693077
18,1,0.844820790309122,0.8289438222098874,1.5876968099234667
18,2,0.844820790309122,0.8409973750629005,0.382341524622154
18,3,0.844820790309122,0.74834894098934,9.647184931978202
18,4,0.844820790309122,0.8297173162986207,1.5103474010501383
18,5,0.844820790309122,0.8364090755977058,0.8411714711416218
18,6,0.844820790309122,0.8646974861238347,-1.987669581471263
18,7,0.844820790309122,0.8008824842699955,4.393830603912652
18,8,0.844820790309122,0.8389138614526641,0.5906928856457938
19,0,0.8624808383280883,0.819170620043225,4.3310218284863256
19,1,0.8624808383280883,0.8411797664113194,2.130107191676889
19,2,0.8624808383280883,0.8405127378463839,2.196810048170439
19,3,0.8624808383280883,0.812857897404623,4.96229409234653
19,4,0.8624808383280883,0.8553972120440085,0.7083626284079769
19,5,0.8624808383280883,0.8473392448556953,1.5141593472392967
19,6,0.8624808383280883,0.8819112481308022,-1.9430409802713933
19,7,0.8624808383280883,0.8365672362576687,2.5913602070419595
19,8,0.8624808383280883,0.826743243551393,3.573759477669536
20,0,0.858973021910099,0.8487415029667817,1.0231518943317308
20,1,0.858973021910099,0.8451546765996518,1.3818345310447233
20,2,0.858973021910099,0.809629359626822,4.934366228327702
20,3,0.858973021910099,0.8387235819172006,2.024943999289841
20,4,0.858973021910099,0.8398347529095457,1.9138269000553376
20,5,0.858973021910099,0.8341191237118839,2.485389819821515
20,6,0.858973021910099,0.8356175992777433,2.3355422632355793
20,7,0.858973021910099,0.8423751155696131,1.6597906340485968
20,8,0.858973021910099,0.797914652115854,6.105836979424506
21,0,0.8281046748543957,0.8057500973352908,2.2354577519104857
21,1,0.8281046748543957,0.8393090281946269,-1.1204353340231288
21,2,0.8281046748543957,0.8291366699679004,-0.10319951135047134
21,3,0.8281046748543957,0.8018601599669148,2.6244514887480808
21,4,0.8281046748543957,0.8157750300579618,1.2329644796433836
21,5,0.8281046748543957,0.8329313716773222,-0.48266968229265794
21,6,0.8281046748543957,0.8236315329208584,0.4473141933537206
21,7,0.8281046748543957,0.817537981307354,1.056669354704165
21,8,0.8281046748543957,0.8140412611458814,1.4063413708514272
22,0,0.8069416697931268,0.7982371052184329,0.8704564574693818
22,1,0.8069416697931268,0.8116760026261554,-0.47343328330285983
22,2,0.8069416697931268,0.8183772746510034,-1.1435604857876647
22,3,0.8069416697931268,0.7559932042228916,5.094846557023514
22,4,0.8069416697931268,0.7998220188151539,0.7119650977972847
22,5,0.8069416697931268,0.7939479841233287,1.2993685669798083
22,6,0.8069416697931268,0.7937034568845548,1.3238212908571967
22,7,0.8069416697931268,0.7417856792571242,6.515599053600251
22,8,0.8069416697931268,0.7762100348932514,3.0731634899875404
23,0,0.831052593888562,0.7304453408226993,10.06072530658627
23,1,0.831052593888562,0.7927181283105775,3.833446557798448
23,2,0.831052593888562,0.8391913047187485,-0.8138710830186469
23,3,0.831052593888562,0.8084125824449315,2.264001144363048
23,4,0.831052593888562,0.7920914091558166,3.8961184732745457
23,5,0.831052593888562,0.7870226535372121,4.402994035134988
23,6,0.831052593888562,0.7919339249486569,3.911866893990512
23,7,0.831052593888562,0.7997831879292819,3.126940595928007
23,8,0.831052593888562,0.7945828034072451,3.6469790481316933
24,0,0.7587677183942221,0.7291296638361464,2.9638054558075666
24,1,0.7587677183942221,0.7652845573803797,-0.6516838986157625
24,2,0.7587677183942221,0.7407745455688276,1.7993172825394477
24,3,0.7587677183942221,0.8340630364095043,-7.529531801528222
24,4,0.7587677183942221,0.7099935250957845,4.877419329843757
24,5,0.7587677183942221,0.7410239663911915,1.7743752003030577
24,6,0.7587677183942221,0.7364084529466048,2.235926544761724
24,7,0.7587677183942221,0.722878227283304,3.5889491110918104
24,8,0.7587677183942221,0.7318534116516922,2.6914306742529925
25,0,0.9202967278580396,0.9295570044548246,-0.9260276596784967
25,1,0.9202967278580396,0.934098773981664,-1.3802046123624345
25,2,0.9202967278580396,0.913528422974477,0.6768304883562615
25,3,0.9202967278580396,0.9012602169405043,1.9036510917535332
25,4,0.9202967278580396,0.8824808017701419,3.7815926087897744
25,5,0.9202967278580396,0.9199070858363418,0.038964202169777806
25,6,0.9202967278580396,0.9254407603260281,-0.5144032467988446
25,7,0.9202967278580396,0.8963161330796479,2.398059477839176
25,8,0.9202967278580396,0.9346994295782638,-1.4402701720224176
26,0,0.7290331448387108,0.7212608360752277,0.7772308763483116
26,1,0.7290331448387108,0.7410130975626246,-1.1979952723913723
26,2,0.7290331448387108,0.7090056565535519,2.002748828515899
26,3,0.7290331448387108,0.7077121845760944,2.132096026261643
26,4,0.7290331448387108,0.7205397935604076,0.8493351278303196
26,5,0.7290331448387108,0.6821830531355326,4.685009170317822
26,6,0.7290331448387108,0.7334329942680764,-0.43998494293655543
26,7,0.7290331448387108,0.6833829707016363,4.565017413707451
26,8,0.7290331448387108,0.7283778441558675,0.06553006828433627
27,0,0.9101465484322795,0.9164944350997943,-0.6347886667514846
27,1,0.9101465484322795,0.9108849941012289,-0.07384456689494279
27,2,0.9101465484322795,0.8742782146140944,3.5868333818185105
27,3,0.9101465484322795,0.8876249850172668,2.2521563415012658
27,4,0.9101465484322795,0.9027305421964343,0.7416006235845152
27,5,0.9101465484322795,0.8835102404499863,2.6636307982293217
27,6,0.9101465484322795,0.901517803675361,0.8628744756918438
27,7,0.9101465484322795,0.8955704022773747,1.4576146154904768
27,8,0.9101465484322795,0.8949462988151841,1.520024961709543
28,0,0.8196467251087156,0.8522850286028969,-3.2638303494181287
28,1,0.8196467251087156,0.8238905651943117,-0.42438400855960845
28,2,0.8196467251087156,0.8075710217915547,1.2075703317160902
28,3,0.8196467251087156,0.8166101020017983,0.30366231069173244
28,4,0.8196467251087156,0.7925576152575138,2.708910985120183
28,5,0.8196467251087156,0.7910372213046717,2.8609503804043923
28,6,0.8196467251087156,0.8181107093246313,0.15360157840843547
28,7,0.8196467251087156,0.7898387547683677,2.980797034034788
28,8,0.8196467251087156,0.8232605226987476,-0.36137975900319974
29,0,0.8531378163431986,0.8176989754804219,3.543884086277671
29,1,0.8531378163431986,0.842335671176472,1.0802145166726618
29,2,0.8531378163431986,0.8255470577353393,2.759075860785931
29,3,0.8531378163431986,0.827489334587884,2.5648481755314645
29,4,0.8531378163431986,0.8200703384426294,3.3067477900569187
29,5,0.8531378163431986,0.8363904635846288,1.6747352758569867
29,6,0.8531378163431986,0.8734703073985821,-2.0332491055383484
29,7,0.8531378163431986,0.8201415013604881,3.2996314982710495
29,8,0.8531378163431986,0.8166458087943295,3.6492007548869165
30,0,0.8687192522778726,0.8699534974000178,-0.12342451221452055
30,1,0.8687192522778726,0.8261106230203752,4.260862925749742
30,2,0.8687192522778726,0.8852085502365056,-1.6489297958632965
30,3,0.8687192522778726,0.8403838878709677,2.8335364406904873
30,4,0.8687192522778726,0.8471683442414745,2.155090803639814
30,5,0.8687192522778726,0.863487203618604,0.5232048659268629
30,6,0.8687192522778726,0.8671684276790941,0.1550824598778533
30,7,0.8687192522778726,0.8318952297469017,3.6824022530970946
30,8,0.8687192522778726,0.8604943582331681,0.82248940447045
31,0,0.8157649547851796,0.7938762337140959,2.188872107108375
31,1,0.8157649547851796,0.7751084918448639,4.065646294031577
31,2,0.8157649547851796,0.7844363580858251,3.1328596699354505
31,3,0.8157649547851796,0.7803926628496958,3.5372291935483857
31,4,0.8157649547851796,0.7846542372878267,3.1110717497352947
31,5,0.8157649547851796,0.7997463163934357,1.601863839174389
31,6,0.8157649547851796,0.7924941151894584,2.327083959572118
31,7,0.8157649547851796,0.7675733778097376,4.819157697544208
31,8,0.8157649547851796,0.7481763449808563,6.758860980432335
32,0,0.8590095295920482,0.8427575692926156,1.6251960299432655
32,1,0.8590095295920482,0.8275266547559541,3.1482874836094132
32,2,0.8590095295920482,0.8171974874561081,4.181204213594015
32,3,0.8590095295920482,0.8002839130045818,5.872561658746644
32,4,0.8590095295920482,0.8310103534071581,2.7999176184890118
32,5,0.8590095295920482,0.8359300897921489,2.307943979989935
32,6,0.8590095295920482,0.8404628940183667,1.8546635573681525
32,7,0.8590095295920482,0.8141418403521992,4.486768923984908
32,8,0.8590095295920482,0.8587019265990156,0.030760299303267402
33,0,0.8774494140834931,0.8298868881364813,4.7562525947011824
33,1,0.8774494140834931,0.8826485586630635,-0.5199144579570381
33,2,0.8774494140834931,0.840868944823872,3.6580469259621107
33,3,0.8774494140834931,0.8471711219891049,3.027829209438815
33,4,0.8774494140834931,0.8913615410562055,-1.391212697271238
33,5,0.8774494140834931,0.8854279010307928,-0.7978486947299746
33,6,0.8774494140834931,0.863984705428671,1.3464708654822077
33,7,0.8774494140834931,0.8338018174712247,4.364759661226836
33,8,0.8774494140834931,0.8834009201827782,-0.5951506099285075
34,0,0.8948121624707652,0.8801006513628795,1.471151110788571
34,1,0.8948121624707652,0.8985387064747884,-0.3726544004023169
34,2,0.8948121624707652,0.9032708869013989,-0.8458724430633668
34,3,0.8948121624707652,0.864894515943816,2.991764652694928
34,4,0.8948121624707652,0.8940784194152228,0.07337430555424129
34,5,0.8948121624707652,0.8983053785449963,-0.34932160742310314
34,6,0.8948121624707652,0.8824016361396902,1.2410526331074978
34,7,0.8948121624707652,0.8629894171758177,3.182274529494755
34,8,0.8948121624707652,0.8841387911562097,1.067337131455548
35,0,0.7219109341525589,0.6764372069970552,4.5473727155503685
35,1,0.7219109341525589,0.7121889193238751,0.9722014828683845
35,2,0.7219109341525589,0.7156494101438635,0.6261524008695396
35,3,0.7219109341525589,0.7039110974880972,1.79998366644617
35,4,0.7219109341525589,0.7479502490186531,-2.603931486609423
35,5,0.7219109341525589,0.7163214022997968,0.558953185276212
35,6,0.7219109341525589,0.7240135494582582,-0.2102615305699329
35,7,0.7219109341525589,0.7161907248424051,0.5720209310153823
35,8,0.7219109341525589,0.7210156993325856,0.0895234819973334
36,0,0.8127670156011888,0.7995340095882595,1.3233006012929316
36,1,0.8127670156011888,0.7686296657492466,4.413734985194218
36,2,0.8127670156011888,0.7665416797186989,4.62253358824899
36,3,0.8127670156011888,0.7436695295536399,6.9097486047548955
36,4,0.8127670156011888,0.8204555481087438,-0.7688532507554968
36,5,0.8127670156011888,0.8289856804839599,-1.6218664882771128
36,6,0.8127670156011888,0.8031617617569293,0.9605253844259476
36,7,0.8127670156011888,0.7486658153250002,6.410120027618859
36,8,0.8127670156011888,0.7757049964656383,3.7062019135550517
37,0,0.8855500821018063,0.8667236016781277,1.8826480423678627
37,1,0.8855500821018063,0.8584292385963401,2.7120843505466175
37,2,0.8855500821018063,0.8554163824039402,3.0133699697866057
37,3,0.8855500821018063,0.8455263131013111,4.00237690004952
37,4,0.8855500821018063,0.8964775266086511,-1.0927444506844797
37,5,0.8855500821018063,0.8580207037460044,2.7529378355801937
37,6,0.8855500821018063,0.8450882450882451,4.046183701356121
37,7,0.8855500821018063,0.8154250188060873,7.012506329571899
37,8,0.8855500821018063,0.8350100737874336,5.054000831437266
38,0,0.8672150882568177,0.8429697028078497,2.4245385448968038
38,1,0.8672150882568177,0.8435040728333942,2.3711015423423465
38,2,0.8672150882568177,0.8609929723774118,0.622211587940591
38,3,0.8672150882568177,0.8363673818299219,3.0847706426895827
38,4,0.8672150882568177,0.8388273988651478,2.8387689391669912
38,5,0.8672150882568177,0.8564349940761987,1.0780094180618982
38,6,0.8672150882568177,0.8505508770812737,1.6664211175543953
38,7,0.8672150882568177,0.8218535135339546,4.536157472286306
38,8,0.8672150882568177,0.8467288725177414,2.0486215739076274
39,0,0.8603544836690036,0.8154647403977946,4.488974327120898
39,1,0.8603544836690036,0.8388605266776679,2.1493956991335716
39,2,0.8603544836690036,0.859982903975152,0.037157969385159806
39,3,0.8603544836690036,0.7511977322558261,10.915675141317749
39,4,0.8603544836690036,0.832919773913163,2.7434709755840614
39,5,0.8603544836690036,0.8391867886069267,2.116769506207683
39,6,0.8603544836690036,0.8632878144214345,-0.29333307524309626
39,7,0.8603544836690036,0.8450252730426088,1.5329210626394807
39,8,0.8603544836690036,0.8677341734189974,-0.7379689749993812
40,0,0.8029449744432766,0.7708875777335913,3.2057396709685326
40,1,0.8029449744432766,0.7653552675506023,3.758970689267427
40,2,0.8029449744432766,0.8342906198891082,-3.1345645445831627
40,3,0.8029449744432766,0.7969513333672829,0.5993641075993761
40,4,0.8029449744432766,0.8027054924803539,0.023948196292267188
40,5,0.8029449744432766,0.8066895772426451,-0.37446027993685016
40,6,0.8029449744432766,0.7690502937654397,3.3894680677836964
40,7,0.8029449744432766,0.7334697408214367,6.947523362183993
40,8,0.8029449744432766,0.7774430166146338,2.550195782864284
