subject,block,block_width,feature_channel,gate_mean,gate_sd
156,0,32,0,0.3970488905906677,0.07045583426952362
156,0,32,1,0.5137755870819092,0.04363623261451721
156,0,32,2,0.44657111167907715,0.032869257032871246
156,0,32,3,0.3625882863998413,0.058308135718107224
156,0,32,4,0.36277422308921814,0.07011602073907852
156,0,32,5,0.5478618741035461,0.04419128969311714
156,0,32,6,0.5554901361465454,0.05826665833592415
156,0,32,7,0.37437957525253296,0.04856912046670914
156,0,32,8,0.4138031005859375,0.04172360897064209
156,0,32,9,0.4469280540943146,0.11240671575069427
156,0,32,10,0.5755305290222168,0.04265894740819931
156,0,32,11,0.4382033944129944,0.10791590809822083
156,0,32,12,0.47338783740997314,0.12065538763999939
156,0,32,13,0.48938706517219543,0.12332837283611298
156,0,32,14,0.3675393760204315,0.06747382879257202
156,0,32,15,0.6488289833068848,0.07463756203651428
156,0,32,16,0.44167032837867737,0.07521418482065201
156,0,32,17,0.4134575128555298,0.02701806090772152
156,0,32,18,0.3458620607852936,0.08788154274225235
156,0,32,19,0.35696107149124146,0.1155613511800766
156,0,32,20,0.43201789259910583,0.05929327756166458
156,0,32,21,0.6258020401000977,0.09947317093610764
156,0,32,22,0.4821787178516388,0.10529966652393341
156,0,32,23,0.37780502438545227,0.05321545898914337
156,0,32,24,0.5846236944198608,0.042134229093790054
156,0,32,25,0.5964059233665466,0.0902630090713501
156,0,32,26,0.45460107922554016,0.03991623967885971
156,0,32,27,0.4984161853790283,0.1190158799290657
156,0,32,28,0.4331921637058258,0.08104116469621658
156,0,32,29,0.5625494122505188,0.1027420163154602
156,0,32,30,0.43668079376220703,0.08082340657711029
156,0,32,31,0.6242417097091675,0.05315503105521202
156,1,32,0,0.42302972078323364,0.03185006603598595
156,1,32,1,0.5227838754653931,0.05969209223985672
156,1,32,2,0.5666767358779907,0.11221040785312653
156,1,32,3,0.6391942501068115,0.04101160913705826
156,1,32,4,0.47696956992149353,0.035204775631427765
156,1,32,5,0.5203054547309875,0.046020619571208954
156,1,32,6,0.44739702343940735,0.050677504390478134
156,1,32,7,0.39799705147743225,0.09359870851039886
156,1,32,8,0.5438622832298279,0.046322692185640335
156,1,32,9,0.5142313838005066,0.11296894401311874
156,1,32,10,0.4866804778575897,0.11345679312944412
156,1,32,11,0.5230860114097595,0.043859824538230896
156,1,32,12,0.3593980371952057,0.061985503882169724
156,1,32,13,0.5300772190093994,0.1445721536874771
156,1,32,14,0.37761449813842773,0.12083372473716736
156,1,32,15,0.4914334714412689,0.10938763618469238
156,1,32,16,0.4705670475959778,0.09932386130094528
156,1,32,17,0.44883111119270325,0.052000973373651505
156,1,32,18,0.47419652342796326,0.08927017450332642
156,1,32,19,0.46551212668418884,0.10515867173671722
156,1,32,20,0.5241818428039551,0.11544545739889145
156,1,32,21,0.5553812384605408,0.07624462246894836
156,1,32,22,0.33694666624069214,0.06563983112573624
156,1,32,23,0.5377343893051147,0.10421828180551529
156,1,32,24,0.5114381313323975,0.08264444023370743
156,1,32,25,0.5042524337768555,0.047478046268224716
156,1,32,26,0.6008608341217041,0.015169342048466206
156,1,32,27,0.4569726288318634,0.08584851771593094
156,1,32,28,0.5628057718276978,0.08381924778223038
156,1,32,29,0.4818340539932251,0.047487929463386536
156,1,32,30,0.47350507974624634,0.07231458276510239
156,1,32,31,0.5490367412567139,0.12817035615444183
156,2,64,0,0.6381352543830872,0.25691771507263184
156,2,64,1,0.3294675648212433,0.20281146466732025
156,2,64,2,0.4343135356903076,0.26777753233909607
156,2,64,3,0.48441755771636963,0.131528839468956
156,2,64,4,0.5667129755020142,0.3232825696468353
156,2,64,5,0.5727663040161133,0.10085908323526382
156,2,64,6,0.5819612741470337,0.21642643213272095
156,2,64,7,0.35375750064849854,0.19956614077091217
156,2,64,8,0.39264968037605286,0.09471405297517776
156,2,64,9,0.3402206003665924,0.2507078945636749
156,2,64,10,0.452767014503479,0.1085221916437149
156,2,64,11,0.7564994096755981,0.1447652131319046
156,2,64,12,0.4253005385398865,0.1491907685995102
156,2,64,13,0.5731768012046814,0.16859038174152374
156,2,64,14,0.5978678464889526,0.15746146440505981
156,2,64,15,0.7080250978469849,0.16677217185497284
156,2,64,16,0.6666930913925171,0.14204877614974976
156,2,64,17,0.5870687961578369,0.2503497898578644
156,2,64,18,0.41598573327064514,0.1818094551563263
156,2,64,19,0.7030878663063049,0.21119637787342072
156,2,64,20,0.6287068724632263,0.15932714939117432
156,2,64,21,0.5598709583282471,0.3151811957359314
156,2,64,22,0.692990243434906,0.12119683623313904
156,2,64,23,0.5287818908691406,0.09968431293964386
156,2,64,24,0.6118267774581909,0.09868280589580536
156,2,64,25,0.5263662338256836,0.09525574743747711
156,2,64,26,0.7113144993782043,0.0648992732167244
156,2,64,27,0.6587029099464417,0.2510717511177063
156,2,64,28,0.30827492475509644,0.22653728723526
156,2,64,29,0.49647852778434753,0.11063247174024582
156,2,64,30,0.37255242466926575,0.15182918310165405
156,2,64,31,0.579115629196167,0.28340789675712585
156,2,64,32,0.5798517465591431,0.18527457118034363
156,2,64,33,0.6454840898513794,0.14453671872615814
156,2,64,34,0.2821231484413147,0.169860377907753
156,2,64,35,0.7106528878211975,0.09456667304039001
156,2,64,36,0.46679970622062683,0.11819268763065338
156,2,64,37,0.42812299728393555,0.1989772915840149
156,2,64,38,0.5461229085922241,0.30598410964012146
156,2,64,39,0.6638461947441101,0.15332965552806854
156,2,64,40,0.31139567494392395,0.08893286436796188
156,2,64,41,0.5553203821182251,0.17402991652488708
156,2,64,42,0.7247377634048462,0.19688931107521057
156,2,64,43,0.5217196345329285,0.08081256598234177
156,2,64,44,0.5240030884742737,0.12050249427556992
156,2,64,45,0.6682878136634827,0.2044503539800644
156,2,64,46,0.4322952628135681,0.2458844631910324
156,2,64,47,0.32337266206741333,0.10431866347789764
156,2,64,48,0.5241697430610657,0.18708539009094238
156,2,64,49,0.5462179780006409,0.12263224273920059
156,2,64,50,0.43168750405311584,0.19553551077842712
156,2,64,51,0.5610150098800659,0.19746017456054688
156,2,64,52,0.428863525390625,0.24526284635066986
156,2,64,53,0.21071305871009827,0.13116830587387085
156,2,64,54,0.48400527238845825,0.08740536123514175
156,2,64,55,0.30524322390556335,0.14683392643928528
156,2,64,56,0.4039194583892822,0.13576993346214294
156,2,64,57,0.41680097579956055,0.2849959433078766
156,2,64,58,0.5775304436683655,0.061814673244953156
156,2,64,59,0.32049044966697693,0.17679354548454285
156,2,64,60,0.5349704027175903,0.02514306828379631
156,2,64,61,0.49593523144721985,0.2345222532749176
156,2,64,62,0.5261463522911072,0.0873587429523468
156,2,64,63,0.41058453917503357,0.1911061853170395
156,3,64,0,0.4231729209423065,0.17325958609580994
156,3,64,1,0.5140292048454285,0.17038725316524506
156,3,64,2,0.5265337824821472,0.12053157389163971
156,3,64,3,0.4408873915672302,0.20399875938892365
156,3,64,4,0.3893994092941284,0.19048282504081726
156,3,64,5,0.31202369928359985,0.1467999964952469
156,3,64,6,0.3438792824745178,0.10314002633094788
156,3,64,7,0.4892689883708954,0.13276885449886322
156,3,64,8,0.26016709208488464,0.0987543910741806
156,3,64,9,0.6791187524795532,0.07062754034996033
156,3,64,10,0.5440089106559753,0.1180541142821312
156,3,64,11,0.34503722190856934,0.1504824310541153
156,3,64,12,0.4578046500682831,0.17302721738815308
156,3,64,13,0.5953949689865112,0.09475906938314438
156,3,64,14,0.6011988520622253,0.13200050592422485
156,3,64,15,0.5085564255714417,0.20259547233581543
156,3,64,16,0.43622541427612305,0.15920978784561157
156,3,64,17,0.6144497990608215,0.1503605842590332
156,3,64,18,0.4748145639896393,0.16045568883419037
156,3,64,19,0.4619680345058441,0.1755376011133194
156,3,64,20,0.3366833031177521,0.14672327041625977
156,3,64,21,0.6299325227737427,0.11998037993907928
156,3,64,22,0.510651171207428,0.1539318561553955
156,3,64,23,0.5710676908493042,0.0686677023768425
156,3,64,24,0.4151982069015503,0.2150634527206421
156,3,64,25,0.46676862239837646,0.19897674024105072
156,3,64,26,0.4353542625904083,0.06696265935897827
156,3,64,27,0.40520304441452026,0.17343036830425262
156,3,64,28,0.4907141327857971,0.16827629506587982
156,3,64,29,0.40915217995643616,0.11461272090673447
156,3,64,30,0.37063711881637573,0.13226436078548431
156,3,64,31,0.5277400016784668,0.06539922952651978
156,3,64,32,0.45689934492111206,0.1858213245868683
156,3,64,33,0.5067884922027588,0.0719749853014946
156,3,64,34,0.5943781733512878,0.10709076374769211
156,3,64,35,0.43096891045570374,0.16047702729701996
156,3,64,36,0.6697600483894348,0.1005956307053566
156,3,64,37,0.5605056881904602,0.12569370865821838
156,3,64,38,0.4550074338912964,0.21250717341899872
156,3,64,39,0.45877447724342346,0.11945107579231262
156,3,64,40,0.4259051978588104,0.16299618780612946
156,3,64,41,0.2929096519947052,0.12649314105510712
156,3,64,42,0.3194205164909363,0.1025976911187172
156,3,64,43,0.6669352054595947,0.15825968980789185
156,3,64,44,0.5279098153114319,0.03847408667206764
156,3,64,45,0.5120866894721985,0.09629451483488083
156,3,64,46,0.36810341477394104,0.09624370187520981
156,3,64,47,0.5429877042770386,0.0926373153924942
156,3,64,48,0.44005489349365234,0.1861983835697174
156,3,64,49,0.4268777668476105,0.19847017526626587
156,3,64,50,0.6043530106544495,0.14572207629680634
156,3,64,51,0.40361660718917847,0.1980704665184021
156,3,64,52,0.5088376998901367,0.0908990427851677
156,3,64,53,0.49042364954948425,0.13250811398029327
156,3,64,54,0.3306768536567688,0.14744862914085388
156,3,64,55,0.2855817973613739,0.149254709482193
156,3,64,56,0.44542038440704346,0.17078153789043427
156,3,64,57,0.29603713750839233,0.124422587454319
156,3,64,58,0.6444422602653503,0.09719152003526688
156,3,64,59,0.4229506850242615,0.12905381619930267
156,3,64,60,0.5368324518203735,0.17920415103435516
156,3,64,61,0.5315776467323303,0.07483383268117905
156,3,64,62,0.5625676512718201,0.1975947618484497
156,3,64,63,0.572038471698761,0.1297772377729416
156,4,128,0,0.4656158983707428,0.1966848224401474
156,4,128,1,0.5509640574455261,0.19091759622097015
156,4,128,2,0.531166672706604,0.13829173147678375
156,4,128,3,0.44575971364974976,0.1406191885471344
156,4,128,4,0.693072497844696,0.18763044476509094
156,4,128,5,0.5167730450630188,0.1892518401145935
156,4,128,6,0.5713070034980774,0.1824796348810196
156,4,128,7,0.4563230872154236,0.09737416356801987
156,4,128,8,0.46941331028938293,0.21518436074256897
156,4,128,9,0.5056480169296265,0.17465326189994812
156,4,128,10,0.5599730610847473,0.23668630421161652
156,4,128,11,0.3427641987800598,0.08262848109006882
156,4,128,12,0.5535413026809692,0.07509643584489822
156,4,128,13,0.5086043477058411,0.15505388379096985
156,4,128,14,0.4347270131111145,0.21177616715431213
156,4,128,15,0.5142127871513367,0.30047693848609924
156,4,128,16,0.4206107258796692,0.17548665404319763
156,4,128,17,0.7513280510902405,0.11473114788532257
156,4,128,18,0.504869282245636,0.26278015971183777
156,4,128,19,0.504429280757904,0.1956300586462021
156,4,128,20,0.49251285195350647,0.14213019609451294
156,4,128,21,0.49276670813560486,0.08513524383306503
156,4,128,22,0.5577231049537659,0.13109776377677917
156,4,128,23,0.6232604384422302,0.1571817547082901
156,4,128,24,0.528556227684021,0.17932693660259247
156,4,128,25,0.48670125007629395,0.07279357314109802
156,4,128,26,0.628878116607666,0.08960819244384766
156,4,128,27,0.44248712062835693,0.23686626553535461
156,4,128,28,0.5298520922660828,0.22431665658950806
156,4,128,29,0.45383408665657043,0.128640815615654
156,4,128,30,0.6746990084648132,0.20250791311264038
156,4,128,31,0.6570218801498413,0.19523051381111145
156,4,128,32,0.5939800143241882,0.2480185329914093
156,4,128,33,0.5563021898269653,0.27970102429389954
156,4,128,34,0.6015997529029846,0.06297896802425385
156,4,128,35,0.5464116334915161,0.12738019227981567
156,4,128,36,0.4536043405532837,0.1746477633714676
156,4,128,37,0.39197757840156555,0.20948930084705353
156,4,128,38,0.5489301085472107,0.20541255176067352
156,4,128,39,0.5868211984634399,0.11680065840482712
156,4,128,40,0.4843764007091522,0.1323154866695404
156,4,128,41,0.4624447226524353,0.20596839487552643
156,4,128,42,0.5378620028495789,0.16768492758274078
156,4,128,43,0.5167731642723083,0.12536007165908813
156,4,128,44,0.4305742383003235,0.2057688981294632
156,4,128,45,0.6285767555236816,0.09372995048761368
156,4,128,46,0.3834793269634247,0.11549241840839386
156,4,128,47,0.46423497796058655,0.15485890209674835
156,4,128,48,0.446256548166275,0.08580846339464188
156,4,128,49,0.5755939483642578,0.07876521348953247
156,4,128,50,0.6218966841697693,0.19488359987735748
156,4,128,51,0.569666862487793,0.10929116606712341
156,4,128,52,0.49127984046936035,0.13198412954807281
156,4,128,53,0.4571307301521301,0.07365436106920242
156,4,128,54,0.5881199836730957,0.18984180688858032
156,4,128,55,0.5669299364089966,0.1671449840068817
156,4,128,56,0.40834325551986694,0.08955967426300049
156,4,128,57,0.5389890074729919,0.10069426149129868
156,4,128,58,0.4916207492351532,0.14847561717033386
156,4,128,59,0.5070981383323669,0.18073047697544098
156,4,128,60,0.6141760349273682,0.19641074538230896
156,4,128,61,0.6172794699668884,0.12490511685609818
156,4,128,62,0.4686661660671234,0.24966035783290863
156,4,128,63,0.42126286029815674,0.07383613288402557
156,4,128,64,0.5570434927940369,0.11117307096719742
156,4,128,65,0.5922849774360657,0.20773877203464508
156,4,128,66,0.4709223806858063,0.163075789809227
156,4,128,67,0.4386111795902252,0.17021393775939941
156,4,128,68,0.5016196966171265,0.14511439204216003
156,4,128,69,0.5329703688621521,0.16868533194065094
156,4,128,70,0.5863639712333679,0.11165255308151245
156,4,128,71,0.5097360610961914,0.13512995839118958
156,4,128,72,0.5701252222061157,0.12420327216386795
156,4,128,73,0.5642677545547485,0.17626279592514038
156,4,128,74,0.5563681125640869,0.15290424227714539
156,4,128,75,0.49354079365730286,0.1587919145822525
156,4,128,76,0.5068457126617432,0.16915932297706604
156,4,128,77,0.48703595995903015,0.10903014242649078
156,4,128,78,0.7294277548789978,0.0835752934217453
156,4,128,79,0.45354464650154114,0.2037564367055893
156,4,128,80,0.5995939373970032,0.2323419451713562
156,4,128,81,0.5262805223464966,0.18034303188323975
156,4,128,82,0.5880915522575378,0.2624002695083618
156,4,128,83,0.5988796353340149,0.12462548911571503
156,4,128,84,0.45193400979042053,0.08355783671140671
156,4,128,85,0.502371609210968,0.14461784064769745
156,4,128,86,0.6019742488861084,0.07896978408098221
156,4,128,87,0.5499745011329651,0.23190569877624512
156,4,128,88,0.5890608429908752,0.25661370158195496
156,4,128,89,0.5045638084411621,0.1856817752122879
156,4,128,90,0.5509395599365234,0.15633851289749146
156,4,128,91,0.4764921963214874,0.23026415705680847
156,4,128,92,0.4484845995903015,0.26788344979286194
156,4,128,93,0.5743955969810486,0.15822461247444153
156,4,128,94,0.42720726132392883,0.21474333107471466
156,4,128,95,0.7686989903450012,0.08615437150001526
156,4,128,96,0.6331597566604614,0.1344653218984604
156,4,128,97,0.6227576732635498,0.18936561048030853
156,4,128,98,0.45680198073387146,0.2032392919063568
156,4,128,99,0.6482973694801331,0.09418093413114548
156,4,128,100,0.5293759703636169,0.1754378229379654
156,4,128,101,0.5612855553627014,0.17182810604572296
156,4,128,102,0.48877787590026855,0.1472836434841156
156,4,128,103,0.5841559767723083,0.10794074833393097
156,4,128,104,0.46646854281425476,0.17574796080589294
156,4,128,105,0.5120625495910645,0.15350006520748138
156,4,128,106,0.4443792700767517,0.07506027072668076
156,4,128,107,0.4487003982067108,0.15103968977928162
156,4,128,108,0.5201175808906555,0.16995783150196075
156,4,128,109,0.4531209170818329,0.21281687915325165
156,4,128,110,0.5392715334892273,0.09906598180532455
156,4,128,111,0.5043017864227295,0.1475830227136612
156,4,128,112,0.4733443558216095,0.07310815900564194
156,4,128,113,0.6595078110694885,0.07746085524559021
156,4,128,114,0.6365496516227722,0.190779447555542
156,4,128,115,0.5258496403694153,0.20162399113178253
156,4,128,116,0.5833762288093567,0.12945817410945892
156,4,128,117,0.6045448184013367,0.11333432048559189
156,4,128,118,0.39988595247268677,0.12976571917533875
156,4,128,119,0.5384303331375122,0.1413734257221222
156,4,128,120,0.45468243956565857,0.12878181040287018
156,4,128,121,0.5796608924865723,0.1715945303440094
156,4,128,122,0.40316155552864075,0.15689700841903687
156,4,128,123,0.5128737092018127,0.13558293879032135
156,4,128,124,0.7583521604537964,0.08516009896993637
156,4,128,125,0.6555105447769165,0.21058334410190582
156,4,128,126,0.6263200044631958,0.21384675800800323
156,4,128,127,0.4570165276527405,0.23072955012321472
156,5,128,0,0.6017557978630066,0.13030923902988434
156,5,128,1,0.691399335861206,0.12030962854623795
156,5,128,2,0.7015963792800903,0.1869865208864212
156,5,128,3,0.6206958293914795,0.10737498104572296
156,5,128,4,0.7018396854400635,0.12195131182670593
156,5,128,5,0.5047540068626404,0.13968868553638458
156,5,128,6,0.645106315612793,0.08595418930053711
156,5,128,7,0.564138650894165,0.16792504489421844
156,5,128,8,0.4910769462585449,0.13008931279182434
156,5,128,9,0.6031809449195862,0.18223805725574493
156,5,128,10,0.5892199277877808,0.11673130095005035
156,5,128,11,0.6530826687812805,0.07859499007463455
156,5,128,12,0.5963257551193237,0.14984308183193207
156,5,128,13,0.5898388624191284,0.17834274470806122
156,5,128,14,0.49036702513694763,0.08958902209997177
156,5,128,15,0.7511469125747681,0.11931181699037552
156,5,128,16,0.6315588355064392,0.16159453988075256
156,5,128,17,0.6962394714355469,0.15460370481014252
156,5,128,18,0.712812602519989,0.09677068144083023
156,5,128,19,0.5342485904693604,0.21160662174224854
156,5,128,20,0.6207435727119446,0.07056166976690292
156,5,128,21,0.6301570534706116,0.10299660265445709
156,5,128,22,0.7003389596939087,0.12175937741994858
156,5,128,23,0.6472913026809692,0.1735842078924179
156,5,128,24,0.6589400768280029,0.17370548844337463
156,5,128,25,0.40976327657699585,0.08574604988098145
156,5,128,26,0.7018957734107971,0.12294057756662369
156,5,128,27,0.523535430431366,0.04986892640590668
156,5,128,28,0.5197629332542419,0.16154593229293823
156,5,128,29,0.5505896806716919,0.19898591935634613
156,5,128,30,0.6007273197174072,0.1609509438276291
156,5,128,31,0.6619307398796082,0.1092158704996109
156,5,128,32,0.5743933320045471,0.1768726259469986
156,5,128,33,0.6356922388076782,0.16780368983745575
156,5,128,34,0.6515567898750305,0.10790475457906723
156,5,128,35,0.6050848960876465,0.17970627546310425
156,5,128,36,0.4456138014793396,0.08963781595230103
156,5,128,37,0.5867176055908203,0.0831218808889389
156,5,128,38,0.6886343359947205,0.12389311194419861
156,5,128,39,0.6482359170913696,0.15551365911960602
156,5,128,40,0.4990915060043335,0.07890333980321884
156,5,128,41,0.6595028042793274,0.14831650257110596
156,5,128,42,0.5913235545158386,0.13275571167469025
156,5,128,43,0.5071377754211426,0.08029553294181824
156,5,128,44,0.7012405395507812,0.13747943937778473
156,5,128,45,0.603021502494812,0.09231159836053848
156,5,128,46,0.5889533162117004,0.11287388950586319
156,5,128,47,0.6646986603736877,0.08491282910108566
156,5,128,48,0.6039554476737976,0.11797869205474854
156,5,128,49,0.5427075028419495,0.09665638208389282
156,5,128,50,0.7471827268600464,0.11883936077356339
156,5,128,51,0.615966260433197,0.1233917847275734
156,5,128,52,0.6223159432411194,0.19720503687858582
156,5,128,53,0.4343947768211365,0.15097026526927948
156,5,128,54,0.4810066223144531,0.1625816971063614
156,5,128,55,0.5770424604415894,0.18102283775806427
156,5,128,56,0.5103538036346436,0.2144138664007187
156,5,128,57,0.6352229714393616,0.20182476937770844
156,5,128,58,0.5297881960868835,0.08572881668806076
156,5,128,59,0.5817843675613403,0.1692156046628952
156,5,128,60,0.45153361558914185,0.0714588537812233
156,5,128,61,0.6339922547340393,0.15272369980812073
156,5,128,62,0.5846391320228577,0.09536530077457428
156,5,128,63,0.5154715180397034,0.19432586431503296
156,5,128,64,0.6274405121803284,0.1284814476966858
156,5,128,65,0.673355758190155,0.12468435615301132
156,5,128,66,0.42940738797187805,0.15552572906017303
156,5,128,67,0.46089935302734375,0.11435859650373459
156,5,128,68,0.5554698705673218,0.049909308552742004
156,5,128,69,0.646517813205719,0.12758341431617737
156,5,128,70,0.42603006958961487,0.0886000394821167
156,5,128,71,0.5707463026046753,0.15333156287670135
156,5,128,72,0.5843030214309692,0.16621804237365723
156,5,128,73,0.5611501336097717,0.11373656243085861
156,5,128,74,0.6019152402877808,0.16679877042770386
156,5,128,75,0.6495091319084167,0.1515287160873413
156,5,128,76,0.5534569025039673,0.14613790810108185
156,5,128,77,0.7176176905632019,0.11862779408693314
156,5,128,78,0.6719228625297546,0.11254443973302841
156,5,128,79,0.5264328718185425,0.14588671922683716
156,5,128,80,0.5945085883140564,0.21859636902809143
156,5,128,81,0.5913028120994568,0.15799039602279663
156,5,128,82,0.5863746404647827,0.2106429934501648
156,5,128,83,0.599128007888794,0.15176428854465485
156,5,128,84,0.5562471747398376,0.17512787878513336
156,5,128,85,0.6126057505607605,0.07321873307228088
156,5,128,86,0.5811006426811218,0.17879053950309753
156,5,128,87,0.6610426306724548,0.10022750496864319
156,5,128,88,0.6263313889503479,0.15093682706356049
156,5,128,89,0.5738838315010071,0.15593594312667847
156,5,128,90,0.6626181602478027,0.10137481987476349
156,5,128,91,0.540743350982666,0.13800399005413055
156,5,128,92,0.48748770356178284,0.09979614615440369
156,5,128,93,0.6604627370834351,0.0947064682841301
156,5,128,94,0.5602848529815674,0.11997643858194351
156,5,128,95,0.7093608379364014,0.14518629014492035
156,5,128,96,0.7060297727584839,0.12517663836479187
156,5,128,97,0.5501662492752075,0.2006707787513733
156,5,128,98,0.6794590950012207,0.14752213656902313
156,5,128,99,0.6869798898696899,0.11660507321357727
156,5,128,100,0.5468708872795105,0.09672194719314575
156,5,128,101,0.6580982804298401,0.14851735532283783
156,5,128,102,0.48049506545066833,0.17004576325416565
156,5,128,103,0.6186577677726746,0.11503823101520538
156,5,128,104,0.5983244776725769,0.07071460783481598
156,5,128,105,0.5958492755889893,0.15289589762687683
156,5,128,106,0.6447685956954956,0.09279020130634308
156,5,128,107,0.4682635962963104,0.11897400766611099
156,5,128,108,0.4530269205570221,0.11748027801513672
156,5,128,109,0.5830131769180298,0.11681347340345383
156,5,128,110,0.47461095452308655,0.1810605376958847
156,5,128,111,0.5728607177734375,0.09041731804609299
156,5,128,112,0.5971487760543823,0.09055277705192566
156,5,128,113,0.5499792098999023,0.1356150060892105
156,5,128,114,0.616645336151123,0.21006399393081665
156,5,128,115,0.6026004552841187,0.2044791579246521
156,5,128,116,0.5474374890327454,0.08970639854669571
156,5,128,117,0.5499010682106018,0.22671820223331451
156,5,128,118,0.6535849571228027,0.13486742973327637
156,5,128,119,0.537082314491272,0.07672439515590668
156,5,128,120,0.609514057636261,0.11748270690441132
156,5,128,121,0.6979572772979736,0.12332382053136826
156,5,128,122,0.4268553853034973,0.24475005269050598
156,5,128,123,0.6677109003067017,0.17515355348587036
156,5,128,124,0.5840778350830078,0.21236249804496765
156,5,128,125,0.5469256043434143,0.2129492610692978
156,5,128,126,0.5984315872192383,0.19199050962924957
156,5,128,127,0.581498920917511,0.12743692100048065
185,0,32,0,0.45659199357032776,0.18849267065525055
185,0,32,1,0.5567507147789001,0.09633789211511612
185,0,32,2,0.41200366616249084,0.04762851446866989
185,0,32,3,0.6753036975860596,0.10668904334306717
185,0,32,4,0.38221222162246704,0.18980668485164642
185,0,32,5,0.4789137840270996,0.1521766185760498
185,0,32,6,0.39821934700012207,0.17047463357448578
185,0,32,7,0.39833757281303406,0.06669899821281433
185,0,32,8,0.381611168384552,0.15396247804164886
185,0,32,9,0.4983117878437042,0.14469420909881592
185,0,32,10,0.5368048548698425,0.12171207368373871
185,0,32,11,0.43802210688591003,0.1104377955198288
185,0,32,12,0.5423305034637451,0.13779260218143463
185,0,32,13,0.3574201464653015,0.16919036209583282
185,0,32,14,0.5112144947052002,0.11114847660064697
185,0,32,15,0.46661269664764404,0.17245039343833923
185,0,32,16,0.5716604590415955,0.19183525443077087
185,0,32,17,0.5363569855690002,0.041118793189525604
185,0,32,18,0.29713428020477295,0.08761749416589737
185,0,32,19,0.5576462745666504,0.07611547410488129
185,0,32,20,0.4489421248435974,0.09442450851202011
185,0,32,21,0.4019845426082611,0.11526338011026382
185,0,32,22,0.5340920686721802,0.19430488348007202
185,0,32,23,0.6154300570487976,0.12883605062961578
185,0,32,24,0.5441122055053711,0.0721447765827179
185,0,32,25,0.49690815806388855,0.12159884721040726
185,0,32,26,0.5566869378089905,0.11271215975284576
185,0,32,27,0.4267403185367584,0.08593562245368958
185,0,32,28,0.5830825567245483,0.16514064371585846
185,0,32,29,0.3344925045967102,0.06879045069217682
185,0,32,30,0.3925235867500305,0.13057753443717957
185,0,32,31,0.396615594625473,0.14150051772594452
185,1,32,0,0.5945804715156555,0.12758155167102814
185,1,32,1,0.2967955470085144,0.10633969306945801
185,1,32,2,0.6025365591049194,0.07420314103364944
185,1,32,3,0.6031597256660461,0.06458846479654312
185,1,32,4,0.4238261282444,0.09710443019866943
185,1,32,5,0.6549126505851746,0.07755265384912491
185,1,32,6,0.4697605073451996,0.12587383389472961
185,1,32,7,0.5237282514572144,0.11689598858356476
185,1,32,8,0.35401755571365356,0.09919808804988861
185,1,32,9,0.4821990430355072,0.04233595356345177
185,1,32,10,0.5428882837295532,0.09504225850105286
185,1,32,11,0.46322736144065857,0.07800452411174774
185,1,32,12,0.41206029057502747,0.09837457537651062
185,1,32,13,0.5441597700119019,0.15158207714557648
185,1,32,14,0.6845834255218506,0.08536123484373093
185,1,32,15,0.44274359941482544,0.08496468514204025
185,1,32,16,0.506065845489502,0.16822096705436707
185,1,32,17,0.34573253989219666,0.14994965493679047
185,1,32,18,0.41171085834503174,0.10034879297018051
185,1,32,19,0.4287760257720947,0.15126940608024597
185,1,32,20,0.24537509679794312,0.08771930634975433
185,1,32,21,0.47190260887145996,0.188754141330719
185,1,32,22,0.608811616897583,0.1540006399154663
185,1,32,23,0.6679294109344482,0.10392531752586365
185,1,32,24,0.43178072571754456,0.1606667935848236
185,1,32,25,0.5077965259552002,0.10018559545278549
185,1,32,26,0.5574690699577332,0.12272173166275024
185,1,32,27,0.49403032660484314,0.11307208985090256
185,1,32,28,0.47185853123664856,0.061507515609264374
185,1,32,29,0.34985435009002686,0.08293427526950836
185,1,32,30,0.617548406124115,0.10320614278316498
185,1,32,31,0.2923427224159241,0.0969548299908638
185,2,64,0,0.5176733732223511,0.21125972270965576
185,2,64,1,0.434627503156662,0.13529261946678162
185,2,64,2,0.6487501859664917,0.3066096305847168
185,2,64,3,0.4446389377117157,0.16336603462696075
185,2,64,4,0.35023149847984314,0.17282558977603912
185,2,64,5,0.56072998046875,0.3480675518512726
185,2,64,6,0.7253621816635132,0.1104341447353363
185,2,64,7,0.600651741027832,0.29717323184013367
185,2,64,8,0.4263586699962616,0.17670117318630219
185,2,64,9,0.4404834806919098,0.0956561490893364
185,2,64,10,0.589015543460846,0.3348783850669861
185,2,64,11,0.4111312925815582,0.16301025450229645
185,2,64,12,0.3836125135421753,0.2432175874710083
185,2,64,13,0.36695507168769836,0.13512614369392395
185,2,64,14,0.6346733570098877,0.1389819234609604
185,2,64,15,0.6108430027961731,0.16674502193927765
185,2,64,16,0.595420777797699,0.3018619120121002
185,2,64,17,0.42247655987739563,0.0904415100812912
185,2,64,18,0.332996666431427,0.14482241868972778
185,2,64,19,0.40397006273269653,0.26536089181900024
185,2,64,20,0.6263591647148132,0.166356161236763
185,2,64,21,0.5363383293151855,0.17524170875549316
185,2,64,22,0.4402742385864258,0.16308648884296417
185,2,64,23,0.29974421858787537,0.1738319993019104
185,2,64,24,0.6099448204040527,0.23882023990154266
185,2,64,25,0.42053020000457764,0.13160741329193115
185,2,64,26,0.6681764125823975,0.0886167660355568
185,2,64,27,0.649381160736084,0.13822057843208313
185,2,64,28,0.3596360683441162,0.21250472962856293
185,2,64,29,0.450605183839798,0.1875779777765274
185,2,64,30,0.4164043962955475,0.13122610747814178
185,2,64,31,0.6208646297454834,0.25919368863105774
185,2,64,32,0.5009095668792725,0.18260782957077026
185,2,64,33,0.4736729562282562,0.21296687424182892
185,2,64,34,0.6231661438941956,0.12100528180599213
185,2,64,35,0.5576872825622559,0.1919364631175995
185,2,64,36,0.5586715936660767,0.25621145963668823
185,2,64,37,0.500005841255188,0.05550268292427063
185,2,64,38,0.3678813576698303,0.28062254190444946
185,2,64,39,0.39598363637924194,0.13766226172447205
185,2,64,40,0.44240647554397583,0.2396472692489624
185,2,64,41,0.6380985379219055,0.28761112689971924
185,2,64,42,0.2702530324459076,0.11315412819385529
185,2,64,43,0.4792240560054779,0.1629677414894104
185,2,64,44,0.35396429896354675,0.11495713889598846
185,2,64,45,0.5911575555801392,0.3342883884906769
185,2,64,46,0.44688451290130615,0.1459088921546936
185,2,64,47,0.6223733425140381,0.2535941004753113
185,2,64,48,0.49859124422073364,0.19775472581386566
185,2,64,49,0.3539503514766693,0.216470867395401
185,2,64,50,0.6847151517868042,0.2134709656238556
185,2,64,51,0.46721798181533813,0.12149789929389954
185,2,64,52,0.5990325808525085,0.29349952936172485
185,2,64,53,0.5953465104103088,0.0796424001455307
185,2,64,54,0.579128086566925,0.1555272340774536
185,2,64,55,0.3721856474876404,0.09191595017910004
185,2,64,56,0.5602594017982483,0.23058491945266724
185,2,64,57,0.5840722918510437,0.2085254043340683
185,2,64,58,0.6808605194091797,0.2731507122516632
185,2,64,59,0.5138553977012634,0.2535001039505005
185,2,64,60,0.5833643674850464,0.28881725668907166
185,2,64,61,0.6136248111724854,0.09620189666748047
185,2,64,62,0.40420836210250854,0.25829604268074036
185,2,64,63,0.5790914297103882,0.2661283016204834
185,3,64,0,0.40701112151145935,0.23697525262832642
185,3,64,1,0.6309857964515686,0.1390426754951477
185,3,64,2,0.4953114092350006,0.14346174895763397
185,3,64,3,0.39882129430770874,0.09460661560297012
185,3,64,4,0.5292450785636902,0.25673535466194153
185,3,64,5,0.5770325064659119,0.09377771615982056
185,3,64,6,0.44672325253486633,0.21065440773963928
185,3,64,7,0.5299761891365051,0.11388404667377472
185,3,64,8,0.5927486419677734,0.13406254351139069
185,3,64,9,0.5528969764709473,0.1912638545036316
185,3,64,10,0.42841631174087524,0.13406138122081757
185,3,64,11,0.5399024486541748,0.12016890197992325
185,3,64,12,0.39972424507141113,0.07970395684242249
185,3,64,13,0.6693021059036255,0.10303258895874023
185,3,64,14,0.5037627816200256,0.1514081060886383
185,3,64,15,0.31397685408592224,0.09277232736349106
185,3,64,16,0.4943613111972809,0.166081503033638
185,3,64,17,0.6261565685272217,0.07884807884693146
185,3,64,18,0.49150484800338745,0.12177786231040955
185,3,64,19,0.4173479676246643,0.16527172923088074
185,3,64,20,0.3604053258895874,0.07909385114908218
185,3,64,21,0.6097960472106934,0.14811868965625763
185,3,64,22,0.44523391127586365,0.12619224190711975
185,3,64,23,0.4244677424430847,0.15323162078857422
185,3,64,24,0.5048205852508545,0.2688230574131012
185,3,64,25,0.5667584538459778,0.19335664808750153
185,3,64,26,0.5013979077339172,0.23768770694732666
185,3,64,27,0.4746518135070801,0.08702549338340759
185,3,64,28,0.4055110216140747,0.1321953535079956
185,3,64,29,0.6015587449073792,0.0936698392033577
185,3,64,30,0.44046053290367126,0.13537634909152985
185,3,64,31,0.6493598222732544,0.0979703888297081
185,3,64,32,0.5261864066123962,0.0923612117767334
185,3,64,33,0.382518470287323,0.17411786317825317
185,3,64,34,0.3966977000236511,0.1462317854166031
185,3,64,35,0.5026451349258423,0.17721277475357056
185,3,64,36,0.4696033000946045,0.12638376653194427
185,3,64,37,0.5458016991615295,0.13668902218341827
185,3,64,38,0.5278071165084839,0.22427807748317719
185,3,64,39,0.5192010402679443,0.06886975467205048
185,3,64,40,0.5369584560394287,0.1300528645515442
185,3,64,41,0.6139686703681946,0.0639616847038269
185,3,64,42,0.45768874883651733,0.10175567120313644
185,3,64,43,0.44116994738578796,0.22661298513412476
185,3,64,44,0.6251811981201172,0.1933862715959549
185,3,64,45,0.40910640358924866,0.24431590735912323
185,3,64,46,0.4451669156551361,0.2667373716831207
185,3,64,47,0.39619138836860657,0.17537018656730652
185,3,64,48,0.5141376256942749,0.20187488198280334
185,3,64,49,0.40083542466163635,0.07924017310142517
185,3,64,50,0.5646297335624695,0.13711082935333252
185,3,64,51,0.6513064503669739,0.09103021025657654
185,3,64,52,0.45017051696777344,0.08523748070001602
185,3,64,53,0.6083227396011353,0.15294118225574493
185,3,64,54,0.5435017347335815,0.11203345656394958
185,3,64,55,0.5012392401695251,0.13825875520706177
185,3,64,56,0.4367760121822357,0.05659153312444687
185,3,64,57,0.4496239721775055,0.23629838228225708
185,3,64,58,0.4320337772369385,0.17351922392845154
185,3,64,59,0.38139837980270386,0.11820972710847855
185,3,64,60,0.37391966581344604,0.1166067123413086
185,3,64,61,0.5485894083976746,0.05349556356668472
185,3,64,62,0.5360260009765625,0.14445070922374725
185,3,64,63,0.5226544737815857,0.19744105637073517
185,4,128,0,0.4836074113845825,0.1213684007525444
185,4,128,1,0.6490846276283264,0.16150815784931183
185,4,128,2,0.6376762986183167,0.2727675139904022
185,4,128,3,0.6430615186691284,0.12747786939144135
185,4,128,4,0.4792681038379669,0.2655947208404541
185,4,128,5,0.5293071866035461,0.24738873541355133
185,4,128,6,0.42315685749053955,0.1605970561504364
185,4,128,7,0.5648388266563416,0.3153440058231354
185,4,128,8,0.5281846523284912,0.2698041796684265
185,4,128,9,0.5416049957275391,0.29510998725891113
185,4,128,10,0.5020665526390076,0.18115387856960297
185,4,128,11,0.3836386501789093,0.14017516374588013
185,4,128,12,0.5443713665008545,0.24510757625102997
185,4,128,13,0.5743114948272705,0.14067569375038147
185,4,128,14,0.4996836185455322,0.06682538986206055
185,4,128,15,0.4916735887527466,0.13616737723350525
185,4,128,16,0.342050701379776,0.18500378727912903
185,4,128,17,0.6609932780265808,0.2229994833469391
185,4,128,18,0.5922960638999939,0.2288723587989807
185,4,128,19,0.492891788482666,0.32134872674942017
185,4,128,20,0.4973815679550171,0.2899411618709564
185,4,128,21,0.577835738658905,0.14556774497032166
185,4,128,22,0.6082661151885986,0.10940875858068466
185,4,128,23,0.5547699928283691,0.25579866766929626
185,4,128,24,0.6469562649726868,0.14907847344875336
185,4,128,25,0.5068444013595581,0.2769898772239685
185,4,128,26,0.49398860335350037,0.13852529227733612
185,4,128,27,0.5871332883834839,0.18320007622241974
185,4,128,28,0.5483906269073486,0.1544719934463501
185,4,128,29,0.5976805090904236,0.18296901881694794
185,4,128,30,0.3899012804031372,0.2132534682750702
185,4,128,31,0.4851889908313751,0.2501472234725952
185,4,128,32,0.550294041633606,0.25824981927871704
185,4,128,33,0.6421982049942017,0.1094314455986023
185,4,128,34,0.5319466590881348,0.20079804956912994
185,4,128,35,0.5547460317611694,0.3025444447994232
185,4,128,36,0.6017478704452515,0.24165749549865723
185,4,128,37,0.46777820587158203,0.169084370136261
185,4,128,38,0.5904158353805542,0.16264605522155762
185,4,128,39,0.3960804045200348,0.15017293393611908
185,4,128,40,0.5012962818145752,0.139255553483963
185,4,128,41,0.5344355702400208,0.11623815447092056
185,4,128,42,0.591067910194397,0.23805947601795197
185,4,128,43,0.5759013295173645,0.270083487033844
185,4,128,44,0.6879414916038513,0.14710719883441925
185,4,128,45,0.5694683790206909,0.2364770770072937
185,4,128,46,0.6287841200828552,0.12505681812763214
185,4,128,47,0.5718020796775818,0.3000907599925995
185,4,128,48,0.5425111055374146,0.14418639242649078
185,4,128,49,0.5350939631462097,0.3023124933242798
185,4,128,50,0.5121371746063232,0.2673693001270294
185,4,128,51,0.45952537655830383,0.12355934083461761
185,4,128,52,0.5424884557723999,0.2554834485054016
185,4,128,53,0.5358245968818665,0.28700703382492065
185,4,128,54,0.5840603113174438,0.18370746076107025
185,4,128,55,0.5846130847930908,0.2739655673503876
185,4,128,56,0.45620089769363403,0.3158961534500122
185,4,128,57,0.44257891178131104,0.0934777706861496
185,4,128,58,0.45297971367836,0.16994629800319672
185,4,128,59,0.6522179245948792,0.17268221080303192
185,4,128,60,0.6515135765075684,0.19435366988182068
185,4,128,61,0.564619779586792,0.18562014400959015
185,4,128,62,0.43894386291503906,0.19455595314502716
185,4,128,63,0.5340073108673096,0.1519363671541214
185,4,128,64,0.4996497333049774,0.2531079649925232
185,4,128,65,0.5628316402435303,0.3056625425815582
185,4,128,66,0.5265957117080688,0.2709783613681793
185,4,128,67,0.5380305051803589,0.27868396043777466
185,4,128,68,0.5530844330787659,0.24764710664749146
185,4,128,69,0.4511166214942932,0.2597709894180298
185,4,128,70,0.4091440439224243,0.3279637396335602
185,4,128,71,0.6066309809684753,0.22678987681865692
185,4,128,72,0.4989725649356842,0.23643068969249725
185,4,128,73,0.5064246654510498,0.3223632872104645
185,4,128,74,0.4341583549976349,0.26172110438346863
185,4,128,75,0.5871294736862183,0.20497305691242218
185,4,128,76,0.5235344171524048,0.29864248633384705
185,4,128,77,0.5293276906013489,0.261414110660553
185,4,128,78,0.5195837616920471,0.15425166487693787
185,4,128,79,0.592108428478241,0.25563377141952515
185,4,128,80,0.33704423904418945,0.13596609234809875
185,4,128,81,0.49366605281829834,0.08628015220165253
185,4,128,82,0.49250754714012146,0.24189415574073792
185,4,128,83,0.6429757475852966,0.17247970402240753
185,4,128,84,0.6046121120452881,0.26232650876045227
185,4,128,85,0.4672118127346039,0.2237594574689865
185,4,128,86,0.42604556679725647,0.12664064764976501
185,4,128,87,0.5951924324035645,0.25160107016563416
185,4,128,88,0.5567192435264587,0.2966797351837158
185,4,128,89,0.5614271759986877,0.251769483089447
185,4,128,90,0.5528780221939087,0.20612432062625885
185,4,128,91,0.5812424421310425,0.2630966603755951
185,4,128,92,0.5302841067314148,0.2721762955188751
185,4,128,93,0.2674294114112854,0.1441536694765091
185,4,128,94,0.5522437691688538,0.18131296336650848
185,4,128,95,0.5010378956794739,0.15337808430194855
185,4,128,96,0.528068482875824,0.26561468839645386
185,4,128,97,0.3671005666255951,0.15283916890621185
185,4,128,98,0.6328319311141968,0.1100495308637619
185,4,128,99,0.5072235465049744,0.31691017746925354
185,4,128,100,0.6476245522499084,0.15815821290016174
185,4,128,101,0.44251301884651184,0.22233176231384277
185,4,128,102,0.5198957324028015,0.2762551009654999
185,4,128,103,0.5922327041625977,0.15896804630756378
185,4,128,104,0.5163885951042175,0.2503056228160858
185,4,128,105,0.6714650392532349,0.12876465916633606
185,4,128,106,0.6700970530509949,0.10714510828256607
185,4,128,107,0.32813411951065063,0.11350320279598236
185,4,128,108,0.5676632523536682,0.26524537801742554
185,4,128,109,0.35815325379371643,0.1495903879404068
185,4,128,110,0.43956440687179565,0.30303260684013367
185,4,128,111,0.44868600368499756,0.25508812069892883
185,4,128,112,0.5137982964515686,0.11521191149950027
185,4,128,113,0.5272679924964905,0.24682912230491638
185,4,128,114,0.4994677007198334,0.1674262136220932
185,4,128,115,0.5873237252235413,0.2196168750524521
185,4,128,116,0.46931520104408264,0.2620082199573517
185,4,128,117,0.7679292559623718,0.1237708032131195
185,4,128,118,0.38733917474746704,0.15910135209560394
185,4,128,119,0.537837564945221,0.21739092469215393
185,4,128,120,0.5140028595924377,0.20381323993206024
185,4,128,121,0.4851396679878235,0.1964949071407318
185,4,128,122,0.44234350323677063,0.2580811083316803
185,4,128,123,0.6091969609260559,0.23664262890815735
185,4,128,124,0.608663022518158,0.10242950171232224
185,4,128,125,0.4077635407447815,0.24959206581115723
185,4,128,126,0.5182430148124695,0.2822355031967163
185,4,128,127,0.5946208834648132,0.18180252611637115
185,5,128,0,0.43412166833877563,0.2995644509792328
185,5,128,1,0.8343119025230408,0.12577907741069794
185,5,128,2,0.7394163608551025,0.13579995930194855
185,5,128,3,0.5829966068267822,0.26452669501304626
185,5,128,4,0.8058107495307922,0.11730366945266724
185,5,128,5,0.7434182167053223,0.11005640774965286
185,5,128,6,0.6844216585159302,0.14043688774108887
185,5,128,7,0.7057186961174011,0.26882851123809814
185,5,128,8,0.5616000294685364,0.18336889147758484
185,5,128,9,0.804516077041626,0.11827405542135239
185,5,128,10,0.8299953937530518,0.12614397704601288
185,5,128,11,0.6634626388549805,0.10720564424991608
185,5,128,12,0.6705248951911926,0.3223263621330261
185,5,128,13,0.35473504662513733,0.2388937771320343
185,5,128,14,0.7290953993797302,0.16025857627391815
185,5,128,15,0.8555730581283569,0.12167266756296158
185,5,128,16,0.6643361449241638,0.11863958835601807
185,5,128,17,0.4953770637512207,0.1892530620098114
185,5,128,18,0.7634813785552979,0.12031405419111252
185,5,128,19,0.771217405796051,0.191580668091774
185,5,128,20,0.7242584824562073,0.14797276258468628
185,5,128,21,0.2962597906589508,0.1405760794878006
185,5,128,22,0.8039137125015259,0.09550637751817703
185,5,128,23,0.6809289455413818,0.2605023980140686
185,5,128,24,0.6927372217178345,0.19321909546852112
185,5,128,25,0.6318040490150452,0.2724185585975647
185,5,128,26,0.8360477089881897,0.11922931671142578
185,5,128,27,0.6705107092857361,0.24730351567268372
185,5,128,28,0.7553493976593018,0.14172783493995667
185,5,128,29,0.8027195930480957,0.13326109945774078
185,5,128,30,0.8285107612609863,0.11394329369068146
185,5,128,31,0.6085988283157349,0.24742023646831512
185,5,128,32,0.7155606150627136,0.300570547580719
185,5,128,33,0.7865944504737854,0.14274343848228455
185,5,128,34,0.789982259273529,0.14450620114803314
185,5,128,35,0.7303788065910339,0.08988302201032639
185,5,128,36,0.7887752056121826,0.22170209884643555
185,5,128,37,0.6157889366149902,0.2612716555595398
185,5,128,38,0.4119011163711548,0.16162143647670746
185,5,128,39,0.5979242324829102,0.25530722737312317
185,5,128,40,0.6766099333763123,0.16977158188819885
185,5,128,41,0.6696866750717163,0.2872453033924103
185,5,128,42,0.7590476870536804,0.18656954169273376
185,5,128,43,0.696906566619873,0.26041778922080994
185,5,128,44,0.500270664691925,0.3220595121383667
185,5,128,45,0.5281256437301636,0.2122085839509964
185,5,128,46,0.6969448924064636,0.14736191928386688
185,5,128,47,0.6225599646568298,0.3103522062301636
185,5,128,48,0.4046042859554291,0.186923086643219
185,5,128,49,0.6173614263534546,0.18887461721897125
185,5,128,50,0.7858814597129822,0.12149129062891006
185,5,128,51,0.6301290988922119,0.20684021711349487
185,5,128,52,0.48574531078338623,0.2568783462047577
185,5,128,53,0.5150463581085205,0.28197234869003296
185,5,128,54,0.6975833177566528,0.14276956021785736
185,5,128,55,0.5719091892242432,0.3117001950740814
185,5,128,56,0.6659835577011108,0.19781163334846497
185,5,128,57,0.8395653367042542,0.15231290459632874
185,5,128,58,0.784407913684845,0.10947117954492569
185,5,128,59,0.4324899911880493,0.1970425397157669
185,5,128,60,0.6259493827819824,0.18474094569683075
185,5,128,61,0.7387598156929016,0.23386500775814056
185,5,128,62,0.3654198944568634,0.2819535434246063
185,5,128,63,0.4925170838832855,0.2644890546798706
185,5,128,64,0.7075486183166504,0.13004030287265778
185,5,128,65,0.4243561029434204,0.13257287442684174
185,5,128,66,0.5603495240211487,0.19005395472049713
185,5,128,67,0.7250373959541321,0.20260083675384521
185,5,128,68,0.6742967963218689,0.27531346678733826
185,5,128,69,0.6775637865066528,0.21147532761096954
185,5,128,70,0.666808545589447,0.15496525168418884
185,5,128,71,0.47768065333366394,0.2154039889574051
185,5,128,72,0.7149814367294312,0.13135074079036713
185,5,128,73,0.7102260589599609,0.2805419862270355
185,5,128,74,0.5666343569755554,0.19864267110824585
185,5,128,75,0.5578726530075073,0.2682027518749237
185,5,128,76,0.6685577630996704,0.3089975118637085
185,5,128,77,0.7849016785621643,0.18705011904239655
185,5,128,78,0.5063055753707886,0.23448705673217773
185,5,128,79,0.6886789202690125,0.18358609080314636
185,5,128,80,0.6102185249328613,0.30982476472854614
185,5,128,81,0.7848268151283264,0.2387930154800415
185,5,128,82,0.7847506403923035,0.10243197530508041
185,5,128,83,0.8256460428237915,0.1539773792028427
185,5,128,84,0.5574864745140076,0.18537753820419312
185,5,128,85,0.648029625415802,0.2791985869407654
185,5,128,86,0.5187954306602478,0.1873961091041565
185,5,128,87,0.6627378463745117,0.2846250832080841
185,5,128,88,0.5798944234848022,0.14364288747310638
185,5,128,89,0.656125009059906,0.18345703184604645
185,5,128,90,0.8244587182998657,0.13032138347625732
185,5,128,91,0.8374341130256653,0.165402352809906
185,5,128,92,0.5602430105209351,0.12188287824392319
185,5,128,93,0.5538216829299927,0.29866084456443787
185,5,128,94,0.5735973119735718,0.16271699965000153
185,5,128,95,0.7373331785202026,0.2266506850719452
185,5,128,96,0.5215311050415039,0.1515980362892151
185,5,128,97,0.4922689199447632,0.25241878628730774
185,5,128,98,0.7648839950561523,0.1562485545873642
185,5,128,99,0.5490474700927734,0.22685369849205017
185,5,128,100,0.7257419228553772,0.11865296214818954
185,5,128,101,0.6591184139251709,0.28254854679107666
185,5,128,102,0.6577193140983582,0.18764007091522217
185,5,128,103,0.7918723821640015,0.0977603942155838
185,5,128,104,0.5092851519584656,0.2510640323162079
185,5,128,105,0.45289328694343567,0.12462656944990158
185,5,128,106,0.5843339562416077,0.1947336494922638
185,5,128,107,0.5384466052055359,0.07349301129579544
185,5,128,108,0.7750633955001831,0.18532395362854004
185,5,128,109,0.70900559425354,0.18583589792251587
185,5,128,110,0.7179035544395447,0.12913791835308075
185,5,128,111,0.8153681755065918,0.11140350252389908
185,5,128,112,0.8312352895736694,0.11074990034103394
185,5,128,113,0.7377029657363892,0.25946781039237976
185,5,128,114,0.8045278787612915,0.1384117752313614
185,5,128,115,0.5943965911865234,0.2096705138683319
185,5,128,116,0.38916492462158203,0.20433753728866577
185,5,128,117,0.7828191518783569,0.11238621175289154
185,5,128,118,0.5896250605583191,0.26653629541397095
185,5,128,119,0.3734670579433441,0.278034508228302
185,5,128,120,0.6114572882652283,0.2933626174926758
185,5,128,121,0.7337528467178345,0.11419457197189331
185,5,128,122,0.3912883996963501,0.24049922823905945
185,5,128,123,0.7686276435852051,0.16189275681972504
185,5,128,124,0.7064104080200195,0.2763032019138336
185,5,128,125,0.8401018977165222,0.10946650058031082
185,5,128,126,0.6791595816612244,0.1609775573015213
185,5,128,127,0.7286837697029114,0.17913314700126648
186,0,32,0,0.48102498054504395,0.19179506599903107
186,0,32,1,0.44467151165008545,0.2435675859451294
186,0,32,2,0.4300153851509094,0.13708679378032684
186,0,32,3,0.4202587604522705,0.04254491999745369
186,0,32,4,0.5018978714942932,0.21053193509578705
186,0,32,5,0.5913143754005432,0.18604782223701477
186,0,32,6,0.5367968082427979,0.09242196381092072
186,0,32,7,0.6204642057418823,0.11561638861894608
186,0,32,8,0.5183132886886597,0.1447344273328781
186,0,32,9,0.5498630404472351,0.10584810376167297
186,0,32,10,0.48537224531173706,0.1260499805212021
186,0,32,11,0.5292418003082275,0.15035612881183624
186,0,32,12,0.5651528239250183,0.10924747586250305
186,0,32,13,0.5229001045227051,0.20566169917583466
186,0,32,14,0.5214069485664368,0.06501147896051407
186,0,32,15,0.49879518151283264,0.1602790206670761
186,0,32,16,0.5498822331428528,0.06409250199794769
186,0,32,17,0.48053404688835144,0.21526120603084564
186,0,32,18,0.21828237175941467,0.11125197261571884
186,0,32,19,0.5000931024551392,0.08930021524429321
186,0,32,20,0.49607083201408386,0.20706389844417572
186,0,32,21,0.5773984789848328,0.14592839777469635
186,0,32,22,0.4651395082473755,0.10900553315877914
186,0,32,23,0.5708332061767578,0.09254806488752365
186,0,32,24,0.45290541648864746,0.1848939061164856
186,0,32,25,0.44929662346839905,0.21258863806724548
186,0,32,26,0.6308495402336121,0.13202208280563354
186,0,32,27,0.33329495787620544,0.09954406321048737
186,0,32,28,0.3164809048175812,0.10119619965553284
186,0,32,29,0.5130220651626587,0.07172156870365143
186,0,32,30,0.42702797055244446,0.16881126165390015
186,0,32,31,0.36810553073883057,0.1402929723262787
186,1,32,0,0.6221905946731567,0.04154440760612488
186,1,32,1,0.41580691933631897,0.11217376589775085
186,1,32,2,0.30434244871139526,0.08414242416620255
186,1,32,3,0.4799399673938751,0.12248639017343521
186,1,32,4,0.5308445692062378,0.12122993171215057
186,1,32,5,0.3443037271499634,0.06321732699871063
186,1,32,6,0.6212467551231384,0.12355254590511322
186,1,32,7,0.5841502547264099,0.1253492385149002
186,1,32,8,0.6609328389167786,0.08625422418117523
186,1,32,9,0.4838935434818268,0.17596770823001862
186,1,32,10,0.4533175826072693,0.09461335092782974
186,1,32,11,0.5229825973510742,0.0658864676952362
186,1,32,12,0.3338102102279663,0.045637164264917374
186,1,32,13,0.5713934898376465,0.04884504899382591
186,1,32,14,0.40181538462638855,0.06535040587186813
186,1,32,15,0.510185956954956,0.06601966172456741
186,1,32,16,0.3225000500679016,0.05312705412507057
186,1,32,17,0.4251006543636322,0.1557488888502121
186,1,32,18,0.5539839267730713,0.15282940864562988
186,1,32,19,0.5326272249221802,0.1008436530828476
186,1,32,20,0.6251772046089172,0.10158862918615341
186,1,32,21,0.5018042922019958,0.06654901802539825
186,1,32,22,0.2772171199321747,0.13402636349201202
186,1,32,23,0.6705576181411743,0.08538112789392471
186,1,32,24,0.48155418038368225,0.1339971125125885
186,1,32,25,0.46771344542503357,0.12402135133743286
186,1,32,26,0.5282613635063171,0.06295464187860489
186,1,32,27,0.5135282874107361,0.08316074311733246
186,1,32,28,0.388404905796051,0.11404576152563095
186,1,32,29,0.5406399965286255,0.1232987642288208
186,1,32,30,0.5419019460678101,0.06389061361551285
186,1,32,31,0.560184895992279,0.061220984905958176
186,2,64,0,0.3865063786506653,0.12496030330657959
186,2,64,1,0.3727143108844757,0.12411262094974518
186,2,64,2,0.5468204021453857,0.1935684084892273
186,2,64,3,0.37034979462623596,0.05578332394361496
186,2,64,4,0.33083149790763855,0.15465031564235687
186,2,64,5,0.4266853928565979,0.18798071146011353
186,2,64,6,0.47135215997695923,0.06455503404140472
186,2,64,7,0.5369302034378052,0.15549489855766296
186,2,64,8,0.6066132187843323,0.08719291538000107
186,2,64,9,0.44924288988113403,0.07389382272958755
186,2,64,10,0.5664539933204651,0.23164400458335876
186,2,64,11,0.22048136591911316,0.09531211107969284
186,2,64,12,0.582642674446106,0.14421755075454712
186,2,64,13,0.601448118686676,0.1842990517616272
186,2,64,14,0.5834571123123169,0.17753639817237854
186,2,64,15,0.4621177315711975,0.258585661649704
186,2,64,16,0.5618603229522705,0.16360929608345032
186,2,64,17,0.5136936902999878,0.15108880400657654
186,2,64,18,0.41534224152565,0.20954440534114838
186,2,64,19,0.652764618396759,0.20617586374282837
186,2,64,20,0.6441042423248291,0.22452610731124878
186,2,64,21,0.4948945641517639,0.24288614094257355
186,2,64,22,0.43985241651535034,0.2314276397228241
186,2,64,23,0.5094099044799805,0.0970931351184845
186,2,64,24,0.511687159538269,0.05535631254315376
186,2,64,25,0.428954541683197,0.20686499774456024
186,2,64,26,0.561529278755188,0.20843066275119781
186,2,64,27,0.638923168182373,0.12461503595113754
186,2,64,28,0.44988659024238586,0.19676150381565094
186,2,64,29,0.504028856754303,0.18589618802070618
186,2,64,30,0.3905797302722931,0.13315388560295105
186,2,64,31,0.38143864274024963,0.10552971065044403
186,2,64,32,0.37721407413482666,0.17753809690475464
186,2,64,33,0.46213680505752563,0.1621382087469101
186,2,64,34,0.3914121985435486,0.14184190332889557
186,2,64,35,0.23261864483356476,0.07208310067653656
186,2,64,36,0.5589646697044373,0.22491097450256348
186,2,64,37,0.45382457971572876,0.1642410010099411
186,2,64,38,0.3728283941745758,0.20925705134868622
186,2,64,39,0.44915515184402466,0.19465301930904388
186,2,64,40,0.6160587668418884,0.09784436970949173
186,2,64,41,0.27006709575653076,0.1262635886669159
186,2,64,42,0.6007863879203796,0.11719775944948196
186,2,64,43,0.546238362789154,0.15030720829963684
186,2,64,44,0.3722831606864929,0.09376513957977295
186,2,64,45,0.49135956168174744,0.1533120721578598
186,2,64,46,0.5862827301025391,0.18815448880195618
186,2,64,47,0.5815500020980835,0.06080405414104462
186,2,64,48,0.49699851870536804,0.2207529991865158
186,2,64,49,0.6003773808479309,0.2108631730079651
186,2,64,50,0.569098711013794,0.1955566108226776
186,2,64,51,0.5243176221847534,0.24243324995040894
186,2,64,52,0.4301944971084595,0.14549322426319122
186,2,64,53,0.36214572191238403,0.2823658585548401
186,2,64,54,0.4196317195892334,0.09339752048254013
186,2,64,55,0.60301274061203,0.15610074996948242
186,2,64,56,0.5415341258049011,0.26512956619262695
186,2,64,57,0.38777032494544983,0.24332688748836517
186,2,64,58,0.6136028170585632,0.20798072218894958
186,2,64,59,0.4799623489379883,0.20989038050174713
186,2,64,60,0.75613933801651,0.11919011175632477
186,2,64,61,0.4961947500705719,0.19467300176620483
186,2,64,62,0.42409709095954895,0.07026392221450806
186,2,64,63,0.6319088935852051,0.1658918857574463
186,3,64,0,0.42397835850715637,0.12580087780952454
186,3,64,1,0.4303108751773834,0.1351395845413208
186,3,64,2,0.37699294090270996,0.12418504059314728
186,3,64,3,0.48721981048583984,0.120939239859581
186,3,64,4,0.4739272892475128,0.14683155715465546
186,3,64,5,0.5038576722145081,0.1213911697268486
186,3,64,6,0.506553590297699,0.09449933469295502
186,3,64,7,0.5333575010299683,0.19498984515666962
186,3,64,8,0.3739807903766632,0.11784611642360687
186,3,64,9,0.41886016726493835,0.13624101877212524
186,3,64,10,0.5611682534217834,0.13013918697834015
186,3,64,11,0.42150843143463135,0.15962371230125427
186,3,64,12,0.38695865869522095,0.14749430119991302
186,3,64,13,0.4934585690498352,0.1064133495092392
186,3,64,14,0.5599005222320557,0.07654231786727905
186,3,64,15,0.3403816819190979,0.13136015832424164
186,3,64,16,0.5077168941497803,0.10872044414281845
186,3,64,17,0.4815714955329895,0.25465089082717896
186,3,64,18,0.3436339497566223,0.1754690259695053
186,3,64,19,0.6375038623809814,0.2266402244567871
186,3,64,20,0.3203696012496948,0.10866577923297882
186,3,64,21,0.3748317360877991,0.09105587750673294
186,3,64,22,0.5060954689979553,0.12987761199474335
186,3,64,23,0.6039517521858215,0.168294757604599
186,3,64,24,0.6118989586830139,0.19678446650505066
186,3,64,25,0.3466396927833557,0.1438787877559662
186,3,64,26,0.4196242392063141,0.14202681183815002
186,3,64,27,0.3972448408603668,0.09969039261341095
186,3,64,28,0.6323086023330688,0.22223448753356934
186,3,64,29,0.6014292240142822,0.08226741850376129
186,3,64,30,0.7138428092002869,0.13623151183128357
186,3,64,31,0.3231710195541382,0.11443142592906952
186,3,64,32,0.4666263461112976,0.06521863490343094
186,3,64,33,0.5922104120254517,0.13888785243034363
186,3,64,34,0.6135934591293335,0.0859958678483963
186,3,64,35,0.45611923933029175,0.2225651890039444
186,3,64,36,0.6062065362930298,0.07683083415031433
186,3,64,37,0.5220335125923157,0.1981753557920456
186,3,64,38,0.4885053336620331,0.1677822470664978
186,3,64,39,0.4936181604862213,0.1748645305633545
186,3,64,40,0.6454451680183411,0.08014672249555588
186,3,64,41,0.3760039806365967,0.14208316802978516
186,3,64,42,0.4030613601207733,0.10031265020370483
186,3,64,43,0.6691281795501709,0.1056099459528923
186,3,64,44,0.5987616777420044,0.1442769467830658
186,3,64,45,0.46302154660224915,0.17890910804271698
186,3,64,46,0.5487249493598938,0.09721317887306213
186,3,64,47,0.42667877674102783,0.056698571890592575
186,3,64,48,0.5413356423377991,0.13217973709106445
186,3,64,49,0.2548902928829193,0.11649994552135468
186,3,64,50,0.3187406361103058,0.13467180728912354
186,3,64,51,0.5262636542320251,0.23740991950035095
186,3,64,52,0.506635308265686,0.1149834617972374
186,3,64,53,0.4924265444278717,0.11857078224420547
186,3,64,54,0.4905179440975189,0.12104220688343048
186,3,64,55,0.6860319375991821,0.14876911044120789
186,3,64,56,0.6825296878814697,0.20342859625816345
186,3,64,57,0.3877861201763153,0.11216183006763458
186,3,64,58,0.6024951338768005,0.20745277404785156
186,3,64,59,0.43464329838752747,0.182981476187706
186,3,64,60,0.46416175365448,0.09539105743169785
186,3,64,61,0.5880531072616577,0.11651333421468735
186,3,64,62,0.44557228684425354,0.14508511126041412
186,3,64,63,0.4594177007675171,0.1901625394821167
186,4,128,0,0.5531156063079834,0.18286776542663574
186,4,128,1,0.5633960962295532,0.19141969084739685
186,4,128,2,0.4127902686595917,0.15308991074562073
186,4,128,3,0.41678187251091003,0.16042889654636383
186,4,128,4,0.47770634293556213,0.18971948325634003
186,4,128,5,0.4516774117946625,0.21022279560565948
186,4,128,6,0.5208316445350647,0.0840783417224884
186,4,128,7,0.6779201626777649,0.08275346457958221
186,4,128,8,0.6173572540283203,0.23859097063541412
186,4,128,9,0.4529421627521515,0.12490846961736679
186,4,128,10,0.4833541214466095,0.20968851447105408
186,4,128,11,0.45626524090766907,0.13868866860866547
186,4,128,12,0.43131959438323975,0.2413017600774765
186,4,128,13,0.6414421200752258,0.19645458459854126
186,4,128,14,0.6150264143943787,0.08972801268100739
186,4,128,15,0.430980920791626,0.11672138422727585
186,4,128,16,0.3827754259109497,0.18591347336769104
186,4,128,17,0.5985433459281921,0.15496820211410522
186,4,128,18,0.534319281578064,0.22743503749370575
186,4,128,19,0.6327232718467712,0.08278024941682816
186,4,128,20,0.5468355417251587,0.19299158453941345
186,4,128,21,0.4729367196559906,0.16171088814735413
186,4,128,22,0.5033719539642334,0.08797899633646011
186,4,128,23,0.5080351829528809,0.2357982099056244
186,4,128,24,0.42303624749183655,0.218051478266716
186,4,128,25,0.5015964508056641,0.2033988982439041
186,4,128,26,0.41466158628463745,0.14812803268432617
186,4,128,27,0.4615314304828644,0.14353787899017334
186,4,128,28,0.5780777335166931,0.08581668138504028
186,4,128,29,0.538791835308075,0.1770484894514084
186,4,128,30,0.5212735533714294,0.0687636062502861
186,4,128,31,0.5737867951393127,0.2510780990123749
186,4,128,32,0.4593474864959717,0.2078140825033188
186,4,128,33,0.5342879891395569,0.107426717877388
186,4,128,34,0.7618870735168457,0.1084403544664383
186,4,128,35,0.5392535924911499,0.1482098400592804
186,4,128,36,0.45486554503440857,0.18273821473121643
186,4,128,37,0.6244469285011292,0.09883031994104385
186,4,128,38,0.492134153842926,0.22711628675460815
186,4,128,39,0.5485017895698547,0.06649172306060791
186,4,128,40,0.6016791462898254,0.1246526762843132
186,4,128,41,0.6822121143341064,0.09406093508005142
186,4,128,42,0.6817220449447632,0.09902353584766388
186,4,128,43,0.4179554283618927,0.19822491705417633
186,4,128,44,0.47314220666885376,0.1858919858932495
186,4,128,45,0.6504936218261719,0.236618310213089
186,4,128,46,0.5546085238456726,0.21267947554588318
186,4,128,47,0.4875566363334656,0.2457040399312973
186,4,128,48,0.5800986886024475,0.2249666452407837
186,4,128,49,0.5409675240516663,0.282899409532547
186,4,128,50,0.4163464903831482,0.0804576501250267
186,4,128,51,0.5122714638710022,0.09258829802274704
186,4,128,52,0.5896196961402893,0.11925480514764786
186,4,128,53,0.5695013403892517,0.1287427842617035
186,4,128,54,0.515594482421875,0.17882533371448517
186,4,128,55,0.44620493054389954,0.2640761435031891
186,4,128,56,0.5081672668457031,0.09941627830266953
186,4,128,57,0.6914674639701843,0.12963691353797913
186,4,128,58,0.6988378763198853,0.08110653609037399
186,4,128,59,0.5739932060241699,0.11519080400466919
186,4,128,60,0.6322612166404724,0.2550220489501953
186,4,128,61,0.45286545157432556,0.23267295956611633
186,4,128,62,0.5287269353866577,0.13706867396831512
186,4,128,63,0.6026905179023743,0.22346381843090057
186,4,128,64,0.5114401578903198,0.23473894596099854
186,4,128,65,0.4290916919708252,0.1048627570271492
186,4,128,66,0.430629163980484,0.11625742167234421
186,4,128,67,0.46621450781822205,0.11476171761751175
186,4,128,68,0.46181973814964294,0.166203111410141
186,4,128,69,0.4510856568813324,0.18932278454303741
186,4,128,70,0.5583152770996094,0.1468154788017273
186,4,128,71,0.4521216154098511,0.13617223501205444
186,4,128,72,0.49170202016830444,0.17436055839061737
186,4,128,73,0.41698580980300903,0.22943861782550812
186,4,128,74,0.3879663050174713,0.18347087502479553
186,4,128,75,0.4773273766040802,0.1475975215435028
186,4,128,76,0.5646501183509827,0.13965074717998505
186,4,128,77,0.5518966317176819,0.2499919980764389
186,4,128,78,0.5068084001541138,0.09186853468418121
186,4,128,79,0.5386034846305847,0.1350424438714981
186,4,128,80,0.48048684000968933,0.15498057007789612
186,4,128,81,0.5125162601470947,0.1458287239074707
186,4,128,82,0.5639479756355286,0.2205338478088379
186,4,128,83,0.6151156425476074,0.21806637942790985
186,4,128,84,0.47302499413490295,0.12252906709909439
186,4,128,85,0.545580267906189,0.20260252058506012
186,4,128,86,0.5991445779800415,0.22245089709758759
186,4,128,87,0.5574216842651367,0.14666326344013214
186,4,128,88,0.5886318683624268,0.2846300005912781
186,4,128,89,0.4049493670463562,0.20312120020389557
186,4,128,90,0.49554750323295593,0.12431233376264572
186,4,128,91,0.5386660099029541,0.24531711637973785
186,4,128,92,0.49125105142593384,0.11824861913919449
186,4,128,93,0.39991042017936707,0.23468180000782013
186,4,128,94,0.5258051156997681,0.1035350039601326
186,4,128,95,0.5390158295631409,0.1555691957473755
186,4,128,96,0.49155813455581665,0.14602109789848328
186,4,128,97,0.5003989338874817,0.168448343873024
186,4,128,98,0.46077632904052734,0.18199166655540466
186,4,128,99,0.5730283856391907,0.18581001460552216
186,4,128,100,0.5128498673439026,0.10331610590219498
186,4,128,101,0.6265735030174255,0.25416016578674316
186,4,128,102,0.3359333574771881,0.09334743022918701
186,4,128,103,0.5231999754905701,0.26129773259162903
186,4,128,104,0.41867730021476746,0.18849079310894012
186,4,128,105,0.5722255706787109,0.18544475734233856
186,4,128,106,0.5574048161506653,0.10423604398965836
186,4,128,107,0.6810634732246399,0.08486407995223999
186,4,128,108,0.4249782860279083,0.15293921530246735
186,4,128,109,0.4681483209133148,0.18949107825756073
186,4,128,110,0.35885173082351685,0.16662533581256866
186,4,128,111,0.6086005568504333,0.22212553024291992
186,4,128,112,0.6854968070983887,0.10840830951929092
186,4,128,113,0.5724040269851685,0.07226645201444626
186,4,128,114,0.4700518548488617,0.09236475825309753
186,4,128,115,0.5328754782676697,0.22903470695018768
186,4,128,116,0.6804704070091248,0.15143141150474548
186,4,128,117,0.5714182257652283,0.2220202535390854
186,4,128,118,0.5380440950393677,0.20046837627887726
186,4,128,119,0.5789394974708557,0.18755605816841125
186,4,128,120,0.5705051422119141,0.1055389791727066
186,4,128,121,0.4997383952140808,0.19650474190711975
186,4,128,122,0.5851431488990784,0.08814586699008942
186,4,128,123,0.5750797390937805,0.11007779836654663
186,4,128,124,0.6025895476341248,0.07665188610553741
186,4,128,125,0.47709354758262634,0.08051779121160507
186,4,128,126,0.5837519764900208,0.16479575634002686
186,4,128,127,0.47947800159454346,0.15841557085514069
186,5,128,0,0.7506683468818665,0.1529960185289383
186,5,128,1,0.6159535050392151,0.11539027839899063
186,5,128,2,0.40641358494758606,0.27394017577171326
186,5,128,3,0.6770329475402832,0.113349050283432
186,5,128,4,0.6447062492370605,0.17104864120483398
186,5,128,5,0.48879823088645935,0.2570670247077942
186,5,128,6,0.5189059972763062,0.16593454778194427
186,5,128,7,0.46275845170021057,0.2444588989019394
186,5,128,8,0.6835902333259583,0.2030961662530899
186,5,128,9,0.4512139856815338,0.09982151538133621
186,5,128,10,0.611142635345459,0.11146628856658936
186,5,128,11,0.5956927537918091,0.24517495930194855
186,5,128,12,0.4549140930175781,0.26940521597862244
186,5,128,13,0.45422908663749695,0.20593474805355072
186,5,128,14,0.48145559430122375,0.19343869388103485
186,5,128,15,0.4083961844444275,0.2515513300895691
186,5,128,16,0.657291054725647,0.11934838443994522
186,5,128,17,0.4995657503604889,0.17658880352973938
186,5,128,18,0.610295832157135,0.036524269729852676
186,5,128,19,0.5637010335922241,0.11467058956623077
186,5,128,20,0.6276848912239075,0.12107734382152557
186,5,128,21,0.6677373051643372,0.1233881413936615
186,5,128,22,0.48428747057914734,0.07826193422079086
186,5,128,23,0.6478332281112671,0.23806540668010712
186,5,128,24,0.6818827986717224,0.10821779072284698
186,5,128,25,0.6821645498275757,0.08713333308696747
186,5,128,26,0.6532432436943054,0.11603188514709473
186,5,128,27,0.6660181879997253,0.2674947679042816
186,5,128,28,0.6528518199920654,0.13960307836532593
186,5,128,29,0.6413417458534241,0.13764189183712006
186,5,128,30,0.5040696263313293,0.19584950804710388
186,5,128,31,0.7424741983413696,0.13793356716632843
186,5,128,32,0.6260281801223755,0.1294410526752472
186,5,128,33,0.3742198944091797,0.12135360389947891
186,5,128,34,0.5715658068656921,0.1505809724330902
186,5,128,35,0.6649556756019592,0.2504488527774811
186,5,128,36,0.42872095108032227,0.29642996191978455
186,5,128,37,0.5711250305175781,0.16257768869400024
186,5,128,38,0.5448668003082275,0.1697635054588318
186,5,128,39,0.5942556262016296,0.11699726432561874
186,5,128,40,0.4715244174003601,0.12708528339862823
186,5,128,41,0.6890469789505005,0.10003123432397842
186,5,128,42,0.43704283237457275,0.12434723973274231
186,5,128,43,0.5525234937667847,0.14436094462871552
186,5,128,44,0.46000903844833374,0.0795648917555809
186,5,128,45,0.48402196168899536,0.07402629405260086
186,5,128,46,0.6375090479850769,0.1357615888118744
186,5,128,47,0.6170583367347717,0.20886053144931793
186,5,128,48,0.6009178757667542,0.0851825550198555
186,5,128,49,0.40790098905563354,0.12978798151016235
186,5,128,50,0.6817257404327393,0.13415518403053284
186,5,128,51,0.6768196225166321,0.13005688786506653
186,5,128,52,0.49663788080215454,0.1872805804014206
186,5,128,53,0.4826195240020752,0.13348856568336487
186,5,128,54,0.6183944344520569,0.10172786563634872
186,5,128,55,0.6193230152130127,0.12026409059762955
186,5,128,56,0.48801857233047485,0.07782445847988129
186,5,128,57,0.4918484687805176,0.24662025272846222
186,5,128,58,0.7018764615058899,0.0970049649477005
186,5,128,59,0.4273499846458435,0.08506495505571365
186,5,128,60,0.6928284764289856,0.15675896406173706
186,5,128,61,0.6736812591552734,0.11234341561794281
186,5,128,62,0.4786042273044586,0.14045503735542297
186,5,128,63,0.6305654644966125,0.31537607312202454
186,5,128,64,0.6982889175415039,0.14466677606105804
186,5,128,65,0.7058184146881104,0.12133009731769562
186,5,128,66,0.44061169028282166,0.2112487554550171
186,5,128,67,0.7503184676170349,0.13408583402633667
186,5,128,68,0.7660264372825623,0.12625017762184143
186,5,128,69,0.6087378859519958,0.15877193212509155
186,5,128,70,0.740445613861084,0.1514875590801239
186,5,128,71,0.6450573205947876,0.09460093826055527
186,5,128,72,0.503122091293335,0.1768447905778885
186,5,128,73,0.741694450378418,0.16739892959594727
186,5,128,74,0.42780691385269165,0.2101287990808487
186,5,128,75,0.40757817029953003,0.08880863338708878
186,5,128,76,0.5943261981010437,0.12959668040275574
186,5,128,77,0.6302756071090698,0.2787654399871826
186,5,128,78,0.6778447031974792,0.10718818753957748
186,5,128,79,0.580746591091156,0.2177325338125229
186,5,128,80,0.3925555944442749,0.2570660710334778
186,5,128,81,0.6826499700546265,0.12752452492713928
186,5,128,82,0.5849030613899231,0.2777441143989563
186,5,128,83,0.5955227017402649,0.16716906428337097
186,5,128,84,0.4510704576969147,0.21041056513786316
186,5,128,85,0.48238441348075867,0.10057743638753891
186,5,128,86,0.8069211840629578,0.1328425109386444
186,5,128,87,0.6122432947158813,0.3182554543018341
186,5,128,88,0.6835960745811462,0.110384501516819
186,5,128,89,0.615944504737854,0.15830974280834198
186,5,128,90,0.5890675783157349,0.3070758283138275
186,5,128,91,0.45186150074005127,0.2957153916358948
186,5,128,92,0.5811359882354736,0.2959248423576355
186,5,128,93,0.5486360788345337,0.17527537047863007
186,5,128,94,0.706254780292511,0.13464175164699554
186,5,128,95,0.35119637846946716,0.14045393466949463
186,5,128,96,0.6250113248825073,0.14293025434017181
186,5,128,97,0.3616179823875427,0.16094699501991272
186,5,128,98,0.6779882311820984,0.1411592662334442
186,5,128,99,0.7108110189437866,0.1302008330821991
186,5,128,100,0.662481427192688,0.14442689716815948
186,5,128,101,0.6082262396812439,0.07909619063138962
186,5,128,102,0.5666167736053467,0.13403847813606262
186,5,128,103,0.3413394093513489,0.13127268850803375
186,5,128,104,0.46358296275138855,0.12134303152561188
186,5,128,105,0.5408790111541748,0.11824815720319748
186,5,128,106,0.5921661257743835,0.08557214587926865
186,5,128,107,0.6999663710594177,0.09666816890239716
186,5,128,108,0.5507077574729919,0.15991821885108948
186,5,128,109,0.6804852485656738,0.1436292976140976
186,5,128,110,0.44352179765701294,0.1267995536327362
186,5,128,111,0.573569118976593,0.31238746643066406
186,5,128,112,0.4492970407009125,0.2590421438217163
186,5,128,113,0.5482194423675537,0.0799010843038559
186,5,128,114,0.6647163033485413,0.14931267499923706
186,5,128,115,0.47638362646102905,0.28129076957702637
186,5,128,116,0.8029639720916748,0.12526871263980865
186,5,128,117,0.6483659744262695,0.24474522471427917
186,5,128,118,0.5569834113121033,0.18325097858905792
186,5,128,119,0.6281195282936096,0.09949278831481934
186,5,128,120,0.6063352227210999,0.13120467960834503
186,5,128,121,0.6790956258773804,0.15026521682739258
186,5,128,122,0.5333191156387329,0.13332848250865936
186,5,128,123,0.6304917931556702,0.08507030457258224
186,5,128,124,0.6079512238502502,0.21268457174301147
186,5,128,125,0.6258670091629028,0.28937411308288574
186,5,128,126,0.6789900064468384,0.13335008919239044
186,5,128,127,0.7433141469955444,0.12861178815364838
188,0,32,0,0.5840879678726196,0.06663841754198074
188,0,32,1,0.3650423288345337,0.04709469899535179
188,0,32,2,0.6012595891952515,0.06920970976352692
188,0,32,3,0.5076740980148315,0.09113512188196182
188,0,32,4,0.5492495894432068,0.019957775250077248
188,0,32,5,0.5147757530212402,0.08626797050237656
188,0,32,6,0.40174925327301025,0.04389873147010803
188,0,32,7,0.5882886052131653,0.03519202396273613
188,0,32,8,0.3985767662525177,0.028162110596895218
188,0,32,9,0.443815141916275,0.0711919441819191
188,0,32,10,0.550700306892395,0.08060429245233536
188,0,32,11,0.5342985987663269,0.039527200162410736
188,0,32,12,0.46790993213653564,0.08256008476018906
188,0,32,13,0.5646848678588867,0.05515611916780472
188,0,32,14,0.5041729807853699,0.05681116506457329
188,0,32,15,0.3980353772640228,0.02847670577466488
188,0,32,16,0.49823033809661865,0.03513428196310997
188,0,32,17,0.4141339659690857,0.02906974032521248
188,0,32,18,0.5285710096359253,0.04565880075097084
188,0,32,19,0.47901034355163574,0.04130050539970398
188,0,32,20,0.6218333840370178,0.04130521044135094
188,0,32,21,0.46410608291625977,0.04152167961001396
188,0,32,22,0.4809418320655823,0.043787550181150436
188,0,32,23,0.4314815402030945,0.0579872727394104
188,0,32,24,0.5430459380149841,0.059730783104896545
188,0,32,25,0.6149137020111084,0.07842341810464859
188,0,32,26,0.5340659022331238,0.03448733314871788
188,0,32,27,0.5567114353179932,0.07107941061258316
188,0,32,28,0.502829372882843,0.055051643401384354
188,0,32,29,0.5114237666130066,0.058811575174331665
188,0,32,30,0.38548484444618225,0.045371636748313904
188,0,32,31,0.4981772005558014,0.07203683257102966
188,1,32,0,0.3826223611831665,0.09321283549070358
188,1,32,1,0.5834028124809265,0.06062118709087372
188,1,32,2,0.6863126754760742,0.07097315788269043
188,1,32,3,0.5118767023086548,0.08305435627698898
188,1,32,4,0.565107524394989,0.06197088211774826
188,1,32,5,0.5289646983146667,0.03439144045114517
188,1,32,6,0.5572936534881592,0.05537382513284683
188,1,32,7,0.46040016412734985,0.10364217311143875
188,1,32,8,0.4117148518562317,0.04606971889734268
188,1,32,9,0.43356090784072876,0.07362893968820572
188,1,32,10,0.5071724653244019,0.06734657287597656
188,1,32,11,0.5590153336524963,0.04931160807609558
188,1,32,12,0.6042901277542114,0.0716351792216301
188,1,32,13,0.5977727770805359,0.08986929059028625
188,1,32,14,0.5048410892486572,0.06543806195259094
188,1,32,15,0.5473860502243042,0.09856194257736206
188,1,32,16,0.43027928471565247,0.10199683159589767
188,1,32,17,0.3407898545265198,0.08027030527591705
188,1,32,18,0.5764022469520569,0.05871608853340149
188,1,32,19,0.4418197274208069,0.0827157124876976
188,1,32,20,0.5708610415458679,0.06268156319856644
188,1,32,21,0.44235682487487793,0.11203349381685257
188,1,32,22,0.38846638798713684,0.09778888523578644
188,1,32,23,0.48893648386001587,0.06100304424762726
188,1,32,24,0.3979131579399109,0.07140307128429413
188,1,32,25,0.5453171133995056,0.0648009181022644
188,1,32,26,0.5514775514602661,0.11940828710794449
188,1,32,27,0.5650294423103333,0.06852822750806808
188,1,32,28,0.46511244773864746,0.08093393594026566
188,1,32,29,0.4867733120918274,0.07481888681650162
188,1,32,30,0.5449051856994629,0.07199659198522568
188,1,32,31,0.4259152412414551,0.1054442822933197
188,2,64,0,0.5641751885414124,0.06421303749084473
188,2,64,1,0.5047863721847534,0.09534334391355515
188,2,64,2,0.4613340198993683,0.15034916996955872
188,2,64,3,0.5578946471214294,0.06053072214126587
188,2,64,4,0.42785176634788513,0.07936910539865494
188,2,64,5,0.4719448387622833,0.1403171271085739
188,2,64,6,0.4554294943809509,0.1567709743976593
188,2,64,7,0.4207586646080017,0.14563864469528198
188,2,64,8,0.5306396484375,0.08251403272151947
188,2,64,9,0.4155207574367523,0.09555744379758835
188,2,64,10,0.368049293756485,0.10332965850830078
188,2,64,11,0.4575747847557068,0.03777261823415756
188,2,64,12,0.4948166012763977,0.06352397799491882
188,2,64,13,0.570483922958374,0.12543658912181854
188,2,64,14,0.6062669157981873,0.03767642378807068
188,2,64,15,0.49564364552497864,0.1387788951396942
188,2,64,16,0.4855646789073944,0.10532985627651215
188,2,64,17,0.3528527319431305,0.07295369356870651
188,2,64,18,0.553350567817688,0.13211269676685333
188,2,64,19,0.5496437549591064,0.10768839716911316
188,2,64,20,0.5589413642883301,0.06665899604558945
188,2,64,21,0.5588011145591736,0.1235763356089592
188,2,64,22,0.5708485841751099,0.11049701273441315
188,2,64,23,0.5746820569038391,0.09522418677806854
188,2,64,24,0.5206689834594727,0.12891876697540283
188,2,64,25,0.5382291674613953,0.060491230338811874
188,2,64,26,0.5566245913505554,0.12826912105083466
188,2,64,27,0.38805675506591797,0.06519164890050888
188,2,64,28,0.5117596387863159,0.15054473280906677
188,2,64,29,0.5005466341972351,0.0692090392112732
188,2,64,30,0.43581607937812805,0.07793798297643661
188,2,64,31,0.4450019299983978,0.0744209736585617
188,2,64,32,0.4555378556251526,0.07762562483549118
188,2,64,33,0.5591088533401489,0.038833122700452805
188,2,64,34,0.4851343333721161,0.13312289118766785
188,2,64,35,0.6343191862106323,0.1707746833562851
188,2,64,36,0.4687211811542511,0.09793258458375931
188,2,64,37,0.3978603780269623,0.09607277065515518
188,2,64,38,0.4324398338794708,0.08476751297712326
188,2,64,39,0.4407978951931,0.08133536577224731
188,2,64,40,0.44299787282943726,0.0985695868730545
188,2,64,41,0.4020366072654724,0.10819718986749649
188,2,64,42,0.496726930141449,0.06009293347597122
188,2,64,43,0.42309466004371643,0.10000327974557877
188,2,64,44,0.42062926292419434,0.13540518283843994
188,2,64,45,0.5150087475776672,0.14620254933834076
188,2,64,46,0.5497819781303406,0.10966764390468597
188,2,64,47,0.36045923829078674,0.0587238073348999
188,2,64,48,0.507789134979248,0.13351647555828094
188,2,64,49,0.5131086707115173,0.1488465815782547
188,2,64,50,0.38344505429267883,0.11618074029684067
188,2,64,51,0.44413623213768005,0.071343332529068
188,2,64,52,0.4743541181087494,0.09044992178678513
188,2,64,53,0.5789637565612793,0.10048972070217133
188,2,64,54,0.4859493672847748,0.11642033606767654
188,2,64,55,0.5049864649772644,0.1430748999118805
188,2,64,56,0.5089345574378967,0.07651042938232422
188,2,64,57,0.5132843852043152,0.09966543316841125
188,2,64,58,0.5663263201713562,0.09200656414031982
188,2,64,59,0.45933234691619873,0.07440831512212753
188,2,64,60,0.5061098337173462,0.14495182037353516
188,2,64,61,0.5377855896949768,0.11238722503185272
188,2,64,62,0.6073781251907349,0.1353423297405243
188,2,64,63,0.4023180305957794,0.10623008757829666
188,3,64,0,0.45917388796806335,0.04513931646943092
188,3,64,1,0.42694950103759766,0.09819896519184113
188,3,64,2,0.4190369248390198,0.12903879582881927
188,3,64,3,0.6210169792175293,0.1032969281077385
188,3,64,4,0.4508458077907562,0.07395615428686142
188,3,64,5,0.5029767155647278,0.04292522370815277
188,3,64,6,0.5387664437294006,0.09646309912204742
188,3,64,7,0.40495792031288147,0.03753788769245148
188,3,64,8,0.479093074798584,0.03065563179552555
188,3,64,9,0.4923778772354126,0.0703473836183548
188,3,64,10,0.4829254150390625,0.09606534987688065
188,3,64,11,0.44513916969299316,0.09369496256113052
188,3,64,12,0.46405863761901855,0.05271843075752258
188,3,64,13,0.5889331698417664,0.07292286306619644
188,3,64,14,0.5025697946548462,0.05891582369804382
188,3,64,15,0.47970548272132874,0.07857221364974976
188,3,64,16,0.5354573130607605,0.07364357262849808
188,3,64,17,0.4727909564971924,0.0814049169421196
188,3,64,18,0.32639655470848083,0.05750725790858269
188,3,64,19,0.4662920832633972,0.11443670839071274
188,3,64,20,0.5855711698532104,0.05577243119478226
188,3,64,21,0.37973642349243164,0.0991348847746849
188,3,64,22,0.31048810482025146,0.16204200685024261
188,3,64,23,0.5477380156517029,0.08915330469608307
188,3,64,24,0.3767394721508026,0.11349421739578247
188,3,64,25,0.6193556189537048,0.11661678552627563
188,3,64,26,0.43281289935112,0.032393261790275574
188,3,64,27,0.6066941618919373,0.032389115542173386
188,3,64,28,0.6740471124649048,0.09687516838312149
188,3,64,29,0.5073731541633606,0.09058596938848495
188,3,64,30,0.5123715400695801,0.05906632915139198
188,3,64,31,0.5164881348609924,0.09841962903738022
188,3,64,32,0.48128509521484375,0.03238065540790558
188,3,64,33,0.3615894019603729,0.05855056643486023
188,3,64,34,0.6221761107444763,0.09583510458469391
188,3,64,35,0.3104794919490814,0.09577636420726776
188,3,64,36,0.6453746557235718,0.0606721006333828
188,3,64,37,0.3390211760997772,0.11434504389762878
188,3,64,38,0.34148138761520386,0.09427670389413834
188,3,64,39,0.6183493137359619,0.06551418453454971
188,3,64,40,0.5355231761932373,0.03428841754794121
188,3,64,41,0.48613712191581726,0.044944878667593
188,3,64,42,0.6569121479988098,0.06915313750505447
188,3,64,43,0.5496706962585449,0.053061578422784805
188,3,64,44,0.4381939172744751,0.0417020320892334
188,3,64,45,0.5420159697532654,0.11577005684375763
188,3,64,46,0.5961174964904785,0.029309222474694252
188,3,64,47,0.27522367238998413,0.10118924826383591
188,3,64,48,0.43001529574394226,0.09203971177339554
188,3,64,49,0.5636150240898132,0.07040511816740036
188,3,64,50,0.5267122983932495,0.055191971361637115
188,3,64,51,0.5049116611480713,0.07618188858032227
188,3,64,52,0.612092912197113,0.10075294226408005
188,3,64,53,0.505509614944458,0.09614244103431702
188,3,64,54,0.6317731738090515,0.05583157390356064
188,3,64,55,0.42039406299591064,0.07712949812412262
188,3,64,56,0.3383108675479889,0.15942446887493134
188,3,64,57,0.5406332612037659,0.026176245883107185
188,3,64,58,0.45469269156455994,0.054495152086019516
188,3,64,59,0.4692186117172241,0.047018807381391525
188,3,64,60,0.5853661894798279,0.09583466500043869
188,3,64,61,0.6407010555267334,0.11485413461923599
188,3,64,62,0.5119133591651917,0.10434510558843613
188,3,64,63,0.3746357262134552,0.0695028007030487
188,4,128,0,0.601444661617279,0.14564402401447296
188,4,128,1,0.39430469274520874,0.09947187453508377
188,4,128,2,0.6206365823745728,0.115965835750103
188,4,128,3,0.5410425066947937,0.1950470507144928
188,4,128,4,0.4690978229045868,0.07765846699476242
188,4,128,5,0.491992712020874,0.1879306584596634
188,4,128,6,0.38438722491264343,0.1245400682091713
188,4,128,7,0.5397859215736389,0.14625588059425354
188,4,128,8,0.667595624923706,0.11668424308300018
188,4,128,9,0.31436780095100403,0.10949615389108658
188,4,128,10,0.618065595626831,0.12472136318683624
188,4,128,11,0.3869149684906006,0.10327684134244919
188,4,128,12,0.576624870300293,0.192984476685524
188,4,128,13,0.43755242228507996,0.17734691500663757
188,4,128,14,0.42856478691101074,0.051951028406620026
188,4,128,15,0.5039605498313904,0.3059115707874298
188,4,128,16,0.4072302579879761,0.09844547510147095
188,4,128,17,0.5556232929229736,0.09896738082170486
188,4,128,18,0.3774246573448181,0.19314979016780853
188,4,128,19,0.545860767364502,0.2646729350090027
188,4,128,20,0.5887622237205505,0.17597776651382446
188,4,128,21,0.5174424648284912,0.20682694017887115
188,4,128,22,0.7065235376358032,0.09799384325742722
188,4,128,23,0.5275113582611084,0.1638951152563095
188,4,128,24,0.4290924668312073,0.13879413902759552
188,4,128,25,0.4183780550956726,0.11320272833108902
188,4,128,26,0.35784509778022766,0.09123838692903519
188,4,128,27,0.4982044994831085,0.05591372773051262
188,4,128,28,0.6363511681556702,0.06846076995134354
188,4,128,29,0.42991071939468384,0.22560571134090424
188,4,128,30,0.5330287218093872,0.17393098771572113
188,4,128,31,0.669787585735321,0.09745689481496811
188,4,128,32,0.49055731296539307,0.125905379652977
188,4,128,33,0.4314306378364563,0.18084071576595306
188,4,128,34,0.5867056250572205,0.1309961974620819
188,4,128,35,0.31792575120925903,0.1341407597064972
188,4,128,36,0.5369052290916443,0.08446396142244339
188,4,128,37,0.6994617581367493,0.08138830214738846
188,4,128,38,0.45243871212005615,0.050556622445583344
188,4,128,39,0.5175015926361084,0.17303283512592316
188,4,128,40,0.6092653870582581,0.07323753088712692
188,4,128,41,0.5602294206619263,0.05028500035405159
188,4,128,42,0.6240246295928955,0.07876966893672943
188,4,128,43,0.5043070912361145,0.31776994466781616
188,4,128,44,0.5673076510429382,0.07688053697347641
188,4,128,45,0.5872951745986938,0.10319054126739502
188,4,128,46,0.585590124130249,0.06469575315713882
188,4,128,47,0.5995878577232361,0.1065112054347992
188,4,128,48,0.6397659778594971,0.07826227694749832
188,4,128,49,0.3973931074142456,0.08497460186481476
188,4,128,50,0.4195956587791443,0.09655611962080002
188,4,128,51,0.4855843186378479,0.16385352611541748
188,4,128,52,0.5371884107589722,0.09881976246833801
188,4,128,53,0.4055851995944977,0.12500324845314026
188,4,128,54,0.45432791113853455,0.10651341080665588
188,4,128,55,0.526748776435852,0.0941113531589508
188,4,128,56,0.5300810933113098,0.2547309696674347
188,4,128,57,0.30868789553642273,0.10458588600158691
188,4,128,58,0.45506370067596436,0.10409510135650635
188,4,128,59,0.46725955605506897,0.1352885663509369
188,4,128,60,0.572491466999054,0.09847937524318695
188,4,128,61,0.6954297423362732,0.19187626242637634
188,4,128,62,0.5407285094261169,0.25322532653808594
188,4,128,63,0.5888105034828186,0.03835953399538994
188,4,128,64,0.44432225823402405,0.12215027213096619
188,4,128,65,0.48771193623542786,0.04230916127562523
188,4,128,66,0.6641433238983154,0.11843317747116089
188,4,128,67,0.42049336433410645,0.15664838254451752
188,4,128,68,0.35186585783958435,0.1288973093032837
188,4,128,69,0.6491180062294006,0.12354030460119247
188,4,128,70,0.4487046003341675,0.17911185324192047
188,4,128,71,0.5234216451644897,0.22227562963962555
188,4,128,72,0.5825398564338684,0.1429693102836609
188,4,128,73,0.5525557398796082,0.08757717907428741
188,4,128,74,0.4427831768989563,0.13499349355697632
188,4,128,75,0.6567938327789307,0.1822623759508133
188,4,128,76,0.5983877182006836,0.10557946562767029
188,4,128,77,0.3902978003025055,0.059291109442710876
188,4,128,78,0.6013147830963135,0.07848557084798813
188,4,128,79,0.5134148001670837,0.12132769823074341
188,4,128,80,0.5743395090103149,0.10801537334918976
188,4,128,81,0.34985774755477905,0.10742172598838806
188,4,128,82,0.6016931533813477,0.07616140693426132
188,4,128,83,0.5470111966133118,0.09455891698598862
188,4,128,84,0.578809380531311,0.11796066164970398
188,4,128,85,0.4560668468475342,0.1518355756998062
188,4,128,86,0.4294753968715668,0.14076389372348785
188,4,128,87,0.5607938170433044,0.11795824766159058
188,4,128,88,0.3670025169849396,0.10853315889835358
188,4,128,89,0.5012103319168091,0.13357484340667725
188,4,128,90,0.6560801267623901,0.05973762273788452
188,4,128,91,0.5107030272483826,0.15955956280231476
188,4,128,92,0.43627193570137024,0.1428479254245758
188,4,128,93,0.4729793667793274,0.056733954697847366
188,4,128,94,0.4864760637283325,0.06937837600708008
188,4,128,95,0.5399077534675598,0.046223338693380356
188,4,128,96,0.5081896781921387,0.28530454635620117
188,4,128,97,0.5441633462905884,0.11152320355176926
188,4,128,98,0.4620759189128876,0.07741228491067886
188,4,128,99,0.5004608631134033,0.11772740632295609
188,4,128,100,0.643146276473999,0.08941102027893066
188,4,128,101,0.512991189956665,0.13713385164737701
188,4,128,102,0.6612842679023743,0.11712624132633209
188,4,128,103,0.5071236491203308,0.1848241537809372
188,4,128,104,0.5473569631576538,0.12698785960674286
188,4,128,105,0.5090649127960205,0.20085769891738892
188,4,128,106,0.4514826834201813,0.12149499356746674
188,4,128,107,0.49778810143470764,0.18884295225143433
188,4,128,108,0.4721359312534332,0.19475218653678894
188,4,128,109,0.5206035375595093,0.30781984329223633
188,4,128,110,0.44477903842926025,0.22344310581684113
188,4,128,111,0.3771745264530182,0.0962410643696785
188,4,128,112,0.5250905156135559,0.2176283746957779
188,4,128,113,0.3808080852031708,0.13290223479270935
188,4,128,114,0.5567883253097534,0.11623857170343399
188,4,128,115,0.672534704208374,0.06415984034538269
188,4,128,116,0.6902869343757629,0.12735411524772644
188,4,128,117,0.4824795722961426,0.08847704529762268
188,4,128,118,0.5460593700408936,0.1969299167394638
188,4,128,119,0.5615322589874268,0.05712180584669113
188,4,128,120,0.684258759021759,0.06747563928365707
188,4,128,121,0.40893062949180603,0.2165125161409378
188,4,128,122,0.5457044243812561,0.10735531896352768
188,4,128,123,0.4392447769641876,0.08550139516592026
188,4,128,124,0.46828460693359375,0.09393513947725296
188,4,128,125,0.34932804107666016,0.10837441682815552
188,4,128,126,0.4818718731403351,0.16198481619358063
188,4,128,127,0.5742513537406921,0.15822499990463257
188,5,128,0,0.40501487255096436,0.056288886815309525
188,5,128,1,0.5489118099212646,0.03571467846632004
188,5,128,2,0.4056713283061981,0.09789839386940002
188,5,128,3,0.5550797581672668,0.05061296746134758
188,5,128,4,0.573275625705719,0.041886668652296066
188,5,128,5,0.5396228432655334,0.06853113323450089
188,5,128,6,0.6086989641189575,0.07835935801267624
188,5,128,7,0.5264919400215149,0.03790022432804108
188,5,128,8,0.5805476903915405,0.09052088111639023
188,5,128,9,0.5202608108520508,0.06626752018928528
188,5,128,10,0.5489432215690613,0.023704614490270615
188,5,128,11,0.5531439185142517,0.13615159690380096
188,5,128,12,0.3905417025089264,0.12993481755256653
188,5,128,13,0.360323965549469,0.11941590905189514
188,5,128,14,0.5870059728622437,0.07332730293273926
188,5,128,15,0.6755430698394775,0.12208705395460129
188,5,128,16,0.5990277528762817,0.11777950078248978
188,5,128,17,0.5362781882286072,0.05403079092502594
188,5,128,18,0.5687421560287476,0.04689104110002518
188,5,128,19,0.5931867361068726,0.10757555067539215
188,5,128,20,0.6295052170753479,0.08192230015993118
188,5,128,21,0.5875570774078369,0.04456750676035881
188,5,128,22,0.5103617906570435,0.06244305893778801
188,5,128,23,0.5761381387710571,0.07236535847187042
188,5,128,24,0.5435180068016052,0.07871288806200027
188,5,128,25,0.49875208735466003,0.03578054532408714
188,5,128,26,0.45735201239585876,0.054649367928504944
188,5,128,27,0.46618738770484924,0.05763566866517067
188,5,128,28,0.5539104342460632,0.07216954231262207
188,5,128,29,0.7015728950500488,0.10981736332178116
188,5,128,30,0.6142803430557251,0.10755562037229538
188,5,128,31,0.5820310711860657,0.057707034051418304
188,5,128,32,0.5385525822639465,0.06399257481098175
188,5,128,33,0.4756259620189667,0.07286124676465988
188,5,128,34,0.45197999477386475,0.13794945180416107
188,5,128,35,0.5426416397094727,0.05438245087862015
188,5,128,36,0.36899781227111816,0.09706659615039825
188,5,128,37,0.49968233704566956,0.029982268810272217
188,5,128,38,0.6250424981117249,0.06097830832004547
188,5,128,39,0.5174538493156433,0.05128099396824837
188,5,128,40,0.5932455658912659,0.11271210759878159
188,5,128,41,0.532378077507019,0.034116435796022415
188,5,128,42,0.5603921413421631,0.09684065729379654
188,5,128,43,0.5151389837265015,0.028055567294359207
188,5,128,44,0.5192421674728394,0.06021320819854736
188,5,128,45,0.5030368566513062,0.04963919520378113
188,5,128,46,0.5810479521751404,0.0692124217748642
188,5,128,47,0.46913856267929077,0.08191553503274918
188,5,128,48,0.511789083480835,0.03706907853484154
188,5,128,49,0.6944524645805359,0.11392302066087723
188,5,128,50,0.4289371371269226,0.06788323819637299
188,5,128,51,0.3836022913455963,0.10875341296195984
188,5,128,52,0.6282941699028015,0.10139605402946472
188,5,128,53,0.6130526661872864,0.06329598277807236
188,5,128,54,0.4995763301849365,0.04489028453826904
188,5,128,55,0.4536935091018677,0.03249431028962135
188,5,128,56,0.7074408531188965,0.11542011797428131
188,5,128,57,0.4938761293888092,0.03610960766673088
188,5,128,58,0.4305173456668854,0.049120426177978516
188,5,128,59,0.47190579771995544,0.07524153590202332
188,5,128,60,0.4435665011405945,0.08376022428274155
188,5,128,61,0.5442861914634705,0.03335922211408615
188,5,128,62,0.6069307327270508,0.09332214295864105
188,5,128,63,0.5615328550338745,0.10888095200061798
188,5,128,64,0.5857738256454468,0.08672910928726196
188,5,128,65,0.4519221782684326,0.07600747048854828
188,5,128,66,0.4596131145954132,0.07790984213352203
188,5,128,67,0.4572644531726837,0.057320624589920044
188,5,128,68,0.48077306151390076,0.07626304775476456
188,5,128,69,0.4651339650154114,0.10077546536922455
188,5,128,70,0.5496823787689209,0.07578602433204651
188,5,128,71,0.6529943943023682,0.10074547678232193
188,5,128,72,0.5094666481018066,0.08874119073152542
188,5,128,73,0.5280922651290894,0.06946926563978195
188,5,128,74,0.4600880444049835,0.12133483588695526
188,5,128,75,0.6792720556259155,0.09644550830125809
188,5,128,76,0.5152633786201477,0.0835290178656578
188,5,128,77,0.5175776481628418,0.10430908203125
188,5,128,78,0.6024143099784851,0.06884952634572983
188,5,128,79,0.5121832489967346,0.042992908507585526
188,5,128,80,0.45266109704971313,0.07924005389213562
188,5,128,81,0.5402048230171204,0.0352143794298172
188,5,128,82,0.48212528228759766,0.03444726765155792
188,5,128,83,0.5805750489234924,0.07266748696565628
188,5,128,84,0.586152970790863,0.05750123783946037
188,5,128,85,0.406277596950531,0.06595209985971451
188,5,128,86,0.531274139881134,0.029384635388851166
188,5,128,87,0.46407565474510193,0.09095878899097443
188,5,128,88,0.6233665943145752,0.11360804736614227
188,5,128,89,0.6173800230026245,0.11204854398965836
188,5,128,90,0.4663701057434082,0.07275334000587463
188,5,128,91,0.4244012236595154,0.06126025691628456
188,5,128,92,0.588118314743042,0.07478261739015579
188,5,128,93,0.4998176097869873,0.05511247739195824
188,5,128,94,0.5659798979759216,0.03724805638194084
188,5,128,95,0.48347997665405273,0.03777404502034187
188,5,128,96,0.6116068959236145,0.1022125855088234
188,5,128,97,0.4674358665943146,0.09167929738759995
188,5,128,98,0.4373713433742523,0.08250229805707932
188,5,128,99,0.5916453003883362,0.06833825260400772
188,5,128,100,0.41480639576911926,0.05488768219947815
188,5,128,101,0.48301786184310913,0.05501749739050865
188,5,128,102,0.6222674250602722,0.09923488646745682
188,5,128,103,0.6121123433113098,0.06584973633289337
188,5,128,104,0.42898693680763245,0.049589429050683975
188,5,128,105,0.4915951192378998,0.04508984461426735
188,5,128,106,0.44776374101638794,0.06368615478277206
188,5,128,107,0.40561163425445557,0.04384594410657883
188,5,128,108,0.5905683636665344,0.05851885676383972
188,5,128,109,0.5368726253509521,0.0563291572034359
188,5,128,110,0.692328155040741,0.10447127372026443
188,5,128,111,0.5691414475440979,0.04217524453997612
188,5,128,112,0.5708959102630615,0.09134900569915771
188,5,128,113,0.6341753005981445,0.10061245411634445
188,5,128,114,0.47578004002571106,0.0390685498714447
188,5,128,115,0.6389365196228027,0.12182272225618362
188,5,128,116,0.5762723684310913,0.08530136197805405
188,5,128,117,0.5214312076568604,0.05481880530714989
188,5,128,118,0.6565096378326416,0.12704049050807953
188,5,128,119,0.7034760117530823,0.09438710659742355
188,5,128,120,0.4799025356769562,0.03583735227584839
188,5,128,121,0.6169459819793701,0.10232094675302505
188,5,128,122,0.6649706959724426,0.09312957525253296
188,5,128,123,0.44793570041656494,0.10547424107789993
188,5,128,124,0.6129189133644104,0.10773322731256485
188,5,128,125,0.6272026896476746,0.09423237293958664
188,5,128,126,0.5100761651992798,0.05674266442656517
188,5,128,127,0.4837908446788788,0.10145610570907593
189,0,32,0,0.47170352935791016,0.09841486811637878
189,0,32,1,0.42997637391090393,0.1754620522260666
189,0,32,2,0.4600771367549896,0.13388526439666748
189,0,32,3,0.6207240223884583,0.18106627464294434
189,0,32,4,0.40232783555984497,0.09876526892185211
189,0,32,5,0.4756610095500946,0.09489007294178009
189,0,32,6,0.6347125768661499,0.13718464970588684
189,0,32,7,0.5525940656661987,0.08651428669691086
189,0,32,8,0.5948114991188049,0.09520670771598816
189,0,32,9,0.3960896134376526,0.1169949620962143
189,0,32,10,0.3988354206085205,0.09151104092597961
189,0,32,11,0.600536048412323,0.06427888572216034
189,0,32,12,0.541353166103363,0.15036091208457947
189,0,32,13,0.5053803324699402,0.14746829867362976
189,0,32,14,0.38514605164527893,0.12684175372123718
189,0,32,15,0.5400105714797974,0.1525980532169342
189,0,32,16,0.5662614107131958,0.07101303339004517
189,0,32,17,0.34473955631256104,0.07897180318832397
189,0,32,18,0.48676761984825134,0.06201391667127609
189,0,32,19,0.3885267674922943,0.11705774068832397
189,0,32,20,0.4307348430156708,0.14041352272033691
189,0,32,21,0.48249226808547974,0.1408664584159851
189,0,32,22,0.4660088121891022,0.10357586294412613
189,0,32,23,0.5842307806015015,0.12256969511508942
189,0,32,24,0.3778376579284668,0.13467174768447876
189,0,32,25,0.37409767508506775,0.09250899404287338
189,0,32,26,0.6552942991256714,0.11979327350854874
189,0,32,27,0.42823734879493713,0.18418802320957184
189,0,32,28,0.5490574836730957,0.0732445940375328
189,0,32,29,0.5888252258300781,0.23059502243995667
189,0,32,30,0.5553889274597168,0.06144603341817856
189,0,32,31,0.45618024468421936,0.06047555431723595
189,1,32,0,0.44547104835510254,0.13630762696266174
189,1,32,1,0.3539237976074219,0.09289547055959702
189,1,32,2,0.4968280494213104,0.10870704054832458
189,1,32,3,0.6307284235954285,0.10445024073123932
189,1,32,4,0.4101664423942566,0.12575118243694305
189,1,32,5,0.5499880909919739,0.07845427840948105
189,1,32,6,0.6268283724784851,0.09834091365337372
189,1,32,7,0.6479830145835876,0.09227940440177917
189,1,32,8,0.533306896686554,0.05460725352168083
189,1,32,9,0.5800601840019226,0.04187403991818428
189,1,32,10,0.45039090514183044,0.07568316906690598
189,1,32,11,0.4775387644767761,0.16173268854618073
189,1,32,12,0.3584711253643036,0.12190397083759308
189,1,32,13,0.3596562147140503,0.07980163395404816
189,1,32,14,0.35944345593452454,0.08962007611989975
189,1,32,15,0.5468877553939819,0.08716072887182236
189,1,32,16,0.4579319655895233,0.11089707165956497
189,1,32,17,0.5638676881790161,0.11259164661169052
189,1,32,18,0.5406852960586548,0.06863586604595184
189,1,32,19,0.4337276816368103,0.04480396583676338
189,1,32,20,0.43362483382225037,0.09169255942106247
189,1,32,21,0.45124590396881104,0.15599828958511353
189,1,32,22,0.3914835751056671,0.110556960105896
189,1,32,23,0.5045866370201111,0.13489744067192078
189,1,32,24,0.5322163105010986,0.08823898434638977
189,1,32,25,0.46591734886169434,0.09541729837656021
189,1,32,26,0.4740803837776184,0.0838814526796341
189,1,32,27,0.48665034770965576,0.1459963619709015
189,1,32,28,0.35927799344062805,0.09835972636938095
189,1,32,29,0.3619961142539978,0.15642020106315613
189,1,32,30,0.32273292541503906,0.10700584203004837
189,1,32,31,0.44586580991744995,0.18373331427574158
189,2,64,0,0.7626237273216248,0.12438943982124329
189,2,64,1,0.5867140293121338,0.2451508492231369
189,2,64,2,0.42868632078170776,0.14383020997047424
189,2,64,3,0.5947250127792358,0.13284832239151
189,2,64,4,0.4690541625022888,0.19493365287780762
189,2,64,5,0.4058290719985962,0.10076092928647995
189,2,64,6,0.4431869089603424,0.1353892832994461
189,2,64,7,0.555337131023407,0.1508210301399231
189,2,64,8,0.5407998561859131,0.18416425585746765
189,2,64,9,0.42944812774658203,0.14138038456439972
189,2,64,10,0.3771205246448517,0.14886648952960968
189,2,64,11,0.5557194352149963,0.07100406289100647
189,2,64,12,0.5372937917709351,0.05711156502366066
189,2,64,13,0.470438688993454,0.10662540048360825
189,2,64,14,0.34429553151130676,0.061555106192827225
189,2,64,15,0.4120267331600189,0.283938467502594
189,2,64,16,0.3692719638347626,0.1589331030845642
189,2,64,17,0.46036601066589355,0.12692727148532867
189,2,64,18,0.5305182933807373,0.2837434411048889
189,2,64,19,0.5405593514442444,0.1754322201013565
189,2,64,20,0.6717007756233215,0.10468557476997375
189,2,64,21,0.4081602990627289,0.18795083463191986
189,2,64,22,0.5962506532669067,0.13560821115970612
189,2,64,23,0.2342512607574463,0.11294804513454437
189,2,64,24,0.3981051445007324,0.16257187724113464
189,2,64,25,0.5579728484153748,0.11369242519140244
189,2,64,26,0.38652145862579346,0.16437938809394836
189,2,64,27,0.4829447567462921,0.10528111457824707
189,2,64,28,0.49373310804367065,0.18143853545188904
189,2,64,29,0.5300512313842773,0.19013039767742157
189,2,64,30,0.4595336616039276,0.20501171052455902
189,2,64,31,0.543316125869751,0.24110519886016846
189,2,64,32,0.5502809286117554,0.15226209163665771
189,2,64,33,0.4395321011543274,0.1447337120771408
189,2,64,34,0.45563143491744995,0.1164577305316925
189,2,64,35,0.38108181953430176,0.12899193167686462
189,2,64,36,0.5151441097259521,0.26040786504745483
189,2,64,37,0.5615358352661133,0.15499569475650787
189,2,64,38,0.39505964517593384,0.25735557079315186
189,2,64,39,0.5100417733192444,0.04843234643340111
189,2,64,40,0.4559932351112366,0.157660573720932
189,2,64,41,0.5413135290145874,0.13611692190170288
189,2,64,42,0.6100717186927795,0.1840970367193222
189,2,64,43,0.4452044665813446,0.22526581585407257
189,2,64,44,0.33611342310905457,0.15668915212154388
189,2,64,45,0.4964052438735962,0.11681485921144485
189,2,64,46,0.2772778868675232,0.1703796237707138
189,2,64,47,0.29453665018081665,0.13229523599147797
189,2,64,48,0.4078771770000458,0.15858235955238342
189,2,64,49,0.417479932308197,0.12543725967407227
189,2,64,50,0.4496966004371643,0.18478024005889893
189,2,64,51,0.5063835382461548,0.1784832775592804
189,2,64,52,0.49177759885787964,0.18360914289951324
189,2,64,53,0.5068156123161316,0.19140633940696716
189,2,64,54,0.3775441348552704,0.1235061064362526
189,2,64,55,0.5663240551948547,0.08156219869852066
189,2,64,56,0.4817826449871063,0.21980464458465576
189,2,64,57,0.43256476521492004,0.14058299362659454
189,2,64,58,0.5854952335357666,0.2118152529001236
189,2,64,59,0.5578594207763672,0.16298151016235352
189,2,64,60,0.6030681729316711,0.1430228352546692
189,2,64,61,0.5306181311607361,0.08984074741601944
189,2,64,62,0.6734551191329956,0.14229555428028107
189,2,64,63,0.5424005389213562,0.18849226832389832
189,3,64,0,0.5367118120193481,0.09606598317623138
189,3,64,1,0.5964014530181885,0.09894393384456635
189,3,64,2,0.44395777583122253,0.10684246569871902
189,3,64,3,0.5322109460830688,0.06448760628700256
189,3,64,4,0.5577527284622192,0.06795021891593933
189,3,64,5,0.4283773899078369,0.0688428282737732
189,3,64,6,0.5310757160186768,0.05189787968993187
189,3,64,7,0.5190595388412476,0.06356271356344223
189,3,64,8,0.5021194219589233,0.06188880652189255
189,3,64,9,0.4899197816848755,0.12488161772489548
189,3,64,10,0.4563100039958954,0.07659715414047241
189,3,64,11,0.4116085469722748,0.11794446408748627
189,3,64,12,0.5414752960205078,0.13101890683174133
189,3,64,13,0.590080201625824,0.10557142645120621
189,3,64,14,0.4694842994213104,0.15793868899345398
189,3,64,15,0.4910697937011719,0.07036200910806656
189,3,64,16,0.5634313821792603,0.14208196103572845
189,3,64,17,0.4543742835521698,0.09248778223991394
189,3,64,18,0.591940701007843,0.16520217061042786
189,3,64,19,0.5504557490348816,0.09669718891382217
189,3,64,20,0.41707631945610046,0.12896530330181122
189,3,64,21,0.5152190923690796,0.07662080228328705
189,3,64,22,0.5837035775184631,0.044059012085199356
189,3,64,23,0.5807510614395142,0.08508509397506714
189,3,64,24,0.5276830792427063,0.1336391568183899
189,3,64,25,0.41518235206604004,0.1258501559495926
189,3,64,26,0.5485801100730896,0.177848219871521
189,3,64,27,0.48691365122795105,0.10997350513935089
189,3,64,28,0.4740230441093445,0.13231003284454346
189,3,64,29,0.4707547128200531,0.12788882851600647
189,3,64,30,0.5231965780258179,0.10974717885255814
189,3,64,31,0.579426646232605,0.1462084800004959
189,3,64,32,0.6078240871429443,0.09942144900560379
189,3,64,33,0.5248898863792419,0.11308252066373825
189,3,64,34,0.5729265809059143,0.0915730893611908
189,3,64,35,0.42200765013694763,0.11340685188770294
189,3,64,36,0.6135280728340149,0.1530807763338089
189,3,64,37,0.4453684091567993,0.10299748927354813
189,3,64,38,0.43458059430122375,0.08445070683956146
189,3,64,39,0.4626040756702423,0.12796644866466522
189,3,64,40,0.5429719686508179,0.04432840645313263
189,3,64,41,0.46894508600234985,0.0713723823428154
189,3,64,42,0.4552887976169586,0.13010387122631073
189,3,64,43,0.5180380940437317,0.12480109184980392
189,3,64,44,0.4744611382484436,0.07170780003070831
189,3,64,45,0.4710747003555298,0.060518037527799606
189,3,64,46,0.4955930709838867,0.08264628052711487
189,3,64,47,0.48079103231430054,0.1283842921257019
189,3,64,48,0.39681926369667053,0.08823015540838242
189,3,64,49,0.4766961932182312,0.07613598555326462
189,3,64,50,0.42778441309928894,0.0561443530023098
189,3,64,51,0.49889713525772095,0.09087108075618744
189,3,64,52,0.5287972688674927,0.09665443003177643
189,3,64,53,0.4416213631629944,0.07343634963035583
189,3,64,54,0.44272464513778687,0.1568707525730133
189,3,64,55,0.5856615304946899,0.06294479966163635
189,3,64,56,0.6187392473220825,0.11570591479539871
189,3,64,57,0.4866114854812622,0.09800408035516739
189,3,64,58,0.4794282913208008,0.13882921636104584
189,3,64,59,0.5159808993339539,0.15978935360908508
189,3,64,60,0.5034254789352417,0.10794687271118164
189,3,64,61,0.48023536801338196,0.037695903331041336
189,3,64,62,0.4495573043823242,0.15279674530029297
189,3,64,63,0.38109704852104187,0.13776026666164398
189,4,128,0,0.4092773497104645,0.17973925173282623
189,4,128,1,0.41297510266304016,0.19931535422801971
189,4,128,2,0.5327041745185852,0.15082331001758575
189,4,128,3,0.619265079498291,0.18577969074249268
189,4,128,4,0.5580479502677917,0.152391254901886
189,4,128,5,0.7108582258224487,0.20788590610027313
189,4,128,6,0.6119012832641602,0.12082456797361374
189,4,128,7,0.5643813014030457,0.210958793759346
189,4,128,8,0.4819948971271515,0.19025160372257233
189,4,128,9,0.5866454839706421,0.1718546748161316
189,4,128,10,0.6033925414085388,0.08100564777851105
189,4,128,11,0.5498077273368835,0.19928833842277527
189,4,128,12,0.5860175490379333,0.15298913419246674
189,4,128,13,0.52615886926651,0.20310541987419128
189,4,128,14,0.3915210962295532,0.15307746827602386
189,4,128,15,0.6745969653129578,0.21984845399856567
189,4,128,16,0.7000182867050171,0.1279863864183426
189,4,128,17,0.40923792123794556,0.24248920381069183
189,4,128,18,0.4686600863933563,0.1918676197528839
189,4,128,19,0.4400746524333954,0.14731350541114807
189,4,128,20,0.5669893622398376,0.17816518247127533
189,4,128,21,0.5088998675346375,0.13481715321540833
189,4,128,22,0.5762498378753662,0.15120720863342285
189,4,128,23,0.630439043045044,0.1413094848394394
189,4,128,24,0.7426544427871704,0.11907857656478882
189,4,128,25,0.7033983469009399,0.21014569699764252
189,4,128,26,0.5344789028167725,0.1736932247877121
189,4,128,27,0.4737432301044464,0.17796654999256134
189,4,128,28,0.40116050839424133,0.19673897325992584
189,4,128,29,0.34435686469078064,0.15563198924064636
189,4,128,30,0.42440924048423767,0.22491417825222015
189,4,128,31,0.5765657424926758,0.13863395154476166
189,4,128,32,0.5252589583396912,0.18508821725845337
189,4,128,33,0.47170883417129517,0.16249796748161316
189,4,128,34,0.6887760758399963,0.15246248245239258
189,4,128,35,0.6233675479888916,0.10570637136697769
189,4,128,36,0.448885440826416,0.15038569271564484
189,4,128,37,0.4928043484687805,0.21362759172916412
189,4,128,38,0.6393023729324341,0.14456014335155487
189,4,128,39,0.5773637294769287,0.22613146901130676
189,4,128,40,0.5862166285514832,0.2344607561826706
189,4,128,41,0.6000348925590515,0.16263903677463531
189,4,128,42,0.3633075952529907,0.18453308939933777
189,4,128,43,0.6601365208625793,0.2026395946741104
189,4,128,44,0.5999649167060852,0.10890189558267593
189,4,128,45,0.6108946800231934,0.1500544399023056
189,4,128,46,0.5762601494789124,0.09230315685272217
189,4,128,47,0.49945223331451416,0.23978284001350403
189,4,128,48,0.6439377069473267,0.19383879005908966
189,4,128,49,0.7150365710258484,0.1456521451473236
189,4,128,50,0.45104414224624634,0.15355882048606873
189,4,128,51,0.6517255306243896,0.10562463849782944
189,4,128,52,0.5056790113449097,0.12527461349964142
189,4,128,53,0.512424111366272,0.16412226855754852
189,4,128,54,0.50678551197052,0.2642870247364044
189,4,128,55,0.5835157632827759,0.2202305644750595
189,4,128,56,0.5582879781723022,0.18708382546901703
189,4,128,57,0.5409382581710815,0.06877104938030243
189,4,128,58,0.5266022682189941,0.15262572467327118
189,4,128,59,0.576267421245575,0.11384232342243195
189,4,128,60,0.36675775051116943,0.26113003492355347
189,4,128,61,0.5390444397926331,0.20851829648017883
189,4,128,62,0.5534757375717163,0.1584187000989914
189,4,128,63,0.619816243648529,0.1955409198999405
189,4,128,64,0.6122139096260071,0.18531237542629242
189,4,128,65,0.6485158205032349,0.16932888329029083
189,4,128,66,0.5458446145057678,0.17187774181365967
189,4,128,67,0.590670108795166,0.1634373962879181
189,4,128,68,0.5235806107521057,0.17316514253616333
189,4,128,69,0.6336391568183899,0.18531851470470428
189,4,128,70,0.504246711730957,0.0988759770989418
189,4,128,71,0.4625681936740875,0.1357458084821701
189,4,128,72,0.5410307049751282,0.19235670566558838
189,4,128,73,0.4088275134563446,0.17064246535301208
189,4,128,74,0.6830270290374756,0.16173391044139862
189,4,128,75,0.6620813012123108,0.1731497347354889
189,4,128,76,0.6722511649131775,0.08920782059431076
189,4,128,77,0.5496406555175781,0.17914743721485138
189,4,128,78,0.6100006699562073,0.2192058116197586
189,4,128,79,0.5774727463722229,0.24749526381492615
189,4,128,80,0.41208773851394653,0.1685268133878708
189,4,128,81,0.45470738410949707,0.21767929196357727
189,4,128,82,0.4654325544834137,0.21814322471618652
189,4,128,83,0.5549021363258362,0.2289791852235794
189,4,128,84,0.6111600399017334,0.18967710435390472
189,4,128,85,0.4623892307281494,0.12680931389331818
189,4,128,86,0.6885492205619812,0.12811826169490814
189,4,128,87,0.4406506419181824,0.21380890905857086
189,4,128,88,0.5400112867355347,0.10644076019525528
189,4,128,89,0.6117227673530579,0.23455846309661865
189,4,128,90,0.36759135127067566,0.16353896260261536
189,4,128,91,0.6072452664375305,0.2826305627822876
189,4,128,92,0.5833802223205566,0.16081705689430237
189,4,128,93,0.6563658714294434,0.21836212277412415
189,4,128,94,0.6014354228973389,0.19381117820739746
189,4,128,95,0.7485552430152893,0.15632367134094238
189,4,128,96,0.5430589318275452,0.13609585165977478
189,4,128,97,0.5571362972259521,0.19146257638931274
189,4,128,98,0.5159438848495483,0.20668694376945496
189,4,128,99,0.5555483102798462,0.104890376329422
189,4,128,100,0.5055513978004456,0.0492745116353035
189,4,128,101,0.42308980226516724,0.21887417137622833
189,4,128,102,0.5825930833816528,0.14979524910449982
189,4,128,103,0.5875728130340576,0.14716817438602448
189,4,128,104,0.4416201710700989,0.15800610184669495
189,4,128,105,0.4284108877182007,0.18232665956020355
189,4,128,106,0.5163601040840149,0.1524876207113266
189,4,128,107,0.5464866757392883,0.2127453237771988
189,4,128,108,0.5846677422523499,0.15299293398857117
189,4,128,109,0.5969290137290955,0.22461411356925964
189,4,128,110,0.5266417860984802,0.2225359082221985
189,4,128,111,0.26916274428367615,0.1064377948641777
189,4,128,112,0.5902413129806519,0.15960031747817993
189,4,128,113,0.4551149010658264,0.24118240177631378
189,4,128,114,0.5389189720153809,0.20224711298942566
189,4,128,115,0.44891393184661865,0.22605976462364197
189,4,128,116,0.6015447974205017,0.2777465879917145
189,4,128,117,0.6407978534698486,0.2065296620130539
189,4,128,118,0.6317813396453857,0.16742470860481262
189,4,128,119,0.5896968841552734,0.2075815349817276
189,4,128,120,0.5550500750541687,0.11189856380224228
189,4,128,121,0.4723713994026184,0.2470288723707199
189,4,128,122,0.5551221966743469,0.1514236032962799
189,4,128,123,0.5782824158668518,0.23086674511432648
189,4,128,124,0.5180667638778687,0.21233899891376495
189,4,128,125,0.5559810400009155,0.24880722165107727
189,4,128,126,0.4168214201927185,0.21442674100399017
189,4,128,127,0.5157227516174316,0.19996073842048645
189,5,128,0,0.5571485757827759,0.21699270606040955
189,5,128,1,0.6914689540863037,0.10496390610933304
189,5,128,2,0.8017736077308655,0.075941301882267
189,5,128,3,0.6252124309539795,0.1826736181974411
189,5,128,4,0.6842784285545349,0.21429061889648438
189,5,128,5,0.6410694718360901,0.21744893491268158
189,5,128,6,0.7009119987487793,0.11947941035032272
189,5,128,7,0.6275854110717773,0.16248925030231476
189,5,128,8,0.7829615473747253,0.12659944593906403
189,5,128,9,0.511557936668396,0.3003525733947754
189,5,128,10,0.6590593457221985,0.13720856606960297
189,5,128,11,0.7337670922279358,0.28354310989379883
189,5,128,12,0.6936454176902771,0.17569978535175323
189,5,128,13,0.4630454182624817,0.15292732417583466
189,5,128,14,0.577872633934021,0.20166507363319397
189,5,128,15,0.5381193161010742,0.27140429615974426
189,5,128,16,0.7441866993904114,0.1398720145225525
189,5,128,17,0.741595447063446,0.2823875844478607
189,5,128,18,0.7238674759864807,0.1593756228685379
189,5,128,19,0.8129348158836365,0.08997755497694016
189,5,128,20,0.697584867477417,0.15650252997875214
189,5,128,21,0.7299790978431702,0.10752782970666885
189,5,128,22,0.7676972150802612,0.11745932698249817
189,5,128,23,0.614166259765625,0.21270190179347992
189,5,128,24,0.6669477820396423,0.18764087557792664
189,5,128,25,0.7614896297454834,0.1386435478925705
189,5,128,26,0.6801260113716125,0.2784895598888397
189,5,128,27,0.6184889078140259,0.24994255602359772
189,5,128,28,0.48767679929733276,0.2020716816186905
189,5,128,29,0.45447278022766113,0.2556955814361572
189,5,128,30,0.5827094316482544,0.16889917850494385
189,5,128,31,0.7344832420349121,0.12486715614795685
189,5,128,32,0.7060697674751282,0.23268350958824158
189,5,128,33,0.7544383406639099,0.13097260892391205
189,5,128,34,0.7630091309547424,0.1101302057504654
189,5,128,35,0.7711271047592163,0.13246193528175354
189,5,128,36,0.5988672375679016,0.24529506266117096
189,5,128,37,0.4747875928878784,0.2972628176212311
189,5,128,38,0.7376409769058228,0.12811733782291412
189,5,128,39,0.5875313878059387,0.29412612318992615
189,5,128,40,0.7358233332633972,0.13492003083229065
189,5,128,41,0.6546244025230408,0.16283223032951355
189,5,128,42,0.39865750074386597,0.29577505588531494
189,5,128,43,0.7721538543701172,0.11289025843143463
189,5,128,44,0.6578124165534973,0.17431502044200897
189,5,128,45,0.589341402053833,0.21251890063285828
189,5,128,46,0.433317095041275,0.24930863082408905
189,5,128,47,0.6523119807243347,0.18037639558315277
189,5,128,48,0.5993582010269165,0.19544486701488495
189,5,128,49,0.5479342937469482,0.26943784952163696
189,5,128,50,0.5966076254844666,0.21084587275981903
189,5,128,51,0.6408781409263611,0.21230176091194153
189,5,128,52,0.6945431232452393,0.15336452424526215
189,5,128,53,0.6865500211715698,0.12295283377170563
189,5,128,54,0.6093047857284546,0.31106531620025635
189,5,128,55,0.5670464634895325,0.19424614310264587
189,5,128,56,0.6818546056747437,0.19651198387145996
189,5,128,57,0.6710143685340881,0.2414579689502716
189,5,128,58,0.49618032574653625,0.23882339894771576
189,5,128,59,0.6707702875137329,0.12927260994911194
189,5,128,60,0.5666954517364502,0.1865466982126236
189,5,128,61,0.6926345229148865,0.1362488567829132
189,5,128,62,0.6704568266868591,0.18537893891334534
189,5,128,63,0.5369513630867004,0.06980510801076889
189,5,128,64,0.7207096219062805,0.08582428097724915
189,5,128,65,0.7757409811019897,0.1725633293390274
189,5,128,66,0.6826176047325134,0.2736653983592987
189,5,128,67,0.6666073203086853,0.2946202754974365
189,5,128,68,0.6795213222503662,0.2638804018497467
189,5,128,69,0.7518391609191895,0.13391244411468506
189,5,128,70,0.741513192653656,0.12523901462554932
189,5,128,71,0.6309564709663391,0.0666450709104538
189,5,128,72,0.7014759182929993,0.15437644720077515
189,5,128,73,0.5765287280082703,0.2086736559867859
189,5,128,74,0.6365716457366943,0.2429639995098114
189,5,128,75,0.745688796043396,0.13648603856563568
189,5,128,76,0.7112311124801636,0.13982445001602173
189,5,128,77,0.4880591034889221,0.19620072841644287
189,5,128,78,0.6666985750198364,0.19436179101467133
189,5,128,79,0.5660324692726135,0.2098376601934433
189,5,128,80,0.37895309925079346,0.13604441285133362
189,5,128,81,0.566030740737915,0.16454347968101501
189,5,128,82,0.43946078419685364,0.25980857014656067
189,5,128,83,0.6203386783599854,0.2570836842060089
189,5,128,84,0.7713300585746765,0.1435987502336502
189,5,128,85,0.4781371057033539,0.20489099621772766
189,5,128,86,0.7321939468383789,0.10826268792152405
189,5,128,87,0.4568885266780853,0.24950824677944183
189,5,128,88,0.6902520656585693,0.16699452698230743
189,5,128,89,0.634872555732727,0.17893512547016144
189,5,128,90,0.5388651490211487,0.07765354961156845
189,5,128,91,0.7692063450813293,0.09258730709552765
189,5,128,92,0.5667681694030762,0.3187144696712494
189,5,128,93,0.6959438920021057,0.17198526859283447
189,5,128,94,0.5744658708572388,0.2734307646751404
189,5,128,95,0.7427195906639099,0.13983340561389923
189,5,128,96,0.5437475442886353,0.15058927237987518
189,5,128,97,0.5996962785720825,0.19704188406467438
189,5,128,98,0.41049134731292725,0.2305193990468979
189,5,128,99,0.7362268567085266,0.13146257400512695
189,5,128,100,0.6608436107635498,0.17587043344974518
189,5,128,101,0.5458409190177917,0.141383096575737
189,5,128,102,0.6297472715377808,0.1343359649181366
189,5,128,103,0.6539130210876465,0.17343954741954803
189,5,128,104,0.3479108512401581,0.20728673040866852
189,5,128,105,0.47513025999069214,0.2086801528930664
189,5,128,106,0.575124979019165,0.24828794598579407
189,5,128,107,0.42106831073760986,0.08646325021982193
189,5,128,108,0.5889888405799866,0.2209821194410324
189,5,128,109,0.7403863072395325,0.09146613627672195
189,5,128,110,0.6161895394325256,0.2572360932826996
189,5,128,111,0.4770141541957855,0.23264890909194946
189,5,128,112,0.5631185173988342,0.19725395739078522
189,5,128,113,0.6565860509872437,0.12234048545360565
189,5,128,114,0.4919933080673218,0.23113127052783966
189,5,128,115,0.7015230655670166,0.2800440490245819
189,5,128,116,0.6764432191848755,0.22603070735931396
189,5,128,117,0.4720759391784668,0.29222214221954346
189,5,128,118,0.6883009672164917,0.1651485115289688
189,5,128,119,0.5431316494941711,0.28337857127189636
189,5,128,120,0.442521870136261,0.20814533531665802
189,5,128,121,0.5124275088310242,0.12392444908618927
189,5,128,122,0.7886999249458313,0.12176328897476196
189,5,128,123,0.7962183356285095,0.10501773655414581
189,5,128,124,0.5531758666038513,0.18730390071868896
189,5,128,125,0.7660505175590515,0.15082523226737976
189,5,128,126,0.6972715854644775,0.21010419726371765
189,5,128,127,0.7111426591873169,0.27250146865844727
190,0,32,0,0.5008280873298645,0.0839749351143837
190,0,32,1,0.4718613028526306,0.1664377748966217
190,0,32,2,0.602397084236145,0.05996067076921463
190,0,32,3,0.6067529320716858,0.05987474322319031
190,0,32,4,0.612115740776062,0.09511174261569977
190,0,32,5,0.43873274326324463,0.07779910415410995
190,0,32,6,0.4857664108276367,0.09637560695409775
190,0,32,7,0.40468284487724304,0.10262328386306763
190,0,32,8,0.5925588607788086,0.07447179406881332
190,0,32,9,0.45737209916114807,0.1612773835659027
190,0,32,10,0.5169904828071594,0.18457406759262085
190,0,32,11,0.5210580229759216,0.09326806664466858
190,0,32,12,0.46424391865730286,0.11670704931020737
190,0,32,13,0.4559255540370941,0.08861556649208069
190,0,32,14,0.5188190937042236,0.17844687402248383
190,0,32,15,0.29089537262916565,0.0914078801870346
190,0,32,16,0.46408772468566895,0.09926272183656693
190,0,32,17,0.38316550850868225,0.15890558063983917
190,0,32,18,0.580389142036438,0.11983167380094528
190,0,32,19,0.5369269251823425,0.12384441494941711
190,0,32,20,0.4888453483581543,0.10177655518054962
190,0,32,21,0.388182669878006,0.131279855966568
190,0,32,22,0.46275606751441956,0.115120530128479
190,0,32,23,0.5965776443481445,0.09630846977233887
190,0,32,24,0.4911213219165802,0.06540367007255554
190,0,32,25,0.33076149225234985,0.07590961456298828
190,0,32,26,0.5751515030860901,0.086276575922966
190,0,32,27,0.463043212890625,0.09830266982316971
190,0,32,28,0.46351632475852966,0.12537583708763123
190,0,32,29,0.5622839331626892,0.05191579833626747
190,0,32,30,0.6199560761451721,0.11919189244508743
190,0,32,31,0.5102054476737976,0.03736694157123566
190,1,32,0,0.30340075492858887,0.0787627324461937
190,1,32,1,0.4593922197818756,0.135469451546669
190,1,32,2,0.3495682179927826,0.09092440456151962
190,1,32,3,0.5433251261711121,0.03788706287741661
190,1,32,4,0.41596442461013794,0.10301665961742401
190,1,32,5,0.6749497056007385,0.07229357957839966
190,1,32,6,0.32944372296333313,0.11510606855154037
190,1,32,7,0.5534030795097351,0.1812361776828766
190,1,32,8,0.4451509118080139,0.08357679098844528
190,1,32,9,0.3837505280971527,0.09622424840927124
190,1,32,10,0.4033459722995758,0.05613710358738899
190,1,32,11,0.49490875005722046,0.14121662080287933
190,1,32,12,0.6099317073822021,0.05202746018767357
190,1,32,13,0.3202352821826935,0.06525654345750809
190,1,32,14,0.4915853440761566,0.057412635535001755
190,1,32,15,0.523853600025177,0.07113374024629593
190,1,32,16,0.44616949558258057,0.12610314786434174
190,1,32,17,0.5111712217330933,0.0699094906449318
190,1,32,18,0.48386630415916443,0.0270043034106493
190,1,32,19,0.47982701659202576,0.08317764848470688
190,1,32,20,0.5867434144020081,0.07621946930885315
190,1,32,21,0.43587785959243774,0.09834293276071548
190,1,32,22,0.4537961483001709,0.035981640219688416
190,1,32,23,0.455897718667984,0.046134211122989655
190,1,32,24,0.38003870844841003,0.14323267340660095
190,1,32,25,0.5941451787948608,0.05516188219189644
190,1,32,26,0.578557014465332,0.1134970486164093
190,1,32,27,0.5693004727363586,0.08200906962156296
190,1,32,28,0.4677612781524658,0.13221807777881622
190,1,32,29,0.4082125723361969,0.03793327882885933
190,1,32,30,0.4070208668708801,0.046835824847221375
190,1,32,31,0.6499043107032776,0.05755174160003662
190,2,64,0,0.4941508173942566,0.1393785923719406
190,2,64,1,0.5754112005233765,0.17917782068252563
190,2,64,2,0.412792444229126,0.12778779864311218
190,2,64,3,0.43907302618026733,0.1304921656847
190,2,64,4,0.33243104815483093,0.10059024393558502
190,2,64,5,0.5434906482696533,0.11303194612264633
190,2,64,6,0.5970128178596497,0.10269968956708908
190,2,64,7,0.6071539521217346,0.13289391994476318
190,2,64,8,0.37431374192237854,0.13088209927082062
190,2,64,9,0.34891799092292786,0.12114951014518738
190,2,64,10,0.30290544033050537,0.11145273596048355
190,2,64,11,0.5696550011634827,0.1328953206539154
190,2,64,12,0.4397854804992676,0.13181006908416748
190,2,64,13,0.4074271023273468,0.12420003116130829
190,2,64,14,0.582226574420929,0.18262048065662384
190,2,64,15,0.5546039938926697,0.17080025374889374
190,2,64,16,0.4766281247138977,0.15058839321136475
190,2,64,17,0.551842212677002,0.10662300884723663
190,2,64,18,0.518052875995636,0.20956504344940186
190,2,64,19,0.39593279361724854,0.19053010642528534
190,2,64,20,0.5224758982658386,0.26695188879966736
190,2,64,21,0.49770504236221313,0.23194487392902374
190,2,64,22,0.5881912112236023,0.14976383745670319
190,2,64,23,0.5241988897323608,0.17581366002559662
190,2,64,24,0.6322212815284729,0.08704564720392227
190,2,64,25,0.5263664126396179,0.0849115327000618
190,2,64,26,0.43871235847473145,0.1661875993013382
190,2,64,27,0.6157271862030029,0.19110095500946045
190,2,64,28,0.5402339696884155,0.14776156842708588
