subject,channel,r,f1_drop_mean,f1_drop_sd
1,0,5,0.08030278637083263,0.011769871442524733
1,1,5,0.0800082779838037,0.010954706542045422
1,2,5,0.0845621781393214,0.010456775358783166
1,3,5,0.08661291514697855,0.012098487111687846
1,4,5,0.02117458195852997,0.008282181073054295
1,5,5,0.04656540765770627,0.002299038335864837
1,6,5,0.006037579194377263,0.01640364529591822
1,7,5,0.1258024068617668,0.01307274046481263
1,8,5,0.12271865285003898,0.021219240535218536
2,0,5,0.07271297028982915,0.006797813767946179
2,1,5,0.108518809914258,0.012940627002791985
2,2,5,0.11123669455762522,0.013856459961808572
2,3,5,0.08917244118187077,0.008922305407949218
2,4,5,0.13355302867639476,0.012846552481294534
2,5,5,0.108659894722045,0.016517483866979318
2,6,5,0.05660315825770197,0.014218382425261496
2,7,5,0.16898192499204392,0.02234863016553383
2,8,5,0.12788766932513468,0.0099799775918187
3,0,5,0.06844842758967892,0.008765393517270414
3,1,5,0.11955444029886957,0.014757923707129998
3,2,5,0.1362845818083945,0.015068665319535806
3,3,5,0.1154192791978214,0.0059186537978151805
3,4,5,0.06151688724863984,0.012630035392779505
3,5,5,0.10140602250916082,0.010137480647274507
3,6,5,0.008603659722355328,0.01000303602216738
3,7,5,0.12499357875675991,0.011091008598484673
3,8,5,0.12204884517189474,0.010775695315420521
4,0,5,0.039236351459138466,0.01588430630317833
4,1,5,0.10508865212572112,0.01419655761004064
4,2,5,0.07720734921849282,0.0030355716337916545
4,3,5,0.07950481866696184,0.016501145444497902
4,4,5,0.1184354555656661,0.008643477540503973
4,5,5,0.0971500852625717,0.01544532090296563
4,6,5,0.012198537900685836,0.007936409437037729
4,7,5,0.09606772729334637,0.013893100945153706
4,8,5,0.09273841348784961,0.02080966565996236
5,0,5,0.08150158059012325,0.011719814736446312
5,1,5,0.07722174927898255,0.011342320807441561
5,2,5,0.08277164890598568,0.010991686990430587
5,3,5,0.029805026995234307,0.00915107804755431
5,4,5,0.10647841486887624,0.006717802347857853
5,5,5,0.08385195114575075,0.00777464268260751
5,6,5,0.02726630042708733,0.0038530571733026483
5,7,5,0.09240739310160999,0.0036940753208482475
5,8,5,0.11687653893224197,0.017654909618396393
6,0,5,0.11931719132503016,0.00514622652751776
6,1,5,0.12407402126250418,0.01919233089477007
6,2,5,0.10849253160885897,0.006516909505203515
6,3,5,0.0382806054670326,0.009648137556533275
6,4,5,0.12868825494767883,0.012870289972762058
6,5,5,0.11623834496213989,0.014169059049184368
6,6,5,0.047215169073903974,0.019080089498111602
6,7,5,0.10796559817853983,0.008430715555873486
6,8,5,0.1566625742591306,0.015954454916332527
7,0,5,0.09018917673030646,0.022527915029391637
7,1,5,0.09945830160359688,0.011329657593533696
7,2,5,0.11693004736871515,0.007024858304219235
7,3,5,0.04488099590352199,0.01691760586088561
7,4,5,0.07961994531230492,0.013950549244534842
7,5,5,0.1628240099473068,0.0054226170643738416
7,6,5,0.05024350374927957,0.008206491915622761
7,7,5,0.1289767684215065,0.01121096968461042
7,8,5,0.16639293102132355,0.008340615263959598
8,0,5,0.1470625609619987,0.022242805557083047
8,1,5,0.10925040681231397,0.01325615086338923
8,2,5,0.08099991209848664,0.013995642423848187
8,3,5,0.08515069911588875,0.01968494276328716
8,4,5,0.08092479558321486,0.012675375435649373
8,5,5,0.1429891231902951,0.011972930377823784
8,6,5,0.048751260473073585,0.0037340243714426014
8,7,5,0.15573978867149624,0.012547518597417758
8,8,5,0.15532770677852595,0.012075497652035467
9,0,5,0.07149776893081147,0.0077333839055371695
9,1,5,0.0937817518184858,0.018001232088907308
9,2,5,0.11607123770054222,0.00931091646521826
9,3,5,0.0819279156288516,0.007413768213466553
9,4,5,0.09506359995337406,0.014970566826290407
9,5,5,0.08653672229831637,0.015708645094784243
9,6,5,0.05156721908915603,0.0057699379809897176
9,7,5,0.17376828303316658,0.016846713336955966
9,8,5,0.14213787442473966,0.007807762380975487
10,0,5,0.10393050244058921,0.019882141079229528
10,1,5,0.034094940433456775,0.011241357356597457
10,2,5,0.08317346185497212,0.015341355711102893
10,3,5,0.046757741393717245,0.015455837729450403
10,4,5,0.07904107109436014,0.013522833766779829
10,5,5,0.08373587390064463,0.00538586308154894
10,6,5,0.0033369338302519313,0.0177941777863063
10,7,5,0.12491637518594827,0.015687416878818538
10,8,5,0.11694662143889675,0.016719856748930652
11,0,5,0.10146292152864453,0.003283157556859213
11,1,5,0.11884897222323121,0.0072426038577230855
11,2,5,0.1415039045719846,0.008794220595519273
11,3,5,0.10802532682380701,0.014658041707079943
11,4,5,0.0989060082159208,0.011475903699892332
11,5,5,0.05676956836505469,0.012116810562036846
11,6,5,0.06232632912247682,0.007738400682579652
11,7,5,0.1908839772316659,0.01644462965475465
11,8,5,0.12442948459925618,0.017951650594609795
12,0,5,0.07306260313177186,0.018818653552643765
12,1,5,0.1443278613650804,0.00908350796356934
12,2,5,0.11076678999319338,0.012947391639481333
12,3,5,0.12212857086198765,0.016575263333755613
12,4,5,0.09815652219034048,0.01683606662866079
12,5,5,0.11261505735657118,0.011772234141349907
12,6,5,0.05970153442679893,0.006543283748127917
12,7,5,0.14634824789252449,0.01711709870040562
12,8,5,0.1069049889751,0.015305153573161047
13,0,5,0.08493997194525844,0.014227722795493619
13,1,5,0.05860653826817412,0.014314202452835663
13,2,5,0.12751678908057534,0.009836338881956461
13,3,5,0.07402735042166793,0.005143591791785705
13,4,5,0.09030410008339422,0.012465976371079325
13,5,5,0.11016551708828655,0.017946492193727258
13,6,5,0.044079947679973606,0.005998411097530443
13,7,5,0.10500620651015835,0.0039736881448237775
13,8,5,0.09996918009623001,0.015940720395768496
14,0,5,0.09236158503279839,0.0070342700770515635
14,1,5,0.09266749975051702,0.011530378825267609
14,2,5,0.09286355017620526,0.009176655162650415
14,3,5,0.1099250778765997,0.01290057513828863
14,4,5,0.10636600593615216,0.008154561453935767
14,5,5,0.06675926758112298,0.016817925322219363
14,6,5,0.02369550045023263,0.004507771404126508
14,7,5,0.08625390045943356,0.013086455697759977
14,8,5,0.116558341278952,0.010242303279693275
15,0,5,0.1263699467276163,0.010328518431860558
15,1,5,0.07938779624899142,0.010134420253811817
15,2,5,0.15745244295926464,0.01544844279715206
15,3,5,0.06532678556017923,0.011617777855443455
15,4,5,0.1026284584286222,0.012601376331634606
15,5,5,0.091043737811161,0.014797242532985417
15,6,5,0.06950098176633672,0.005829245384366241
15,7,5,0.08448214960461083,0.00932241346051592
15,8,5,0.1483397229110827,0.01018420000995601
16,0,5,0.15833351590152137,0.01157623373646077
16,1,5,0.09782068127575642,0.018560416359918244
16,2,5,0.14079470989063514,0.01273802571903017
16,3,5,0.08073245177843477,0.005528224353352141
16,4,5,0.1424390580971604,0.004604435490901305
16,5,5,0.1186262641451223,0.006923238391134744
16,6,5,0.03927345748865589,0.008652587309702016
16,7,5,0.1560511492693657,0.003688118515122426
16,8,5,0.15527836397039924,0.012064727481820555
17,0,5,0.17241316175040522,0.007313514844788366
17,1,5,0.08777797558246861,0.011468470165931307
17,2,5,0.110038159444212,0.006644081584905189
17,3,5,0.11797741941617663,0.006255396924009828
17,4,5,0.1708068460598393,0.015739698788011354
17,5,5,0.10312179880361885,0.004899911897356166
17,6,5,0.04380726917457265,0.012206836546009243
17,7,5,0.1225967640648959,0.01343488927435915
17,8,5,0.19869972606527256,0.017990944682247
18,0,5,0.11097672036777273,0.013920539176431376
18,1,5,0.07115000251250012,0.005647856713892098
18,2,5,0.14389757723380797,0.009235902303142658
18,3,5,0.15724065062351908,0.009374585966743596
18,4,5,0.06579499538156046,0.009781222497080116
18,5,5,0.1542549771682151,0.012490788758132799
18,6,5,0.04366824721810314,0.015709122249896918
18,7,5,0.21086851142846177,0.017640280684725364
18,8,5,0.17208884618375075,0.014510398745293949
19,0,5,0.057134656577041046,0.014178398611064593
19,1,5,0.06441529909086181,0.01271010437249303
19,2,5,0.06419046213823998,0.008137716085384864
19,3,5,0.054606543102719104,0.010821826421092933
19,4,5,0.05063647966159723,0.014061158008793415
19,5,5,0.10625321478409622,0.008581349051266673
19,6,5,0.022659256144776506,0.0020276040151097907
19,7,5,0.17025050160759322,0.0096620016605087
19,8,5,0.12980271255976053,0.013922454233744946
20,0,5,0.14633795110747638,0.014140327944002698
20,1,5,0.05284426038906616,0.020755596985080393
20,2,5,0.12486546776273026,0.015316166410217205
20,3,5,0.051892744474767175,0.014049786427784528
20,4,5,0.0924391592685393,0.014910173699938353
20,5,5,0.08884144743757325,0.017729558899926872
20,6,5,0.029762491454252804,0.012649231527611889
20,7,5,0.0948366573363281,0.011232796386046563
20,8,5,0.1267109698161962,0.017035889049119624
21,0,5,0.13929362432012574,0.011705563947923424
21,1,5,0.037997617856083465,0.014292975240858374
21,2,5,0.07665251604549679,0.012654398907588496
21,3,5,0.07570615263618767,0.013821205668813102
21,4,5,0.022447209609770157,0.013064402478803505
21,5,5,0.10423335970190732,0.01573034386058827
21,6,5,0.029406054537824522,0.006015847904601461
21,7,5,0.12777220395784378,0.009031990894292076
21,8,5,0.100508151790764,0.009956530732583834
22,0,5,0.11915369378884051,0.01820981383340573
22,1,5,0.08705699758755307,0.011830115094944891
22,2,5,0.1394924302668657,0.012029984938000402
22,3,5,0.06330193938065527,0.015911032107568352
22,4,5,0.12766390319449497,0.004135139431248043
22,5,5,0.10118326736570378,0.015984404512282373
22,6,5,0.07289927823201066,0.007716055015238098
22,7,5,0.1709234511098203,0.009206489216552934
22,8,5,0.13925720468452857,0.011664366340765854
23,0,5,0.12057609933570361,0.010629277223678511
23,1,5,0.06931840544389758,0.013095797288165349
23,2,5,0.0771669811363156,0.008978389394472113
23,3,5,0.07404116886065251,0.009612019840840707
23,4,5,0.1783948234266141,0.010251750623889805
23,5,5,0.13534742387975557,0.014790665160181876
23,6,5,0.014038310420490219,0.004848469040617475
23,7,5,0.1213470816002675,0.012033486466561567
23,8,5,0.10633695802227719,0.018287565791087087
24,0,5,0.09976498298089401,0.014191312833614618
24,1,5,0.09321287902370619,0.015143487426727402
24,2,5,0.0983436843988403,0.007769999676425925
24,3,5,0.03999637754467631,0.0031180849655980617
24,4,5,0.14613707838633547,0.007085437548784967
24,5,5,0.1082496434621841,0.020322373141702613
24,6,5,0.052431814262880884,0.008485411658917752
24,7,5,0.20023542789136634,0.009511877993570287
24,8,5,0.11057571900219218,0.009283328343324413
25,0,5,0.08649844495268233,0.010339046745052911
25,1,5,0.11310488177964406,0.013527015530871158
25,2,5,0.13398648938482155,0.008866908187604976
25,3,5,0.08163902580724372,0.007542751342670663
25,4,5,0.17466964345701735,0.008067207444906476
25,5,5,0.06998763022159342,0.006210236267475314
25,6,5,0.018334409784739415,0.015997398672600725
25,7,5,0.12216330748236148,0.005378400410365895
25,8,5,0.10902180994300856,0.019165455959599967
26,0,5,0.12708601041458148,0.017210377184127445
26,1,5,0.10341908491206284,0.00985159452048051
26,2,5,0.1251798983125823,0.009760878554619176
26,3,5,0.0887468735603911,0.00709380774657231
26,4,5,0.12698728144724214,0.015481495731427437
26,5,5,0.09156579525799362,0.009764600045292983
26,6,5,0.03735422486671223,0.005762953101237117
26,7,5,0.16399808683579048,0.007401186792746122
26,8,5,0.149655602757828,0.015004776934304964
27,0,5,0.08537842989043878,0.014085241297016575
27,1,5,0.03821020005376892,0.010758061702828768
27,2,5,0.11544185419909485,0.019685370509672447
27,3,5,0.043118388373954056,0.007150408630186497
27,4,5,0.10923257983071391,0.005934804226306364
27,5,5,0.15308036580510442,0.006847377005856692
27,6,5,0.04485274014120877,0.01148880860255054
27,7,5,0.1133811249412737,0.011550640828621157
27,8,5,0.10975446600224084,0.01363120022007473
28,0,5,0.10643035661258866,0.011574748381022572
28,1,5,0.06340982172433715,0.022398949866374248
28,2,5,0.08084975487706447,0.011841744893060963
28,3,5,0.09939159296424653,0.014084774651427117
28,4,5,0.17663928090930542,0.0114304449030001
28,5,5,0.1591119895344494,0.01725618150036208
28,6,5,0.0381124683945782,0.014856297868312987
28,7,5,0.13334571093033964,0.009001243934708239
28,8,5,0.15810413440023757,0.01042310286883115
29,0,5,0.1315562456553172,0.009820298941278
29,1,5,0.06042508600059628,0.010552651680446529
29,2,5,0.11167893168565624,0.004724789234000422
29,3,5,0.05998039790468508,0.013347499271283156
29,4,5,0.12086360580539698,0.014292973165773756
29,5,5,0.1363630711878718,0.006853047458485089
29,6,5,0.01601562831942558,0.008872458916551399
29,7,5,0.12603324610218442,0.012844733417172245
29,8,5,0.16412319997549502,0.008237808208629847
30,0,5,0.0860768070245527,0.01172977252128658
30,1,5,0.05257414258722961,0.012537916937639906
30,2,5,0.11015691875188838,0.015799451661408857
30,3,5,0.05855023066509628,0.008555568793834612
30,4,5,0.05889343632685033,0.014465388705329834
30,5,5,0.0897268346912841,0.020497054345365705
30,6,5,0.04330219950270091,0.011424690652052804
30,7,5,0.1425032109665596,0.006525273317207813
30,8,5,0.12175121107510738,0.012393650475685778
31,0,5,0.09774573830395705,0.012254225519437055
31,1,5,0.103808179577019,0.007951010955444959
31,2,5,0.14113131223057104,0.003646598398954952
31,3,5,0.06966206594419584,0.012951348585851282
31,4,5,0.15375188780477378,0.024550819341934517
31,5,5,0.08289940470301979,0.017494195241817993
31,6,5,0.07580160090291987,0.012997552825399978
31,7,5,0.15865772287084678,0.016036801715681136
31,8,5,0.12798020834247006,0.00818192123642213
32,0,5,0.1274485761305359,0.01568957101923861
32,1,5,0.09529369847568443,0.013748573743875137
32,2,5,0.11972343982554326,0.010501532682065003
32,3,5,0.07377111001768606,0.007571358841661839
32,4,5,0.18688102638097887,0.017684325901603355
32,5,5,0.18365170097418707,0.004574326337518624
32,6,5,0.0480777059069087,0.010066896583390592
32,7,5,0.15805608361989346,0.0177466385510829
32,8,5,0.13142519702170263,0.028069376434052794
33,0,5,0.106530186193563,0.008773970517259243
33,1,5,0.11166002585272097,0.013434155538256911
33,2,5,0.12009691068251797,0.007655923152693335
33,3,5,0.05521345744281918,0.017208872290128508
33,4,5,0.04670069222904407,0.01245261484404642
33,5,5,0.07107901107717374,0.016553470512814604
33,6,5,0.06652987971558896,0.01242559881052652
33,7,5,0.13533902859927974,0.013229763039867542
33,8,5,0.1093576433060393,0.013030143608008221
34,0,5,0.1378598269156553,0.01365409584381425
34,1,5,0.08150266388763275,0.008803175665053847
34,2,5,0.06585169832888349,0.00928257216024149
34,3,5,0.10225273562690906,0.010030114389326196
34,4,5,0.09690974590114868,0.001089987547807417
34,5,5,0.07382086181993412,0.010317493652035114
34,6,5,0.03627455045375021,0.007598262790574162
34,7,5,0.1721226393460819,0.013631564262681395
34,8,5,0.12851167548152312,0.009505412091963041
35,0,5,0.08284928922033834,0.011855279290214226
35,1,5,0.020299273801876395,0.007791965158369026
35,2,5,0.07153529354061747,0.006379433727843194
35,3,5,0.05316345390160522,0.008907321870099126
35,4,5,0.008163059279131791,0.013305907736308215
35,5,5,0.14362840230103358,0.013463213792527512
35,6,5,0.004342793377737087,0.00992070616306767
35,7,5,0.061900992571569134,0.004273505455564033
35,8,5,0.06790135730010519,0.014332098565946647
36,0,5,0.07372724440786671,0.013664299836372278
36,1,5,0.06760263417808451,0.015152999078168035
36,2,5,0.14517409282369392,0.01013972862857851
36,3,5,0.11037493384676644,0.02177482826106102
36,4,5,0.06114922660592907,0.009192040667162692
36,5,5,0.10494442940694784,0.013460329731775774
36,6,5,0.07721908483567,0.005249780427348891
36,7,5,0.1481701151993546,0.021759666500342743
36,8,5,0.13404132905744154,0.0032031454398869816
37,0,5,0.0817692368802907,0.014535981476591065
37,1,5,0.08279482084644477,0.00723876185370295
37,2,5,0.14679160632539734,0.021906707194294425
37,3,5,0.056004813588487745,0.011071631446377276
37,4,5,0.09145288053266812,0.009650907548539409
37,5,5,0.1260024317949583,0.01873215859538576
37,6,5,0.044686806084728435,0.007974602893031379
37,7,5,0.07742341165220186,0.01201131031479812
37,8,5,0.10124178075172736,0.017786442041483004
38,0,5,0.12198632822970659,0.018030542215100896
38,1,5,0.12081436222682543,0.023692474363352697
38,2,5,0.12657961648694413,0.015988683763271016
38,3,5,0.08552689012823116,0.011957564358441383
38,4,5,0.14789328338470903,0.015480089053765664
38,5,5,0.10852422789388652,0.014990211605581599
38,6,5,0.0572058530373172,0.011986369903371236
38,7,5,0.1170469037817515,0.009238531370576656
38,8,5,0.0948112642569295,0.00940112642888301
39,0,5,0.11924451405271122,0.01724055749029378
39,1,5,0.06330351068943955,0.010215387510670266
39,2,5,0.08344121516933815,0.0069077750164256435
39,3,5,0.13048124816235654,0.007518670565968214
39,4,5,0.14112477860841607,0.01249279129300915
39,5,5,0.16100019746775465,0.014215361602468468
39,6,5,0.03604964771098436,0.005880759523334254
39,7,5,0.11974369534269942,0.003981530211057631
39,8,5,0.10452934147342934,0.01637044949183193
40,0,5,0.14425446132341352,0.006127108517694166
40,1,5,0.08425674809592854,0.01200519948360713
40,2,5,0.05922838106586632,0.01064939606054153
40,3,5,0.023694924809254947,0.010930220850742335
40,4,5,0.13862547282651966,0.0068315433108839425
40,5,5,0.1229501854849098,0.004657882403035224
40,6,5,0.05242672252178264,0.009097831775707377
40,7,5,0.15429260112398896,0.0172130560466912
40,8,5,0.17425711570475103,0.02178825552862605
