subject,channel,alpha,f1,drop_pp
1,0,1.0,0.6424521006456456,0.0
1,0,0.75,0.6477394021905518,-0.5287301544906198
1,0,0.5,0.6479999048239391,-0.5547804178293481
1,0,0.25,0.636814422022077,0.5637678623568565
1,0,0.0,0.617896823443431,2.455527720221462
1,1,1.0,0.6424521006456456,0.0
1,1,0.75,0.6476466795615732,-0.5194578915927561
1,1,0.5,0.6422573638673088,0.019473677833681258
1,1,0.25,0.6332861885891159,0.9165912056529724
1,1,0.0,0.6346762399276606,0.7775860717984973
1,2,1.0,0.6424521006456456,0.0
1,2,0.75,0.6356331073881913,0.6818993257454276
1,2,0.5,0.6436384453490064,-0.11863447033607644
1,2,0.25,0.6432921585722118,-0.08400579265661623
1,2,0.0,0.6338194135639614,0.8632687081684187
1,3,1.0,0.6424521006456456,0.0
1,3,0.75,0.6386517230046982,0.38003776409474277
1,3,0.5,0.6374449451430535,0.500715550259212
1,3,0.25,0.6191840340318704,2.326806661377523
1,3,0.0,0.5842246874339438,5.822741321170177
1,4,1.0,0.6424521006456456,0.0
1,4,0.75,0.6417494017518395,0.07026988938061418
1,4,0.5,0.6585358201251514,-1.608371947950582
1,4,0.25,0.6526158267319595,-1.0163726086313885
1,4,0.0,0.6406892163020634,0.17628843435821828
1,5,1.0,0.6424521006456456,0.0
1,5,0.75,0.6376929658613285,0.47591347843171095
1,5,0.5,0.6329129637927386,0.9539136852906971
1,5,0.25,0.6350409105643009,0.7411190081344721
1,5,0.0,0.6339285399273122,0.8523560718333378
1,6,1.0,0.6424521006456456,0.0
1,6,0.75,0.6651129446270766,-2.266084398143098
1,6,0.5,0.6556590987284057,-1.3206998082760046
1,6,0.25,0.6741789589079953,-3.1726858262349666
1,6,0.0,0.6856300348123263,-4.31779341666807
1,7,1.0,0.6424521006456456,0.0
1,7,0.75,0.6415695089169826,0.0882591728663007
1,7,0.5,0.6278154059615122,1.4636694684133422
1,7,0.25,0.6051136238469429,3.7338476798702724
1,7,0.0,0.552645773334836,8.980632731080963
1,8,1.0,0.6424521006456456,0.0
1,8,0.75,0.6463283171495713,-0.3876216503925667
1,8,0.5,0.6455043632588144,-0.30522626131688213
1,8,0.25,0.6218968145611865,2.0555286084459112
1,8,0.0,0.5445183200948047,9.79337805508409
2,0,1.0,0.9079834079827362,0.0
2,0,0.75,0.915880593430102,-0.7897185447365729
2,0,0.5,0.9119942554350517,-0.40108474523155024
2,0,0.25,0.9020750069642538,0.5908401018482445
2,0,0.0,0.8844997151750845,2.3483692807651724
2,1,1.0,0.9079834079827362,0.0
2,1,0.75,0.9027825066405212,0.520090134221507
2,1,0.5,0.8923738425073611,1.5609565475375176
2,1,0.25,0.8743203110076534,3.366309697508285
2,1,0.0,0.8499810012233358,5.800240675940049
2,2,1.0,0.9079834079827362,0.0
2,2,0.75,0.9063440283792963,0.1639379603439961
2,2,0.5,0.8896451008794316,1.833830710330464
2,2,0.25,0.8625102323289446,4.547317565379161
2,2,0.0,0.8244134980050474,8.356990997768888
2,3,1.0,0.9079834079827362,0.0
2,3,0.75,0.9147770066488494,-0.6793598666113176
2,3,0.5,0.9192955654289361,-1.1312157446199844
2,3,0.25,0.9159082374399828,-0.7924829457246596
2,3,0.0,0.9120366161932785,-0.4053208210542225
2,4,1.0,0.9079834079827362,0.0
2,4,0.75,0.9036508201866189,0.43325877961173376
2,4,0.5,0.8930869760756869,1.4896431907049368
2,4,0.25,0.8742524263873424,3.3730981595393894
2,4,0.0,0.8468273165966068,6.1156091386129425
2,5,1.0,0.9079834079827362,0.0
2,5,0.75,0.9035796027768697,0.44038052058665844
2,5,0.5,0.9032272325375774,0.4756175445158828
2,5,0.25,0.9015772908939276,0.6406117088808672
2,5,0.0,0.8602414623779855,4.774194560475076
2,6,1.0,0.9079834079827362,0.0
2,6,0.75,0.9079013444252187,0.008206355751749772
2,6,0.5,0.9034468022399056,0.4536605742830657
2,6,0.25,0.8863652783820486,2.161812960068765
2,6,0.0,0.8757121528357766,3.227125514695961
2,7,1.0,0.9079834079827362,0.0
2,7,0.75,0.9026114671016574,0.537194088107884
2,7,0.5,0.8944540219646222,1.3529386018114042
2,7,0.25,0.8833931992337164,2.459020874901985
2,7,0.0,0.7972544161355349,11.07289918472013
2,8,1.0,0.9079834079827362,0.0
2,8,0.75,0.9079834079827362,0.0
2,8,0.5,0.9120912826782818,-0.41078746955455214
2,8,0.25,0.8831192215254781,2.4864186457258186
2,8,0.0,0.8443422355655543,6.364117241718192
3,0,1.0,0.9089595935299126,0.0
3,0,0.75,0.912573440000902,-0.361384647098939
3,0,0.5,0.9186760670059504,-0.9716473476037768
3,0,0.25,0.9081766525457684,0.07829409841442203
3,0,0.0,0.8881180114322151,2.0841582097697486
3,1,1.0,0.9089595935299126,0.0
3,1,0.75,0.910226152132296,-0.12665586023833386
3,1,0.5,0.9014225838774002,0.7537009652512472
3,1,0.25,0.9000943391073338,0.8865254422578794
3,1,0.0,0.8723790253875067,3.6580568142405956
3,2,1.0,0.9089595935299126,0.0
3,2,0.75,0.9049970982520756,0.3962495277836986
3,2,0.5,0.9036250607988037,0.5334532731108954
3,2,0.25,0.899861569828247,0.909802370166557
3,2,0.0,0.8653019925072254,4.365760102268723
3,3,1.0,0.9089595935299126,0.0
3,3,0.75,0.9059781729272451,0.2981420602667484
3,3,0.5,0.8758160303721968,3.3143563157715827
3,3,0.25,0.8456411368100722,6.331845671984038
3,3,0.0,0.7757826851856583,13.317690834425433
3,4,1.0,0.9089595935299126,0.0
3,4,0.75,0.922624026171124,-1.3664432641211421
3,4,0.5,0.9278856778886457,-1.8926084358733108
3,4,0.25,0.927239464138853,-1.827987060894043
3,4,0.0,0.9242587664140188,-1.5299172884106205
3,5,1.0,0.9089595935299126,0.0
3,5,0.75,0.9130307962908675,-0.40712027609548507
3,5,0.5,0.9172911812959335,-0.8331587766020832
3,5,0.25,0.9181684981684981,-0.920890463858548
3,5,0.0,0.8893441697548504,1.9615423775062202
3,6,1.0,0.9089595935299126,0.0
3,6,0.75,0.9158394045400378,-0.6879811010125136
3,6,0.5,0.9193460806504284,-1.038648712051582
3,6,0.25,0.9133141520147854,-0.43545584848727614
3,6,0.0,0.89718418905142,1.177540447849268
3,7,1.0,0.9089595935299126,0.0
3,7,0.75,0.9020582457289198,0.690134780099283
3,7,0.5,0.9118993298180341,-0.2939736288121497
3,7,0.25,0.8955399978868824,1.341959564303019
3,7,0.0,0.8527834000686447,5.61761934612679
3,8,1.0,0.9089595935299126,0.0
3,8,0.75,0.9088897610326182,0.006983249729441976
3,8,0.5,0.9053183324611896,0.36412610687229785
3,8,0.25,0.9038808073828023,0.5078786147110326
3,8,0.0,0.8743486244608571,3.4610969069055475
4,0,1.0,0.8488897352605591,0.0
4,0,0.75,0.85036575740043,-0.14760221398708584
4,0,0.5,0.8521022409721133,-0.3212505711554181
4,0,0.25,0.8579944259044237,-0.9104690643864544
4,0,0.0,0.8584551741625935,-0.9565438902034429
4,1,1.0,0.8488897352605591,0.0
4,1,0.75,0.8413725707120994,0.7517164548459743
4,1,0.5,0.8427125777597683,0.6177157500790842
4,1,0.25,0.830870325678523,1.8019409582036072
4,1,0.0,0.8007193765275825,4.817035873297659
4,2,1.0,0.8488897352605591,0.0
4,2,0.75,0.8512935814144054,-0.24038461538462563
4,2,0.5,0.8411007790971724,0.7788956163386707
4,2,0.25,0.838639533853203,1.0250201407356108
4,2,0.0,0.8185333800481304,3.0356355212428743
4,3,1.0,0.8488897352605591,0.0
4,3,0.75,0.8520221520888708,-0.3132416828311668
4,3,0.5,0.8420510662086125,0.6838669051946633
4,3,0.25,0.8532365733640149,-0.4346838103455819
4,3,0.0,0.8211883153388027,2.7701419921756454
4,4,1.0,0.8488897352605591,0.0
4,4,0.75,0.8419602118820498,0.6929523378509272
4,4,0.5,0.8361334229163482,1.275631234421093
4,4,0.25,0.8245159871873178,2.437374807324133
4,4,0.0,0.7974000402767816,5.148969498377753
4,5,1.0,0.8488897352605591,0.0
4,5,0.75,0.8485440125953572,0.034572266520194184
4,5,0.5,0.8301258858056355,1.8763849454923598
4,5,0.25,0.8154286323715424,3.3461102889016714
4,5,0.0,0.8037637227384977,4.512601252206139
4,6,1.0,0.8488897352605591,0.0
4,6,0.75,0.8497820071901092,-0.08922719295501036
4,6,0.5,0.8453360027578407,0.35537325027183986
4,6,0.25,0.848561535395138,0.032819986542109714
4,6,0.0,0.8466638529473921,0.22258823131670047
4,7,1.0,0.8488897352605591,0.0
4,7,0.75,0.8482353703321308,0.06543649284282971
4,7,0.5,0.8361659309900442,1.2723804270514893
4,7,0.25,0.8414980314516695,0.7391703808889649
4,7,0.0,0.8077268886695947,4.116284659096436
4,8,1.0,0.8488897352605591,0.0
4,8,0.75,0.8618348153245179,-1.294508006395878
4,8,0.5,0.8600610165315381,-1.1171281270978994
4,8,0.25,0.8506937980010434,-0.18040627404842802
4,8,0.0,0.820848719821175,2.8041015439384087
5,0,1.0,0.6855383678913092,0.0
5,0,0.75,0.6883964599850574,-0.285809209374821
5,0,0.5,0.6854119378053678,0.012643008594137584
5,0,0.25,0.673438193516859,1.2100174374450212
5,0,0.0,0.655784270004912,2.9754097886397157
5,1,1.0,0.6855383678913092,0.0
5,1,0.75,0.6844533955404705,0.10849723508387088
5,1,0.5,0.6865614660382442,-0.10230981469350198
5,1,0.25,0.6854319335012595,0.010643439004964783
5,1,0.0,0.6751953320317725,1.0343035859536664
5,2,1.0,0.6855383678913092,0.0
5,2,0.75,0.6827781575523322,0.27602103389769983
5,2,0.5,0.6799413484052038,0.5597019486105359
5,2,0.25,0.6825834123017652,0.29549555895439505
5,2,0.0,0.6630685973573257,2.246977053398347
5,3,1.0,0.6855383678913092,0.0
5,3,0.75,0.6965224775313605,-1.0984109640051365
5,3,0.5,0.7073715574801605,-2.1833189588851276
5,3,0.25,0.7232636128407829,-3.7725244949473713
5,3,0.0,0.7208355813756511,-3.5297213484341894
5,4,1.0,0.6855383678913092,0.0
5,4,0.75,0.6759264188476035,0.9611949043705659
5,4,0.5,0.6656396443067213,1.9898723584587885
5,4,0.25,0.6299189071468798,5.561946074442936
5,4,0.0,0.611645865427444,7.3892502463865135
5,5,1.0,0.6855383678913092,0.0
5,5,0.75,0.677911369674964,0.762699821634516
5,5,0.5,0.6677491673146527,1.778920057665645
5,5,0.25,0.655104600018656,3.0433767872653172
5,5,0.0,0.630792871455331,5.474549643597815
5,6,1.0,0.6855383678913092,0.0
5,6,0.75,0.6791797492592513,0.6358618632057889
5,6,0.5,0.6812724197542263,0.426594813708292
5,6,0.25,0.6737482785760657,1.1790089315243502
5,6,0.0,0.6746149147104041,1.092345318090504
5,7,1.0,0.6855383678913092,0.0
5,7,0.75,0.6911898238925377,-0.5651456001228516
5,7,0.5,0.6855610421249062,-0.0022674233597030913
5,7,0.25,0.6770156112003738,0.8522756690935385
5,7,0.0,0.6558171004636284,2.9721267427680775
5,8,1.0,0.6855383678913092,0.0
5,8,0.75,0.6973967107837412,-1.1858342892432039
5,8,0.5,0.6990201110041894,-1.3481743112880196
5,8,0.25,0.6851264849374092,0.04118829538999336
5,8,0.0,0.6541018832368577,3.143648465445148
6,0,1.0,0.78497373396398,0.0
6,0,0.75,0.7883035298853462,-0.33297959213662853
6,0,0.5,0.7770357147314818,0.793801923249815
6,0,0.25,0.7665503558472782,1.8423378116701805
6,0,0.0,0.7525867004577866,3.238703350619332
6,1,1.0,0.78497373396398,0.0
6,1,0.75,0.7892090519651278,-0.42353180011478475
6,1,0.5,0.7832077470075218,0.1765986956458132
6,1,0.25,0.7869626861698288,-0.19889522058488263
6,1,0.0,0.7621880904829791,2.2785643481000872
6,2,1.0,0.78497373396398,0.0
6,2,0.75,0.7919692766196509,-0.6995542655670928
6,2,0.5,0.7987868576970363,-1.381312373305632
6,2,0.25,0.8076597775842433,-2.2686043620263385
6,2,0.0,0.7930463773806364,-0.8072643416656478
6,3,1.0,0.78497373396398,0.0
6,3,0.75,0.8067311449863475,-2.17574110223675
6,3,0.5,0.8214989825311498,-3.6525248567169877
6,3,0.25,0.8282563117694965,-4.328257780551659
6,3,0.0,0.8041195309590037,-1.9145796995023723
6,4,1.0,0.78497373396398,0.0
6,4,0.75,0.7799068565965968,0.5066877367383205
6,4,0.5,0.7749064567026321,1.0067277261347818
6,4,0.25,0.7530442550852117,3.192947887876829
6,4,0.0,0.741836889211978,4.313684475200197
6,5,1.0,0.78497373396398,0.0
6,5,0.75,0.7802981251860464,0.4675608777933604
6,5,0.5,0.7742596519650776,1.0714081998902336
6,5,0.25,0.7692746818956914,1.5699052068288588
6,5,0.0,0.7522205799876767,3.2753153976303295
6,6,1.0,0.78497373396398,0.0
6,6,0.75,0.7673068189456822,1.7666915018297757
6,6,0.5,0.7731402686709596,1.1833465293020318
6,6,0.25,0.7676284459744425,1.7345287989537495
6,6,0.0,0.7699835208616286,1.499021310235138
6,7,1.0,0.78497373396398,0.0
6,7,0.75,0.7681700045960751,1.6803729367904863
6,7,0.5,0.778052488101832,0.6921245862147929
6,7,0.25,0.7653212954631964,1.9652438500783576
6,7,0.0,0.7221395634450746,6.283417051890538
6,8,1.0,0.78497373396398,0.0
6,8,0.75,0.7803971274439424,0.45766065200375516
6,8,0.5,0.7711253751301825,1.3848358833797425
6,8,0.25,0.7545729255249171,3.04008084390629
6,8,0.0,0.7061648578231446,7.880887614083532
7,0,1.0,0.8113110265501151,0.0
7,0,0.75,0.8280799637939393,-1.6768937243824222
7,0,0.5,0.8163561340944289,-0.5045107544313754
7,0,0.25,0.8083399887415471,0.2971037808568
7,0,0.0,0.7918274156200884,1.9483610930026707
7,1,1.0,0.8113110265501151,0.0
7,1,0.75,0.8136118341141767,-0.2300807564061591
7,1,0.5,0.8040865751334858,0.7224451416629307
7,1,0.25,0.8063983256992318,0.4912700850883356
7,1,0.0,0.7567702018217473,5.454082472836785
7,2,1.0,0.8113110265501151,0.0
7,2,0.75,0.8224205831900238,-1.1109556639908647
7,2,0.5,0.8090449824943954,0.22660440557197292
7,2,0.25,0.790674998174191,2.0636028375924154
7,2,0.0,0.7675189102256086,4.3792116324506525
7,3,1.0,0.8113110265501151,0.0
7,3,0.75,0.8097439106454839,0.1567115904631211
7,3,0.5,0.8138654715298136,-0.2554444979698478
7,3,0.25,0.8080601925921453,0.32508339579697676
7,3,0.0,0.7926941303842563,1.861689616585882
7,4,1.0,0.8113110265501151,0.0
7,4,0.75,0.8056598943326823,0.5651132217432853
7,4,0.5,0.8013738044158398,0.9937222134275281
7,4,0.25,0.789694539806961,2.1616486743154084
7,4,0.0,0.7726377038344657,3.8673322715649383
7,5,1.0,0.8113110265501151,0.0
7,5,0.75,0.815269769935113,-0.3958743384997909
7,5,0.5,0.8167733033547473,-0.5462276804632182
7,5,0.25,0.8185397081341378,-0.7228681584022678
7,5,0.0,0.8066545562189251,0.4656470331189988
7,6,1.0,0.8113110265501151,0.0
7,6,0.75,0.8155841047190665,-0.4273078168951394
7,6,0.5,0.7982920110192837,1.3019015530831402
7,6,0.25,0.7909419177211839,2.036910882893117
7,6,0.0,0.7894886933269094,2.1822333223205703
7,7,1.0,0.8113110265501151,0.0
7,7,0.75,0.8095080839353286,0.1802942614786529
7,7,0.5,0.8129100496812518,-0.15990231311366898
7,7,0.25,0.7927193480472168,1.8591678502898334
7,7,0.0,0.7199338997075626,9.13771268425525
7,8,1.0,0.8113110265501151,0.0
7,8,0.75,0.8005139977388201,1.0797028811294962
7,8,0.5,0.7937071971727808,1.760382937733429
7,8,0.25,0.7692820083294497,4.20290182206654
7,8,0.0,0.7476289222132924,6.368210433682275
8,0,1.0,0.8592414296838029,0.0
8,0,0.75,0.8629526255742097,-0.37111958904068043
8,0,0.5,0.8625991844344212,-0.33577547506182803
8,0,0.25,0.8626022732556031,-0.33608435718002205
8,0,0.0,0.8429057921459138,1.6335637537889136
8,1,1.0,0.8592414296838029,0.0
8,1,0.75,0.8638075710383812,-0.45661413545783347
8,1,0.5,0.8643417431823559,-0.5100313498553
8,1,0.25,0.8553136280897017,0.3927801594101221
8,1,0.0,0.832352887135448,2.6888542548354932
8,2,1.0,0.8592414296838029,0.0
8,2,0.75,0.8618715773275147,-0.2630147643711833
8,2,0.5,0.8591410177264309,0.010041195737198194
8,2,0.25,0.8640867259881028,-0.4845296304299862
8,2,0.0,0.8587541529091207,0.04872767746821882
8,3,1.0,0.8592414296838029,0.0
8,3,0.75,0.8697909004742497,-1.0549470790446769
8,3,0.5,0.8667991789730722,-0.7557749289269333
8,3,0.25,0.8611372072891937,-0.1895777605390836
8,3,0.0,0.8402976607357702,1.8943768948032735
8,4,1.0,0.8592414296838029,0.0
8,4,0.75,0.8566249592206361,0.261647046316682
8,4,0.5,0.842234876406703,1.7006553277099878
8,4,0.25,0.8216109882238252,3.7630441459977737
8,4,0.0,0.7923510304613955,6.689039922240736
8,5,1.0,0.8592414296838029,0.0
8,5,0.75,0.8400790761502015,1.9162353533601406
8,5,0.5,0.8188283448145147,4.041308486928818
8,5,0.25,0.794488143792927,6.475328589087592
8,5,0.0,0.7733211109085567,8.592031877524619
8,6,1.0,0.8592414296838029,0.0
8,6,0.75,0.8540404806589044,0.5200949024898538
8,6,0.5,0.850210631459053,0.9030798224749947
8,6,0.25,0.8446236712984638,1.4617758385339075
8,6,0.0,0.8409387079020234,1.8302721781779496
8,7,1.0,0.8592414296838029,0.0
8,7,0.75,0.8691427334781612,-0.9901303794358274
8,7,0.5,0.8710000857583181,-1.1758656074515206
8,7,0.25,0.8557356952550114,0.35057344287915404
8,7,0.0,0.799320449838243,5.992097984555988
8,8,1.0,0.8592414296838029,0.0
8,8,0.75,0.8711283450809917,-1.188691539718878
8,8,0.5,0.8727119863744981,-1.347055669069519
8,8,0.25,0.8539262280755726,0.5315201608230291
8,8,0.0,0.7773989183600687,8.184251132373422
9,0,1.0,0.8178052461176044,0.0
9,0,0.75,0.8192612691718661,-0.14560230542617347
9,0,0.5,0.8252504263345058,-0.7445180216901437
9,0,0.25,0.8258967223252939,-0.8091476207689463
9,0,0.0,0.8054788920630856,1.2326354054518762
9,1,1.0,0.8178052461176044,0.0
9,1,0.75,0.81843944438839,-0.06341982707855909
9,1,0.5,0.8192422405781008,-0.1436994460496388
9,1,0.25,0.8106941268358681,0.7111119281736356
9,1,0.0,0.7865300662345736,3.1275179883030857
9,2,1.0,0.8178052461176044,0.0
9,2,0.75,0.8149764077056916,0.28288384119128374
9,2,0.5,0.8214231481173588,-0.3617901999754425
9,2,0.25,0.8067102652027378,1.1094980914866603
9,2,0.0,0.7919636439005443,2.584160221706011
9,3,1.0,0.8178052461176044,0.0
9,3,0.75,0.8270261194521047,-0.9220873334500279
9,3,0.5,0.8290172732782546,-1.1212027160650173
9,3,0.25,0.8352069407672125,-1.7401694649608057
9,3,0.0,0.8232667873057522,-0.5461541188147789
9,4,1.0,0.8178052461176044,0.0
9,4,0.75,0.8166635927096403,0.11416534079641272
9,4,0.5,0.8149161836661837,0.2889062451420732
9,4,0.25,0.8178344333944001,-0.002918727679568356
9,4,0.0,0.8026921085097203,1.511313760788413
9,5,1.0,0.8178052461176044,0.0
9,5,0.75,0.8153360862471238,0.2469159870480575
9,5,0.5,0.8099762834088882,0.7828962708716247
9,5,0.25,0.8127397980723783,0.5065448045226129
9,5,0.0,0.7996507868126645,1.8154459304939863
9,6,1.0,0.8178052461176044,0.0
9,6,0.75,0.8191619565556354,-0.13567104380309836
9,6,0.5,0.8162495032604351,0.15557428571693066
9,6,0.25,0.8185205226796683,-0.07152765620639379
9,6,0.0,0.7991386100167086,1.8666636100895806
9,7,1.0,0.8178052461176044,0.0
9,7,0.75,0.8213212500506255,-0.35160039330210946
9,7,0.5,0.8257971065624585,-0.7991860444854115
9,7,0.25,0.8087619121363723,0.9043333981232138
9,7,0.0,0.7436731259709685,7.4132120146635945
9,8,1.0,0.8178052461176044,0.0
9,8,0.75,0.8178052461176044,0.0
9,8,0.5,0.8233038853484788,-0.5498639230874347
9,8,0.25,0.811590767295147,0.6214478822457403
9,8,0.0,0.730703920180272,8.710132593733244
10,0,1.0,0.7845989255140486,0.0
10,0,0.75,0.776088615915385,0.8510309598663612
10,0,0.5,0.7782834740740404,0.6315451440008224
10,0,0.25,0.7684564008066272,1.614252470742139
10,0,0.0,0.7437764741565597,4.082245135748897
10,1,1.0,0.7845989255140486,0.0
10,1,0.75,0.7821469753470578,0.2451950166990846
10,1,0.5,0.7744826333783389,1.0116292135709748
10,1,0.25,0.767182029009986,1.741689650406264
10,1,0.0,0.7576882327119683,2.691069280208036
10,2,1.0,0.7845989255140486,0.0
10,2,0.75,0.7862906736573677,-0.16917481433190718
10,2,0.5,0.7752443357255437,0.9354589788504897
10,2,0.25,0.7595276416625119,2.5071283851536785
10,2,0.0,0.7163141040560396,6.828482145800907
10,3,1.0,0.7845989255140486,0.0
10,3,0.75,0.7790499634618611,0.5548962052187578
10,3,0.5,0.7841619487102526,0.04369768037960631
10,3,0.25,0.7699756023581543,1.4623323155894319
10,3,0.0,0.7610134960272981,2.3585429486750575
10,4,1.0,0.7845989255140486,0.0
10,4,0.75,0.7733646951312945,1.1234230382754173
10,4,0.5,0.765082602331068,1.9516323182980688
10,4,0.25,0.7395019143212249,4.509701119282372
10,4,0.0,0.7324809743663334,5.2117951147715225
10,5,1.0,0.7845989255140486,0.0
10,5,0.75,0.7710097175959755,1.3589207918073165
10,5,0.5,0.7637132198723056,2.088570564174308
10,5,0.25,0.7500005127871641,3.4598412726884575
10,5,0.0,0.7347795507049151,4.9819374809133565
10,6,1.0,0.7845989255140486,0.0
10,6,0.75,0.7835854886194956,0.10134368945530214
10,6,0.5,0.7820790875043568,0.25198380096917994
10,6,0.25,0.7911465627804781,-0.6547637266429485
10,6,0.0,0.7917963663173806,-0.7197440803331956
10,7,1.0,0.7845989255140486,0.0
10,7,0.75,0.7746460874801521,0.9952838033896572
10,7,0.5,0.7734591708533258,1.1139754660722812
10,7,0.25,0.7650893626476395,1.9509562866409147
10,7,0.0,0.7407723074662116,4.382661804783705
10,8,1.0,0.7845989255140486,0.0
10,8,0.75,0.7927064227525269,-0.8107497238478256
10,8,0.5,0.7969800977045254,-1.2381172190476741
10,8,0.25,0.821213700793112,-3.6614775279063316
10,8,0.0,0.7655593276268179,1.9039597887230753
11,0,1.0,0.9222322753220182,0.0
11,0,0.75,0.9256165911033378,-0.3384315781319591
11,0,0.5,0.9142218878101662,0.8010387511852013
11,0,0.25,0.9009399102335975,2.1292365088420695
11,0,0.0,0.8858663265013231,3.6365948820695104
11,1,1.0,0.9222322753220182,0.0
11,1,0.75,0.9137439523964346,0.8488322925583658
11,1,0.5,0.9047392855678702,1.7492989754148036
11,1,0.25,0.8975890773714962,2.4643197950522056
11,1,0.0,0.8937268644558535,2.850541086616476
11,2,1.0,0.9222322753220182,0.0
11,2,0.75,0.9150616661638695,0.7170609158148711
11,2,0.5,0.8972322115005413,2.5000063821476903
11,2,0.25,0.8652998914184963,5.693238390352196
11,2,0.0,0.8418520442719679,8.038023105005031
11,3,1.0,0.9222322753220182,0.0
11,3,0.75,0.9146362542195876,0.7596021102430628
11,3,0.5,0.9051421590181281,1.7090116303890124
11,3,0.25,0.8893424401060952,3.2889835215923036
11,3,0.0,0.8575183110861249,6.471396423589337
11,4,1.0,0.9222322753220182,0.0
11,4,0.75,0.9155460285895067,0.6686246732511503
11,4,0.5,0.9122374717767637,0.9994803545254505
11,4,0.25,0.8980368956416206,2.4195379680397644
11,4,0.0,0.8487191703645569,7.351310495746133
11,5,1.0,0.9222322753220182,0.0
11,5,0.75,0.9183783826994852,0.3853892622532995
11,5,0.5,0.913245666525718,0.89866087963002
11,5,0.25,0.9069413488156156,1.5290926506402625
11,5,0.0,0.9049579748324755,1.7274300489542704
11,6,1.0,0.9222322753220182,0.0
11,6,0.75,0.9261288664365641,-0.38965911145458776
11,6,0.5,0.9347214639615841,-1.248918863956583
11,6,0.25,0.9242836297652739,-0.20513544432556596
11,6,0.0,0.9121898582399546,1.004241708206366
11,7,1.0,0.9222322753220182,0.0
11,7,0.75,0.9268816104182849,-0.4649335096266638
11,7,0.5,0.9261032366059454,-0.38709612839271657
11,7,0.25,0.9305772005772006,-0.8344925255182378
11,7,0.0,0.8557407250606599,6.649155026135833
11,8,1.0,0.9222322753220182,0.0
11,8,0.75,0.9201949136452666,0.20373616767516145
11,8,0.5,0.9236001877696107,-0.13679124475924898
11,8,0.25,0.9276473724808152,-0.5415097158796955
11,8,0.0,0.888962892225586,3.3269383096432237
12,0,1.0,0.915507632773902,0.0
12,0,0.75,0.9186317794420048,-0.31241466681027896
12,0,0.5,0.9117809823644374,0.3726650409464627
12,0,0.25,0.911182322990209,0.43253097836930543
12,0,0.0,0.8986512202866993,1.685641248720271
12,1,1.0,0.915507632773902,0.0
12,1,0.75,0.9071255503193117,0.8382082454590267
12,1,0.5,0.9013390232758595,1.416860949804255
12,1,0.25,0.888848745871454,2.6658886902448
12,1,0.0,0.8514470178343652,6.406061493953685
12,2,1.0,0.915507632773902,0.0
12,2,0.75,0.9176026092255084,-0.20949764516063896
12,2,0.5,0.9127453693291653,0.27622634447367345
12,2,0.25,0.9061636027305883,0.9344030043313745
12,2,0.0,0.8623440012585742,5.3163631515327765
12,3,1.0,0.915507632773902,0.0
12,3,0.75,0.9158249496636224,-0.03173168897203649
12,3,0.5,0.9097716389187254,0.5735993855176647
12,3,0.25,0.8940638742404253,2.1443758533476687
12,3,0.0,0.8511648701288527,6.434276264504934
12,4,1.0,0.915507632773902,0.0
12,4,0.75,0.9113186040436441,0.4189028730257949
12,4,0.5,0.907862210555251,0.7645422218651055
12,4,0.25,0.8877912255101996,2.771640726370239
12,4,0.0,0.8711198892702622,4.438774350363984
12,5,1.0,0.915507632773902,0.0
12,5,0.75,0.9144660602055159,0.10415725683861066
12,5,0.5,0.9059622135681186,0.9545419205783445
12,5,0.25,0.9042773222731826,1.1230310500719431
12,5,0.0,0.8837208603922828,3.17867723816192
12,6,1.0,0.915507632773902,0.0
12,6,0.75,0.9106567764733864,0.4850856300515627
12,6,0.5,0.9081199728148135,0.7387659959088522
12,6,0.25,0.9080312684831638,0.7476364290738169
12,6,0.0,0.9026518500903348,1.285578268356724
12,7,1.0,0.915507632773902,0.0
12,7,0.75,0.922430036167662,-0.6922403393759935
12,7,0.5,0.9307059874814512,-1.5198354707549155
12,7,0.25,0.9303267355189444,-1.481910274504239
12,7,0.0,0.8852199194879363,3.028771328596569
12,8,1.0,0.915507632773902,0.0
12,8,0.75,0.9103126882197793,0.5194944554122727
12,8,0.5,0.8948437872494545,2.0663845524447555
12,8,0.25,0.89934846930737,1.6159163466532012
12,8,0.0,0.8571593420415081,5.834829073239389
13,0,1.0,0.9229723615471338,0.0
13,0,0.75,0.9243964609243394,-0.14240993772055566
13,0,0.5,0.9296636579826002,-0.6691296435466398
13,0,0.25,0.9433205766676689,-2.0348215120535085
13,0,0.0,0.918320649938297,0.4651711608836817
13,1,1.0,0.9229723615471338,0.0
13,1,0.75,0.9287082126240919,-0.5735851076958065
13,1,0.5,0.9168028261551764,0.6169535391957415
13,1,0.25,0.9001514205339876,2.2820941013146245
13,1,0.0,0.8813833183855895,4.158904316154432
13,2,1.0,0.9229723615471338,0.0
13,2,0.75,0.9289896813040629,-0.6017319756929096
13,2,0.5,0.9095402932157237,1.3432068331410085
13,2,0.25,0.8895228888413818,3.344947270575205
13,2,0.0,0.8687819919315721,5.419036961556167
13,3,1.0,0.9229723615471338,0.0
13,3,0.75,0.922482273576343,0.04900879707907535
13,3,0.5,0.9181283554089793,0.48440061381544997
13,3,0.25,0.9080785216268048,1.4893839920329
13,3,0.0,0.8857072468611777,3.726511468595606
13,4,1.0,0.9229723615471338,0.0
13,4,0.75,0.9284814952410532,-0.5509133693919366
13,4,0.5,0.9269086517404577,-0.3936290193323866
13,4,0.25,0.9146811988450714,0.8291162702062427
13,4,0.0,0.8770158711219714,4.595649042516237
13,5,1.0,0.9229723615471338,0.0
13,5,0.75,0.9215824980559878,0.1389863491146004
13,5,0.5,0.9144956965649107,0.8476664982223103
13,5,0.25,0.8996906517501483,2.3281709796985517
13,5,0.0,0.8477969193233845,7.517544222374928
13,6,1.0,0.9229723615471338,0.0
13,6,0.75,0.9252696899874319,-0.22973284402980632
13,6,0.5,0.9284439263961448,-0.5471564849011012
13,6,0.25,0.9188011075409102,0.4171254006223646
13,6,0.0,0.9055848951160609,1.7387466431072918
13,7,1.0,0.9229723615471338,0.0
13,7,0.75,0.9235542907167894,-0.05819291696556039
13,7,0.5,0.9236774534398763,-0.07050918927424821
13,7,0.25,0.9235309608740501,-0.05585993269162648
13,7,0.0,0.8946788598637208,2.8293501683413047
13,8,1.0,0.9229723615471338,0.0
13,8,0.75,0.9317936451463211,-0.8821283599187324
13,8,0.5,0.9356025307529364,-1.2630169205802622
13,8,0.25,0.9365452671696353,-1.3572905622501463
13,8,0.0,0.9147209431609535,0.8251418386180265
14,0,1.0,0.8338975099580264,0.0
14,0,0.75,0.8369958082380564,-0.3098298280030054
14,0,0.5,0.829952068437361,0.3945441520665338
14,0,0.25,0.8259342237325304,0.7963286225495914
14,0,0.0,0.8076351030986165,2.6262406859409837
14,1,1.0,0.8338975099580264,0.0
14,1,0.75,0.8358673308032891,-0.19698208452627597
14,1,0.5,0.8345741530074381,-0.06766430494117293
14,1,0.25,0.8393870642705834,-0.5489554312557043
14,1,0.0,0.7984622379898749,3.543527196815144
14,2,1.0,0.8338975099580264,0.0
14,2,0.75,0.8365103045831571,-0.26127946251307543
14,2,0.5,0.8423585549832782,-0.8461045025251801
14,2,0.25,0.835340477692682,-0.14429677346556868
14,2,0.0,0.8348812407095407,-0.09837307515143667
14,3,1.0,0.8338975099580264,0.0
14,3,0.75,0.8244848152539195,0.9412694704106883
14,3,0.5,0.7914563152321661,4.244119472586028
14,3,0.25,0.767155304210332,6.674220574769441
14,3,0.0,0.7380651998194662,9.58323101385602
14,4,1.0,0.8338975099580264,0.0
14,4,0.75,0.8423634097084753,-0.846589975044898
14,4,0.5,0.8474037960397721,-1.3506286081745755
14,4,0.25,0.8561961385182397,-2.2298628560213363
14,4,0.0,0.8157770433561304,1.8120466601895924
14,5,1.0,0.8338975099580264,0.0
14,5,0.75,0.8371029241956174,-0.320541423759102
14,5,0.5,0.84720011516074,-1.3302605202713647
14,5,0.25,0.847190297504993,-1.3292787546966611
14,5,0.0,0.8377915152092895,-0.3894005251263155
14,6,1.0,0.8338975099580264,0.0
14,6,0.75,0.8352335827694937,-0.13360728114673037
14,6,0.5,0.8306965045533617,0.3201005404664614
14,6,0.25,0.831020502063809,0.28770078942174093
14,6,0.0,0.8230423248673412,1.085518509068517
14,7,1.0,0.8338975099580264,0.0
14,7,0.75,0.8463715140149253,-1.2474004056898913
14,7,0.5,0.8414032708225491,-0.7505760864522704
14,7,0.25,0.8410685863911087,-0.7171076433082346
14,7,0.0,0.7987523040184015,3.514520593962489
14,8,1.0,0.8338975099580264,0.0
14,8,0.75,0.8429471239117796,-0.9049613953753255
14,8,0.5,0.8306556689166891,0.324184104133729
14,8,0.25,0.8162621773923463,1.7635332565680062
14,8,0.0,0.7465169483941747,8.738056156385166
15,0,1.0,0.9253339966363046,0.0
15,0,0.75,0.9197621420342095,0.5571854602095083
15,0,0.5,0.9149858788638002,1.0348117772504328
15,0,0.25,0.9076594513350194,1.7674545301285205
15,0,0.0,0.8676121466850871,5.7721849951217425
15,1,1.0,0.9253339966363046,0.0
15,1,0.75,0.9189313918040659,0.6402604832238645
15,1,0.5,0.9059906130378059,1.9343383598498631
15,1,0.25,0.8993153404429339,2.6018656193370626
15,1,0.0,0.8764048156359587,4.892918100034582
15,2,1.0,0.9253339966363046,0.0
15,2,0.75,0.9177416282122042,0.7592368424100382
15,2,0.5,0.8938765057201277,3.145749091617689
15,2,0.25,0.8617572507792461,6.357674585705841
15,2,0.0,0.8287251963619117,9.660880027439289
15,3,1.0,0.9253339966363046,0.0
15,3,0.75,0.9248234958518554,0.05105007844491416
15,3,0.5,0.9251850877522643,0.014890888404028857
15,3,0.25,0.9183072274346697,0.7026769201634808
15,3,0.0,0.8942778335159531,3.105616312035142
15,4,1.0,0.9253339966363046,0.0
15,4,0.75,0.9299427010106905,-0.46087043743859857
15,4,0.5,0.9220661846496107,0.32678119866939026
15,4,0.25,0.9207727604825642,0.4561236153740378
15,4,0.0,0.9099744831354862,1.5359513500818323
15,5,1.0,0.9253339966363046,0.0
15,5,0.75,0.9299427010106905,-0.46087043743859857
15,5,0.5,0.930819107069956,-0.5485110433651408
15,5,0.25,0.9252326788718828,0.01013177644217933
15,5,0.0,0.891230187366317,3.4103809269987573
15,6,1.0,0.9253339966363046,0.0
15,6,0.75,0.930137803853379,-0.4803807217074407
15,6,0.5,0.9245702492445484,0.07637473917561088
15,6,0.25,0.9123575915165232,1.2976405119781376
15,6,0.0,0.8875001964621457,3.7833800174158827
15,7,1.0,0.9253339966363046,0.0
15,7,0.75,0.9195919423609846,0.574205427531993
15,7,0.5,0.9172691709906199,0.806482564568467
15,7,0.25,0.9138561383825591,1.1477858253745477
15,7,0.0,0.875255130206073,5.007886643023152
15,8,1.0,0.9253339966363046,0.0
15,8,0.75,0.92781787266442,-0.2483876028115395
15,8,0.5,0.9217093672458752,0.36246293904294014
15,8,0.25,0.9067976807970219,1.8536315839282613
15,8,0.0,0.8585383862081597,6.679561042814486
16,0,1.0,0.879929147911395,0.0
16,0,0.75,0.877543558700089,0.23855892113059385
16,0,0.5,0.8752883379115295,0.46408099998654917
16,0,0.25,0.8693076596808587,1.0621488230536325
16,0,0.0,0.8261869010049301,5.374224690646489
16,1,1.0,0.879929147911395,0.0
16,1,0.75,0.8819476719769297,-0.20185240655347103
16,1,0.5,0.880078253228356,-0.014910531696099572
16,1,0.25,0.8818549946040318,-0.19258466926368456
16,1,0.0,0.8716167819108996,0.8312366000495341
16,2,1.0,0.879929147911395,0.0
16,2,0.75,0.8774994527316509,0.2429695179744118
16,2,0.5,0.8751634062191201,0.47657416922748386
16,2,0.25,0.863934849115353,1.5994298796041972
16,2,0.0,0.8391517403199646,4.077740759143033
16,3,1.0,0.879929147911395,0.0
16,3,0.75,0.8772886820694418,0.264046584195321
16,3,0.5,0.8757300373399483,0.4199110571446729
16,3,0.25,0.8774548062447867,0.2474341666608315
16,3,0.0,0.8623186000014506,1.761054790994443
16,4,1.0,0.879929147911395,0.0
16,4,0.75,0.8743784075455758,0.5550740365819151
16,4,0.5,0.87164868143129,0.8280466480104942
16,4,0.25,0.8450151254579303,3.4914022453464644
16,4,0.0,0.7971168307144589,8.281231719693604
16,5,1.0,0.879929147911395,0.0
16,5,0.75,0.8753397981817396,0.4589349729655412
16,5,0.5,0.8703435524275933,0.9585595483801668
16,5,0.25,0.859575490505853,2.035365740554196
16,5,0.0,0.7852819065734663,9.464724133792867
16,6,1.0,0.879929147911395,0.0
16,6,0.75,0.8829435691201766,-0.30144212087815925
16,6,0.5,0.8894450205330281,-0.9515872621633115
16,6,0.25,0.8844084912108745,-0.4479343299479521
16,6,0.0,0.8704658437851273,0.9463304126267724
16,7,1.0,0.879929147911395,0.0
16,7,0.75,0.8776572358442613,0.227191206713373
16,7,0.5,0.8740406914328472,0.5888456478547743
16,7,0.25,0.8509863527520702,2.894279515932474
16,7,0.0,0.804646964604892,7.528218330650294
16,8,1.0,0.879929147911395,0.0
16,8,0.75,0.8841456703579531,-0.4216522446558124
16,8,0.5,0.8926529114749002,-1.2723763563505242
16,8,0.25,0.8768902443721129,0.3038903539282045
16,8,0.0,0.8422796595700581,3.7649488341336856
17,0,1.0,0.8795883163960749,0.0
17,0,0.75,0.8825809640428284,-0.29926476467534435
17,0,0.5,0.8825205888888213,-0.2932272492746413
17,0,0.25,0.8695111891566347,1.007712723944021
17,0,0.0,0.8210581706994791,5.853014569659587
17,1,1.0,0.8795883163960749,0.0
17,1,0.75,0.8871581674053732,-0.7569851009298301
17,1,0.5,0.8886479095567658,-0.9059593160690826
17,1,0.25,0.8936846542741933,-1.409633787811837
17,1,0.0,0.883317484481712,-0.3729168085637058
17,2,1.0,0.8795883163960749,0.0
17,2,0.75,0.884345464630776,-0.4757148234701081
17,2,0.5,0.8861868980708741,-0.6598581674799209
17,2,0.25,0.8751807096152321,0.4407606780842843
17,2,0.0,0.8578260759152573,2.176224048081765
17,3,1.0,0.8795883163960749,0.0
17,3,0.75,0.8740825901151987,0.55057262808762
17,3,0.5,0.8745465996961044,0.5041716699970555
17,3,0.25,0.8510546398046397,2.853367659143524
17,3,0.0,0.8095994728871597,6.998884350891521
17,4,1.0,0.8795883163960749,0.0
17,4,0.75,0.877720038462481,0.18682779335938982
17,4,0.5,0.85995717894945,1.9631137446624924
17,4,0.25,0.8638781975290268,1.5710118867048095
17,4,0.0,0.8646969089192126,1.489140747686235
17,5,1.0,0.8795883163960749,0.0
17,5,0.75,0.8773798533475533,0.2208463048521625
17,5,0.5,0.8590585950145779,2.0529721381497
17,5,0.25,0.8537151708323942,2.58731455636807
17,5,0.0,0.8369898485699079,4.259846782616705
17,6,1.0,0.8795883163960749,0.0
17,6,0.75,0.8808548992791533,-0.12665828830783488
17,6,0.5,0.879208617445014,0.03796989510609361
17,6,0.25,0.8728888803998854,0.6699435996189496
17,6,0.0,0.8643328544047784,1.525546199129657
17,7,1.0,0.8795883163960749,0.0
17,7,0.75,0.8802293358446343,-0.06410194485593212
17,7,0.5,0.8804224150353864,-0.0834098639311498
17,7,0.25,0.8639247910170598,1.5663525379015164
17,7,0.0,0.8131462897722106,6.644202662386434
17,8,1.0,0.8795883163960749,0.0
17,8,0.75,0.8713634942357757,0.8224822160299183
17,8,0.5,0.8509264410822659,2.8661875313809038
17,8,0.25,0.8155906593406593,6.39976570554156
17,8,0.0,0.7522620899150738,12.732622648100111
18,0,1.0,0.8611526380505254,0.0
18,0,0.75,0.8418844625279157,1.9268175522609732
18,0,0.5,0.8115276929974293,4.9624945053096114
18,0,0.25,0.8016749191791133,5.947771887141218
18,0,0.0,0.7879166047352743,7.323603331525119
18,1,1.0,0.8611526380505254,0.0
18,1,0.75,0.8520960648237594,0.9056573226766007
18,1,0.5,0.8496874285819802,1.1465209468545234
18,1,0.25,0.844896140359517,1.6256497691008454
18,1,0.0,0.8266053402513529,3.454729779917254
18,2,1.0,0.8611526380505254,0.0
18,2,0.75,0.8577629830654117,0.3389654985113788
18,2,0.5,0.8503415519371034,1.0811086113422075
18,2,0.25,0.8428765535581108,1.827608449241469
18,2,0.0,0.8107281595980649,5.042447845246056
18,3,1.0,0.8611526380505254,0.0
18,3,0.75,0.8425405507355714,1.8612087314954007
18,3,0.5,0.8172925978015184,4.386004024900703
18,3,0.25,0.7879073731520113,7.324526489851413
18,3,0.0,0.7369254498026307,12.42271882478947
18,4,1.0,0.8611526380505254,0.0
18,4,0.75,0.8517512190874259,0.9401418963099539
18,4,0.5,0.8467082294966698,1.4444408553855648
18,4,0.25,0.8525750520372832,0.8577586013242211
18,4,0.0,0.8459309208037206,1.5221717246804878
18,5,1.0,0.8611526380505254,0.0
18,5,0.75,0.8554476388588285,0.570499919169698
18,5,0.5,0.8552973017259611,0.5855336324564364
18,5,0.25,0.8626310372633902,-0.1478399212864745
18,5,0.0,0.8413375459426011,1.9815092107924315
18,6,1.0,0.8611526380505254,0.0
18,6,0.75,0.8578989290495314,0.3253709000994087
18,6,0.5,0.8521935385477533,0.8959099502772183
18,6,0.25,0.8467137374930145,1.4438900557510959
18,6,0.0,0.8418920282075655,1.9260609842959964
18,7,1.0,0.8611526380505254,0.0
18,7,0.75,0.8449973514433801,1.615528660714538
18,7,0.5,0.8138319557386495,4.732068231187592
18,7,0.25,0.7988393135244777,6.231332452604777
18,7,0.0,0.7767377745638615,8.441486348666395
18,8,1.0,0.8611526380505254,0.0
18,8,0.75,0.8364216700001592,2.473096805036623
18,8,0.5,0.810318915421397,5.083372262912844
18,8,0.25,0.7874002625589992,7.375237549152624
18,8,0.0,0.7448988661497381,11.625377190078733
19,0,1.0,0.8176802751627941,0.0
19,0,0.75,0.8306551780094014,-1.2974902846607295
19,0,0.5,0.8289164212718891,-1.1236146109095069
19,0,0.25,0.823883028493307,-0.62027533305129
19,0,0.0,0.8174281874947631,0.025208766803097582
19,1,1.0,0.8176802751627941,0.0
19,1,0.75,0.8361513797386327,-1.847110457583867
19,1,0.5,0.8368166444985644,-1.9136369335770342
19,1,0.25,0.8385505513066649,-2.0870276143870825
19,1,0.0,0.8389149811648811,-2.123470600208699
19,2,1.0,0.8176802751627941,0.0
19,2,0.75,0.8197473537640125,-0.2067078601218464
19,2,0.5,0.8160896887006184,0.15905864621756916
19,2,0.25,0.8226777352084769,-0.49974600456828
19,2,0.0,0.8179391966233681,-0.02589214605740464
19,3,1.0,0.8176802751627941,0.0
19,3,0.75,0.8282550018461191,-1.0574726683325042
19,3,0.5,0.8232395230092409,-0.5559247846446791
19,3,0.25,0.8214110012453026,-0.3730726082508573
19,3,0.0,0.7874773842621846,3.020289090060946
19,4,1.0,0.8176802751627941,0.0
19,4,0.75,0.829812135248456,-1.2131860085661916
19,4,0.5,0.8222430754617405,-0.4562800298946401
19,4,0.25,0.7893735973654149,2.8306677797379165
19,4,0.0,0.7272636527577488,9.041662240504522
19,5,1.0,0.8176802751627941,0.0
19,5,0.75,0.8313163929631531,-1.3636117800359004
19,5,0.5,0.8254533427708525,-0.7773067608058404
19,5,0.25,0.8027614615385468,1.4918813624247296
19,5,0.0,0.7497538172384157,6.792645792437835
19,6,1.0,0.8176802751627941,0.0
19,6,0.75,0.8235499315232683,-0.5869656360474207
19,6,0.5,0.8204231316606976,-0.2742856497903512
19,6,0.25,0.8223832468015133,-0.47029716387192444
19,6,0.0,0.8262088154873406,-0.852854032454653
19,7,1.0,0.8176802751627941,0.0
19,7,0.75,0.8357477293386594,-1.8067454175865305
19,7,0.5,0.8353487856563167,-1.7668510493522582
19,7,0.25,0.8217164052485781,-0.4036130085784073
19,7,0.0,0.7923032129637988,2.537706219899527
19,8,1.0,0.8176802751627941,0.0
19,8,0.75,0.8222505346272131,-0.4570259464419024
19,8,0.5,0.8165015204685732,0.1178754694220907
19,8,0.25,0.8030365216888113,1.4643753473982724
19,8,0.0,0.7365111233550286,8.116915180776552
20,0,1.0,0.8236997680792747,0.0
20,0,0.75,0.8173634324116571,0.6336335667617599
20,0,0.5,0.8091226181194127,1.4577149959862035
20,0,0.25,0.8135534459490903,1.0146322130184404
20,0,0.0,0.7746313542527302,4.906841382654448
20,1,1.0,0.8236997680792747,0.0
20,1,0.75,0.8266193933727666,-0.29196252934918787
20,1,0.5,0.8172888827662212,0.6410885313053449
20,1,0.25,0.8134629965097064,1.023677156956826
20,1,0.0,0.7869966688593878,3.6703099219886903
20,2,1.0,0.8236997680792747,0.0
20,2,0.75,0.817411483533757,0.6288284545517664
20,2,0.5,0.8131801165784402,1.0519651500834448
20,2,0.25,0.791878864976374,3.1820903102900644
20,2,0.0,0.770299557131721,5.340021094755365
20,3,1.0,0.8236997680792747,0.0
20,3,0.75,0.8325469026059346,-0.8847134526659861
20,3,0.5,0.837723498068494,-1.4023729989219302
20,3,0.25,0.8341809534551471,-1.0481185375872393
20,3,0.0,0.8289070861084202,-0.5207318029145536
20,4,1.0,0.8236997680792747,0.0
20,4,0.75,0.8273469399692036,-0.3647171889928913
20,4,0.5,0.8483089632011521,-2.4609195121877425
20,4,0.25,0.8538398498141645,-3.01400817348898
20,4,0.0,0.8226781938564691,0.10215742228055769
20,5,1.0,0.8236997680792747,0.0
20,5,0.75,0.8340028724047754,-1.0303104325500745
20,5,0.5,0.8400020551622754,-1.6302287083000744
20,5,0.25,0.8374838516590948,-1.3784083579820083
20,5,0.0,0.7909672743691988,3.2732493710075916
20,6,1.0,0.8236997680792747,0.0
20,6,0.75,0.8172553496748985,0.6444418404376151
20,6,0.5,0.8094499214688375,1.4249846610437156
20,6,0.25,0.8029576963524117,2.0742071726863043
20,6,0.0,0.800376207180612,2.332356089866272
20,7,1.0,0.8236997680792747,0.0
20,7,0.75,0.8211859001026153,0.2513867976659423
20,7,0.5,0.8209075245307526,0.2792243548522144
20,7,0.25,0.8036656051704272,2.003416290884752
20,7,0.0,0.7828746697018123,4.08250983774624
20,8,1.0,0.8236997680792747,0.0
20,8,0.75,0.8158106066217966,0.7889161457478089
20,8,0.5,0.817225169082297,0.6474598996977665
20,8,0.25,0.7902395952653686,3.346017281390612
20,8,0.0,0.7348476307487849,8.88521373304898
21,0,1.0,0.8011415646389943,0.0
21,0,0.75,0.790177988395306,1.0963576243688378
21,0,0.5,0.7720894936711633,2.9052070967831023
21,0,0.25,0.7529534030139724,4.818816162502193
21,0,0.0,0.7161703856329426,8.497117900605177
21,1,1.0,0.8011415646389943,0.0
21,1,0.75,0.8109281536194344,-0.9786588980440047
21,1,0.5,0.8093179846120704,-0.8176419973076055
21,1,0.25,0.8121805980128745,-1.1039033373880125
21,1,0.0,0.825008775008775,-2.386721036978068
21,2,1.0,0.8011415646389943,0.0
21,2,0.75,0.8056334621135489,-0.4491897474554585
21,2,0.5,0.7998596572150523,0.12819074239420747
21,2,0.25,0.7973263232291153,0.3815241409878989
21,2,0.0,0.7788649709764127,2.227659366258161
21,3,1.0,0.8011415646389943,0.0
21,3,0.75,0.7902781091254527,1.086345551354162
21,3,0.5,0.7940343120761328,0.7107252562861488
21,3,0.25,0.780792180043271,2.034938459572333
21,3,0.0,0.7599272986986403,4.1214265940354045
21,4,1.0,0.8011415646389943,0.0
21,4,0.75,0.7970161058510761,0.4125458787918257
21,4,0.5,0.7916933423624885,0.944822227650588
21,4,0.25,0.7948010099620118,0.6340554676982579
21,4,0.0,0.7909506890611542,1.0190875577840153
21,5,1.0,0.8011415646389943,0.0
21,5,0.75,0.8021362181057858,-0.09946534667915063
21,5,0.5,0.8064899539861206,-0.5348389347126226
21,5,0.25,0.828637026597926,-2.749546195893171
21,5,0.0,0.8262994278242194,-2.515786318522506
21,6,1.0,0.8011415646389943,0.0
21,6,0.75,0.800819218861516,0.03223457774783611
21,6,0.5,0.8043572394144121,-0.3215674775417732
21,6,0.25,0.8042977785376972,-0.31562138987029087
21,6,0.0,0.8023487237733963,-0.12071591344019472
21,7,1.0,0.8011415646389943,0.0
21,7,0.75,0.7903325854484058,1.0808979190588541
21,7,0.5,0.7850133890494545,1.6128175589539828
21,7,0.25,0.7740295579848496,2.7112006654144705
21,7,0.0,0.7470536294179885,5.408793522100586
21,8,1.0,0.8011415646389943,0.0
21,8,0.75,0.7969604185517971,0.41811460871972184
21,8,0.5,0.779978139672405,2.1163424966589295
21,8,0.25,0.7784640550983981,2.267750954059622
21,8,0.0,0.7513139698301486,4.982759480884569
22,0,1.0,0.8211274825138725,0.0
22,0,0.75,0.8308322637334564,-0.9704781219583958
22,0,0.5,0.8258573146267998,-0.47298321129273235
22,0,0.25,0.784858288806668,3.6269193707204495
22,0,0.0,0.7436648213304312,7.746266118344125
22,1,1.0,0.8211274825138725,0.0
22,1,0.75,0.8151727149795028,0.5954767534369632
22,1,0.5,0.7984615931746748,2.2665889339197665
22,1,0.25,0.7957962407719761,2.533124174189638
22,1,0.0,0.7928165695615285,2.8310912952344003
22,2,1.0,0.8211274825138725,0.0
22,2,0.75,0.8201951120619422,0.09323704519302867
22,2,0.5,0.818069645989313,0.30578365245594874
22,2,0.25,0.8158934203051851,0.5234062208687384
22,2,0.0,0.7916807249215476,2.9446757592324846
22,3,1.0,0.8211274825138725,0.0
22,3,0.75,0.8173184456817912,0.3809036832081225
22,3,0.5,0.7861077284618447,3.501975405202773
22,3,0.25,0.7572199978036331,6.390748471023933
22,3,0.0,0.7543284544748008,6.679902803907167
22,4,1.0,0.8211274825138725,0.0
22,4,0.75,0.8195698378134753,0.15576447003972094
22,4,0.5,0.8118715361303634,0.9255946383509017
22,4,0.25,0.78739801157148,3.3729470942392425
22,4,0.0,0.7524090710374653,6.871841147640712
22,5,1.0,0.8211274825138725,0.0
22,5,0.75,0.815505953784882,0.5621528728990466
22,5,0.5,0.8241838174328102,-0.3056334918937753
22,5,0.25,0.7956952216307802,2.543226088309225
22,5,0.0,0.765097694697155,5.602978781671741
22,6,1.0,0.8211274825138725,0.0
22,6,0.75,0.8188745557754016,0.2252926738470884
22,6,0.5,0.8043738367751551,1.6753645738717404
22,6,0.25,0.798823778385352,2.230370412852045
22,6,0.0,0.7816285084267821,3.9498974087090355
22,7,1.0,0.8211274825138725,0.0
22,7,0.75,0.8027955632990865,1.833191921478594
22,7,0.5,0.7944053997737085,2.6722082740163966
22,7,0.25,0.766206323851546,5.49211586623265
22,7,0.0,0.7139901961756328,10.71372863382397
22,8,1.0,0.8211274825138725,0.0
22,8,0.75,0.8139119498852369,0.7215532628635613
22,8,0.5,0.7998147412397292,2.1312741274143288
22,8,0.25,0.7708288180769058,5.029866443696662
22,8,0.0,0.7619138719512195,5.921361056265296
23,0,1.0,0.7628835314944444,0.0
23,0,0.75,0.7534046461376319,0.9478885356812516
23,0,0.5,0.7256872600159474,3.7196271478497023
23,0,0.25,0.6956728090910751,6.721072240336934
23,0,0.0,0.6842682971555349,7.861523433890949
23,1,1.0,0.7628835314944444,0.0
23,1,0.75,0.7583101970697146,0.4573334424729847
23,1,0.5,0.7616513958692568,0.1232135625187647
23,1,0.25,0.7564485581538957,0.6434973340548766
23,1,0.0,0.7558548725503326,0.7028658944111865
23,2,1.0,0.7628835314944444,0.0
23,2,0.75,0.7631662295458934,-0.028269805144898186
23,2,0.5,0.7686176897832371,-0.5734158288792646
23,2,0.25,0.7666507665090782,-0.37672350146337186
23,2,0.0,0.7802548027551042,-1.7371271260659737
23,3,1.0,0.7628835314944444,0.0
23,3,0.75,0.7583229244016187,0.4560607092825686
23,3,0.5,0.7506393824779922,1.224414901645221
23,3,0.25,0.7344457181271227,2.8437813367321763
23,3,0.0,0.6846748356897268,7.820869580471768
23,4,1.0,0.7628835314944444,0.0
23,4,0.75,0.7483576239379717,1.4525907556472761
23,4,0.5,0.7442980039985072,1.8585527495937226
23,4,0.25,0.723472122636668,3.9411408857776387
23,4,0.0,0.6998357749466927,6.304775654775174
23,5,1.0,0.7628835314944444,0.0
23,5,0.75,0.7469495236404521,1.593400785399235
23,5,0.5,0.7480722242178371,1.4811307276607288
23,5,0.25,0.7376630698254338,2.5220461669010596
23,5,0.0,0.7193878416266271,4.349568986781738
23,6,1.0,0.7628835314944444,0.0
23,6,0.75,0.750502743286953,1.2380788207491444
23,6,0.5,0.7591161012639696,0.37674302304748775
23,6,0.25,0.7489906379666671,1.389289352777734
23,6,0.0,0.756102431043419,0.6781100451025424
23,7,1.0,0.7628835314944444,0.0
23,7,0.75,0.7706881435275426,-0.7804612033098124
23,7,0.5,0.7729289434569591,-1.0045411962514628
23,7,0.25,0.7679701918959775,-0.508666040153305
23,7,0.0,0.7362572803805576,2.6626251113886834
23,8,1.0,0.7628835314944444,0.0
23,8,0.75,0.7524280159738768,1.045551552056767
23,8,0.5,0.7454719179175826,1.7411613576861829
23,8,0.25,0.7202747922543862,4.260873924005826
23,8,0.0,0.6915877050492998,7.129582644514465
24,0,1.0,0.8281825772052603,0.0
24,0,0.75,0.8213833389138268,0.6799238291433585
24,0,0.5,0.8076618738143571,2.0520703390903283
24,0,0.25,0.7783329852408799,4.9849591964380435
24,0,0.0,0.7458967227984192,8.22858544068411
24,1,1.0,0.8281825772052603,0.0
24,1,0.75,0.8353412560965507,-0.7158678891290404
24,1,0.5,0.8410361351149633,-1.2853557909702995
24,1,0.25,0.8161231786392105,1.2059398566049873
24,1,0.0,0.7885699699479025,3.9612607257357824
24,2,1.0,0.8281825772052603,0.0
24,2,0.75,0.8338766832034018,-0.5694105998141463
24,2,0.5,0.8405543743601858,-1.2371797154925424
24,2,0.25,0.8364291609089811,-0.8246583703720778
24,2,0.0,0.8006483778480985,2.7534199357161837
24,3,1.0,0.8281825772052603,0.0
24,3,0.75,0.8296896703095107,-0.15070931042503455
24,3,0.5,0.853101299639544,-2.4918722434283613
24,3,0.25,0.8696944615523252,-4.151188434706487
24,3,0.0,0.8418508474934184,-1.366827028815809
24,4,1.0,0.8281825772052603,0.0
24,4,0.75,0.8214620129260688,0.6720564279191543
24,4,0.5,0.8119059829225479,1.6276594282712442
24,4,0.25,0.7902230402567549,3.79595369485054
24,4,0.0,0.7391891074696924,8.8993469735568
24,5,1.0,0.8281825772052603,0.0
24,5,0.75,0.8388569547148108,-1.067437750955047
24,5,0.5,0.8275686884179118,0.06138887873485821
24,5,0.25,0.8079828671491862,2.0199710056074127
24,5,0.0,0.7702868158851542,5.78957613201061
24,6,1.0,0.8281825772052603,0.0
24,6,0.75,0.8296216500756945,-0.14390728704342104
24,6,0.5,0.8197285077828882,0.8454069422372146
24,6,0.25,0.8123974737532809,1.5785103451979476
24,6,0.0,0.8020684981282808,2.611407907697949
24,7,1.0,0.8281825772052603,0.0
24,7,0.75,0.8320990453782118,-0.3916468172951437
24,7,0.5,0.8266712592548306,0.15113179504296914
24,7,0.25,0.776122795044858,5.20597821604023
24,7,0.0,0.6784188707414444,14.976370646381598
24,8,1.0,0.8281825772052603,0.0
24,8,0.75,0.824219867260353,0.3962709944907328
24,8,0.5,0.8175776951483714,1.060488205688892
24,8,0.25,0.8005679620989341,2.7614615106326235
24,8,0.0,0.7788201859649188,4.9362391240341585
25,0,1.0,0.8805630732546781,0.0
25,0,0.75,0.881519311949028,-0.0956238694349909
25,0,0.5,0.8816431763766575,-0.108010312197937
25,0,0.25,0.8879609795560932,-0.7397906301415125
25,0,0.0,0.8631151376953616,1.7447935559316452
25,1,1.0,0.8805630732546781,0.0
25,1,0.75,0.8743221407655475,0.6240932489130602
25,1,0.5,0.8777381429417201,0.28249303129579406
25,1,0.25,0.8874124539582794,-0.6849380703601304
25,1,0.0,0.878510032783606,0.20530404710721317
25,2,1.0,0.8805630732546781,0.0
25,2,0.75,0.8746577281723712,0.590534508230689
25,2,0.5,0.870688870827456,0.9874202427222034
25,2,0.25,0.8686007943435027,1.1962278911175406
25,2,0.0,0.8482985001870447,3.2264573067633417
25,3,1.0,0.8805630732546781,0.0
25,3,0.75,0.8798061269195101,0.0756946335167985
25,3,0.5,0.883380317057112,-0.28172438024338664
25,3,0.25,0.8612337131153696,1.9329360139308527
25,3,0.0,0.8246809584652286,5.588211478944949
25,4,1.0,0.8805630732546781,0.0
25,4,0.75,0.8743204316043638,0.6242641650314296
25,4,0.5,0.8728164210462455,0.7746652208432625
25,4,0.25,0.8642454360140459,1.6317637240632177
25,4,0.0,0.8150294640605695,6.5533609194108555
25,5,1.0,0.8805630732546781,0.0
25,5,0.75,0.8781578440511755,0.24052292035026124
25,5,0.5,0.877707176826718,0.2855896427960136
25,5,0.25,0.8720750281882821,0.8488045066395999
25,5,0.0,0.847890748936438,3.2672324318240076
25,6,1.0,0.8805630732546781,0.0
25,6,0.75,0.8791724409881703,0.13906322665078186
25,6,0.5,0.8841527393717411,-0.35896661170630173
25,6,0.25,0.8684830325037981,1.2080040750879983
25,6,0.0,0.8678800524937672,1.268302076091088
25,7,1.0,0.8805630732546781,0.0
25,7,0.75,0.8840493491791025,-0.3486275924424409
25,7,0.5,0.8734162314836318,0.7146841771046297
25,7,0.25,0.8562662337662338,2.42968394884443
25,7,0.0,0.7924651249030632,8.809794835161489
25,8,1.0,0.8805630732546781,0.0
25,8,0.75,0.8881209933399952,-0.7557920085317082
25,8,0.5,0.8905696169299072,-1.000654367522913
25,8,0.25,0.896923261728153,-1.6360188473474868
25,8,0.0,0.8721937509838377,0.8369322270840418
26,0,1.0,0.8071677054211619,0.0
26,0,0.75,0.8063640049885812,0.08037004325807118
26,0,0.5,0.7948975010640028,1.2270204357159087
26,0,0.25,0.779969708654797,2.719799676636492
26,0,0.0,0.7537485362454763,5.341916917568557
26,1,1.0,0.8071677054211619,0.0
26,1,0.75,0.805981152478917,0.11865529422449006
26,1,0.5,0.8034765494576056,0.3691155963556292
26,1,0.25,0.7903615834329099,1.6806121988252043
26,1,0.0,0.7730434157006634,3.4124289720498524
26,2,1.0,0.8071677054211619,0.0
26,2,0.75,0.8009608627078321,0.620684271332983
26,2,0.5,0.7882488094219381,1.8918895999223806
26,2,0.25,0.7745456373186924,3.262206810246948
26,2,0.0,0.7699667435828706,3.7200961838291247
26,3,1.0,0.8071677054211619,0.0
26,3,0.75,0.8068685465270377,0.029915889412424068
26,3,0.5,0.796382930410453,1.0784775010708847
26,3,0.25,0.7773558794147031,2.981182600645882
26,3,0.0,0.7361044627021842,7.106324271897768
26,4,1.0,0.8071677054211619,0.0
26,4,0.75,0.8036348562757013,0.35328491454605926
26,4,0.5,0.807211525954353,-0.0043820533191074595
26,4,0.25,0.8019653626939898,0.5202342727172127
26,4,0.0,0.7625036400261208,4.466406539504108
26,5,1.0,0.8071677054211619,0.0
26,5,0.75,0.8159037481145495,-0.8736042693387569
26,5,0.5,0.8109860944856302,-0.3818389064468297
26,5,0.25,0.8040893125319777,0.30783928891842116
26,5,0.0,0.7652220588845741,4.194564653658784
26,6,1.0,0.8071677054211619,0.0
26,6,0.75,0.8163928125995107,-0.922510717834879
26,6,0.5,0.8125301378243952,-0.5362432403233308
26,6,0.25,0.807487350641293,-0.031964522013105956
26,6,0.0,0.7996905653264599,0.7477140094702017
26,7,1.0,0.8071677054211619,0.0
26,7,0.75,0.8083964818806675,-0.12287764595055872
26,7,0.5,0.8152619576345415,-0.809425221337956
26,7,0.25,0.8050458568625094,0.2121848558652495
26,7,0.0,0.7587130996593646,4.845460576179727
26,8,1.0,0.8071677054211619,0.0
26,8,0.75,0.7956551103583147,1.1512595062847186
26,8,0.5,0.7801601602059208,2.700754521524107
26,8,0.25,0.7525702575576559,5.459744786350596
26,8,0.0,0.712009903687451,9.515780173371091
27,0,1.0,0.9154766415457647,0.0
27,0,0.75,0.9260577080531697,-1.058106650740498
27,0,0.5,0.9287123053744937,-1.3235663828728983
27,0,0.25,0.9261405352708757,-1.0663893725111007
27,0,0.0,0.8963961614562803,1.9080480089484375
27,1,1.0,0.9154766415457647,0.0
27,1,0.75,0.9202341428487015,-0.47575013029368396
27,1,0.5,0.9256462290407415,-1.0169587494976762
27,1,0.25,0.9310645115738421,-1.5587870028077377
27,1,0.0,0.9227655290997387,-0.7288887553974055
27,2,1.0,0.9154766415457647,0.0
27,2,0.75,0.9122233887464224,0.3253252799342299
27,2,0.5,0.9043960831612077,1.1080558384557015
27,2,0.25,0.8905656115016707,2.4911030044094007
27,2,0.0,0.8715309540526063,4.394568749315841
27,3,1.0,0.9154766415457647,0.0
27,3,0.75,0.9052432277831323,1.0233413762632426
27,3,0.5,0.9078153975604992,0.7661243985265465
27,3,0.25,0.9091421254801536,0.6334516065611084
27,3,0.0,0.90298589514109,1.2490746404674735
27,4,1.0,0.9154766415457647,0.0
27,4,0.75,0.9102671278041587,0.5209513741605942
27,4,0.5,0.9073644943668246,0.8112147178940043
27,4,0.25,0.89419161447909,2.1285027066674678
27,4,0.0,0.8755006124717095,3.9976029074055175
27,5,1.0,0.9154766415457647,0.0
27,5,0.75,0.9046471030624769,1.0829538483287826
27,5,0.5,0.9030902715870376,1.2386369958727106
27,5,0.25,0.8968272331773052,1.864940836845952
27,5,0.0,0.886647710354861,2.8828931190903684
27,6,1.0,0.9154766415457647,0.0
27,6,0.75,0.9067746555413275,0.8701986004437168
27,6,0.5,0.9038633127354547,1.1613328810309964
27,6,0.25,0.9018610342238428,1.3615607321921908
27,6,0.0,0.8995996988014404,1.5876942744324274
27,7,1.0,0.9154766415457647,0.0
27,7,0.75,0.9126355996413373,0.2841041904427355
27,7,0.5,0.9052459961810362,1.0230645364728508
27,7,0.25,0.9006061105076713,1.4870531038093437
27,7,0.0,0.8558309471941659,5.964569435159883
27,8,1.0,0.9154766415457647,0.0
27,8,0.75,0.9074973356352598,0.7979305910504886
27,8,0.5,0.9115118513375042,0.396479020826046
27,8,0.25,0.9026798209289697,1.279682061679499
27,8,0.0,0.8981646413721629,1.7312000173601794
28,0,1.0,0.8543128032285203,0.0
28,0,0.75,0.8644829205466621,-1.017011731814177
28,0,0.5,0.8693870418408,-1.5074238612279633
28,0,0.25,0.8758117676909722,-2.149896446245192
28,0,0.0,0.8570633073126763,-0.27505040841560024
28,1,1.0,0.8543128032285203,0.0
28,1,0.75,0.845876392780651,0.8436410447869358
28,1,0.5,0.853442821198752,0.08699820297682903
28,1,0.25,0.844443965685878,0.9868837542642339
28,1,0.0,0.8386827879983567,1.5630015230163607
28,2,1.0,0.8543128032285203,0.0
28,2,0.75,0.8543372892968648,-0.0024486068344486966
28,2,0.5,0.8523847986564888,0.1928004572031572
28,2,0.25,0.8337477971599683,2.056500606855205
28,2,0.0,0.8068626594649534,4.745014376356693
28,3,1.0,0.8543128032285203,0.0
28,3,0.75,0.8377285547824984,1.658424844602191
28,3,0.5,0.8392941303829305,1.5018672845589776
28,3,0.25,0.8224160748227848,3.189672840573554
28,3,0.0,0.7779683760385057,7.634442719001466
28,4,1.0,0.8543128032285203,0.0
28,4,0.75,0.8496339373805875,0.4678865847932867
28,4,0.5,0.8322683507569381,2.2044452471582265
28,4,0.25,0.8192456463475899,3.506715688093043
28,4,0.0,0.7717514749912947,8.256132823722561
28,5,1.0,0.8543128032285203,0.0
28,5,0.75,0.8467092163474562,0.7603586881064106
28,5,0.5,0.8324284624250552,2.188434080346513
28,5,0.25,0.8100433889772125,4.4269414251307815
28,5,0.0,0.7781096955046071,7.620310772391326
28,6,1.0,0.8543128032285203,0.0
28,6,0.75,0.849278485752266,0.5034317476254269
28,6,0.5,0.856224214641676,-0.19114114131556503
28,6,0.25,0.8621763122552966,-0.7863509026776239
28,6,0.0,0.857085294338463,-0.27724911099427096
28,7,1.0,0.8543128032285203,0.0
28,7,0.75,0.8502748884447626,0.4037914783757701
28,7,0.5,0.8399021102679023,1.4410692960618032
28,7,0.25,0.8334683231639051,2.0844480064615256
28,7,0.0,0.7800099577925591,7.430284543596121
28,8,1.0,0.8543128032285203,0.0
28,8,0.75,0.8583077203661337,-0.3994917137613352
28,8,0.5,0.8684099482365512,-1.4097145008030831
28,8,0.25,0.8661298033720807,-1.1817000143560352
28,8,0.0,0.8307746034335027,2.353819979501759
29,0,1.0,0.8604421103402567,0.0
29,0,0.75,0.8612957893150497,-0.08536789747929374
29,0,0.5,0.856778490897693,0.366361944256377
29,0,0.25,0.8548617390540665,0.5580371286190267
29,0,0.0,0.8481263808111997,1.2315729529057018
29,1,1.0,0.8604421103402567,0.0
29,1,0.75,0.8623886683007812,-0.19465579605244532
29,1,0.5,0.8700169794004127,-0.9574869060155922
29,1,0.25,0.864602701916984,-0.4160591576727213
29,1,0.0,0.8556379688341367,0.48041415061200743
29,2,1.0,0.8604421103402567,0.0
29,2,0.75,0.8564841471966929,0.3957963143563892
29,2,0.5,0.8504551613683635,0.9986948971893228
29,2,0.25,0.8444014229209842,1.604068741927256
29,2,0.0,0.8052004558887548,5.524165445150198
29,3,1.0,0.8604421103402567,0.0
29,3,0.75,0.8655247076394637,-0.5082597299206904
29,3,0.5,0.863591691176329,-0.31495808360721966
29,3,0.25,0.8483472621981274,1.2094848142129355
29,3,0.0,0.8385626434931587,2.1879466847098072
29,4,1.0,0.8604421103402567,0.0
29,4,0.75,0.8527651606957064,0.7676949644550346
29,4,0.5,0.8471736788963862,1.3268431443870576
29,4,0.25,0.8202730044012407,4.016910593901601
29,4,0.0,0.7798537302853474,8.058838005490932
29,5,1.0,0.8604421103402567,0.0
29,5,0.75,0.8565767378913107,0.3865372448946025
29,5,0.5,0.8398974516089014,2.054465873135536
29,5,0.25,0.8151626690461642,4.527944129409256
29,5,0.0,0.7940894732071888,6.635263713306793
29,6,1.0,0.8604421103402567,0.0
29,6,0.75,0.8641473747537138,-0.3705264413457088
29,6,0.5,0.8640452264420269,-0.36031161017701097
29,6,0.25,0.8711652928030863,-1.072318246282955
29,6,0.0,0.8778241618490844,-1.7382051508827656
29,7,1.0,0.8604421103402567,0.0
29,7,0.75,0.8705634187344227,-1.0121308394165918
29,7,0.5,0.8700999301402574,-0.9657819800000689
29,7,0.25,0.8829658705533581,-2.252376021310132
29,7,0.0,0.8117650577877009,4.867705255255583
29,8,1.0,0.8604421103402567,0.0
29,8,0.75,0.8673120658948963,-0.686995555463954
29,8,0.5,0.8721066343814421,-1.1664524041185342
29,8,0.25,0.8576665911294079,0.27755192108488425
29,8,0.0,0.7819513053151103,7.849080502514649
30,0,1.0,0.8631014240922364,0.0
30,0,0.75,0.8608082825662957,0.2293141525940734
30,0,0.5,0.8619644785432972,0.11369455489392832
30,0,0.25,0.8631762431861164,-0.0074819093879963106
30,0,0.0,0.834167119083312,2.8934305008924466
30,1,1.0,0.8631014240922364,0.0
30,1,0.75,0.8540712341545397,0.9030189937696775
30,1,0.5,0.850778452642247,1.2322971449989395
30,1,0.25,0.8455066729434434,1.7594751148793053
30,1,0.0,0.8410849698169858,2.2016454275250674
30,2,1.0,0.8631014240922364,0.0
30,2,0.75,0.8561051181078498,0.6996305984386608
30,2,0.5,0.8494129039011795,1.368852019105693
30,2,0.25,0.8573527373527373,0.5748686739499131
30,2,0.0,0.8565798632052503,0.6521560886986189
30,3,1.0,0.8631014240922364,0.0
30,3,0.75,0.8601512949949687,0.2950129097267773
30,3,0.5,0.8408504105259484,2.2251013566288003
30,3,0.25,0.82312309954756,3.9978324544676425
30,3,0.0,0.8123371171230114,5.0764306969225075
30,4,1.0,0.8631014240922364,0.0
30,4,0.75,0.85940953143138,0.3691892660856455
30,4,0.5,0.8552843199140777,0.7817104178158729
30,4,0.25,0.8576794520824895,0.5421972009746923
30,4,0.0,0.8373887166842031,2.571270740803333
30,5,1.0,0.8631014240922364,0.0
30,5,0.75,0.8656015818310357,-0.25001577387993024
30,5,0.5,0.8653444945327129,-0.22430704404764468
30,5,0.25,0.8632178177964229,-0.011639370418647932
30,5,0.0,0.8111899491499802,5.191147494225623
30,6,1.0,0.8631014240922364,0.0
30,6,0.75,0.8593986697186102,0.3702754373626216
30,6,0.5,0.8502629101491359,1.2838513943100538
30,6,0.25,0.8552519737722183,0.7849450320018159
30,6,0.0,0.8389403802550932,2.4161043837143237
30,7,1.0,0.8631014240922364,0.0
30,7,0.75,0.8624082316547637,0.06931924374727894
30,7,0.5,0.8656372562874706,-0.25358321952341223
30,7,0.25,0.8335815428434374,2.9519881248799007
30,7,0.0,0.7912572721124169,7.184415197981952
30,8,1.0,0.8631014240922364,0.0
30,8,0.75,0.8609353798442936,0.21660442479428665
30,8,0.5,0.857435218655407,0.5666205436829497
30,8,0.25,0.8517709667102833,1.1330457381953152
30,8,0.0,0.8326214957978356,3.0479928294400827
31,0,1.0,0.8265762077826363,0.0
31,0,0.75,0.822262122221029,0.4314085561607284
31,0,0.5,0.8284308063040554,-0.18545985214191152
31,0,0.25,0.8182908025595559,0.8285405223080411
31,0,0.0,0.7836902504772632,4.288595730537315
31,1,1.0,0.8265762077826363,0.0
31,1,0.75,0.810214980739385,1.636122704325127
31,1,0.5,0.8115287523460089,1.5047455436627444
31,1,0.25,0.8139668804742333,1.2609327308403029
31,1,0.0,0.8010443618934326,2.5531845889203653
31,2,1.0,0.8265762077826363,0.0
31,2,0.75,0.8182429205252846,0.8333287257351718
31,2,0.5,0.8190570937356849,0.7519114046951381
31,2,0.25,0.7984824229419027,2.809378484073355
31,2,0.0,0.757576804658451,6.899940312418529
31,3,1.0,0.8265762077826363,0.0
31,3,0.75,0.8326101879663204,-0.6033980183684062
31,3,0.5,0.8370758947484429,-1.049968696580661
31,3,0.25,0.8320311763093731,-0.545496852673677
31,3,0.0,0.7988094159814191,2.7766791801217217
31,4,1.0,0.8265762077826363,0.0
31,4,0.75,0.8256625602892094,0.09136474934269279
31,4,0.5,0.8162543062162815,1.0321901566354819
31,4,0.25,0.8065449578992314,2.003124988340488
31,4,0.0,0.7575322326415456,6.904397514109073
31,5,1.0,0.8265762077826363,0.0
31,5,0.75,0.8346354867074345,-0.8059278924798186
31,5,0.5,0.825234250146367,0.13419576362693197
31,5,0.25,0.8143825313284068,1.219367645422953
31,5,0.0,0.7986174188301848,2.795878895245152
31,6,1.0,0.8265762077826363,0.0
31,6,0.75,0.828652843689443,-0.20766359068067342
31,6,0.5,0.8384811561749302,-1.1904948392293946
31,6,0.25,0.816739609396831,0.9836598385805306
31,6,0.0,0.7993543853729566,2.722182240967974
31,7,1.0,0.8265762077826363,0.0
31,7,0.75,0.8261869488758017,0.038925890683461084
31,7,0.5,0.815738814139439,1.0837393643197246
31,7,0.25,0.7914434835238336,3.513272425880265
31,7,0.0,0.7213275615877663,10.524864619486996
31,8,1.0,0.8265762077826363,0.0
31,8,0.75,0.8194266674532719,0.7149540329364434
31,8,0.5,0.8178177795562395,0.875842822639683
31,8,0.25,0.7838024812750621,4.277372650757416
31,8,0.0,0.7653855428855428,6.119066489709346
32,0,1.0,0.868555283225642,0.0
32,0,0.75,0.8678985028613657,0.06567803642762993
32,0,0.5,0.8604142410496673,0.8141042175974667
32,0,0.25,0.8426564600147806,2.5898823210861455
32,0,0.0,0.8178594532000255,5.06958300256165
32,1,1.0,0.868555283225642,0.0
32,1,0.75,0.861543591480713,0.7011691744928994
32,1,0.5,0.8658620302686917,0.26932529569503316
32,1,0.25,0.8579362766900556,1.061900653558645
32,1,0.0,0.8404417714958526,2.8113511729789376
32,2,1.0,0.868555283225642,0.0
32,2,0.75,0.8610505617963276,0.7504721429314465
32,2,0.5,0.8495018124572709,1.9053470768371161
32,2,0.25,0.8497528787342923,1.8802404491349733
32,2,0.0,0.8413076530034747,2.7247630222167363
32,3,1.0,0.868555283225642,0.0
32,3,0.75,0.8610226617684276,0.753262145721445
32,3,0.5,0.8481915818287196,2.036370139692245
32,3,0.25,0.8514811367759578,1.707414644968419
32,3,0.0,0.8250891278049973,4.34661554206447
32,4,1.0,0.868555283225642,0.0
32,4,0.75,0.8633846983689242,0.5170584856717841
32,4,0.5,0.8495187846965335,1.9036498529108492
32,4,0.25,0.8255522009642999,4.3003082261342085
32,4,0.0,0.817906691594532,5.064859163111002
32,5,1.0,0.868555283225642,0.0
32,5,0.75,0.8634835667454689,0.5071716480173127
32,5,0.5,0.8586003727266139,0.995491049902808
32,5,0.25,0.8350522732550827,3.3503009970559328
32,5,0.0,0.8158722480265723,5.268303519906969
32,6,1.0,0.868555283225642,0.0
32,6,0.75,0.8658282825457319,0.2727000679910163
32,6,0.5,0.8681681992815761,0.03870839440659468
32,6,0.25,0.8601601801923715,0.8395103033270512
32,6,0.0,0.8508847167653557,1.7670566460286308
32,7,1.0,0.868555283225642,0.0
32,7,0.75,0.8610505617963276,0.7504721429314465
32,7,0.5,0.8511923830847055,1.7362900140936555
32,7,0.25,0.8367157692180087,3.1839514007633296
32,7,0.0,0.7632899757804024,10.526530744523965
32,8,1.0,0.868555283225642,0.0
32,8,0.75,0.864284987722099,0.42702955035429646
32,8,0.5,0.8692850889590527,-0.07298057334106378
32,8,0.25,0.8516274322687052,1.692785095693683
32,8,0.0,0.8436387508086431,2.491653241699887
33,0,1.0,0.9103715689785618,0.0
33,0,0.75,0.9140666195623265,-0.3695050583764736
33,0,0.5,0.9166695385981252,-0.6297969619563415
33,0,0.25,0.9063539735325403,0.4017595446021427
33,0,0.0,0.866927519261028,4.344404971753379
33,1,1.0,0.9103715689785618,0.0
33,1,0.75,0.9144325551634447,-0.4060986184882931
33,1,0.5,0.9213840466097268,-1.1012477631165085
33,1,0.25,0.9274466935384705,-1.7075124559908783
33,1,0.0,0.8985156687002925,1.1855900278269216
33,2,1.0,0.9103715689785618,0.0
33,2,0.75,0.9101464603313869,0.022510864717484314
33,2,0.5,0.911906217635691,-0.15346486571292672
33,2,0.25,0.8908268796945706,1.9544689283991112
33,2,0.0,0.8654161642498374,4.495540472872439
33,3,1.0,0.9103715689785618,0.0
33,3,0.75,0.9169381959726757,-0.6566626994113922
33,3,0.5,0.9245851824679712,-1.4213613489409416
33,3,0.25,0.9296926074589791,-1.932103848041733
33,3,0.0,0.9093125014854011,0.10590674931606481
33,4,1.0,0.9103715689785618,0.0
33,4,0.75,0.9178608502918018,-0.7489281313240004
33,4,0.5,0.9251961901532815,-1.482462117471972
33,4,0.25,0.9252501042978849,-1.487853531932315
33,4,0.0,0.9184005398427687,-0.8028970864206952
33,5,1.0,0.9103715689785618,0.0
33,5,0.75,0.9178608502918018,-0.7489281313240004
33,5,0.5,0.9279146340326313,-1.754306505406955
33,5,0.25,0.9284057332419944,-1.8034164263432628
33,5,0.0,0.9173331835813902,-0.6961614602828403
33,6,1.0,0.9103715689785618,0.0
33,6,0.75,0.9164806467774798,-0.6109077798918006
33,6,0.5,0.9137944496401929,-0.34228806616311
33,6,0.25,0.9205332759231635,-1.0161706944601723
33,6,0.0,0.8976082964621116,1.2763272516450153
33,7,1.0,0.9103715689785618,0.0
33,7,0.75,0.9081282129500434,0.22433560285183285
33,7,0.5,0.909304844126842,0.10667248517197692
33,7,0.25,0.8977049084266693,1.2666660551892472
33,7,0.0,0.8389394426668755,7.143212631168627
33,8,1.0,0.9103715689785618,0.0
33,8,0.75,0.9138333813391506,-0.3461812360588845
33,8,0.5,0.9181308598864164,-0.7759290907854655
33,8,0.25,0.9156592119318835,-0.5287642953321736
33,8,0.0,0.8797328036615139,3.06387653170479
34,0,1.0,0.9199996140260251,0.0
34,0,0.75,0.9184051675441711,0.15944464818540283
34,0,0.5,0.9095050565469889,1.049455747903627
34,0,0.25,0.8883686994788449,3.1630914547180256
34,0,0.0,0.8475629521058096,7.243666192021559
34,1,1.0,0.9199996140260251,0.0
34,1,0.75,0.9256800454421406,-0.5680431416115406
34,1,0.5,0.9269590264461008,-0.6959412420075695
34,1,0.25,0.923308808990834,-0.3309194964808859
34,1,0.0,0.9086777437164657,1.1321870309559445
34,2,1.0,0.9199996140260251,0.0
34,2,0.75,0.9221757710888145,-0.21761570627893967
34,2,0.5,0.9176424816421,0.2357132383925098
34,2,0.25,0.9089093149840813,1.1090299041943807
34,2,0.0,0.8866715059256671,3.3328108100358023
34,3,1.0,0.9199996140260251,0.0
34,3,0.75,0.9158194372064048,0.41801768196203515
34,3,0.5,0.9073300917499184,1.2669522276106737
34,3,0.25,0.8810984258119408,3.8901188214084392
34,3,0.0,0.8438264307803449,7.617318324568023
34,4,1.0,0.9199996140260251,0.0
34,4,0.75,0.9152093658248028,0.47902482012223135
34,4,0.5,0.9092974199887802,1.0702194037244928
34,4,0.25,0.9049555139671666,1.504410005885859
34,4,0.0,0.8855072391518103,3.449237487421486
34,5,1.0,0.9199996140260251,0.0
34,5,0.75,0.9169699377170405,0.30296763089846523
34,5,0.5,0.9140023591781328,0.5997254847892375
34,5,0.25,0.8952283218611741,2.4771292164851078
34,5,0.0,0.8695528961533248,5.044671787270039
34,6,1.0,0.9199996140260251,0.0
34,6,0.75,0.9140453857124939,0.5954228313531207
34,6,0.5,0.9140811445268313,0.5918469499193835
34,6,0.25,0.9088613419006181,1.1138272125407078
34,6,0.0,0.902364142690631,1.7635471335394115
34,7,1.0,0.9199996140260251,0.0
34,7,0.75,0.9171138322887746,0.28857817372505146
34,7,0.5,0.9066670030889801,1.3332610937045075
34,7,0.25,0.891119378377197,2.8880235648828134
34,7,0.0,0.8543445648446029,6.565504918142229
34,8,1.0,0.9199996140260251,0.0
34,8,0.75,0.9192018294541948,0.07977845718303289
34,8,0.5,0.9115804631014258,0.8419150924599328
34,8,0.25,0.8982997273112806,2.1699886714744543
34,8,0.0,0.8686682159559518,5.133139807007336
35,0,1.0,0.7220992254267629,0.0
35,0,0.75,0.7323596111915467,-1.026038576478383
35,0,0.5,0.7273807801161125,-0.5281554689349655
35,0,0.25,0.7190822950078933,0.30169304188695234
35,0,0.0,0.692065115980233,3.0034109446529844
35,1,1.0,0.7220992254267629,0.0
35,1,0.75,0.7335551512383243,-1.1455925811561407
35,1,0.5,0.7448444196259996,-2.2745194199236707
35,1,0.25,0.7313321922226202,-0.9232966795857389
35,1,0.0,0.7197589859066591,0.23402395201037596
35,2,1.0,0.7220992254267629,0.0
35,2,0.75,0.7347689200420651,-1.2669694615302207
35,2,0.5,0.7413896827249735,-1.9290457298210661
35,2,0.25,0.7315075332231904,-0.940830779642754
35,2,0.0,0.7198746497847262,0.2224575642036708
35,3,1.0,0.7220992254267629,0.0
35,3,0.75,0.7259117492983591,-0.3812523871596252
35,3,0.5,0.728024359117946,-0.5925133691183193
35,3,0.25,0.7164311453229896,0.5668080103773288
35,3,0.0,0.6864973333399982,3.5601892086764675
35,4,1.0,0.7220992254267629,0.0
35,4,0.75,0.7264120380815979,-0.4312812654835074
35,4,0.5,0.7216989473701891,0.040027805657372184
35,4,0.25,0.7330478045373203,-1.0948579110557466
35,4,0.0,0.7278786691365455,-0.5779443709782672
35,5,1.0,0.7220992254267629,0.0
35,5,0.75,0.7289840581369931,-0.6884832710230215
35,5,0.5,0.7263575159227128,-0.42582904959499457
35,5,0.25,0.7362730559330135,-1.417383050625065
35,5,0.0,0.7191063085309335,0.2992916895829367
35,6,1.0,0.7220992254267629,0.0
35,6,0.75,0.7283905300574357,-0.6291304630672845
35,6,0.5,0.7342558659129121,-1.2156640486149284
35,6,0.25,0.738520548234587,-1.6421322807824157
35,6,0.0,0.7292519450143962,-0.7152719587633305
35,7,1.0,0.7220992254267629,0.0
35,7,0.75,0.7301334069904979,-0.8034181563735032
35,7,0.5,0.7186131060966174,0.3486119330145421
35,7,0.25,0.7120215722184167,1.0077653208346193
35,7,0.0,0.6999485999522088,2.215062547455404
35,8,1.0,0.7220992254267629,0.0
35,8,0.75,0.7235094401796158,-0.14102147528529674
35,8,0.5,0.7206673021971872,0.1431923229575638
35,8,0.25,0.7235132074449018,-0.1413982018138915
35,8,0.0,0.6867590443034286,3.5340181123334258
36,0,1.0,0.796186705817832,0.0
36,0,0.75,0.7824538293323304,1.3732876485501588
36,0,0.5,0.7697389356782243,2.644777013960775
36,0,0.25,0.7508505910417298,4.533611477610222
36,0,0.0,0.7407406447880597,5.544606102977234
36,1,1.0,0.796186705817832,0.0
36,1,0.75,0.7906429563928538,0.5543749424978262
36,1,0.5,0.7837382544250215,1.2448451392810478
36,1,0.25,0.7677965080797993,2.839019773803275
36,1,0.0,0.7448332360983638,5.135346971946819
36,2,1.0,0.796186705817832,0.0
36,2,0.75,0.7814933514722633,1.4693354345568732
36,2,0.5,0.7806643654671841,1.5522340350647923
36,2,0.25,0.7809790438986939,1.5207661919138138
36,2,0.0,0.7260628517520789,7.012385406575317
36,3,1.0,0.796186705817832,0.0
36,3,0.75,0.8080731607362891,-1.188645491845708
36,3,0.5,0.8055090715439277,-0.9322365726095683
36,3,0.25,0.7841315137467049,1.2055192071127152
36,3,0.0,0.7420252509259315,5.41614548919005
36,4,1.0,0.796186705817832,0.0
36,4,0.75,0.7938499956161857,0.23367102016462749
36,4,0.5,0.788116046378451,0.8070659439381012
36,4,0.25,0.7845944381107678,1.159226770706423
36,4,0.0,0.7817106450584979,1.4476060759334164
36,5,1.0,0.796186705817832,0.0
36,5,0.75,0.7947409801490753,0.144572566875667
36,5,0.5,0.8043005416268412,-0.8113835809009151
36,5,0.25,0.8048923090493991,-0.8705603231567105
36,5,0.0,0.8136336634505331,-1.74469576327011
36,6,1.0,0.796186705817832,0.0
36,6,0.75,0.7850828210368743,1.1103884780957696
36,6,0.5,0.7849158019682669,1.1270903849565084
36,6,0.25,0.7728416991825919,2.3345006635240084
36,6,0.0,0.7608571131752598,3.5329592642572183
36,7,1.0,0.796186705817832,0.0
36,7,0.75,0.7992661205038373,-0.3079414686005255
36,7,0.5,0.7929931540857301,0.3193551732101896
36,7,0.25,0.7663842018049342,2.9802504012897857
36,7,0.0,0.6910875945738172,10.509911124401484
36,8,1.0,0.796186705817832,0.0
36,8,0.75,0.7840942246597131,1.2092481158118895
36,8,0.5,0.756348608572682,3.9838097245149973
36,8,0.25,0.7281892036044844,6.799750221334766
36,8,0.0,0.6891353550764737,10.70513507413583
37,0,1.0,0.8742685881880032,0.0
37,0,0.75,0.8716215003192176,0.2647087868785647
37,0,0.5,0.8747439710540768,-0.04753828660735149
37,0,0.25,0.8749529070875065,-0.06843188995032667
37,0,0.0,0.8076715342903763,6.659705389762694
37,1,1.0,0.8742685881880032,0.0
37,1,0.75,0.867629560796377,0.6639027391626251
37,1,0.5,0.8654911037915374,0.8777484396465862
37,1,0.25,0.8584573563787707,1.5811231809232495
37,1,0.0,0.8471056603065754,2.7162927881427823
37,2,1.0,0.8742685881880032,0.0
37,2,0.75,0.8667429821646988,0.7525606023304432
37,2,0.5,0.84816747910893,2.610110907907326
37,2,0.25,0.8430932989252029,3.117528926280033
37,2,0.0,0.7953839473556003,7.888464083240299
37,3,1.0,0.8742685881880032,0.0
37,3,0.75,0.8730226438738852,0.12459443141180637
37,3,0.5,0.8713963353953784,0.28722527926248187
37,3,0.25,0.8593586018925676,1.4909986295435607
37,3,0.0,0.8413226519931002,3.2945936194903047
37,4,1.0,0.8742685881880032,0.0
37,4,0.75,0.8820497159273082,-0.7781127739304949
37,4,0.5,0.8742873405664104,-0.0018752378407205228
37,4,0.25,0.8585274575705127,1.5741130617490495
37,4,0.0,0.8626195674836556,1.164902070434759
37,5,1.0,0.8742685881880032,0.0
37,5,0.75,0.8779344158149672,-0.3665827626963991
37,5,0.5,0.8665340554061876,0.7734532781815684
37,5,0.25,0.8555368630299724,1.8731725158030788
37,5,0.0,0.8320664720264326,4.220211616157066
37,6,1.0,0.8742685881880032,0.0
37,6,0.75,0.8727358027502929,0.15327854377102934
37,6,0.5,0.8724823173591371,0.17862708288661766
37,6,0.25,0.8580220055292052,1.624658265879808
37,6,0.0,0.8434889654088257,3.0779622779177562
37,7,1.0,0.8742685881880032,0.0
37,7,0.75,0.8759371288741042,-0.16685406861010055
37,7,0.5,0.8742663637770853,0.0002224410917905928
37,7,0.25,0.8551353599713811,1.9133228216622111
37,7,0.0,0.8337216254664659,4.054696272153735
37,8,1.0,0.8742685881880032,0.0
37,8,0.75,0.8775718451601281,-0.3303256972124857
37,8,0.5,0.8793521951067148,-0.508360691871157
37,8,0.25,0.8689680879941782,0.5300500193824997
37,8,0.0,0.8426599451404848,3.1608643047518425
38,0,1.0,0.9025093979111464,0.0
38,0,0.75,0.9000418513341748,0.24675465769715688
38,0,0.5,0.8835508689339334,1.8958528977212952
38,0,0.25,0.8648416789040126,3.7667719007133726
38,0,0.0,0.8115122432296138,9.099715468153258
38,1,1.0,0.9025093979111464,0.0
38,1,0.75,0.9011274238139276,0.1381974097218741
38,1,0.5,0.8959791845392532,0.653021337189319
38,1,0.25,0.8897934097876888,1.2715988123457533
38,1,0.0,0.8664531460448394,3.605625186630701
38,2,1.0,0.9025093979111464,0.0
38,2,0.75,0.8872251826508244,1.5284215260321976
38,2,0.5,0.8772341368187538,2.527526109239253
38,2,0.25,0.8629212282871609,3.958816962398548
38,2,0.0,0.8435308119642861,5.8978585946860225
38,3,1.0,0.9025093979111464,0.0
38,3,0.75,0.905292499652782,-0.2783101741635652
38,3,0.5,0.9217804353737518,-1.927103746260539
38,3,0.25,0.9083667432978354,-0.5857345386689028
38,3,0.0,0.8860755683670731,1.6433829544073242
38,4,1.0,0.9025093979111464,0.0
38,4,0.75,0.8883720180283522,1.4137379882794177
38,4,0.5,0.884565339077603,1.794405883354333
38,4,0.25,0.8556931023503583,4.6816295560788035
38,4,0.0,0.843105392162198,5.9404005748948325
38,5,1.0,0.9025093979111464,0.0
38,5,0.75,0.8877920301056786,1.471736780546773
38,5,0.5,0.8759039659418764,2.660543196927001
38,5,0.25,0.8735780298084349,2.8931368102711463
38,5,0.0,0.8430019697673765,5.950742814376985
38,6,1.0,0.9025093979111464,0.0
38,6,0.75,0.898782180952922,0.3727216958224422
38,6,0.5,0.8821705942211868,2.033880368995955
38,6,0.25,0.8900655171190387,1.2443880792107676
38,6,0.0,0.8839991247811952,1.8510273129951127
38,7,1.0,0.9025093979111464,0.0
38,7,0.75,0.899884701670961,0.26246962401853535
38,7,0.5,0.8972491430481032,0.5260254863043157
38,7,0.25,0.8852243356248813,1.728506228626503
38,7,0.0,0.8367511520737327,6.575824583741364
38,8,1.0,0.9025093979111464,0.0
38,8,0.75,0.9068355059181055,-0.4326108006959095
38,8,0.5,0.9101034404394448,-0.7594042528298428
38,8,0.25,0.9025143784394202,-0.0004980528273801355
38,8,0.0,0.8706111096667277,3.189828824441865
39,0,1.0,0.8040327713448125,0.0
39,0,0.75,0.8072502017734262,-0.32174304286136657
39,0,0.5,0.7816165075068593,2.2416263837953254
39,0,0.25,0.7704532132189743,3.357955812583824
39,0,0.0,0.7188163639040996,8.521640744071291
39,1,1.0,0.8040327713448125,0.0
39,1,0.75,0.8068286398261477,-0.2795868481335173
39,1,0.5,0.8035440996706525,0.04886716741600017
39,1,0.25,0.7947746828598369,0.9258088484975668
39,1,0.0,0.7746937317064854,2.933903963832718
39,2,1.0,0.8040327713448125,0.0
39,2,0.75,0.8107631366505296,-0.6730365305717023
39,2,0.5,0.8167949525163375,-1.2762181171524944
39,2,0.25,0.8116250321406674,-0.7592260795854844
39,2,0.0,0.8024593718469745,0.15733994978380794
39,3,1.0,0.8040327713448125,0.0
39,3,0.75,0.8020258044660304,0.20069668787821016
39,3,0.5,0.7971078517797234,0.6924919565089116
39,3,0.25,0.7561363770663888,4.789639427842374
39,3,0.0,0.676867145476022,12.716562586879053
39,4,1.0,0.8040327713448125,0.0
39,4,0.75,0.8053032441838066,-0.12704728389940634
39,4,0.5,0.7977791628044016,0.6253608540410904
39,4,0.25,0.7967800611193302,0.7252710225482351
39,4,0.0,0.7819894925850422,2.20432787597703
39,5,1.0,0.8040327713448125,0.0
39,5,0.75,0.8082635709584287,-0.4230799613616165
39,5,0.5,0.8156409279084935,-1.1608156563680971
39,5,0.25,0.8189283283955554,-1.4895557050742858
39,5,0.0,0.8144770042884353,-1.0444232943622733
39,6,1.0,0.8040327713448125,0.0
39,6,0.75,0.8085278942276686,-0.44951228828560286
39,6,0.5,0.8090276086765549,-0.499483733174233
39,6,0.25,0.8127303103950747,-0.869753905026216
39,6,0.0,0.801897278684804,0.21354926600085644
39,7,1.0,0.8040327713448125,0.0
39,7,0.75,0.8044921149015904,-0.04593435567779025
39,7,0.5,0.8055873316504492,-0.15545603056366097
39,7,0.25,0.7982171968223988,0.5815574522413769
39,7,0.0,0.7583817420832347,4.565102926157783
39,8,1.0,0.8040327713448125,0.0
39,8,0.75,0.8059394962124273,-0.1906724867614784
39,8,0.5,0.8041113061186871,-0.0078534773874539
39,8,0.25,0.7940583122872431,0.997445905756944
39,8,0.0,0.7512237225522237,5.280904879258886
40,0,1.0,0.8379524087922989,0.0
40,0,0.75,0.8330307335179544,0.4921675274344506
40,0,0.5,0.8330078471381208,0.49445616541781146
40,0,0.25,0.8190484819719658,1.890392682033315
40,0,0.0,0.7579429843745267,8.000942441777227
40,1,1.0,0.8379524087922989,0.0
40,1,0.75,0.8378652583810576,0.008715041124129908
40,1,0.5,0.8340046740868496,0.39477347054492906
40,1,0.25,0.8272514509367018,1.0700957855597104
40,1,0.0,0.8345621707149736,0.33902380773253027
40,2,1.0,0.8379524087922989,0.0
40,2,0.75,0.8384090821857848,-0.045667339348587355
40,2,0.5,0.8458589353039981,-0.7906526511699208
40,2,0.25,0.8407140114994964,-0.2761602707197497
40,2,0.0,0.8516742910832832,-1.3721882290984255
40,3,1.0,0.8379524087922989,0.0
40,3,0.75,0.8446484031765595,-0.6695994384260606
40,3,0.5,0.8444442020732685,-0.6491793280969604
40,3,0.25,0.850597885007691,-1.2645476215392026
40,3,0.0,0.8392719910058695,-0.1319582213570536
40,4,1.0,0.8379524087922989,0.0
40,4,0.75,0.8296539684145878,0.8298440377711103
40,4,0.5,0.8279850360653244,0.9967372726974566
40,4,0.25,0.8352516541883599,0.27007546039390373
40,4,0.0,0.8258936553846585,1.20587534076404
40,5,1.0,0.8379524087922989,0.0
40,5,0.75,0.8344063095015188,0.35460992907800915
40,5,0.5,0.8324702447841119,0.5482164008187018
40,5,0.25,0.8395100175100292,-0.15576087177302522
40,5,0.0,0.8414169169868634,-0.3464508194564453
40,6,1.0,0.8379524087922989,0.0
40,6,0.75,0.8409421989930032,-0.2989790200704223
40,6,0.5,0.8361452942211081,0.1807114571190871
40,6,0.25,0.8303879960489847,0.7564412743314208
40,6,0.0,0.824285101315414,1.3667307476884938
40,7,1.0,0.8379524087922989,0.0
40,7,0.75,0.8292078077167362,0.8744601075562741
40,7,0.5,0.8262093980553642,1.1743010736934734
40,7,0.25,0.8180733449399742,1.987906385232474
40,7,0.0,0.7454917829122323,9.246062588006666
40,8,1.0,0.8379524087922989,0.0
40,8,0.75,0.8411442375042528,-0.31918287119538924
40,8,0.5,0.8350271967714396,0.292521202085938
40,8,0.25,0.8100108085573952,2.7941600234903774
40,8,0.0,0.740670314093689,9.728209469860992
