subject,channel,f1_full,f1_occluded,drop_pp
1,0,0.6424521006456456,0.617896823443431,2.455527720221462
1,1,0.6424521006456456,0.6346762399276606,0.7775860717984973
1,2,0.6424521006456456,0.6338194135639614,0.8632687081684187
1,3,0.6424521006456456,0.5842246874339438,5.822741321170177
1,4,0.6424521006456456,0.6406892163020634,0.17628843435821828
1,5,0.6424521006456456,0.6339285399273122,0.8523560718333378
1,6,0.6424521006456456,0.6856300348123263,-4.31779341666807
1,7,0.6424521006456456,0.552645773334836,8.980632731080963
1,8,0.6424521006456456,0.5445183200948047,9.79337805508409
2,0,0.9079834079827362,0.8844997151750845,2.3483692807651724
2,1,0.9079834079827362,0.8499810012233358,5.800240675940049
2,2,0.9079834079827362,0.8244134980050474,8.356990997768888
2,3,0.9079834079827362,0.9120366161932785,-0.4053208210542225
2,4,0.9079834079827362,0.8468273165966068,6.1156091386129425
2,5,0.9079834079827362,0.8602414623779855,4.774194560475076
2,6,0.9079834079827362,0.8757121528357766,3.227125514695961
2,7,0.9079834079827362,0.7972544161355349,11.07289918472013
2,8,0.9079834079827362,0.8443422355655543,6.364117241718192
3,0,0.9089595935299126,0.8881180114322151,2.0841582097697486
3,1,0.9089595935299126,0.8723790253875067,3.6580568142405956
3,2,0.9089595935299126,0.8653019925072254,4.365760102268723
3,3,0.9089595935299126,0.7757826851856583,13.317690834425433
3,4,0.9089595935299126,0.9242587664140188,-1.5299172884106205
3,5,0.9089595935299126,0.8893441697548504,1.9615423775062202
3,6,0.9089595935299126,0.89718418905142,1.177540447849268
3,7,0.9089595935299126,0.8527834000686447,5.61761934612679
3,8,0.9089595935299126,0.8743486244608571,3.4610969069055475
4,0,0.8488897352605591,0.8584551741625935,-0.9565438902034429
4,1,0.8488897352605591,0.8007193765275825,4.817035873297659
4,2,0.8488897352605591,0.8185333800481304,3.0356355212428743
4,3,0.8488897352605591,0.8211883153388027,2.7701419921756454
4,4,0.8488897352605591,0.7974000402767816,5.148969498377753
4,5,0.8488897352605591,0.8037637227384977,4.512601252206139
4,6,0.8488897352605591,0.8466638529473921,0.22258823131670047
4,7,0.8488897352605591,0.8077268886695947,4.116284659096436
4,8,0.8488897352605591,0.820848719821175,2.8041015439384087
5,0,0.6855383678913092,0.655784270004912,2.9754097886397157
5,1,0.6855383678913092,0.6751953320317725,1.0343035859536664
5,2,0.6855383678913092,0.6630685973573257,2.246977053398347
5,3,0.6855383678913092,0.7208355813756511,-3.5297213484341894
5,4,0.6855383678913092,0.611645865427444,7.3892502463865135
5,5,0.6855383678913092,0.630792871455331,5.474549643597815
5,6,0.6855383678913092,0.6746149147104041,1.092345318090504
5,7,0.6855383678913092,0.6558171004636284,2.9721267427680775
5,8,0.6855383678913092,0.6541018832368577,3.143648465445148
6,0,0.78497373396398,0.7525867004577866,3.238703350619332
6,1,0.78497373396398,0.7621880904829791,2.2785643481000872
6,2,0.78497373396398,0.7930463773806364,-0.8072643416656478
6,3,0.78497373396398,0.8041195309590037,-1.9145796995023723
6,4,0.78497373396398,0.741836889211978,4.313684475200197
6,5,0.78497373396398,0.7522205799876767,3.2753153976303295
6,6,0.78497373396398,0.7699835208616286,1.499021310235138
6,7,0.78497373396398,0.7221395634450746,6.283417051890538
6,8,0.78497373396398,0.7061648578231446,7.880887614083532
7,0,0.8113110265501151,0.7918274156200884,1.9483610930026707
7,1,0.8113110265501151,0.7567702018217473,5.454082472836785
7,2,0.8113110265501151,0.7675189102256086,4.3792116324506525
7,3,0.8113110265501151,0.7926941303842563,1.861689616585882
7,4,0.8113110265501151,0.7726377038344657,3.8673322715649383
7,5,0.8113110265501151,0.8066545562189251,0.4656470331189988
7,6,0.8113110265501151,0.7894886933269094,2.1822333223205703
7,7,0.8113110265501151,0.7199338997075626,9.13771268425525
7,8,0.8113110265501151,0.7476289222132924,6.368210433682275
8,0,0.8592414296838029,0.8429057921459138,1.6335637537889136
8,1,0.8592414296838029,0.832352887135448,2.6888542548354932
8,2,0.8592414296838029,0.8587541529091207,0.04872767746821882
8,3,0.8592414296838029,0.8402976607357702,1.8943768948032735
8,4,0.8592414296838029,0.7923510304613955,6.689039922240736
8,5,0.8592414296838029,0.7733211109085567,8.592031877524619
8,6,0.8592414296838029,0.8409387079020234,1.8302721781779496
8,7,0.8592414296838029,0.799320449838243,5.992097984555988
8,8,0.8592414296838029,0.7773989183600687,8.184251132373422
9,0,0.8178052461176044,0.8054788920630856,1.2326354054518762
9,1,0.8178052461176044,0.7865300662345736,3.1275179883030857
9,2,0.8178052461176044,0.7919636439005443,2.584160221706011
9,3,0.8178052461176044,0.8232667873057522,-0.5461541188147789
9,4,0.8178052461176044,0.8026921085097203,1.511313760788413
9,5,0.8178052461176044,0.7996507868126645,1.8154459304939863
9,6,0.8178052461176044,0.7991386100167086,1.8666636100895806
9,7,0.8178052461176044,0.7436731259709685,7.4132120146635945
9,8,0.8178052461176044,0.730703920180272,8.710132593733244
10,0,0.7845989255140486,0.7437764741565597,4.082245135748897
10,1,0.7845989255140486,0.7576882327119683,2.691069280208036
10,2,0.7845989255140486,0.7163141040560396,6.828482145800907
10,3,0.7845989255140486,0.7610134960272981,2.3585429486750575
10,4,0.7845989255140486,0.7324809743663334,5.2117951147715225
10,5,0.7845989255140486,0.7347795507049151,4.9819374809133565
10,6,0.7845989255140486,0.7917963663173806,-0.7197440803331956
10,7,0.7845989255140486,0.7407723074662116,4.382661804783705
10,8,0.7845989255140486,0.7655593276268179,1.9039597887230753
11,0,0.9222322753220182,0.8858663265013231,3.6365948820695104
11,1,0.9222322753220182,0.8937268644558535,2.850541086616476
11,2,0.9222322753220182,0.8418520442719679,8.038023105005031
11,3,0.9222322753220182,0.8575183110861249,6.471396423589337
11,4,0.9222322753220182,0.8487191703645569,7.351310495746133
11,5,0.9222322753220182,0.9049579748324755,1.7274300489542704
11,6,0.9222322753220182,0.9121898582399546,1.004241708206366
11,7,0.9222322753220182,0.8557407250606599,6.649155026135833
11,8,0.9222322753220182,0.888962892225586,3.3269383096432237
12,0,0.915507632773902,0.8986512202866993,1.685641248720271
12,1,0.915507632773902,0.8514470178343652,6.406061493953685
12,2,0.915507632773902,0.8623440012585742,5.3163631515327765
12,3,0.915507632773902,0.8511648701288527,6.434276264504934
12,4,0.915507632773902,0.8711198892702622,4.438774350363984
12,5,0.915507632773902,0.8837208603922828,3.17867723816192
12,6,0.915507632773902,0.9026518500903348,1.285578268356724
12,7,0.915507632773902,0.8852199194879363,3.028771328596569
12,8,0.915507632773902,0.8571593420415081,5.834829073239389
13,0,0.9229723615471338,0.918320649938297,0.4651711608836817
13,1,0.9229723615471338,0.8813833183855895,4.158904316154432
13,2,0.9229723615471338,0.8687819919315721,5.419036961556167
13,3,0.9229723615471338,0.8857072468611777,3.726511468595606
13,4,0.9229723615471338,0.8770158711219714,4.595649042516237
13,5,0.9229723615471338,0.8477969193233845,7.517544222374928
13,6,0.9229723615471338,0.9055848951160609,1.7387466431072918
13,7,0.9229723615471338,0.8946788598637208,2.8293501683413047
13,8,0.9229723615471338,0.9147209431609535,0.8251418386180265
14,0,0.8338975099580264,0.8076351030986165,2.6262406859409837
14,1,0.8338975099580264,0.7984622379898749,3.543527196815144
14,2,0.8338975099580264,0.8348812407095407,-0.09837307515143667
14,3,0.8338975099580264,0.7380651998194662,9.58323101385602
14,4,0.8338975099580264,0.8157770433561304,1.8120466601895924
14,5,0.8338975099580264,0.8377915152092895,-0.3894005251263155
14,6,0.8338975099580264,0.8230423248673412,1.085518509068517
14,7,0.8338975099580264,0.7987523040184015,3.514520593962489
14,8,0.8338975099580264,0.7465169483941747,8.738056156385166
15,0,0.9253339966363046,0.8676121466850871,5.7721849951217425
15,1,0.9253339966363046,0.8764048156359587,4.892918100034582
15,2,0.9253339966363046,0.8287251963619117,9.660880027439289
15,3,0.9253339966363046,0.8942778335159531,3.105616312035142
15,4,0.9253339966363046,0.9099744831354862,1.5359513500818323
15,5,0.9253339966363046,0.891230187366317,3.4103809269987573
15,6,0.9253339966363046,0.8875001964621457,3.7833800174158827
15,7,0.9253339966363046,0.875255130206073,5.007886643023152
15,8,0.9253339966363046,0.8585383862081597,6.679561042814486
16,0,0.879929147911395,0.8261869010049301,5.374224690646489
16,1,0.879929147911395,0.8716167819108996,0.8312366000495341
16,2,0.879929147911395,0.8391517403199646,4.077740759143033
16,3,0.879929147911395,0.8623186000014506,1.761054790994443
16,4,0.879929147911395,0.7971168307144589,8.281231719693604
16,5,0.879929147911395,0.7852819065734663,9.464724133792867
16,6,0.879929147911395,0.8704658437851273,0.9463304126267724
16,7,0.879929147911395,0.804646964604892,7.528218330650294
16,8,0.879929147911395,0.8422796595700581,3.7649488341336856
17,0,0.8795883163960749,0.8210581706994791,5.853014569659587
17,1,0.8795883163960749,0.883317484481712,-0.3729168085637058
17,2,0.8795883163960749,0.8578260759152573,2.176224048081765
17,3,0.8795883163960749,0.8095994728871597,6.998884350891521
17,4,0.8795883163960749,0.8646969089192126,1.489140747686235
17,5,0.8795883163960749,0.8369898485699079,4.259846782616705
17,6,0.8795883163960749,0.8643328544047784,1.525546199129657
17,7,0.8795883163960749,0.8131462897722106,6.644202662386434
17,8,0.8795883163960749,0.7522620899150738,12.732622648100111
18,0,0.8611526380505254,0.7879166047352743,7.323603331525119
18,1,0.8611526380505254,0.8266053402513529,3.454729779917254
18,2,0.8611526380505254,0.8107281595980649,5.042447845246056
18,3,0.8611526380505254,0.7369254498026307,12.42271882478947
18,4,0.8611526380505254,0.8459309208037206,1.5221717246804878
18,5,0.8611526380505254,0.8413375459426011,1.9815092107924315
18,6,0.8611526380505254,0.8418920282075655,1.9260609842959964
18,7,0.8611526380505254,0.7767377745638615,8.441486348666395
18,8,0.8611526380505254,0.7448988661497381,11.625377190078733
19,0,0.8176802751627941,0.8174281874947631,0.025208766803097582
19,1,0.8176802751627941,0.8389149811648811,-2.123470600208699
19,2,0.8176802751627941,0.8179391966233681,-0.02589214605740464
19,3,0.8176802751627941,0.7874773842621846,3.020289090060946
19,4,0.8176802751627941,0.7272636527577488,9.041662240504522
19,5,0.8176802751627941,0.7497538172384157,6.792645792437835
19,6,0.8176802751627941,0.8262088154873406,-0.852854032454653
19,7,0.8176802751627941,0.7923032129637988,2.537706219899527
19,8,0.8176802751627941,0.7365111233550286,8.116915180776552
20,0,0.8236997680792747,0.7746313542527302,4.906841382654448
20,1,0.8236997680792747,0.7869966688593878,3.6703099219886903
20,2,0.8236997680792747,0.770299557131721,5.340021094755365
20,3,0.8236997680792747,0.8289070861084202,-0.5207318029145536
20,4,0.8236997680792747,0.8226781938564691,0.10215742228055769
20,5,0.8236997680792747,0.7909672743691988,3.2732493710075916
20,6,0.8236997680792747,0.800376207180612,2.332356089866272
20,7,0.8236997680792747,0.7828746697018123,4.08250983774624
20,8,0.8236997680792747,0.7348476307487849,8.88521373304898
21,0,0.8011415646389943,0.7161703856329426,8.497117900605177
21,1,0.8011415646389943,0.825008775008775,-2.386721036978068
21,2,0.8011415646389943,0.7788649709764127,2.227659366258161
21,3,0.8011415646389943,0.7599272986986403,4.1214265940354045
21,4,0.8011415646389943,0.7909506890611542,1.0190875577840153
21,5,0.8011415646389943,0.8262994278242194,-2.515786318522506
21,6,0.8011415646389943,0.8023487237733963,-0.12071591344019472
21,7,0.8011415646389943,0.7470536294179885,5.408793522100586
21,8,0.8011415646389943,0.7513139698301486,4.982759480884569
22,0,0.8211274825138725,0.7436648213304312,7.746266118344125
22,1,0.8211274825138725,0.7928165695615285,2.8310912952344003
22,2,0.8211274825138725,0.7916807249215476,2.9446757592324846
22,3,0.8211274825138725,0.7543284544748008,6.679902803907167
22,4,0.8211274825138725,0.7524090710374653,6.871841147640712
22,5,0.8211274825138725,0.765097694697155,5.602978781671741
22,6,0.8211274825138725,0.7816285084267821,3.9498974087090355
22,7,0.8211274825138725,0.7139901961756328,10.71372863382397
22,8,0.8211274825138725,0.7619138719512195,5.921361056265296
23,0,0.7628835314944444,0.6842682971555349,7.861523433890949
23,1,0.7628835314944444,0.7558548725503326,0.7028658944111865
23,2,0.7628835314944444,0.7802548027551042,-1.7371271260659737
23,3,0.7628835314944444,0.6846748356897268,7.820869580471768
23,4,0.7628835314944444,0.6998357749466927,6.304775654775174
23,5,0.7628835314944444,0.7193878416266271,4.349568986781738
23,6,0.7628835314944444,0.756102431043419,0.6781100451025424
23,7,0.7628835314944444,0.7362572803805576,2.6626251113886834
23,8,0.7628835314944444,0.6915877050492998,7.129582644514465
24,0,0.8281825772052603,0.7458967227984192,8.22858544068411
24,1,0.8281825772052603,0.7885699699479025,3.9612607257357824
24,2,0.8281825772052603,0.8006483778480985,2.7534199357161837
24,3,0.8281825772052603,0.8418508474934184,-1.366827028815809
24,4,0.8281825772052603,0.7391891074696924,8.8993469735568
24,5,0.8281825772052603,0.7702868158851542,5.78957613201061
24,6,0.8281825772052603,0.8020684981282808,2.611407907697949
24,7,0.8281825772052603,0.6784188707414444,14.976370646381598
24,8,0.8281825772052603,0.7788201859649188,4.9362391240341585
25,0,0.8805630732546781,0.8631151376953616,1.7447935559316452
25,1,0.8805630732546781,0.878510032783606,0.20530404710721317
25,2,0.8805630732546781,0.8482985001870447,3.2264573067633417
25,3,0.8805630732546781,0.8246809584652286,5.588211478944949
25,4,0.8805630732546781,0.8150294640605695,6.5533609194108555
25,5,0.8805630732546781,0.847890748936438,3.2672324318240076
25,6,0.8805630732546781,0.8678800524937672,1.268302076091088
25,7,0.8805630732546781,0.7924651249030632,8.809794835161489
25,8,0.8805630732546781,0.8721937509838377,0.8369322270840418
26,0,0.8071677054211619,0.7537485362454763,5.341916917568557
26,1,0.8071677054211619,0.7730434157006634,3.4124289720498524
26,2,0.8071677054211619,0.7699667435828706,3.7200961838291247
26,3,0.8071677054211619,0.7361044627021842,7.106324271897768
26,4,0.8071677054211619,0.7625036400261208,4.466406539504108
26,5,0.8071677054211619,0.7652220588845741,4.194564653658784
26,6,0.8071677054211619,0.7996905653264599,0.7477140094702017
26,7,0.8071677054211619,0.7587130996593646,4.845460576179727
26,8,0.8071677054211619,0.712009903687451,9.515780173371091
27,0,0.9154766415457647,0.8963961614562803,1.9080480089484375
27,1,0.9154766415457647,0.9227655290997387,-0.7288887553974055
27,2,0.9154766415457647,0.8715309540526063,4.394568749315841
27,3,0.9154766415457647,0.90298589514109,1.2490746404674735
27,4,0.9154766415457647,0.8755006124717095,3.9976029074055175
27,5,0.9154766415457647,0.886647710354861,2.8828931190903684
27,6,0.9154766415457647,0.8995996988014404,1.5876942744324274
27,7,0.9154766415457647,0.8558309471941659,5.964569435159883
27,8,0.9154766415457647,0.8981646413721629,1.7312000173601794
28,0,0.8543128032285203,0.8570633073126763,-0.27505040841560024
28,1,0.8543128032285203,0.8386827879983567,1.5630015230163607
28,2,0.8543128032285203,0.8068626594649534,4.745014376356693
28,3,0.8543128032285203,0.7779683760385057,7.634442719001466
28,4,0.8543128032285203,0.7717514749912947,8.256132823722561
28,5,0.8543128032285203,0.7781096955046071,7.620310772391326
28,6,0.8543128032285203,0.857085294338463,-0.27724911099427096
28,7,0.8543128032285203,0.7800099577925591,7.430284543596121
28,8,0.8543128032285203,0.8307746034335027,2.353819979501759
29,0,0.8604421103402567,0.8481263808111997,1.2315729529057018
29,1,0.8604421103402567,0.8556379688341367,0.48041415061200743
29,2,0.8604421103402567,0.8052004558887548,5.524165445150198
29,3,0.8604421103402567,0.8385626434931587,2.1879466847098072
29,4,0.8604421103402567,0.7798537302853474,8.058838005490932
29,5,0.8604421103402567,0.7940894732071888,6.635263713306793
29,6,0.8604421103402567,0.8778241618490844,-1.7382051508827656
29,7,0.8604421103402567,0.8117650577877009,4.867705255255583
29,8,0.8604421103402567,0.7819513053151103,7.849080502514649
30,0,0.8631014240922364,0.834167119083312,2.8934305008924466
30,1,0.8631014240922364,0.8410849698169858,2.2016454275250674
30,2,0.8631014240922364,0.8565798632052503,0.6521560886986189
30,3,0.8631014240922364,0.8123371171230114,5.0764306969225075
30,4,0.8631014240922364,0.8373887166842031,2.571270740803333
30,5,0.8631014240922364,0.8111899491499802,5.191147494225623
30,6,0.8631014240922364,0.8389403802550932,2.4161043837143237
30,7,0.8631014240922364,0.7912572721124169,7.184415197981952
30,8,0.8631014240922364,0.8326214957978356,3.0479928294400827
31,0,0.8265762077826363,0.7836902504772632,4.288595730537315
31,1,0.8265762077826363,0.8010443618934326,2.5531845889203653
31,2,0.8265762077826363,0.757576804658451,6.899940312418529
31,3,0.8265762077826363,0.7988094159814191,2.7766791801217217
31,4,0.8265762077826363,0.7575322326415456,6.904397514109073
31,5,0.8265762077826363,0.7986174188301848,2.795878895245152
31,6,0.8265762077826363,0.7993543853729566,2.722182240967974
31,7,0.8265762077826363,0.7213275615877663,10.524864619486996
31,8,0.8265762077826363,0.7653855428855428,6.119066489709346
32,0,0.868555283225642,0.8178594532000255,5.06958300256165
32,1,0.868555283225642,0.8404417714958526,2.8113511729789376
32,2,0.868555283225642,0.8413076530034747,2.7247630222167363
32,3,0.868555283225642,0.8250891278049973,4.34661554206447
32,4,0.868555283225642,0.817906691594532,5.064859163111002
32,5,0.868555283225642,0.8158722480265723,5.268303519906969
32,6,0.868555283225642,0.8508847167653557,1.7670566460286308
32,7,0.868555283225642,0.7632899757804024,10.526530744523965
32,8,0.868555283225642,0.8436387508086431,2.491653241699887
33,0,0.9103715689785618,0.866927519261028,4.344404971753379
33,1,0.9103715689785618,0.8985156687002925,1.1855900278269216
33,2,0.9103715689785618,0.8654161642498374,4.495540472872439
33,3,0.9103715689785618,0.9093125014854011,0.10590674931606481
33,4,0.9103715689785618,0.9184005398427687,-0.8028970864206952
33,5,0.9103715689785618,0.9173331835813902,-0.6961614602828403
33,6,0.9103715689785618,0.8976082964621116,1.2763272516450153
33,7,0.9103715689785618,0.8389394426668755,7.143212631168627
33,8,0.9103715689785618,0.8797328036615139,3.06387653170479
34,0,0.9199996140260251,0.8475629521058096,7.243666192021559
34,1,0.9199996140260251,0.9086777437164657,1.1321870309559445
34,2,0.9199996140260251,0.8866715059256671,3.3328108100358023
34,3,0.9199996140260251,0.8438264307803449,7.617318324568023
34,4,0.9199996140260251,0.8855072391518103,3.449237487421486
34,5,0.9199996140260251,0.8695528961533248,5.044671787270039
34,6,0.9199996140260251,0.902364142690631,1.7635471335394115
34,7,0.9199996140260251,0.8543445648446029,6.565504918142229
34,8,0.9199996140260251,0.8686682159559518,5.133139807007336
35,0,0.7220992254267629,0.692065115980233,3.0034109446529844
35,1,0.7220992254267629,0.7197589859066591,0.23402395201037596
35,2,0.7220992254267629,0.7198746497847262,0.2224575642036708
35,3,0.7220992254267629,0.6864973333399982,3.5601892086764675
35,4,0.7220992254267629,0.7278786691365455,-0.5779443709782672
35,5,0.7220992254267629,0.7191063085309335,0.2992916895829367
35,6,0.7220992254267629,0.7292519450143962,-0.7152719587633305
35,7,0.7220992254267629,0.6999485999522088,2.215062547455404
35,8,0.7220992254267629,0.6867590443034286,3.5340181123334258
36,0,0.796186705817832,0.7407406447880597,5.544606102977234
36,1,0.796186705817832,0.7448332360983638,5.135346971946819
36,2,0.796186705817832,0.7260628517520789,7.012385406575317
36,3,0.796186705817832,0.7420252509259315,5.41614548919005
36,4,0.796186705817832,0.7817106450584979,1.4476060759334164
36,5,0.796186705817832,0.8136336634505331,-1.74469576327011
36,6,0.796186705817832,0.7608571131752598,3.5329592642572183
36,7,0.796186705817832,0.6910875945738172,10.509911124401484
36,8,0.796186705817832,0.6891353550764737,10.70513507413583
37,0,0.8742685881880032,0.8076715342903763,6.659705389762694
37,1,0.8742685881880032,0.8471056603065754,2.7162927881427823
37,2,0.8742685881880032,0.7953839473556003,7.888464083240299
37,3,0.8742685881880032,0.8413226519931002,3.2945936194903047
37,4,0.8742685881880032,0.8626195674836556,1.164902070434759
37,5,0.8742685881880032,0.8320664720264326,4.220211616157066
37,6,0.8742685881880032,0.8434889654088257,3.0779622779177562
37,7,0.8742685881880032,0.8337216254664659,4.054696272153735
37,8,0.8742685881880032,0.8426599451404848,3.1608643047518425
38,0,0.9025093979111464,0.8115122432296138,9.099715468153258
38,1,0.9025093979111464,0.8664531460448394,3.605625186630701
38,2,0.9025093979111464,0.8435308119642861,5.8978585946860225
38,3,0.9025093979111464,0.8860755683670731,1.6433829544073242
38,4,0.9025093979111464,0.843105392162198,5.9404005748948325
38,5,0.9025093979111464,0.8430019697673765,5.950742814376985
38,6,0.9025093979111464,0.8839991247811952,1.8510273129951127
38,7,0.9025093979111464,0.8367511520737327,6.575824583741364
38,8,0.9025093979111464,0.8706111096667277,3.189828824441865
39,0,0.8040327713448125,0.7188163639040996,8.521640744071291
39,1,0.8040327713448125,0.7746937317064854,2.933903963832718
39,2,0.8040327713448125,0.8024593718469745,0.15733994978380794
39,3,0.8040327713448125,0.676867145476022,12.716562586879053
39,4,0.8040327713448125,0.7819894925850422,2.20432787597703
39,5,0.8040327713448125,0.8144770042884353,-1.0444232943622733
39,6,0.8040327713448125,0.801897278684804,0.21354926600085644
39,7,0.8040327713448125,0.7583817420832347,4.565102926157783
39,8,0.8040327713448125,0.7512237225522237,5.280904879258886
40,0,0.8379524087922989,0.7579429843745267,8.000942441777227
40,1,0.8379524087922989,0.8345621707149736,0.33902380773253027
40,2,0.8379524087922989,0.8516742910832832,-1.3721882290984255
40,3,0.8379524087922989,0.8392719910058695,-0.1319582213570536
40,4,0.8379524087922989,0.8258936553846585,1.20587534076404
40,5,0.8379524087922989,0.8414169169868634,-0.3464508194564453
40,6,0.8379524087922989,0.824285101315414,1.3667307476884938
40,7,0.8379524087922989,0.7454917829122323,9.246062588006666
40,8,0.8379524087922989,0.740670314093689,9.728209469860992
