subject,block,block_width,feature_channel,gate_mean,gate_sd
1,0,32,0,0.4888763725757599,0.18683210015296936
1,0,32,1,0.48335638642311096,0.16628825664520264
1,0,32,2,0.36173251271247864,0.06557386368513107
1,0,32,3,0.39979809522628784,0.13200975954532623
1,0,32,4,0.4779452979564667,0.056813862174749374
1,0,32,5,0.416390985250473,0.11972204595804214
1,0,32,6,0.5538710951805115,0.08023862540721893
1,0,32,7,0.4651748538017273,0.188181072473526
1,0,32,8,0.4602511525154114,0.06757111847400665
1,0,32,9,0.45783373713493347,0.15059922635555267
1,0,32,10,0.5211552381515503,0.05488689988851547
1,0,32,11,0.4374071955680847,0.09244692325592041
1,0,32,12,0.5821390151977539,0.08292269706726074
1,0,32,13,0.27211838960647583,0.07439352571964264
1,0,32,14,0.4976533353328705,0.06695230305194855
1,0,32,15,0.47966569662094116,0.08707959204912186
1,0,32,16,0.4100944995880127,0.07209045439958572
1,0,32,17,0.45989012718200684,0.13817249238491058
1,0,32,18,0.5218387842178345,0.13575251400470734
1,0,32,19,0.4333954155445099,0.07761335372924805
1,0,32,20,0.45087072253227234,0.0752611830830574
1,0,32,21,0.46916863322257996,0.0875241830945015
1,0,32,22,0.4236258268356323,0.0926957055926323
1,0,32,23,0.43111443519592285,0.14766353368759155
1,0,32,24,0.6510732173919678,0.03991136699914932
1,0,32,25,0.37507572770118713,0.11156015843153
1,0,32,26,0.5302886366844177,0.09786785393953323
1,0,32,27,0.4972650408744812,0.025663260370492935
1,0,32,28,0.3888843059539795,0.039037760347127914
1,0,32,29,0.44438716769218445,0.07470876723527908
1,0,32,30,0.5571161508560181,0.09565814584493637
1,0,32,31,0.5088362693786621,0.05098133161664009
1,1,32,0,0.5996463894844055,0.053367070853710175
1,1,32,1,0.4046638011932373,0.08351252228021622
1,1,32,2,0.6256555914878845,0.1515798717737198
1,1,32,3,0.49034440517425537,0.0768391564488411
1,1,32,4,0.4526565372943878,0.12174783647060394
1,1,32,5,0.5436923503875732,0.0673644095659256
1,1,32,6,0.542996346950531,0.08009427040815353
1,1,32,7,0.5235133767127991,0.10565488785505295
1,1,32,8,0.4617125988006592,0.10025829821825027
1,1,32,9,0.497628390789032,0.11019054055213928
1,1,32,10,0.4816370904445648,0.15095867216587067
1,1,32,11,0.3744179606437683,0.06883790343999863
1,1,32,12,0.33466896414756775,0.06334786862134933
1,1,32,13,0.5446909070014954,0.1397288292646408
1,1,32,14,0.39467552304267883,0.10791301727294922
1,1,32,15,0.6162161827087402,0.08429968357086182
1,1,32,16,0.4177287220954895,0.10946206003427505
1,1,32,17,0.5356556177139282,0.1132088452577591
1,1,32,18,0.41289791464805603,0.06780412048101425
1,1,32,19,0.3155670464038849,0.07601585984230042
1,1,32,20,0.6080484390258789,0.06203635409474373
1,1,32,21,0.5526167154312134,0.07685796916484833
1,1,32,22,0.37556374073028564,0.10334166139364243
1,1,32,23,0.5815227031707764,0.09273438155651093
1,1,32,24,0.4656185507774353,0.07963588088750839
1,1,32,25,0.5529725551605225,0.09279726445674896
1,1,32,26,0.6638846397399902,0.11343447118997574
1,1,32,27,0.5763330459594727,0.10771795362234116
1,1,32,28,0.41039127111434937,0.17000329494476318
1,1,32,29,0.4962008595466614,0.13931713998317719
1,1,32,30,0.6426099538803101,0.059309251606464386
1,1,32,31,0.5655504465103149,0.13008174300193787
1,2,64,0,0.495542049407959,0.1750226765871048
1,2,64,1,0.44408541917800903,0.1182863712310791
1,2,64,2,0.4975997805595398,0.15243612229824066
1,2,64,3,0.3945261240005493,0.14249348640441895
1,2,64,4,0.42649006843566895,0.11126206070184708
1,2,64,5,0.6643236875534058,0.17926549911499023
1,2,64,6,0.2699577510356903,0.12141361832618713
1,2,64,7,0.5800737738609314,0.11634993553161621
1,2,64,8,0.5879445672035217,0.14485493302345276
1,2,64,9,0.511689305305481,0.1580534726381302
1,2,64,10,0.5489881634712219,0.06103208661079407
1,2,64,11,0.5381084680557251,0.08878296613693237
1,2,64,12,0.5296803116798401,0.1436731517314911
1,2,64,13,0.48189884424209595,0.20628634095191956
1,2,64,14,0.4115751087665558,0.09962409734725952
1,2,64,15,0.556424081325531,0.16805575788021088
1,2,64,16,0.570244312286377,0.1809702217578888
1,2,64,17,0.46502020955085754,0.18381011486053467
1,2,64,18,0.44330894947052,0.15969011187553406
1,2,64,19,0.4613891541957855,0.06983757764101028
1,2,64,20,0.4583931863307953,0.15988358855247498
1,2,64,21,0.46872979402542114,0.14543865621089935
1,2,64,22,0.594295084476471,0.22660204768180847
1,2,64,23,0.39339736104011536,0.14873845875263214
1,2,64,24,0.47995734214782715,0.14276711642742157
1,2,64,25,0.5063689947128296,0.22605542838573456
1,2,64,26,0.4889693856239319,0.23316051065921783
1,2,64,27,0.37337738275527954,0.19321060180664062
1,2,64,28,0.5079555511474609,0.21051694452762604
1,2,64,29,0.3796846568584442,0.18473391234874725
1,2,64,30,0.583251416683197,0.1506645381450653
1,2,64,31,0.5576605200767517,0.19735828042030334
1,2,64,32,0.5450457334518433,0.1520487517118454
1,2,64,33,0.6336418390274048,0.1317639797925949
1,2,64,34,0.6127512454986572,0.18423692882061005
1,2,64,35,0.33007875084877014,0.151066392660141
1,2,64,36,0.5139692425727844,0.13874755799770355
1,2,64,37,0.481337308883667,0.13403600454330444
1,2,64,38,0.44568827748298645,0.0904105082154274
1,2,64,39,0.6293121576309204,0.08222951740026474
1,2,64,40,0.4776022136211395,0.1324262171983719
1,2,64,41,0.5306466817855835,0.20136912167072296
1,2,64,42,0.6718279123306274,0.10892041772603989
1,2,64,43,0.3722301125526428,0.1247543916106224
1,2,64,44,0.49436792731285095,0.12923665344715118
1,2,64,45,0.5851823687553406,0.17922282218933105
1,2,64,46,0.5227498412132263,0.08941979706287384
1,2,64,47,0.558489978313446,0.1940440684556961
1,2,64,48,0.5138438940048218,0.18006587028503418
1,2,64,49,0.5404741168022156,0.09857739508152008
1,2,64,50,0.5662381052970886,0.11326730996370316
1,2,64,51,0.42922699451446533,0.10610037297010422
1,2,64,52,0.40806275606155396,0.0856587141752243
1,2,64,53,0.5737660527229309,0.0827782154083252
1,2,64,54,0.6380122303962708,0.11732937395572662
1,2,64,55,0.3828634023666382,0.09605477750301361
1,2,64,56,0.5061377882957458,0.08013574779033661
1,2,64,57,0.31516385078430176,0.14710812270641327
1,2,64,58,0.42940837144851685,0.09612950682640076
1,2,64,59,0.6412321329116821,0.15441446006298065
1,2,64,60,0.5179212093353271,0.12776321172714233
1,2,64,61,0.44981998205184937,0.11183067411184311
1,2,64,62,0.460896372795105,0.24219244718551636
1,2,64,63,0.498545378446579,0.13935339450836182
1,3,64,0,0.5228350758552551,0.09261384606361389
1,3,64,1,0.5884825587272644,0.1259354054927826
1,3,64,2,0.6248807311058044,0.04278857260942459
1,3,64,3,0.5814270377159119,0.04860102757811546
1,3,64,4,0.5620037317276001,0.08328775316476822
1,3,64,5,0.46112123131752014,0.0910613164305687
1,3,64,6,0.5729914307594299,0.06038128584623337
1,3,64,7,0.579031229019165,0.10677450895309448
1,3,64,8,0.44051000475883484,0.06782618165016174
1,3,64,9,0.6361894011497498,0.10818176716566086
1,3,64,10,0.5354780554771423,0.13103388249874115
1,3,64,11,0.5246419906616211,0.09071163833141327
1,3,64,12,0.4434533715248108,0.10256999731063843
1,3,64,13,0.6579527258872986,0.07992933690547943
1,3,64,14,0.5304529666900635,0.10514755547046661
1,3,64,15,0.487505704164505,0.12025728076696396
1,3,64,16,0.5040171146392822,0.06730304658412933
1,3,64,17,0.5873166918754578,0.1134529784321785
1,3,64,18,0.5868929028511047,0.08942929655313492
1,3,64,19,0.4316067397594452,0.0922686830163002
1,3,64,20,0.5468066930770874,0.09135863184928894
1,3,64,21,0.48022764921188354,0.09973358362913132
1,3,64,22,0.5320628881454468,0.07539235800504684
1,3,64,23,0.5039144158363342,0.1129697784781456
1,3,64,24,0.5760356783866882,0.06523910909891129
1,3,64,25,0.5200968980789185,0.07413827627897263
1,3,64,26,0.42906561493873596,0.12272610515356064
1,3,64,27,0.6225996017456055,0.08586607873439789
1,3,64,28,0.5110158920288086,0.08857353031635284
1,3,64,29,0.5282391309738159,0.10130967944860458
1,3,64,30,0.45648688077926636,0.05831543728709221
1,3,64,31,0.6016700863838196,0.130645751953125
1,3,64,32,0.563271164894104,0.08123648911714554
1,3,64,33,0.5685300827026367,0.10869114100933075
1,3,64,34,0.459195613861084,0.05525245517492294
1,3,64,35,0.5418161153793335,0.10153868049383163
1,3,64,36,0.5347791314125061,0.049508240073919296
1,3,64,37,0.49902820587158203,0.13194778561592102
1,3,64,38,0.44693589210510254,0.15881136059761047
1,3,64,39,0.4589466154575348,0.07912586629390717
1,3,64,40,0.504824161529541,0.09626501798629761
1,3,64,41,0.337139368057251,0.0718192383646965
1,3,64,42,0.5331079363822937,0.08655129373073578
1,3,64,43,0.5346916913986206,0.15545722842216492
1,3,64,44,0.4264742136001587,0.1274850070476532
1,3,64,45,0.47317859530448914,0.0891132652759552
1,3,64,46,0.486863374710083,0.10097138583660126
1,3,64,47,0.5638629794120789,0.07166081666946411
1,3,64,48,0.5861469507217407,0.05876249819993973
1,3,64,49,0.4170934557914734,0.053675275295972824
1,3,64,50,0.53581702709198,0.06721575558185577
1,3,64,51,0.5111096501350403,0.12931132316589355
1,3,64,52,0.36890536546707153,0.091474249958992
1,3,64,53,0.40820375084877014,0.06958462297916412
1,3,64,54,0.3887905478477478,0.07097800076007843
1,3,64,55,0.5322211980819702,0.03835397958755493
1,3,64,56,0.40172097086906433,0.08331412076950073
1,3,64,57,0.5689747929573059,0.09574245661497116
1,3,64,58,0.5251467227935791,0.21014522016048431
1,3,64,59,0.3194885551929474,0.09452371299266815
1,3,64,60,0.5265159606933594,0.06002284213900566
1,3,64,61,0.5090183615684509,0.09283469617366791
1,3,64,62,0.4029497802257538,0.14628513157367706
1,3,64,63,0.34065884351730347,0.039591819047927856
1,4,128,0,0.3350323736667633,0.10536319762468338
1,4,128,1,0.3653014302253723,0.32268816232681274
1,4,128,2,0.620331883430481,0.24923290312290192
1,4,128,3,0.5968230962753296,0.06782829761505127
1,4,128,4,0.5011311173439026,0.1687309890985489
1,4,128,5,0.467780202627182,0.1733146458864212
1,4,128,6,0.6449645757675171,0.09205164015293121
1,4,128,7,0.6492258906364441,0.17089278995990753
1,4,128,8,0.471500426530838,0.24784409999847412
1,4,128,9,0.4268583059310913,0.08664202690124512
1,4,128,10,0.4658050537109375,0.11531432718038559
1,4,128,11,0.7141290307044983,0.1726132035255432
1,4,128,12,0.4538537859916687,0.20908695459365845
1,4,128,13,0.6024563312530518,0.1179141253232956
1,4,128,14,0.638361930847168,0.30839839577674866
1,4,128,15,0.40281543135643005,0.21111872792243958
1,4,128,16,0.5078533887863159,0.06031085550785065
1,4,128,17,0.6518288254737854,0.25903943181037903
1,4,128,18,0.586069643497467,0.18471957743167877
1,4,128,19,0.4831348657608032,0.07217922806739807
1,4,128,20,0.5872113704681396,0.15441352128982544
1,4,128,21,0.22923511266708374,0.1530156433582306
1,4,128,22,0.5540986061096191,0.04112562909722328
1,4,128,23,0.4349791705608368,0.05039967596530914
1,4,128,24,0.5715293884277344,0.20945221185684204
1,4,128,25,0.6835222244262695,0.1118931770324707
1,4,128,26,0.5791571140289307,0.1448335200548172
1,4,128,27,0.35409602522850037,0.09055065363645554
1,4,128,28,0.6873496174812317,0.10917928069829941
1,4,128,29,0.5948247313499451,0.22849024832248688
1,4,128,30,0.5989139080047607,0.36554157733917236
1,4,128,31,0.5204804539680481,0.12113459408283234
1,4,128,32,0.5220110416412354,0.2944333553314209
1,4,128,33,0.35247114300727844,0.17090164124965668
1,4,128,34,0.6296356916427612,0.19357463717460632
1,4,128,35,0.5723010897636414,0.3571307063102722
1,4,128,36,0.646602988243103,0.29916712641716003
1,4,128,37,0.3926747739315033,0.1510041505098343
1,4,128,38,0.472275972366333,0.107293039560318
1,4,128,39,0.3664408028125763,0.1191423162817955
1,4,128,40,0.6785411834716797,0.15740400552749634
1,4,128,41,0.5050145983695984,0.20620869100093842
1,4,128,42,0.3598427176475525,0.09275607019662857
1,4,128,43,0.6289589405059814,0.08309205621480942
1,4,128,44,0.5698361992835999,0.12335110455751419
1,4,128,45,0.4601232409477234,0.26890069246292114
1,4,128,46,0.6073289513587952,0.1867516189813614
1,4,128,47,0.6735872626304626,0.20245493948459625
1,4,128,48,0.6615737080574036,0.1026492565870285
1,4,128,49,0.6511316299438477,0.1688690334558487
1,4,128,50,0.5056718587875366,0.28155526518821716
1,4,128,51,0.4963037371635437,0.30139654874801636
1,4,128,52,0.39903002977371216,0.21769359707832336
1,4,128,53,0.68400639295578,0.10536938160657883
1,4,128,54,0.3034713864326477,0.14107277989387512
1,4,128,55,0.6290301084518433,0.2941282093524933
1,4,128,56,0.4247717261314392,0.13391897082328796
1,4,128,57,0.6227259635925293,0.2223086953163147
1,4,128,58,0.4567587673664093,0.29093775153160095
1,4,128,59,0.2803702652454376,0.18176591396331787
1,4,128,60,0.6701782941818237,0.15591484308242798
1,4,128,61,0.5026390552520752,0.22301329672336578
1,4,128,62,0.738959550857544,0.11056162416934967
1,4,128,63,0.7217668294906616,0.12803907692432404
1,4,128,64,0.6976569294929504,0.2492663711309433
1,4,128,65,0.630823016166687,0.23593269288539886
1,4,128,66,0.36886754631996155,0.16600652039051056
1,4,128,67,0.6308914422988892,0.16988810896873474
1,4,128,68,0.5317727327346802,0.17251676321029663
1,4,128,69,0.468626469373703,0.32583773136138916
1,4,128,70,0.7775761485099792,0.09809746593236923
1,4,128,71,0.4840378165245056,0.06287144869565964
1,4,128,72,0.6107016801834106,0.09144929051399231
1,4,128,73,0.4409104585647583,0.09531837701797485
1,4,128,74,0.5456982851028442,0.23161613941192627
1,4,128,75,0.5818312764167786,0.33945921063423157
1,4,128,76,0.5995249152183533,0.17498692870140076
1,4,128,77,0.5559295415878296,0.24056528508663177
1,4,128,78,0.43641331791877747,0.28349417448043823
1,4,128,79,0.6820594072341919,0.23627910017967224
1,4,128,80,0.5101736783981323,0.23230698704719543
1,4,128,81,0.7460382580757141,0.10286527127027512
1,4,128,82,0.4851206839084625,0.0718596875667572
1,4,128,83,0.6576238870620728,0.28751036524772644
1,4,128,84,0.7102856636047363,0.07698605954647064
1,4,128,85,0.7130167484283447,0.16778215765953064
1,4,128,86,0.7045592665672302,0.176929771900177
1,4,128,87,0.42568278312683105,0.1942235380411148
1,4,128,88,0.6723133325576782,0.22884908318519592
1,4,128,89,0.5374667644500732,0.27454644441604614
1,4,128,90,0.5252038240432739,0.10800910741090775
1,4,128,91,0.5046951770782471,0.05507636442780495
1,4,128,92,0.6119582653045654,0.13774296641349792
1,4,128,93,0.7181032299995422,0.1271967738866806
1,4,128,94,0.5196434855461121,0.17544512450695038
1,4,128,95,0.6935375928878784,0.06867659091949463
1,4,128,96,0.5831769108772278,0.14736495912075043
1,4,128,97,0.6714092493057251,0.0603400357067585
1,4,128,98,0.5417866706848145,0.24328957498073578
1,4,128,99,0.6412218809127808,0.2394384890794754
1,4,128,100,0.6360400319099426,0.20747686922550201
1,4,128,101,0.43956223130226135,0.3481426537036896
1,4,128,102,0.6652107834815979,0.07790900021791458
1,4,128,103,0.7577806711196899,0.10280637443065643
1,4,128,104,0.33976250886917114,0.1592421680688858
1,4,128,105,0.7478896975517273,0.12873050570487976
1,4,128,106,0.4819563329219818,0.2801108956336975
1,4,128,107,0.6363572478294373,0.1703295111656189
1,4,128,108,0.6526399850845337,0.19213420152664185
1,4,128,109,0.6365127563476562,0.2534591257572174
1,4,128,110,0.33190304040908813,0.1370227038860321
1,4,128,111,0.3685532510280609,0.277980774641037
1,4,128,112,0.6163144111633301,0.25095272064208984
1,4,128,113,0.40465933084487915,0.2744543254375458
1,4,128,114,0.6922634840011597,0.23548348248004913
1,4,128,115,0.5119286775588989,0.3038594722747803
1,4,128,116,0.446111798286438,0.1802414059638977
1,4,128,117,0.32568061351776123,0.09722776710987091
1,4,128,118,0.5206658840179443,0.11799304932355881
1,4,128,119,0.6008232831954956,0.32707712054252625
1,4,128,120,0.3628230094909668,0.25259700417518616
1,4,128,121,0.6739622950553894,0.09040273725986481
1,4,128,122,0.6567205786705017,0.11652273684740067
1,4,128,123,0.47950372099876404,0.0996064767241478
1,4,128,124,0.40630894899368286,0.12081382423639297
1,4,128,125,0.30512991547584534,0.10899526625871658
1,4,128,126,0.444590300321579,0.06737000495195389
1,4,128,127,0.7430444955825806,0.10007437318563461
1,5,128,0,0.6997604370117188,0.2216496616601944
1,5,128,1,0.7326305508613586,0.12925677001476288
1,5,128,2,0.7391797304153442,0.17909002304077148
1,5,128,3,0.4376460313796997,0.18771691620349884
1,5,128,4,0.6520588397979736,0.17386604845523834
1,5,128,5,0.6569297313690186,0.09687770903110504
1,5,128,6,0.7976827621459961,0.14476723968982697
1,5,128,7,0.6969593167304993,0.1880500465631485
1,5,128,8,0.3428259789943695,0.20799434185028076
1,5,128,9,0.38694697618484497,0.20786738395690918
1,5,128,10,0.657220721244812,0.14036886394023895
1,5,128,11,0.7784129977226257,0.20914791524410248
1,5,128,12,0.4652659595012665,0.06586591899394989
1,5,128,13,0.7908820509910583,0.11779963225126266
1,5,128,14,0.7665678858757019,0.20050230622291565
1,5,128,15,0.7260323166847229,0.1618884652853012
1,5,128,16,0.7899995446205139,0.14341457188129425
1,5,128,17,0.711682915687561,0.1722669005393982
1,5,128,18,0.7646296620368958,0.178263321518898
1,5,128,19,0.6973826885223389,0.18347550928592682
1,5,128,20,0.38793179392814636,0.0875762477517128
1,5,128,21,0.2693873345851898,0.07842782884836197
1,5,128,22,0.7375601530075073,0.18206219375133514
1,5,128,23,0.5475008487701416,0.05119578167796135
1,5,128,24,0.7838977575302124,0.1197599247097969
1,5,128,25,0.6685168147087097,0.19367505609989166
1,5,128,26,0.474906861782074,0.09040269255638123
1,5,128,27,0.6222425103187561,0.05419683828949928
1,5,128,28,0.661986231803894,0.13557754456996918
1,5,128,29,0.7178966999053955,0.21098461747169495
1,5,128,30,0.7792873382568359,0.16467471420764923
1,5,128,31,0.761008083820343,0.1341134011745453
1,5,128,32,0.7969748973846436,0.13420547544956207
1,5,128,33,0.7457025051116943,0.20803779363632202
1,5,128,34,0.6437502503395081,0.08406425267457962
1,5,128,35,0.7925862669944763,0.16989973187446594
1,5,128,36,0.6870377659797668,0.20127183198928833
1,5,128,37,0.6186598539352417,0.065546415746212
1,5,128,38,0.44339635968208313,0.12544569373130798
1,5,128,39,0.2592487335205078,0.19276778399944305
1,5,128,40,0.758899986743927,0.16871750354766846
1,5,128,41,0.36193302273750305,0.08893217891454697
1,5,128,42,0.7678601145744324,0.13847993314266205
1,5,128,43,0.3968898057937622,0.211093470454216
1,5,128,44,0.6558905243873596,0.21102960407733917
1,5,128,45,0.5115717053413391,0.13642163574695587
1,5,128,46,0.734841525554657,0.15647803246974945
1,5,128,47,0.7688086628913879,0.10538174957036972
1,5,128,48,0.7130581736564636,0.17630717158317566
1,5,128,49,0.7429471015930176,0.11309876292943954
1,5,128,50,0.6961194276809692,0.2245093733072281
1,5,128,51,0.8214667439460754,0.09959950298070908
1,5,128,52,0.6289921998977661,0.09069609642028809
1,5,128,53,0.649461567401886,0.11959432065486908
1,5,128,54,0.7539743781089783,0.09658216685056686
1,5,128,55,0.7910977005958557,0.13774338364601135
1,5,128,56,0.6143159866333008,0.16833363473415375
1,5,128,57,0.7576174736022949,0.17557238042354584
1,5,128,58,0.3930457830429077,0.17880775034427643
1,5,128,59,0.7385544776916504,0.09606032073497772
1,5,128,60,0.8081859350204468,0.12961269915103912
1,5,128,61,0.39642012119293213,0.10864419490098953
1,5,128,62,0.7952771186828613,0.13214166462421417
1,5,128,63,0.8064833283424377,0.10123658180236816
1,5,128,64,0.761112630367279,0.15316292643547058
1,5,128,65,0.7162618041038513,0.19338282942771912
1,5,128,66,0.38748860359191895,0.22228652238845825
1,5,128,67,0.7255714535713196,0.17626693844795227
1,5,128,68,0.7156186103820801,0.21596963703632355
1,5,128,69,0.6899680495262146,0.18957312405109406
1,5,128,70,0.7822631597518921,0.11998765915632248
1,5,128,71,0.6291678547859192,0.11143282800912857
1,5,128,72,0.7223713994026184,0.11960867047309875
1,5,128,73,0.5927282571792603,0.15750376880168915
1,5,128,74,0.761630654335022,0.14239460229873657
1,5,128,75,0.7451794743537903,0.1719697266817093
1,5,128,76,0.4826963245868683,0.12156030535697937
1,5,128,77,0.7285835146903992,0.20331880450248718
1,5,128,78,0.46257510781288147,0.11190494149923325
1,5,128,79,0.6608294248580933,0.08844240009784698
1,5,128,80,0.5766423344612122,0.035954877734184265
1,5,128,81,0.7508797645568848,0.12632229924201965
1,5,128,82,0.6646183133125305,0.12540389597415924
1,5,128,83,0.7426254749298096,0.17377260327339172
1,5,128,84,0.29537153244018555,0.15436029434204102
1,5,128,85,0.795076310634613,0.14518240094184875
1,5,128,86,0.6449615359306335,0.09944241493940353
1,5,128,87,0.35074758529663086,0.2104235291481018
1,5,128,88,0.71034175157547,0.20453408360481262
1,5,128,89,0.5860595703125,0.15212340652942657
1,5,128,90,0.4074402153491974,0.13877710700035095
1,5,128,91,0.6629646420478821,0.045287102460861206
1,5,128,92,0.6834196448326111,0.1631896048784256
1,5,128,93,0.7912192344665527,0.13193972408771515
1,5,128,94,0.6920316219329834,0.07377695292234421
1,5,128,95,0.4672050476074219,0.11085867881774902
1,5,128,96,0.7759516835212708,0.1226656436920166
1,5,128,97,0.7929819226264954,0.14491872489452362
1,5,128,98,0.6676061749458313,0.1900303065776825
1,5,128,99,0.7329565286636353,0.20099176466464996
1,5,128,100,0.6618080139160156,0.13462258875370026
1,5,128,101,0.42961421608924866,0.15538790822029114
1,5,128,102,0.7037733793258667,0.17133240401744843
1,5,128,103,0.5402721166610718,0.11184243112802505
1,5,128,104,0.8153253793716431,0.10993529111146927
1,5,128,105,0.7924032211303711,0.12888678908348083
1,5,128,106,0.3188754916191101,0.22580848634243011
1,5,128,107,0.7510944604873657,0.151910662651062
1,5,128,108,0.7587906718254089,0.11665183305740356
1,5,128,109,0.669743537902832,0.23471708595752716
1,5,128,110,0.3519941568374634,0.11051831394433975
1,5,128,111,0.676874041557312,0.11515895277261734
1,5,128,112,0.458432137966156,0.13552314043045044
1,5,128,113,0.7245402932167053,0.1512456238269806
1,5,128,114,0.6712592840194702,0.10480400174856186
1,5,128,115,0.7043904662132263,0.12948644161224365
1,5,128,116,0.7390619516372681,0.16947714984416962
1,5,128,117,0.29798850417137146,0.09054627269506454
1,5,128,118,0.7189228534698486,0.20947441458702087
1,5,128,119,0.6497129797935486,0.20452891290187836
1,5,128,120,0.7548012733459473,0.13162975013256073
1,5,128,121,0.4516863524913788,0.09487828612327576
1,5,128,122,0.5227905511856079,0.11816317588090897
1,5,128,123,0.44716787338256836,0.1315927505493164
1,5,128,124,0.7790364623069763,0.15649019181728363
1,5,128,125,0.7463817596435547,0.18727165460586548
1,5,128,126,0.5131653547286987,0.09079797565937042
1,5,128,127,0.794566810131073,0.13301695883274078
2,0,32,0,0.5161530375480652,0.07189416885375977
2,0,32,1,0.5495555996894836,0.09539967775344849
2,0,32,2,0.6256505846977234,0.09358226507902145
2,0,32,3,0.38832342624664307,0.060700204223394394
2,0,32,4,0.4037703573703766,0.07258320599794388
2,0,32,5,0.46618205308914185,0.06550894677639008
2,0,32,6,0.362627774477005,0.0766514241695404
2,0,32,7,0.6076083183288574,0.08660348504781723
2,0,32,8,0.5779054760932922,0.14303821325302124
2,0,32,9,0.40008822083473206,0.10504765063524246
2,0,32,10,0.40596622228622437,0.05267903953790665
2,0,32,11,0.6411471366882324,0.07345831394195557
2,0,32,12,0.5224341154098511,0.07135726511478424
2,0,32,13,0.6309477686882019,0.0492791049182415
2,0,32,14,0.519174337387085,0.05713455751538277
2,0,32,15,0.40693116188049316,0.07751274108886719
2,0,32,16,0.485323965549469,0.11314958333969116
2,0,32,17,0.5297942161560059,0.05984089523553848
2,0,32,18,0.6599385738372803,0.08234777301549911
2,0,32,19,0.42735838890075684,0.09812337905168533
2,0,32,20,0.44429048895835876,0.07414558529853821
2,0,32,21,0.623063862323761,0.05177510157227516
2,0,32,22,0.5764922499656677,0.13020609319210052
2,0,32,23,0.44704169034957886,0.08312037587165833
2,0,32,24,0.6137253642082214,0.10924559831619263
2,0,32,25,0.48398154973983765,0.1283547729253769
2,0,32,26,0.521062970161438,0.11007806658744812
2,0,32,27,0.5224493145942688,0.18211215734481812
2,0,32,28,0.4019225835800171,0.10558143258094788
2,0,32,29,0.4161325693130493,0.08968263119459152
2,0,32,30,0.4076974391937256,0.1290140002965927
2,0,32,31,0.6248475909233093,0.08959965407848358
2,1,32,0,0.4882317781448364,0.05943005532026291
2,1,32,1,0.510464072227478,0.07737188786268234
2,1,32,2,0.5245074033737183,0.17430275678634644
2,1,32,3,0.6367770433425903,0.05817626789212227
2,1,32,4,0.5624528527259827,0.14060847461223602
2,1,32,5,0.5306500196456909,0.07252214103937149
2,1,32,6,0.4564059376716614,0.08515041321516037
2,1,32,7,0.4341893196105957,0.07902181893587112
2,1,32,8,0.536689043045044,0.13176895678043365
2,1,32,9,0.35376015305519104,0.09423582255840302
2,1,32,10,0.5719227194786072,0.15955501794815063
2,1,32,11,0.4281836152076721,0.0710616186261177
2,1,32,12,0.5310174226760864,0.10366111248731613
2,1,32,13,0.35348862409591675,0.07364719361066818
2,1,32,14,0.5806686878204346,0.11294623464345932
2,1,32,15,0.5592436790466309,0.15567833185195923
2,1,32,16,0.5122969746589661,0.087071493268013
2,1,32,17,0.555080235004425,0.10013216733932495
2,1,32,18,0.5588211417198181,0.10721765458583832
2,1,32,19,0.574277937412262,0.04394914582371712
2,1,32,20,0.5958489179611206,0.12576906383037567
2,1,32,21,0.2718886137008667,0.09455247968435287
2,1,32,22,0.5488789677619934,0.11322689801454544
2,1,32,23,0.6332272887229919,0.10044030100107193
2,1,32,24,0.5092173218727112,0.06755968928337097
2,1,32,25,0.5060212016105652,0.14566729962825775
2,1,32,26,0.40648117661476135,0.18004286289215088
2,1,32,27,0.3131418824195862,0.11062195152044296
2,1,32,28,0.5583910942077637,0.1404767483472824
2,1,32,29,0.3837240934371948,0.10844877362251282
2,1,32,30,0.590970516204834,0.0703199952840805
2,1,32,31,0.4648727774620056,0.0850495770573616
2,2,64,0,0.7116584777832031,0.15758727490901947
2,2,64,1,0.4734732210636139,0.23522202670574188
2,2,64,2,0.47657284140586853,0.20112499594688416
2,2,64,3,0.3053508400917053,0.19078940153121948
2,2,64,4,0.41932976245880127,0.21268296241760254
2,2,64,5,0.3623232841491699,0.09439779818058014
2,2,64,6,0.6857510209083557,0.19285432994365692
2,2,64,7,0.7116572856903076,0.09241378307342529
2,2,64,8,0.6205065846443176,0.10942235589027405
2,2,64,9,0.5929448008537292,0.15395119786262512
2,2,64,10,0.5187821984291077,0.17853033542633057
2,2,64,11,0.6535819172859192,0.09895056486129761
2,2,64,12,0.6149113774299622,0.14767038822174072
2,2,64,13,0.4406961500644684,0.12013515830039978
2,2,64,14,0.39597296714782715,0.2691006660461426
2,2,64,15,0.4862598776817322,0.10403117537498474
2,2,64,16,0.5411343574523926,0.17265255749225616
2,2,64,17,0.6260448098182678,0.06503287702798843
2,2,64,18,0.5928362011909485,0.17180611193180084
2,2,64,19,0.36221644282341003,0.15878543257713318
2,2,64,20,0.6132456660270691,0.28475967049598694
2,2,64,21,0.6289859414100647,0.12862586975097656
2,2,64,22,0.6340952515602112,0.30840736627578735
2,2,64,23,0.3628475069999695,0.09663446247577667
2,2,64,24,0.6333768963813782,0.13189411163330078
2,2,64,25,0.327504962682724,0.13459214568138123
2,2,64,26,0.6005545258522034,0.18970468640327454
2,2,64,27,0.3998458981513977,0.2106281965970993
2,2,64,28,0.5300783514976501,0.11484525352716446
2,2,64,29,0.4746851623058319,0.06334535777568817
2,2,64,30,0.4642655849456787,0.2787182331085205
2,2,64,31,0.484634667634964,0.1135825514793396
2,2,64,32,0.43776795268058777,0.11586828529834747
2,2,64,33,0.8003873825073242,0.13238488137722015
2,2,64,34,0.6299262642860413,0.26500198245048523
2,2,64,35,0.3721049726009369,0.13598231971263885
2,2,64,36,0.29789620637893677,0.15826073288917542
2,2,64,37,0.6133041977882385,0.24796658754348755
2,2,64,38,0.631147027015686,0.20572680234909058
2,2,64,39,0.575380265712738,0.11497688293457031
2,2,64,40,0.5915728807449341,0.0827706828713417
2,2,64,41,0.41823166608810425,0.17540687322616577
2,2,64,42,0.554200291633606,0.10899980366230011
2,2,64,43,0.7044441103935242,0.08481984585523605
2,2,64,44,0.6546438336372375,0.25982916355133057
2,2,64,45,0.5734900832176208,0.07782838493585587
2,2,64,46,0.5448317527770996,0.1169927567243576
2,2,64,47,0.5918675661087036,0.17820610105991364
2,2,64,48,0.604142427444458,0.18425458669662476
2,2,64,49,0.41517114639282227,0.13508480787277222
2,2,64,50,0.6102566719055176,0.0934671014547348
2,2,64,51,0.4727480113506317,0.12710607051849365
2,2,64,52,0.660618007183075,0.14350023865699768
2,2,64,53,0.5821959972381592,0.27690958976745605
2,2,64,54,0.7142582535743713,0.1594630479812622
2,2,64,55,0.6062092781066895,0.07072380185127258
2,2,64,56,0.606402575969696,0.14968697726726532
2,2,64,57,0.6322818994522095,0.2013106644153595
2,2,64,58,0.5706939101219177,0.09598377346992493
2,2,64,59,0.540435254573822,0.165615513920784
2,2,64,60,0.501017153263092,0.1655050367116928
2,2,64,61,0.5709569454193115,0.13832977414131165
2,2,64,62,0.6804454326629639,0.1293831765651703
2,2,64,63,0.4775668978691101,0.19034524261951447
2,3,64,0,0.4341708719730377,0.1406954824924469
2,3,64,1,0.39354196190834045,0.04639138653874397
2,3,64,2,0.39866095781326294,0.13123773038387299
2,3,64,3,0.5634467005729675,0.029098859056830406
2,3,64,4,0.39070332050323486,0.09395647794008255
2,3,64,5,0.5387670993804932,0.14170144498348236
2,3,64,6,0.4884035289287567,0.15102635324001312
2,3,64,7,0.5460147261619568,0.09879524260759354
2,3,64,8,0.44980937242507935,0.2232639044523239
2,3,64,9,0.3096599578857422,0.10781669616699219
2,3,64,10,0.5372923016548157,0.07122384756803513
2,3,64,11,0.4206381142139435,0.0882493183016777
2,3,64,12,0.5014686584472656,0.22446309030056
2,3,64,13,0.4670862555503845,0.08598633110523224
2,3,64,14,0.6268157958984375,0.11173611879348755
2,3,64,15,0.5455052852630615,0.14021897315979004
2,3,64,16,0.4900040924549103,0.1522461622953415
2,3,64,17,0.47839996218681335,0.07950490713119507
2,3,64,18,0.39128804206848145,0.129990354180336
2,3,64,19,0.377603143453598,0.07478843629360199
2,3,64,20,0.5149759650230408,0.0991581380367279
2,3,64,21,0.44249841570854187,0.04691174626350403
2,3,64,22,0.45186296105384827,0.06779631227254868
2,3,64,23,0.47454750537872314,0.15451852977275848
2,3,64,24,0.5234274864196777,0.17744725942611694
2,3,64,25,0.5189345479011536,0.16125686466693878
2,3,64,26,0.4781292676925659,0.15034699440002441
2,3,64,27,0.4757560193538666,0.10929969698190689
2,3,64,28,0.5623272657394409,0.09254711866378784
2,3,64,29,0.45793211460113525,0.18032559752464294
2,3,64,30,0.46974995732307434,0.15545515716075897
2,3,64,31,0.445976585149765,0.07268158346414566
2,3,64,32,0.3879031240940094,0.06582991778850555
2,3,64,33,0.5354731678962708,0.1680745631456375
2,3,64,34,0.44618865847587585,0.11650434136390686
2,3,64,35,0.5502932071685791,0.10417585074901581
2,3,64,36,0.5686900019645691,0.11328377574682236
2,3,64,37,0.560290515422821,0.11157076805830002
2,3,64,38,0.6395118236541748,0.10066898167133331
2,3,64,39,0.5465996265411377,0.18888729810714722
2,3,64,40,0.4754422903060913,0.1223064661026001
2,3,64,41,0.4765384793281555,0.19530047476291656
2,3,64,42,0.3719957172870636,0.15705710649490356
2,3,64,43,0.4034079611301422,0.0672747939825058
2,3,64,44,0.4911789298057556,0.251472532749176
2,3,64,45,0.4573439657688141,0.15431830286979675
2,3,64,46,0.5275046229362488,0.20808742940425873
2,3,64,47,0.39630770683288574,0.09086697548627853
2,3,64,48,0.6358242034912109,0.11578129976987839
2,3,64,49,0.4583267569541931,0.14432857930660248
2,3,64,50,0.47458645701408386,0.08452493697404861
2,3,64,51,0.5923749804496765,0.09314970672130585
2,3,64,52,0.4686897099018097,0.21496832370758057
2,3,64,53,0.6345073580741882,0.09906983375549316
2,3,64,54,0.4877829849720001,0.09879318624734879
2,3,64,55,0.4477675259113312,0.12881290912628174
2,3,64,56,0.3902030289173126,0.24318164587020874
2,3,64,57,0.508910059928894,0.21434959769248962
2,3,64,58,0.5394184589385986,0.10253359377384186
2,3,64,59,0.4254375100135803,0.0706985741853714
2,3,64,60,0.5841452479362488,0.06416547298431396
2,3,64,61,0.5027787685394287,0.13805072009563446
2,3,64,62,0.5788952112197876,0.17423640191555023
2,3,64,63,0.47402387857437134,0.06917862594127655
2,4,128,0,0.6206343770027161,0.2998632490634918
2,4,128,1,0.6020351052284241,0.30989357829093933
2,4,128,2,0.39964625239372253,0.2868286073207855
2,4,128,3,0.7110135555267334,0.09819309413433075
2,4,128,4,0.5917409062385559,0.0929790511727333
2,4,128,5,0.6839843988418579,0.13414984941482544
2,4,128,6,0.6307694315910339,0.13655006885528564
2,4,128,7,0.41549259424209595,0.2815060019493103
2,4,128,8,0.28307852149009705,0.13893218338489532
2,4,128,9,0.4900889992713928,0.07063735276460648
2,4,128,10,0.44327133893966675,0.2967607378959656
2,4,128,11,0.7076597213745117,0.16760815680027008
2,4,128,12,0.6856352090835571,0.20516182482242584
2,4,128,13,0.8016398549079895,0.08459708094596863
2,4,128,14,0.6441071629524231,0.17461784183979034
2,4,128,15,0.4740750193595886,0.1399666666984558
2,4,128,16,0.6580734848976135,0.057835016399621964
2,4,128,17,0.727191686630249,0.15323922038078308
2,4,128,18,0.7063692212104797,0.17841003835201263
2,4,128,19,0.48436301946640015,0.2041606903076172
2,4,128,20,0.6978536248207092,0.15914633870124817
2,4,128,21,0.7780705690383911,0.12564802169799805
2,4,128,22,0.29099467396736145,0.1994580179452896
2,4,128,23,0.694280207157135,0.15652135014533997
2,4,128,24,0.5723419189453125,0.1663055717945099
2,4,128,25,0.5192105174064636,0.1091778501868248
2,4,128,26,0.7858748435974121,0.13860024511814117
2,4,128,27,0.5759572386741638,0.05641324818134308
2,4,128,28,0.6775017976760864,0.27420899271965027
2,4,128,29,0.7396995425224304,0.23994645476341248
2,4,128,30,0.6821414828300476,0.08732713013887405
2,4,128,31,0.5981223583221436,0.13810129463672638
2,4,128,32,0.7171494364738464,0.12657229602336884
2,4,128,33,0.737442135810852,0.11828684061765671
2,4,128,34,0.698732316493988,0.2328839749097824
2,4,128,35,0.7171388864517212,0.10260502249002457
2,4,128,36,0.686659038066864,0.1772480010986328
2,4,128,37,0.6050392389297485,0.22096557915210724
2,4,128,38,0.3136688470840454,0.17784221470355988
2,4,128,39,0.59946209192276,0.20358768105506897
2,4,128,40,0.5139997601509094,0.23712630569934845
2,4,128,41,0.6100224256515503,0.12419149279594421
2,4,128,42,0.6809882521629333,0.16723570227622986
2,4,128,43,0.37114858627319336,0.2748837172985077
2,4,128,44,0.523261308670044,0.25853192806243896
2,4,128,45,0.38608282804489136,0.20955848693847656
2,4,128,46,0.707076907157898,0.19320499897003174
2,4,128,47,0.591450035572052,0.12964950501918793
2,4,128,48,0.6142787933349609,0.34439459443092346
2,4,128,49,0.4413587749004364,0.30799075961112976
2,4,128,50,0.5730582475662231,0.21811543405056
2,4,128,51,0.38520491123199463,0.13435888290405273
2,4,128,52,0.2909933924674988,0.07825224101543427
2,4,128,53,0.5689424872398376,0.21858316659927368
2,4,128,54,0.6635109782218933,0.11137979477643967
2,4,128,55,0.7582574486732483,0.18150649964809418
2,4,128,56,0.43707919120788574,0.19593589007854462
2,4,128,57,0.5651026964187622,0.10844609886407852
2,4,128,58,0.5144698023796082,0.18126288056373596
2,4,128,59,0.5606473684310913,0.20662821829319
2,4,128,60,0.5830098986625671,0.09733307361602783
2,4,128,61,0.7540296316146851,0.15981154143810272
2,4,128,62,0.6912659406661987,0.16242539882659912
2,4,128,63,0.5284162163734436,0.17641933262348175
2,4,128,64,0.42937198281288147,0.22002989053726196
2,4,128,65,0.6903439164161682,0.08528520166873932
2,4,128,66,0.2658218741416931,0.13525770604610443
2,4,128,67,0.5016475915908813,0.08937867730855942
2,4,128,68,0.622458279132843,0.2986813485622406
2,4,128,69,0.6474202871322632,0.1068120151758194
2,4,128,70,0.6302546858787537,0.3051674962043762
2,4,128,71,0.6085872650146484,0.21560871601104736
2,4,128,72,0.6194000244140625,0.2322288602590561
2,4,128,73,0.41269388794898987,0.18377648293972015
2,4,128,74,0.5038899779319763,0.12873566150665283
2,4,128,75,0.8512200117111206,0.08948777616024017
2,4,128,76,0.654096782207489,0.2135070562362671
2,4,128,77,0.6146561503410339,0.3227481245994568
2,4,128,78,0.7683208584785461,0.10479599982500076
2,4,128,79,0.7430475354194641,0.15861952304840088
2,4,128,80,0.6372860670089722,0.083550825715065
2,4,128,81,0.7127488851547241,0.08039239794015884
2,4,128,82,0.4100240170955658,0.291696161031723
2,4,128,83,0.5994354486465454,0.04473816975951195
2,4,128,84,0.6737180948257446,0.10422384738922119
2,4,128,85,0.46758294105529785,0.1895054578781128
2,4,128,86,0.6252303719520569,0.260921448469162
2,4,128,87,0.32428234815597534,0.22764931619167328
2,4,128,88,0.5974476933479309,0.18650691211223602
2,4,128,89,0.8397337794303894,0.09295187890529633
2,4,128,90,0.7114973068237305,0.22749878466129303
2,4,128,91,0.6843023896217346,0.270385205745697
2,4,128,92,0.4344725012779236,0.23469360172748566
2,4,128,93,0.5033395290374756,0.12498123943805695
2,4,128,94,0.48603078722953796,0.20528005063533783
2,4,128,95,0.6068005561828613,0.17810316383838654
2,4,128,96,0.4140389859676361,0.08912888914346695
2,4,128,97,0.5296208262443542,0.24547535181045532
2,4,128,98,0.6760345101356506,0.2392500340938568
2,4,128,99,0.6154422163963318,0.14973273873329163
2,4,128,100,0.654679536819458,0.189236119389534
2,4,128,101,0.3708310127258301,0.25948190689086914
2,4,128,102,0.6176093816757202,0.2306576818227768
2,4,128,103,0.6838969588279724,0.20499593019485474
2,4,128,104,0.4871973991394043,0.0816512405872345
2,4,128,105,0.3350241780281067,0.15972962975502014
2,4,128,106,0.3966381251811981,0.05047443509101868
2,4,128,107,0.4944162666797638,0.08687395602464676
2,4,128,108,0.7663447856903076,0.24746796488761902
2,4,128,109,0.4874896705150604,0.0870894268155098
2,4,128,110,0.6745730638504028,0.24110901355743408
2,4,128,111,0.41259968280792236,0.3196201026439667
2,4,128,112,0.733148455619812,0.26285213232040405
2,4,128,113,0.6790746450424194,0.19638942182064056
2,4,128,114,0.39344871044158936,0.14514043927192688
2,4,128,115,0.5308929085731506,0.08009568601846695
2,4,128,116,0.6857531070709229,0.31353843212127686
2,4,128,117,0.5261379480361938,0.1117701381444931
2,4,128,118,0.6418485641479492,0.1325688660144806
2,4,128,119,0.45625540614128113,0.11121488362550735
2,4,128,120,0.7256637811660767,0.08670616149902344
2,4,128,121,0.6019577980041504,0.14532065391540527
2,4,128,122,0.6977452635765076,0.1657482385635376
2,4,128,123,0.29704469442367554,0.09084736555814743
2,4,128,124,0.35658499598503113,0.16515174508094788
2,4,128,125,0.4581283926963806,0.10544631630182266
2,4,128,126,0.7272199988365173,0.17412495613098145
2,4,128,127,0.6928818821907043,0.26728707551956177
2,5,128,0,0.7366602420806885,0.16349542140960693
2,5,128,1,0.8204229474067688,0.15876471996307373
2,5,128,2,0.7071999907493591,0.07247249782085419
2,5,128,3,0.48476606607437134,0.29477185010910034
2,5,128,4,0.7892206311225891,0.10473358631134033
2,5,128,5,0.794754683971405,0.1599845439195633
2,5,128,6,0.7141488194465637,0.1075204387307167
2,5,128,7,0.40935853123664856,0.18860627710819244
2,5,128,8,0.7623418569564819,0.1290387511253357
2,5,128,9,0.3799664080142975,0.23820236325263977
2,5,128,10,0.8119008541107178,0.08856013417243958
2,5,128,11,0.8096092343330383,0.08398869633674622
2,5,128,12,0.8827446699142456,0.07758215814828873
2,5,128,13,0.8463383913040161,0.11508982628583908
2,5,128,14,0.6673462986946106,0.2967769205570221
2,5,128,15,0.8278806805610657,0.11289536952972412
2,5,128,16,0.38310861587524414,0.3344361484050751
2,5,128,17,0.6278160214424133,0.28316134214401245
2,5,128,18,0.8159295320510864,0.2111644148826599
2,5,128,19,0.6804941296577454,0.11071200668811798
2,5,128,20,0.6650247573852539,0.07989129424095154
2,5,128,21,0.5505275130271912,0.2813243269920349
2,5,128,22,0.4809950292110443,0.23467855155467987
2,5,128,23,0.6350858211517334,0.3039555549621582
2,5,128,24,0.4734927713871002,0.17179927229881287
2,5,128,25,0.4552674889564514,0.21525661647319794
2,5,128,26,0.4390825629234314,0.34405168890953064
2,5,128,27,0.5285468101501465,0.23369993269443512
2,5,128,28,0.6689296960830688,0.14271290600299835
2,5,128,29,0.3904802203178406,0.30628320574760437
2,5,128,30,0.8592113256454468,0.13315075635910034
2,5,128,31,0.842706024646759,0.11966897547245026
2,5,128,32,0.5049778819084167,0.3333105146884918
2,5,128,33,0.8460225462913513,0.09249567240476608
2,5,128,34,0.8191478848457336,0.205521360039711
2,5,128,35,0.7556775808334351,0.11088411509990692
2,5,128,36,0.763952374458313,0.10874824970960617
2,5,128,37,0.4607018232345581,0.26740315556526184
2,5,128,38,0.8087821006774902,0.1915322095155716
2,5,128,39,0.8273906707763672,0.10321220010519028
2,5,128,40,0.7978683114051819,0.14199762046337128
2,5,128,41,0.40766480565071106,0.19881343841552734
2,5,128,42,0.38078850507736206,0.33944204449653625
2,5,128,43,0.8847874999046326,0.07765834778547287
2,5,128,44,0.885867714881897,0.08468442410230637
2,5,128,45,0.7380935549736023,0.25200000405311584
2,5,128,46,0.8522205352783203,0.08694473654031754
2,5,128,47,0.7536932826042175,0.1339472234249115
2,5,128,48,0.6885367631912231,0.2719286382198334
2,5,128,49,0.8299201726913452,0.08465595543384552
2,5,128,50,0.7911773920059204,0.15616083145141602
2,5,128,51,0.5615872144699097,0.16277819871902466
2,5,128,52,0.729448676109314,0.16301630437374115
2,5,128,53,0.7134585976600647,0.10722547769546509
2,5,128,54,0.6407051682472229,0.27244770526885986
2,5,128,55,0.35440564155578613,0.12455213814973831
2,5,128,56,0.8513646721839905,0.10390202701091766
2,5,128,57,0.3715534508228302,0.29604777693748474
2,5,128,58,0.7400684952735901,0.2750369608402252
2,5,128,59,0.6302497386932373,0.16497263312339783
2,5,128,60,0.7318012118339539,0.28221580386161804
2,5,128,61,0.6565009951591492,0.29712238907814026
2,5,128,62,0.86358243227005,0.10065028071403503
2,5,128,63,0.7732545137405396,0.17242026329040527
2,5,128,64,0.8776519298553467,0.09148088097572327
2,5,128,65,0.6618425846099854,0.14527222514152527
2,5,128,66,0.6124934554100037,0.15527115762233734
2,5,128,67,0.38349902629852295,0.3082215487957001
2,5,128,68,0.3877979516983032,0.33662500977516174
2,5,128,69,0.8191746473312378,0.0946914553642273
2,5,128,70,0.8417085409164429,0.1451079249382019
2,5,128,71,0.5991269946098328,0.2634961009025574
2,5,128,72,0.8655703663825989,0.0829407125711441
2,5,128,73,0.5281843543052673,0.16772471368312836
2,5,128,74,0.4089369773864746,0.3330245614051819
2,5,128,75,0.7499146461486816,0.21417966485023499
2,5,128,76,0.6497747898101807,0.33498498797416687
2,5,128,77,0.7601345181465149,0.10098714381456375
2,5,128,78,0.7428366541862488,0.19914235174655914
2,5,128,79,0.7435413002967834,0.206514373421669
2,5,128,80,0.8172233700752258,0.12556292116641998
2,5,128,81,0.6675864458084106,0.16121040284633636
2,5,128,82,0.5459628701210022,0.2546394169330597
2,5,128,83,0.46691861748695374,0.2522166073322296
2,5,128,84,0.7809489965438843,0.15142489969730377
2,5,128,85,0.620245099067688,0.20454657077789307
2,5,128,86,0.8234649300575256,0.21472765505313873
2,5,128,87,0.5721016526222229,0.16073748469352722
2,5,128,88,0.8085668683052063,0.16795974969863892
2,5,128,89,0.851601779460907,0.07229271531105042
2,5,128,90,0.38399001955986023,0.26757484674453735
2,5,128,91,0.7821522951126099,0.18705692887306213
2,5,128,92,0.8952306509017944,0.07848978787660599
2,5,128,93,0.7866821885108948,0.1584799587726593
2,5,128,94,0.7202135920524597,0.15190590918064117
2,5,128,95,0.7609072923660278,0.23461340367794037
2,5,128,96,0.6900603175163269,0.29500141739845276
2,5,128,97,0.7491874694824219,0.1197688952088356
2,5,128,98,0.5688429474830627,0.0973772406578064
2,5,128,99,0.7521377205848694,0.15214864909648895
2,5,128,100,0.7732225656509399,0.18093065917491913
2,5,128,101,0.860149621963501,0.0942721739411354
2,5,128,102,0.8750802874565125,0.08804954588413239
2,5,128,103,0.5782680511474609,0.2784874141216278
2,5,128,104,0.5173364877700806,0.1563015878200531
2,5,128,105,0.8032553791999817,0.09627099335193634
2,5,128,106,0.34291261434555054,0.23861286044120789
2,5,128,107,0.7431474328041077,0.17411676049232483
2,5,128,108,0.7014399766921997,0.30579546093940735
2,5,128,109,0.8717682957649231,0.08332671970129013
2,5,128,110,0.8579652309417725,0.16437551379203796
2,5,128,111,0.8649584650993347,0.11006656289100647
2,5,128,112,0.751110851764679,0.2361874133348465
2,5,128,113,0.773891031742096,0.18038144707679749
2,5,128,114,0.5314193964004517,0.23571071028709412
2,5,128,115,0.41437533497810364,0.33614054322242737
2,5,128,116,0.8584346771240234,0.12459645420312881
2,5,128,117,0.7875038981437683,0.2098638117313385
2,5,128,118,0.328120619058609,0.23325523734092712
2,5,128,119,0.8018953204154968,0.08766039460897446
2,5,128,120,0.6713098287582397,0.2923033833503723
2,5,128,121,0.7882768511772156,0.16528961062431335
2,5,128,122,0.870536208152771,0.11026530712842941
2,5,128,123,0.8198543190956116,0.1577775478363037
2,5,128,124,0.7939450740814209,0.10015706717967987
2,5,128,125,0.7936400771141052,0.12761977314949036
2,5,128,126,0.7369106411933899,0.22455959022045135
2,5,128,127,0.5570138692855835,0.23844820261001587
3,0,32,0,0.526892364025116,0.13663363456726074
3,0,32,1,0.48878905177116394,0.19155962765216827
3,0,32,2,0.5700502991676331,0.033748023211956024
3,0,32,3,0.2692126929759979,0.06740491092205048
3,0,32,4,0.2680032551288605,0.04882935807108879
3,0,32,5,0.3291621208190918,0.06566105782985687
3,0,32,6,0.380830854177475,0.11890985071659088
3,0,32,7,0.5930103063583374,0.0885016918182373
3,0,32,8,0.5688843131065369,0.004676955286413431
3,0,32,9,0.5844429135322571,0.041654083877801895
3,0,32,10,0.4395236074924469,0.0713297575712204
3,0,32,11,0.6121664047241211,0.03682505711913109
3,0,32,12,0.5702130794525146,0.14431306719779968
3,0,32,13,0.5154013633728027,0.16458964347839355
3,0,32,14,0.5408312082290649,0.06753559410572052
3,0,32,15,0.4085017740726471,0.0428466871380806
3,0,32,16,0.43817704916000366,0.14734266698360443
3,0,32,17,0.48530495166778564,0.20891810953617096
3,0,32,18,0.4101577699184418,0.07016611844301224
3,0,32,19,0.28700724244117737,0.05106296017765999
3,0,32,20,0.41657155752182007,0.11774994432926178
3,0,32,21,0.46778321266174316,0.06053352728486061
3,0,32,22,0.39851200580596924,0.0579342320561409
3,0,32,23,0.5464486479759216,0.11664173752069473
3,0,32,24,0.6455867886543274,0.023739030584692955
3,0,32,25,0.5443381071090698,0.17683200538158417
3,0,32,26,0.442552775144577,0.02065180242061615
3,0,32,27,0.3260239362716675,0.0840458795428276
3,0,32,28,0.6481902003288269,0.06833516061306
3,0,32,29,0.48532634973526,0.06290219724178314
3,0,32,30,0.27785682678222656,0.08496519923210144
3,0,32,31,0.40510472655296326,0.07901769131422043
3,1,32,0,0.4853173494338989,0.08122660219669342
3,1,32,1,0.46443530917167664,0.03027942031621933
3,1,32,2,0.5382317304611206,0.09645438939332962
3,1,32,3,0.46518057584762573,0.10350115597248077
3,1,32,4,0.5126432180404663,0.12270087748765945
3,1,32,5,0.38559016585350037,0.08561377227306366
3,1,32,6,0.5693992972373962,0.07290509343147278
3,1,32,7,0.5398362874984741,0.06656532734632492
3,1,32,8,0.6477863192558289,0.052964646369218826
3,1,32,9,0.43212977051734924,0.0738283172249794
3,1,32,10,0.3894079327583313,0.11467257887125015
3,1,32,11,0.5719630122184753,0.07609853893518448
3,1,32,12,0.43601253628730774,0.0607934333384037
3,1,32,13,0.5365937948226929,0.06136222928762436
3,1,32,14,0.4727867841720581,0.08773219585418701
3,1,32,15,0.6448085904121399,0.060867518186569214
3,1,32,16,0.4878273904323578,0.058384835720062256
3,1,32,17,0.3771231472492218,0.059877559542655945
3,1,32,18,0.5761597752571106,0.09973647445440292
3,1,32,19,0.5042975544929504,0.1108258068561554
3,1,32,20,0.682607889175415,0.08442912250757217
3,1,32,21,0.5594223737716675,0.0814056321978569
3,1,32,22,0.3814898431301117,0.05143885314464569
3,1,32,23,0.4754418134689331,0.05317205190658569
3,1,32,24,0.3960796892642975,0.05940857157111168
3,1,32,25,0.5337845087051392,0.06522903591394424
3,1,32,26,0.36977195739746094,0.08028367906808853
3,1,32,27,0.48866379261016846,0.08994758129119873
3,1,32,28,0.513173520565033,0.07508088648319244
3,1,32,29,0.5247242450714111,0.08691179752349854
3,1,32,30,0.4320365786552429,0.078152596950531
3,1,32,31,0.593216598033905,0.08469785749912262
3,2,64,0,0.5089943408966064,0.23120315372943878
3,2,64,1,0.3952385187149048,0.1945115476846695
3,2,64,2,0.5826807022094727,0.2121892273426056
3,2,64,3,0.6570656299591064,0.0588628388941288
3,2,64,4,0.4638696610927582,0.13157272338867188
3,2,64,5,0.6201386451721191,0.1227002888917923
3,2,64,6,0.5300630927085876,0.06653076410293579
3,2,64,7,0.3543449938297272,0.08279770612716675
3,2,64,8,0.588066041469574,0.13301394879817963
3,2,64,9,0.5842874646186829,0.15790466964244843
3,2,64,10,0.5041518807411194,0.18082357943058014
3,2,64,11,0.28076326847076416,0.12030936032533646
3,2,64,12,0.6491730809211731,0.1386844962835312
3,2,64,13,0.2624325454235077,0.07662119716405869
3,2,64,14,0.534734845161438,0.13214409351348877
3,2,64,15,0.4525468051433563,0.0786331295967102
3,2,64,16,0.5489004850387573,0.13634231686592102
3,2,64,17,0.3730176091194153,0.16565757989883423
3,2,64,18,0.6261410713195801,0.16416269540786743
3,2,64,19,0.39739081263542175,0.17941541969776154
3,2,64,20,0.6555449366569519,0.2515789270401001
3,2,64,21,0.5360339879989624,0.16867844760417938
3,2,64,22,0.6277377605438232,0.1840294599533081
3,2,64,23,0.457226425409317,0.10838256776332855
3,2,64,24,0.2219199687242508,0.09243500232696533
3,2,64,25,0.5029556155204773,0.10840172320604324
3,2,64,26,0.5886487364768982,0.11931100487709045
3,2,64,27,0.6116426587104797,0.10532595217227936
3,2,64,28,0.536324143409729,0.186447411775589
3,2,64,29,0.291103720664978,0.11265094578266144
3,2,64,30,0.3513757884502411,0.1949375569820404
3,2,64,31,0.5842081904411316,0.1429334580898285
3,2,64,32,0.4995201528072357,0.12792713940143585
3,2,64,33,0.40832066535949707,0.15094292163848877
3,2,64,34,0.6066532731056213,0.16018153727054596
3,2,64,35,0.5733994841575623,0.07555459439754486
3,2,64,36,0.68174147605896,0.09801341593265533
3,2,64,37,0.3775750398635864,0.11218486726284027
3,2,64,38,0.5011522173881531,0.1680922955274582
3,2,64,39,0.4166977107524872,0.11952903121709824
3,2,64,40,0.5501253604888916,0.22165361046791077
3,2,64,41,0.47369498014450073,0.24622730910778046
3,2,64,42,0.6011565923690796,0.06819997727870941
3,2,64,43,0.5237095355987549,0.2434016615152359
3,2,64,44,0.47656676173210144,0.07339397817850113
3,2,64,45,0.4578585624694824,0.2356075495481491
3,2,64,46,0.5931670665740967,0.19919177889823914
3,2,64,47,0.4864697754383087,0.07578500360250473
3,2,64,48,0.5877560973167419,0.21989738941192627
3,2,64,49,0.5528849363327026,0.08245839178562164
3,2,64,50,0.6214351058006287,0.11446290463209152
3,2,64,51,0.4236699640750885,0.21433290839195251
3,2,64,52,0.6185776591300964,0.0864817351102829
3,2,64,53,0.45533624291419983,0.15330663323402405
3,2,64,54,0.7162313461303711,0.13774698972702026
3,2,64,55,0.5037993788719177,0.1921134740114212
3,2,64,56,0.3863464295864105,0.0951787531375885
3,2,64,57,0.42728540301322937,0.13991041481494904
3,2,64,58,0.47421738505363464,0.10952943563461304
3,2,64,59,0.49990618228912354,0.12671220302581787
3,2,64,60,0.5030742287635803,0.15016910433769226
3,2,64,61,0.48903384804725647,0.17255906760692596
3,2,64,62,0.5384770035743713,0.07368338108062744
3,2,64,63,0.5258920788764954,0.04798060283064842
3,3,64,0,0.4903358817100525,0.08659464120864868
3,3,64,1,0.5384410619735718,0.13538216054439545
3,3,64,2,0.7419271469116211,0.13862964510917664
3,3,64,3,0.5148295164108276,0.15619178116321564
3,3,64,4,0.39871424436569214,0.09662337601184845
3,3,64,5,0.475905179977417,0.05041634663939476
3,3,64,6,0.32763010263442993,0.09206105023622513
3,3,64,7,0.2312605381011963,0.09060501307249069
3,3,64,8,0.6698504090309143,0.05432715266942978
3,3,64,9,0.5621945858001709,0.12325748801231384
3,3,64,10,0.4886293113231659,0.10301615297794342
3,3,64,11,0.6298629641532898,0.2544545531272888
3,3,64,12,0.5791966915130615,0.15582989156246185
3,3,64,13,0.5134299993515015,0.0995749831199646
3,3,64,14,0.39606863260269165,0.12529078125953674
3,3,64,15,0.566597044467926,0.10644099861383438
3,3,64,16,0.5059316158294678,0.0933225005865097
3,3,64,17,0.43003085255622864,0.0617753304541111
3,3,64,18,0.6027765870094299,0.11775241792201996
3,3,64,19,0.34546196460723877,0.25086086988449097
3,3,64,20,0.44949495792388916,0.11336096376180649
3,3,64,21,0.43054673075675964,0.15004074573516846
3,3,64,22,0.3704821467399597,0.16937966644763947
3,3,64,23,0.5623307824134827,0.15294356644153595
3,3,64,24,0.6587255001068115,0.22699826955795288
3,3,64,25,0.5442281365394592,0.08885278552770615
3,3,64,26,0.4457706809043884,0.14284135401248932
3,3,64,27,0.6655909419059753,0.07890375703573227
3,3,64,28,0.4783681631088257,0.15326255559921265
3,3,64,29,0.6438635587692261,0.17646707594394684
3,3,64,30,0.29199928045272827,0.1679265946149826
3,3,64,31,0.5466824173927307,0.12531614303588867
3,3,64,32,0.5506466031074524,0.20112814009189606
3,3,64,33,0.604125440120697,0.17146067321300507
3,3,64,34,0.5095115303993225,0.17509129643440247
3,3,64,35,0.613334059715271,0.24317006766796112
3,3,64,36,0.6025475859642029,0.11289642751216888
3,3,64,37,0.6224794983863831,0.15694411098957062
3,3,64,38,0.5500826239585876,0.09020821005105972
3,3,64,39,0.6017484068870544,0.13547582924365997
3,3,64,40,0.6213090419769287,0.24981491267681122
3,3,64,41,0.6470663547515869,0.06264165788888931
3,3,64,42,0.3521542549133301,0.1228155866265297
3,3,64,43,0.28417477011680603,0.11679860204458237
3,3,64,44,0.5685449838638306,0.13754956424236298
3,3,64,45,0.36453181505203247,0.07569703459739685
3,3,64,46,0.621720016002655,0.14007744193077087
3,3,64,47,0.4229327440261841,0.0799187570810318
3,3,64,48,0.494611531496048,0.13485898077487946
3,3,64,49,0.33961737155914307,0.1526966094970703
3,3,64,50,0.633164644241333,0.15636824071407318
3,3,64,51,0.3173079192638397,0.09938069432973862
3,3,64,52,0.3039322793483734,0.1496628373861313
3,3,64,53,0.5328882932662964,0.22739945352077484
3,3,64,54,0.32061052322387695,0.1872556060552597
3,3,64,55,0.5373407602310181,0.10721588879823685
3,3,64,56,0.46194374561309814,0.15288743376731873
3,3,64,57,0.5230478644371033,0.15392129123210907
3,3,64,58,0.5820671916007996,0.17272020876407623
3,3,64,59,0.6233469247817993,0.14615052938461304
3,3,64,60,0.6423430442810059,0.04493923857808113
3,3,64,61,0.331821084022522,0.11126318573951721
3,3,64,62,0.5524405837059021,0.09773042798042297
3,3,64,63,0.7055343985557556,0.07624176144599915
3,4,128,0,0.6451200246810913,0.22445906698703766
3,4,128,1,0.5734529495239258,0.08631667494773865
3,4,128,2,0.27656692266464233,0.1851082146167755
3,4,128,3,0.42817580699920654,0.2087210714817047
3,4,128,4,0.6182878017425537,0.06655381619930267
3,4,128,5,0.5483568906784058,0.13785389065742493
3,4,128,6,0.4212682545185089,0.17381301522254944
3,4,128,7,0.7249258160591125,0.12487861514091492
3,4,128,8,0.41855761408805847,0.1604912430047989
3,4,128,9,0.45953893661499023,0.2199975848197937
3,4,128,10,0.7070820331573486,0.1542361080646515
3,4,128,11,0.5676708221435547,0.12694086134433746
3,4,128,12,0.724827229976654,0.1538752168416977
3,4,128,13,0.6082240343093872,0.1869451254606247
3,4,128,14,0.5027838945388794,0.18938522040843964
3,4,128,15,0.6305135488510132,0.24384468793869019
3,4,128,16,0.4978407919406891,0.1277395486831665
3,4,128,17,0.5136064291000366,0.2710880637168884
3,4,128,18,0.5222497582435608,0.19677580893039703
3,4,128,19,0.5201457142829895,0.30180394649505615
3,4,128,20,0.6985788345336914,0.12622661888599396
3,4,128,21,0.6107484698295593,0.2865549921989441
3,4,128,22,0.4629824459552765,0.1007746085524559
3,4,128,23,0.5945445895195007,0.2749263644218445
3,4,128,24,0.5342350006103516,0.2167479395866394
3,4,128,25,0.5252318978309631,0.2726457715034485
3,4,128,26,0.518177330493927,0.2761792242527008
3,4,128,27,0.5907126665115356,0.29002687335014343
3,4,128,28,0.30139443278312683,0.16430486738681793
3,4,128,29,0.664119303226471,0.11931931972503662
3,4,128,30,0.6076596975326538,0.14500963687896729
3,4,128,31,0.5249444246292114,0.2785094678401947
3,4,128,32,0.39189639687538147,0.197899729013443
3,4,128,33,0.5206311345100403,0.1692558079957962
3,4,128,34,0.7649863362312317,0.11449745297431946
3,4,128,35,0.6673668026924133,0.21163666248321533
3,4,128,36,0.5926545858383179,0.18006420135498047
3,4,128,37,0.5723377466201782,0.14896394312381744
3,4,128,38,0.579479455947876,0.23710307478904724
3,4,128,39,0.6286284923553467,0.09431428462266922
3,4,128,40,0.5587630271911621,0.21850179135799408
3,4,128,41,0.6004430651664734,0.08767451345920563
3,4,128,42,0.5233144760131836,0.20725783705711365
3,4,128,43,0.5673168301582336,0.3107777237892151
3,4,128,44,0.5134787559509277,0.3445435166358948
3,4,128,45,0.5222190618515015,0.18836267292499542
3,4,128,46,0.46909093856811523,0.23009850084781647
3,4,128,47,0.6124703288078308,0.09061918407678604
3,4,128,48,0.6410636305809021,0.07515386492013931
3,4,128,49,0.4400765299797058,0.15117691457271576
3,4,128,50,0.5335360169410706,0.2734953463077545
3,4,128,51,0.46716153621673584,0.08344948291778564
3,4,128,52,0.7406519651412964,0.12325377762317657
3,4,128,53,0.6455698013305664,0.1105666384100914
3,4,128,54,0.5006386637687683,0.14634913206100464
3,4,128,55,0.590870201587677,0.19932620227336884
3,4,128,56,0.5496019124984741,0.07540279626846313
3,4,128,57,0.6584251523017883,0.11937592923641205
3,4,128,58,0.5445421934127808,0.2760464549064636
3,4,128,59,0.5148395299911499,0.2107943594455719
3,4,128,60,0.5856252908706665,0.34554141759872437
3,4,128,61,0.3569837510585785,0.196971595287323
3,4,128,62,0.4913293123245239,0.07626926898956299
3,4,128,63,0.5269261598587036,0.23151230812072754
3,4,128,64,0.44275379180908203,0.30364495515823364
3,4,128,65,0.2792068123817444,0.11291603744029999
3,4,128,66,0.6715424656867981,0.18994221091270447
3,4,128,67,0.43987318873405457,0.15520203113555908
3,4,128,68,0.3448733389377594,0.16289740800857544
3,4,128,69,0.7943254709243774,0.10844983160495758
3,4,128,70,0.6796380281448364,0.09071435034275055
3,4,128,71,0.38084876537323,0.1694340854883194
3,4,128,72,0.6746659278869629,0.1464339643716812
3,4,128,73,0.5909591317176819,0.2070602923631668
3,4,128,74,0.3669060468673706,0.18938905000686646
3,4,128,75,0.5557278394699097,0.23552590608596802
3,4,128,76,0.5040817260742188,0.3145121932029724
3,4,128,77,0.5537967085838318,0.2190416008234024
3,4,128,78,0.7155160307884216,0.10873354226350784
3,4,128,79,0.65113765001297,0.13467998802661896
3,4,128,80,0.507684051990509,0.23848047852516174
3,4,128,81,0.635410726070404,0.13876517117023468
3,4,128,82,0.5885770916938782,0.23079930245876312
3,4,128,83,0.6076620817184448,0.12809664011001587
3,4,128,84,0.5444288849830627,0.23322613537311554
3,4,128,85,0.5834137201309204,0.3328991234302521
3,4,128,86,0.677854597568512,0.09113147109746933
3,4,128,87,0.5105559229850769,0.2607191205024719
3,4,128,88,0.635445773601532,0.07719689607620239
3,4,128,89,0.6565194725990295,0.07333115488290787
3,4,128,90,0.41616302728652954,0.22061176598072052
3,4,128,91,0.6704891920089722,0.14364777505397797
3,4,128,92,0.6425343751907349,0.10794828087091446
3,4,128,93,0.5727019309997559,0.10433414578437805
3,4,128,94,0.43608489632606506,0.209224134683609
3,4,128,95,0.6200488209724426,0.15357640385627747
3,4,128,96,0.72590172290802,0.10496082156896591
3,4,128,97,0.6602761149406433,0.16057422757148743
3,4,128,98,0.5614787936210632,0.09734917432069778
3,4,128,99,0.46128419041633606,0.2137250155210495
3,4,128,100,0.5062016248703003,0.19479921460151672
3,4,128,101,0.6372765898704529,0.09242603927850723
3,4,128,102,0.6081766486167908,0.20485608279705048
3,4,128,103,0.37925729155540466,0.15652990341186523
3,4,128,104,0.4703586995601654,0.11612990498542786
3,4,128,105,0.6541838645935059,0.0885949656367302
3,4,128,106,0.4190775752067566,0.16441789269447327
3,4,128,107,0.5926779508590698,0.18036243319511414
3,4,128,108,0.33149996399879456,0.11853785067796707
3,4,128,109,0.5772243142127991,0.05205770954489708
3,4,128,110,0.555855929851532,0.2951982617378235
3,4,128,111,0.47402769327163696,0.3015250861644745
3,4,128,112,0.5288612842559814,0.17349360883235931
3,4,128,113,0.48605281114578247,0.05012981593608856
3,4,128,114,0.6544787287712097,0.1236884817481041
3,4,128,115,0.42087820172309875,0.2317018061876297
3,4,128,116,0.4846799671649933,0.27279970049858093
3,4,128,117,0.6027559041976929,0.31406477093696594
3,4,128,118,0.48501721024513245,0.24341410398483276
3,4,128,119,0.40006309747695923,0.16833291947841644
3,4,128,120,0.635377824306488,0.14152944087982178
3,4,128,121,0.5640628933906555,0.3261526823043823
3,4,128,122,0.5628347396850586,0.2717670500278473
3,4,128,123,0.37066492438316345,0.2148219645023346
3,4,128,124,0.7087914347648621,0.14197024703025818
3,4,128,125,0.601550281047821,0.22211329638957977
3,4,128,126,0.5681882500648499,0.2412327229976654
3,4,128,127,0.6714420318603516,0.2546604573726654
3,5,128,0,0.6014454960823059,0.1539849191904068
3,5,128,1,0.38855457305908203,0.1610305905342102
3,5,128,2,0.8028541207313538,0.14767099916934967
3,5,128,3,0.26414287090301514,0.31175464391708374
3,5,128,4,0.8054659366607666,0.18248821794986725
3,5,128,5,0.8030096292495728,0.23335674405097961
3,5,128,6,0.8134649395942688,0.17753246426582336
3,5,128,7,0.8307046890258789,0.09313875436782837
3,5,128,8,0.6143871545791626,0.2509767413139343
3,5,128,9,0.42218130826950073,0.23846721649169922
3,5,128,10,0.7545597553253174,0.24533501267433167
3,5,128,11,0.7582850456237793,0.24833962321281433
3,5,128,12,0.802445650100708,0.28196728229522705
3,5,128,13,0.8327263593673706,0.14445942640304565
3,5,128,14,0.8560376167297363,0.11902189254760742
3,5,128,15,0.8247278928756714,0.12854385375976562
3,5,128,16,0.8340643048286438,0.1950761377811432
3,5,128,17,0.7942658066749573,0.2086634635925293
3,5,128,18,0.6586808562278748,0.3071051836013794
3,5,128,19,0.5897082090377808,0.14196711778640747
3,5,128,20,0.7811912298202515,0.2410668432712555
3,5,128,21,0.8126429915428162,0.16861674189567566
3,5,128,22,0.6372067928314209,0.1598636358976364
3,5,128,23,0.7646417617797852,0.2192811518907547
3,5,128,24,0.8209441900253296,0.13317343592643738
3,5,128,25,0.8575794696807861,0.12308956682682037
3,5,128,26,0.8183926939964294,0.16407115757465363
3,5,128,27,0.8526807427406311,0.1235513836145401
3,5,128,28,0.4207230508327484,0.17719852924346924
3,5,128,29,0.5241098403930664,0.20170529186725616
3,5,128,30,0.7752255797386169,0.20721182227134705
3,5,128,31,0.7448485493659973,0.1992036998271942
3,5,128,32,0.7503693699836731,0.2115333378314972
3,5,128,33,0.6157723665237427,0.21239815652370453
3,5,128,34,0.7966333627700806,0.11893031001091003
3,5,128,35,0.8051416277885437,0.2176332175731659
3,5,128,36,0.8246629238128662,0.14058373868465424
3,5,128,37,0.8153972625732422,0.11766453832387924
3,5,128,38,0.8513883352279663,0.1086752861738205
3,5,128,39,0.6351302266120911,0.18556001782417297
3,5,128,40,0.7834925055503845,0.1845034509897232
3,5,128,41,0.8017065525054932,0.20647971332073212
3,5,128,42,0.7514979243278503,0.15077528357505798
3,5,128,43,0.72945237159729,0.24953411519527435
3,5,128,44,0.7029210925102234,0.12409046292304993
3,5,128,45,0.8401602506637573,0.07258875668048859
3,5,128,46,0.7416815161705017,0.19217731058597565
3,5,128,47,0.7041252255439758,0.2727879285812378
3,5,128,48,0.3978947699069977,0.2552041709423065
3,5,128,49,0.6618595719337463,0.19986023008823395
3,5,128,50,0.7281570434570312,0.11365441977977753
3,5,128,51,0.6841248869895935,0.32860440015792847
3,5,128,52,0.8277191519737244,0.18984097242355347
3,5,128,53,0.8988062739372253,0.0938025712966919
3,5,128,54,0.7550839781761169,0.21413345634937286
3,5,128,55,0.7044961452484131,0.2440124899148941
3,5,128,56,0.6417277455329895,0.22064048051834106
3,5,128,57,0.7252758741378784,0.3049784004688263
3,5,128,58,0.8423917889595032,0.10105688124895096
3,5,128,59,0.8210387825965881,0.08965466916561127
3,5,128,60,0.8461175560951233,0.173686221241951
3,5,128,61,0.7090002298355103,0.25687965750694275
3,5,128,62,0.8440669775009155,0.07780038565397263
3,5,128,63,0.8152901530265808,0.14141936600208282
3,5,128,64,0.8068220615386963,0.16093677282333374
3,5,128,65,0.3810809850692749,0.27682802081108093
3,5,128,66,0.7555450797080994,0.09455343335866928
3,5,128,67,0.5587181448936462,0.15699684619903564
3,5,128,68,0.6065039038658142,0.1384616196155548
3,5,128,69,0.861169695854187,0.09883102774620056
3,5,128,70,0.6856234073638916,0.11456660181283951
3,5,128,71,0.6454293131828308,0.24928154051303864
3,5,128,72,0.7957857847213745,0.1316903531551361
3,5,128,73,0.7526108622550964,0.24911732971668243
3,5,128,74,0.6878495812416077,0.27965545654296875
3,5,128,75,0.7623434662818909,0.19656021893024445
3,5,128,76,0.8296355605125427,0.16413281857967377
3,5,128,77,0.37239328026771545,0.3699195683002472
3,5,128,78,0.8078058958053589,0.16693636775016785
3,5,128,79,0.4314289093017578,0.21527406573295593
3,5,128,80,0.7205350995063782,0.2491896152496338
3,5,128,81,0.6670641899108887,0.12705732882022858
3,5,128,82,0.856133759021759,0.1343882828950882
3,5,128,83,0.7587931156158447,0.2612718641757965
3,5,128,84,0.7984891533851624,0.2431839108467102
3,5,128,85,0.8786340355873108,0.12981891632080078
3,5,128,86,0.8070036172866821,0.13650573790073395
3,5,128,87,0.7487428784370422,0.20993268489837646
3,5,128,88,0.7725099921226501,0.1406508833169937
3,5,128,89,0.8037517666816711,0.10431407392024994
3,5,128,90,0.28454509377479553,0.26484301686286926
3,5,128,91,0.8685672879219055,0.11953628808259964
3,5,128,92,0.5195013880729675,0.2605837881565094
3,5,128,93,0.8073186874389648,0.18570123612880707
3,5,128,94,0.6462095379829407,0.15391941368579865
3,5,128,95,0.8685998320579529,0.07925716042518616
3,5,128,96,0.8403863310813904,0.10886179655790329
3,5,128,97,0.7431161999702454,0.10867325961589813
3,5,128,98,0.8702409267425537,0.10064678639173508
3,5,128,99,0.6924002766609192,0.09661291539669037
3,5,128,100,0.6560834646224976,0.21800145506858826
3,5,128,101,0.6738326549530029,0.08845552802085876
3,5,128,102,0.46573492884635925,0.1616269052028656
3,5,128,103,0.7912164330482483,0.1793043315410614
3,5,128,104,0.7935252785682678,0.11793463677167892
3,5,128,105,0.7521703243255615,0.31084561347961426
3,5,128,106,0.46282055974006653,0.2658480703830719
3,5,128,107,0.7523926496505737,0.2521943747997284
3,5,128,108,0.8462755680084229,0.08671968430280685
3,5,128,109,0.8186562061309814,0.11272787302732468
3,5,128,110,0.775260865688324,0.24931836128234863
3,5,128,111,0.7050057649612427,0.21086208522319794
3,5,128,112,0.8153436779975891,0.17787498235702515
3,5,128,113,0.739563524723053,0.22352448105812073
3,5,128,114,0.7718566060066223,0.2726915180683136
3,5,128,115,0.46868300437927246,0.2057642638683319
3,5,128,116,0.8485373258590698,0.07848944514989853
3,5,128,117,0.8653408288955688,0.13574576377868652
3,5,128,118,0.5425264835357666,0.16225217282772064
3,5,128,119,0.7261824607849121,0.29012125730514526
3,5,128,120,0.8239495158195496,0.1336946040391922
3,5,128,121,0.3647497594356537,0.3446669280529022
3,5,128,122,0.7723214626312256,0.16140730679035187
3,5,128,123,0.7982062101364136,0.19122672080993652
3,5,128,124,0.8348301649093628,0.1495547890663147
3,5,128,125,0.6505541801452637,0.10305718332529068
3,5,128,126,0.8149172067642212,0.12896054983139038
3,5,128,127,0.5630622506141663,0.20594632625579834
4,0,32,0,0.5586294531822205,0.11896099895238876
4,0,32,1,0.45357272028923035,0.11888618767261505
4,0,32,2,0.5735135674476624,0.036943599581718445
4,0,32,3,0.3094116151332855,0.13742795586585999
4,0,32,4,0.30618736147880554,0.07765938341617584
4,0,32,5,0.30111923813819885,0.10477687418460846
4,0,32,6,0.41624534130096436,0.09969083964824677
4,0,32,7,0.5200464129447937,0.1821998655796051
4,0,32,8,0.5814465284347534,0.024479005485773087
4,0,32,9,0.5835714340209961,0.0501943938434124
4,0,32,10,0.4648941457271576,0.04611263796687126
4,0,32,11,0.6069072484970093,0.046305976808071136
4,0,32,12,0.5782739520072937,0.05367593839764595
4,0,32,13,0.4748748540878296,0.04902883619070053
4,0,32,14,0.4909294843673706,0.07537083327770233
4,0,32,15,0.4244009256362915,0.11413703113794327
4,0,32,16,0.40240639448165894,0.05539250373840332
4,0,32,17,0.45204392075538635,0.13062317669391632
4,0,32,18,0.369411826133728,0.11050356924533844
4,0,32,19,0.30379727482795715,0.0629057064652443
4,0,32,20,0.4170706570148468,0.08467373251914978
4,0,32,21,0.4654797911643982,0.10831492394208908
4,0,32,22,0.38809385895729065,0.11394514888525009
4,0,32,23,0.5794253945350647,0.050163641571998596
4,0,32,24,0.6555396318435669,0.017562327906489372
4,0,32,25,0.5527878999710083,0.12675060331821442
4,0,32,26,0.48076754808425903,0.1061583086848259
4,0,32,27,0.36763888597488403,0.03515094891190529
4,0,32,28,0.6563878655433655,0.12555764615535736
4,0,32,29,0.4569687247276306,0.048100050538778305
4,0,32,30,0.2805914282798767,0.0731448382139206
4,0,32,31,0.4014720916748047,0.07734441012144089
4,1,32,0,0.4724407494068146,0.13733065128326416
4,1,32,1,0.48303601145744324,0.06397823244333267
4,1,32,2,0.5007608532905579,0.17965862154960632
4,1,32,3,0.4339478611946106,0.10852321237325668
4,1,32,4,0.5290399193763733,0.1544531285762787
4,1,32,5,0.3352442681789398,0.10748390108346939
4,1,32,6,0.5934855341911316,0.09139949083328247
4,1,32,7,0.5122617483139038,0.13203807175159454
4,1,32,8,0.6087620854377747,0.0845913365483284
4,1,32,9,0.4421515464782715,0.06027501821517944
4,1,32,10,0.4761626422405243,0.11724064499139786
4,1,32,11,0.6006295084953308,0.16040973365306854
4,1,32,12,0.455742210149765,0.12369366735219955
4,1,32,13,0.5258051753044128,0.1407439261674881
4,1,32,14,0.4409094750881195,0.11545655876398087
4,1,32,15,0.6372170448303223,0.09597478806972504
4,1,32,16,0.5302747488021851,0.06710287183523178
4,1,32,17,0.3768169581890106,0.08852904289960861
4,1,32,18,0.514077365398407,0.14437490701675415
4,1,32,19,0.49807217717170715,0.17723879218101501
4,1,32,20,0.6626642346382141,0.17474307119846344
4,1,32,21,0.5478931665420532,0.12056910991668701
4,1,32,22,0.39334821701049805,0.07724358141422272
4,1,32,23,0.5095455646514893,0.1282750517129898
4,1,32,24,0.3351472020149231,0.09574875235557556
4,1,32,25,0.5332392454147339,0.12589281797409058
4,1,32,26,0.40273216366767883,0.09398795664310455
4,1,32,27,0.5121503472328186,0.11672110855579376
4,1,32,28,0.5087832808494568,0.061361752450466156
4,1,32,29,0.5186681151390076,0.149743914604187
4,1,32,30,0.46902066469192505,0.1418619453907013
4,1,32,31,0.6286256313323975,0.07792987674474716
4,2,64,0,0.483004629611969,0.15609608590602875
4,2,64,1,0.38830018043518066,0.057425085455179214
4,2,64,2,0.5142495036125183,0.1556030511856079
4,2,64,3,0.5715749859809875,0.10551143437623978
4,2,64,4,0.4124424457550049,0.09869535267353058
4,2,64,5,0.5298650860786438,0.098191037774086
4,2,64,6,0.5324251055717468,0.12852659821510315
4,2,64,7,0.27593734860420227,0.09027434140443802
4,2,64,8,0.6749868988990784,0.1523188352584839
4,2,64,9,0.5352479815483093,0.10327035933732986
4,2,64,10,0.5701422095298767,0.16823750734329224
4,2,64,11,0.2917185425758362,0.10489416122436523
4,2,64,12,0.5436237454414368,0.13024592399597168
4,2,64,13,0.28438350558280945,0.09509266167879105
4,2,64,14,0.5755243897438049,0.11119766533374786
4,2,64,15,0.4279162585735321,0.14707253873348236
4,2,64,16,0.5401935577392578,0.09812348335981369
4,2,64,17,0.4304853677749634,0.17911608517169952
4,2,64,18,0.5404146909713745,0.1828126162290573
4,2,64,19,0.37161919474601746,0.08491655439138412
4,2,64,20,0.6097496747970581,0.12380404025316238
4,2,64,21,0.5051798224449158,0.10447364300489426
4,2,64,22,0.5788497924804688,0.09948673099279404
4,2,64,23,0.5509577989578247,0.1654192954301834
4,2,64,24,0.2950361371040344,0.12400507181882858
4,2,64,25,0.5602628588676453,0.11816895008087158
4,2,64,26,0.5973808169364929,0.10049526393413544
4,2,64,27,0.5709412097930908,0.13136440515518188
4,2,64,28,0.4414057433605194,0.1273452341556549
4,2,64,29,0.3318925201892853,0.15427827835083008
4,2,64,30,0.44386592507362366,0.1055600494146347
4,2,64,31,0.5682712197303772,0.0959634855389595
4,2,64,32,0.5757845640182495,0.1281881332397461
4,2,64,33,0.4156621992588043,0.09001831710338593
4,2,64,34,0.5823381543159485,0.10454307496547699
4,2,64,35,0.5614089965820312,0.11247757822275162
4,2,64,36,0.59100341796875,0.08205800503492355
4,2,64,37,0.5027737617492676,0.12509958446025848
4,2,64,38,0.44519737362861633,0.13701899349689484
4,2,64,39,0.4249913990497589,0.10589467734098434
4,2,64,40,0.5627942085266113,0.154294952750206
4,2,64,41,0.4154514968395233,0.09617958962917328
4,2,64,42,0.613740086555481,0.0967845767736435
4,2,64,43,0.5059599280357361,0.161420539021492
4,2,64,44,0.5673630833625793,0.16532959043979645
4,2,64,45,0.5307390689849854,0.1528063267469406
4,2,64,46,0.49251627922058105,0.20607790350914001
4,2,64,47,0.49663248658180237,0.10228456556797028
4,2,64,48,0.5350395441055298,0.13547241687774658
4,2,64,49,0.5135684013366699,0.12754791975021362
4,2,64,50,0.6200565695762634,0.11035604029893875
4,2,64,51,0.5282222032546997,0.14399123191833496
4,2,64,52,0.5012269020080566,0.10504954308271408
4,2,64,53,0.4355141818523407,0.11868235468864441
4,2,64,54,0.6824629902839661,0.10495679080486298
4,2,64,55,0.5565220713615417,0.09108415991067886
4,2,64,56,0.42241141200065613,0.05556873232126236
4,2,64,57,0.4643239676952362,0.06033659353852272
4,2,64,58,0.49248817563056946,0.12086185067892075
4,2,64,59,0.5229430794715881,0.15098491311073303
4,2,64,60,0.5020798444747925,0.13026726245880127
4,2,64,61,0.45430561900138855,0.20235829055309296
4,2,64,62,0.5343197584152222,0.09262354671955109
4,2,64,63,0.4293394386768341,0.08875609934329987
4,3,64,0,0.46681439876556396,0.07455281913280487
4,3,64,1,0.41285440325737,0.15386439859867096
4,3,64,2,0.7424009442329407,0.2138863354921341
4,3,64,3,0.3999069035053253,0.05775054544210434
4,3,64,4,0.29470184445381165,0.15512752532958984
4,3,64,5,0.512864887714386,0.08516353368759155
4,3,64,6,0.32414156198501587,0.07796810567378998
4,3,64,7,0.20484481751918793,0.12960122525691986
4,3,64,8,0.6720823645591736,0.06669659167528152
4,3,64,9,0.4514878988265991,0.19475208222866058
4,3,64,10,0.40159040689468384,0.11741769313812256
4,3,64,11,0.6169894933700562,0.32830843329429626
4,3,64,12,0.4470379650592804,0.036845624446868896
4,3,64,13,0.3000503480434418,0.15328481793403625
4,3,64,14,0.5773362517356873,0.10744776576757431
4,3,64,15,0.6323614120483398,0.1569862961769104
4,3,64,16,0.5447468757629395,0.11372538655996323
4,3,64,17,0.5607009530067444,0.10684088617563248
4,3,64,18,0.6645700931549072,0.2775711715221405
4,3,64,19,0.33243513107299805,0.28439655900001526
4,3,64,20,0.5187161564826965,0.13988250494003296
4,3,64,21,0.26611465215682983,0.15641580522060394
4,3,64,22,0.6006424427032471,0.07161461561918259
4,3,64,23,0.5155448913574219,0.20594923198223114
4,3,64,24,0.6646655797958374,0.3156498968601227
4,3,64,25,0.680188775062561,0.20940183103084564
4,3,64,26,0.5526505708694458,0.06856053322553635
4,3,64,27,0.7797691226005554,0.13001836836338043
4,3,64,28,0.4797648787498474,0.13694974780082703
4,3,64,29,0.6212591528892517,0.15780259668827057
4,3,64,30,0.22523413598537445,0.1662200391292572
4,3,64,31,0.626336395740509,0.21795211732387543
4,3,64,32,0.5905747413635254,0.21797212958335876
4,3,64,33,0.5550944209098816,0.1525501310825348
4,3,64,34,0.5778371095657349,0.2993466258049011
4,3,64,35,0.5699170231819153,0.11812043935060501
4,3,64,36,0.6201220750808716,0.10368280857801437
4,3,64,37,0.6380997896194458,0.09670230746269226
4,3,64,38,0.5725814700126648,0.08647075295448303
4,3,64,39,0.6493299603462219,0.23641051352024078
4,3,64,40,0.6180898547172546,0.25254693627357483
4,3,64,41,0.6378471255302429,0.09760119765996933
4,3,64,42,0.3477197289466858,0.15865212678909302
4,3,64,43,0.28631818294525146,0.1442968100309372
4,3,64,44,0.6684890985488892,0.2395569384098053
4,3,64,45,0.37110140919685364,0.12331803143024445
4,3,64,46,0.3986723721027374,0.2601630687713623
4,3,64,47,0.38856494426727295,0.09275303035974503
4,3,64,48,0.544773280620575,0.16834206879138947
4,3,64,49,0.3832511305809021,0.11649423092603683
4,3,64,50,0.5393515825271606,0.17798033356666565
4,3,64,51,0.262053519487381,0.13716019690036774
4,3,64,52,0.2440560758113861,0.12889829277992249
4,3,64,53,0.5668685436248779,0.22831597924232483
4,3,64,54,0.2767880856990814,0.2374851256608963
4,3,64,55,0.38680943846702576,0.12540538609027863
4,3,64,56,0.5914193987846375,0.09348339587450027
4,3,64,57,0.4455678164958954,0.03915424272418022
4,3,64,58,0.6405267119407654,0.299624502658844
4,3,64,59,0.6850928068161011,0.15767386555671692
4,3,64,60,0.4377824664115906,0.20378954708576202
4,3,64,61,0.3176805078983307,0.16181793808937073
4,3,64,62,0.6008484363555908,0.12332937866449356
4,3,64,63,0.5671881437301636,0.03857431188225746
4,4,128,0,0.6617372632026672,0.14690357446670532
4,4,128,1,0.45214930176734924,0.11591647565364838
4,4,128,2,0.3750591576099396,0.18644504249095917
4,4,128,3,0.6661606431007385,0.236458420753479
4,4,128,4,0.7007055282592773,0.07311733067035675
4,4,128,5,0.5614867210388184,0.09994718432426453
4,4,128,6,0.5649489164352417,0.1771136224269867
4,4,128,7,0.7134629487991333,0.11032918095588684
4,4,128,8,0.3837348222732544,0.17975032329559326
4,4,128,9,0.6252717971801758,0.09965058416128159
4,4,128,10,0.4279649555683136,0.14666219055652618
4,4,128,11,0.5623788237571716,0.0769440159201622
4,4,128,12,0.7242390513420105,0.10234470665454865
4,4,128,13,0.39522603154182434,0.09376315027475357
4,4,128,14,0.7175092697143555,0.23736199736595154
4,4,128,15,0.7756586670875549,0.12507030367851257
4,4,128,16,0.5916869044303894,0.10203871130943298
4,4,128,17,0.7129049301147461,0.14380453526973724
4,4,128,18,0.6842831969261169,0.11772118508815765
4,4,128,19,0.654257595539093,0.29318317770957947
4,4,128,20,0.5464370846748352,0.09145547449588776
4,4,128,21,0.6135396957397461,0.09957154840230942
4,4,128,22,0.5269976258277893,0.15322205424308777
4,4,128,23,0.7107491493225098,0.22674396634101868
4,4,128,24,0.5048247575759888,0.18916228413581848
4,4,128,25,0.6397200226783752,0.1802339404821396
4,4,128,26,0.6307879686355591,0.24809138476848602
4,4,128,27,0.6452149748802185,0.32310760021209717
4,4,128,28,0.2625077962875366,0.09406494349241257
4,4,128,29,0.5881721377372742,0.12112554907798767
4,4,128,30,0.612296998500824,0.19967059791088104
4,4,128,31,0.5730944275856018,0.16222673654556274
4,4,128,32,0.3735245168209076,0.15324407815933228
4,4,128,33,0.34950846433639526,0.18947602808475494
4,4,128,34,0.7571650147438049,0.12257339060306549
4,4,128,35,0.7120504975318909,0.22028732299804688
4,4,128,36,0.6330218315124512,0.16835206747055054
4,4,128,37,0.6309006214141846,0.26959991455078125
4,4,128,38,0.6688095331192017,0.2020682394504547
4,4,128,39,0.5457746386528015,0.10932134091854095
4,4,128,40,0.675044596195221,0.12194865196943283
4,4,128,41,0.5362792611122131,0.11410386115312576
4,4,128,42,0.5400732159614563,0.07974392920732498
4,4,128,43,0.71263188123703,0.2604057490825653
4,4,128,44,0.38278377056121826,0.3277352750301361
4,4,128,45,0.531918466091156,0.1575828641653061
4,4,128,46,0.41820597648620605,0.2797766625881195
4,4,128,47,0.6985489130020142,0.12197113037109375
4,4,128,48,0.5732329487800598,0.15623794496059418
4,4,128,49,0.4173787534236908,0.2605816423892975
4,4,128,50,0.43408724665641785,0.27024897933006287
4,4,128,51,0.5667145252227783,0.19771581888198853
4,4,128,52,0.791978657245636,0.09010741114616394
4,4,128,53,0.5788813233375549,0.23497581481933594
4,4,128,54,0.5170573592185974,0.09655265510082245
4,4,128,55,0.6265048980712891,0.20620635151863098
4,4,128,56,0.3577859699726105,0.12896747887134552
4,4,128,57,0.670134961605072,0.08675777912139893
4,4,128,58,0.7104988098144531,0.10869181901216507
4,4,128,59,0.3894103169441223,0.25221163034439087
4,4,128,60,0.6385178565979004,0.32871928811073303
4,4,128,61,0.3010609447956085,0.17023855447769165
4,4,128,62,0.4450330138206482,0.09365014731884003
4,4,128,63,0.5818607211112976,0.04781254380941391
4,4,128,64,0.3565179705619812,0.27798545360565186
4,4,128,65,0.648594081401825,0.29334235191345215
4,4,128,66,0.7271147966384888,0.0999634861946106
4,4,128,67,0.4783746600151062,0.1786329299211502
4,4,128,68,0.628523051738739,0.09015461057424545
4,4,128,69,0.7056055665016174,0.1220937967300415
4,4,128,70,0.6182435750961304,0.10608908534049988
4,4,128,71,0.3895036280155182,0.17236359417438507
4,4,128,72,0.34410667419433594,0.14874176681041718
4,4,128,73,0.6898270845413208,0.13277630507946014
4,4,128,74,0.3131776750087738,0.12481462955474854
4,4,128,75,0.6275048851966858,0.16938108205795288
4,4,128,76,0.383791983127594,0.17349374294281006
4,4,128,77,0.3132753372192383,0.1522432267665863
4,4,128,78,0.7626543641090393,0.11019626259803772
4,4,128,79,0.5951811671257019,0.15551871061325073
4,4,128,80,0.5647335052490234,0.26465800404548645
4,4,128,81,0.5872812867164612,0.08837708830833435
4,4,128,82,0.614759624004364,0.22293569147586823
4,4,128,83,0.7048196196556091,0.1655980497598648
4,4,128,84,0.613043487071991,0.22262819111347198
4,4,128,85,0.6539956331253052,0.2948920726776123
4,4,128,86,0.643995463848114,0.08748529106378555
4,4,128,87,0.6913332343101501,0.16605544090270996
4,4,128,88,0.551065981388092,0.11044744402170181
4,4,128,89,0.40872111916542053,0.24647323787212372
4,4,128,90,0.324106901884079,0.06812497973442078
4,4,128,91,0.7121695280075073,0.13472294807434082
4,4,128,92,0.43645739555358887,0.18857000768184662
4,4,128,93,0.48370420932769775,0.1543411761522293
4,4,128,94,0.4821867346763611,0.19832034409046173
4,4,128,95,0.5131530165672302,0.0480184368789196
4,4,128,96,0.7013909816741943,0.10690862685441971
4,4,128,97,0.6727334856987,0.19177672266960144
4,4,128,98,0.6021696329116821,0.25509878993034363
4,4,128,99,0.32035741209983826,0.10153548419475555
4,4,128,100,0.4789036810398102,0.14521564543247223
4,4,128,101,0.678239643573761,0.19551531970500946
4,4,128,102,0.580485999584198,0.10846958309412003
4,4,128,103,0.40056318044662476,0.17641443014144897
4,4,128,104,0.44640877842903137,0.14865992963314056
4,4,128,105,0.6694717407226562,0.10950823128223419
4,4,128,106,0.3930566906929016,0.24170859158039093
4,4,128,107,0.6806437373161316,0.20838598906993866
4,4,128,108,0.4884478449821472,0.14912214875221252
4,4,128,109,0.4702167510986328,0.24958911538124084
4,4,128,110,0.6262785792350769,0.31103515625
4,4,128,111,0.3919806182384491,0.26522332429885864
4,4,128,112,0.7095157504081726,0.17880988121032715
4,4,128,113,0.4527446925640106,0.13111481070518494
4,4,128,114,0.575507402420044,0.10596974939107895
4,4,128,115,0.3704601228237152,0.3078247606754303
4,4,128,116,0.6090951561927795,0.15367817878723145
4,4,128,117,0.6637614965438843,0.31184959411621094
4,4,128,118,0.4314441382884979,0.24615950882434845
4,4,128,119,0.2854119539260864,0.10446285456418991
4,4,128,120,0.5005021691322327,0.1885741949081421
4,4,128,121,0.6248182654380798,0.20843841135501862
4,4,128,122,0.7033174633979797,0.166293665766716
4,4,128,123,0.6194659471511841,0.28173860907554626
4,4,128,124,0.7148447632789612,0.196511909365654
4,4,128,125,0.6163166761398315,0.15515375137329102
4,4,128,126,0.6860404014587402,0.07876988500356674
4,4,128,127,0.6870064735412598,0.19181831181049347
4,5,128,0,0.4616640508174896,0.10440240800380707
4,5,128,1,0.3697996139526367,0.3022203743457794
4,5,128,2,0.6918192505836487,0.18012823164463043
4,5,128,3,0.3282057046890259,0.3325621485710144
4,5,128,4,0.656724750995636,0.07743364572525024
4,5,128,5,0.6051521301269531,0.1193334311246872
4,5,128,6,0.7769520282745361,0.1181306391954422
4,5,128,7,0.7959343194961548,0.09093369543552399
4,5,128,8,0.5431276559829712,0.21358351409435272
4,5,128,9,0.28491121530532837,0.15942445397377014
4,5,128,10,0.5674784183502197,0.1533513218164444
4,5,128,11,0.622277021408081,0.1188042163848877
4,5,128,12,0.7505861520767212,0.24417588114738464
4,5,128,13,0.8209320306777954,0.11272682994604111
4,5,128,14,0.8727971315383911,0.09053653478622437
4,5,128,15,0.8164992928504944,0.06619425117969513
4,5,128,16,0.8202126622200012,0.15637844800949097
4,5,128,17,0.8131219744682312,0.11858204752206802
4,5,128,18,0.5651807188987732,0.2004457265138626
4,5,128,19,0.5888294577598572,0.1435879021883011
4,5,128,20,0.7929599285125732,0.1341990977525711
4,5,128,21,0.6291719675064087,0.10528954863548279
4,5,128,22,0.4414981007575989,0.12858344614505768
4,5,128,23,0.8196313381195068,0.09228731691837311
4,5,128,24,0.8500336408615112,0.07764454185962677
4,5,128,25,0.8349629044532776,0.1140306144952774
4,5,128,26,0.7889775037765503,0.1651092916727066
4,5,128,27,0.8401182889938354,0.07400470972061157
4,5,128,28,0.7066208720207214,0.08340930193662643
4,5,128,29,0.7278913259506226,0.11789761483669281
4,5,128,30,0.70415860414505,0.2418115735054016
4,5,128,31,0.6967241168022156,0.22156855463981628
4,5,128,32,0.7421815991401672,0.08337196707725525
4,5,128,33,0.5572202205657959,0.21763506531715393
4,5,128,34,0.7737560868263245,0.056835077702999115
4,5,128,35,0.5741394758224487,0.17116686701774597
4,5,128,36,0.7309004068374634,0.1856113225221634
4,5,128,37,0.7825544476509094,0.05239133536815643
4,5,128,38,0.8420094847679138,0.06180687993764877
4,5,128,39,0.6405059099197388,0.2098076343536377
4,5,128,40,0.7610251307487488,0.1803644448518753
4,5,128,41,0.7822309136390686,0.12948042154312134
4,5,128,42,0.7534016966819763,0.10269751399755478
4,5,128,43,0.7054727673530579,0.22026485204696655
4,5,128,44,0.7586389780044556,0.09197548031806946
4,5,128,45,0.8309600949287415,0.07295776903629303
4,5,128,46,0.7704188227653503,0.18044012784957886
4,5,128,47,0.7097142934799194,0.25071388483047485
4,5,128,48,0.5349546074867249,0.1626775711774826
4,5,128,49,0.632817804813385,0.1650252789258957
4,5,128,50,0.6623913645744324,0.09350477159023285
4,5,128,51,0.5978016257286072,0.24562640488147736
4,5,128,52,0.8429552912712097,0.10858479887247086
4,5,128,53,0.8426312804222107,0.1347322165966034
4,5,128,54,0.707118570804596,0.1423346847295761
4,5,128,55,0.7588403224945068,0.13028162717819214
4,5,128,56,0.4996926188468933,0.1796589195728302
4,5,128,57,0.878847062587738,0.10480661690235138
4,5,128,58,0.832405686378479,0.06925833225250244
4,5,128,59,0.7164065837860107,0.071489118039608
4,5,128,60,0.8223788142204285,0.15858981013298035
4,5,128,61,0.6453425884246826,0.14830899238586426
4,5,128,62,0.8176132440567017,0.07760467380285263
4,5,128,63,0.544660747051239,0.0874955952167511
4,5,128,64,0.7627739310264587,0.12323493510484695
4,5,128,65,0.37131524085998535,0.3142785131931305
4,5,128,66,0.796904444694519,0.08998135477304459
4,5,128,67,0.7364972829818726,0.07561294734477997
4,5,128,68,0.591102123260498,0.08365969359874725
4,5,128,69,0.7564746737480164,0.0704016163945198
4,5,128,70,0.5949429273605347,0.17640437185764313
4,5,128,71,0.5754947066307068,0.18288235366344452
4,5,128,72,0.5492518544197083,0.11470739543437958
4,5,128,73,0.6882748007774353,0.26489949226379395
4,5,128,74,0.2941744327545166,0.08067510277032852
4,5,128,75,0.7777824997901917,0.08250488340854645
4,5,128,76,0.7933281064033508,0.16396154463291168
4,5,128,77,0.4596691429615021,0.33218199014663696
4,5,128,78,0.777580976486206,0.0873098373413086
4,5,128,79,0.7088025808334351,0.0978889912366867
4,5,128,80,0.7167918086051941,0.24730269610881805
4,5,128,81,0.6857879161834717,0.20615744590759277
4,5,128,82,0.7511655688285828,0.21527099609375
4,5,128,83,0.7463721036911011,0.2458162009716034
4,5,128,84,0.7913021445274353,0.1775754690170288
4,5,128,85,0.846457839012146,0.11392871290445328
4,5,128,86,0.796493649482727,0.12074466049671173
4,5,128,87,0.8192355632781982,0.0831429734826088
4,5,128,88,0.7466540336608887,0.08706700056791306
4,5,128,89,0.5059854388237,0.1444573551416397
4,5,128,90,0.5511019825935364,0.09906075894832611
4,5,128,91,0.7634410262107849,0.19289691746234894
4,5,128,92,0.6640821099281311,0.1666998565196991
4,5,128,93,0.8087812662124634,0.13032026588916779
4,5,128,94,0.6959163546562195,0.11695876717567444
4,5,128,95,0.6697298884391785,0.20518825948238373
4,5,128,96,0.6471920609474182,0.13173650205135345
4,5,128,97,0.5173512101173401,0.17129243910312653
4,5,128,98,0.7666638493537903,0.16323354840278625
4,5,128,99,0.5101844072341919,0.08578647673130035
4,5,128,100,0.6391347646713257,0.21884343028068542
4,5,128,101,0.8311336636543274,0.11993749439716339
4,5,128,102,0.6706202030181885,0.16684946417808533
4,5,128,103,0.7972832322120667,0.12161990255117416
4,5,128,104,0.751818835735321,0.07245460152626038
4,5,128,105,0.7116013169288635,0.22598467767238617
4,5,128,106,0.6069847941398621,0.12361279875040054
4,5,128,107,0.765449583530426,0.12654221057891846
4,5,128,108,0.814298689365387,0.06853795796632767
4,5,128,109,0.7895023226737976,0.11597530543804169
4,5,128,110,0.7632840871810913,0.14896662533283234
4,5,128,111,0.6987946629524231,0.20529790222644806
4,5,128,112,0.8484289646148682,0.11717057228088379
4,5,128,113,0.7497355341911316,0.2076171487569809
4,5,128,114,0.7188739776611328,0.2622816860675812
4,5,128,115,0.5545123219490051,0.08487303555011749
4,5,128,116,0.5777580738067627,0.11446689814329147
4,5,128,117,0.8823551535606384,0.08368483930826187
4,5,128,118,0.5503441691398621,0.08788054436445236
4,5,128,119,0.3998543918132782,0.08000843971967697
4,5,128,120,0.783213198184967,0.18562765419483185
4,5,128,121,0.449627161026001,0.2891075909137726
4,5,128,122,0.769027829170227,0.12184271961450577
4,5,128,123,0.856854259967804,0.11257750540971756
4,5,128,124,0.8162047266960144,0.10963242501020432
4,5,128,125,0.47309935092926025,0.18524904549121857
4,5,128,126,0.6995292901992798,0.08623194694519043
4,5,128,127,0.540871262550354,0.2576690912246704
5,0,32,0,0.3828262984752655,0.11676784604787827
5,0,32,1,0.4890519976615906,0.11493221670389175
5,0,32,2,0.44017288088798523,0.07647120952606201
5,0,32,3,0.42234766483306885,0.08352251350879669
5,0,32,4,0.49508580565452576,0.0573008768260479
5,0,32,5,0.5975881218910217,0.04162462800741196
5,0,32,6,0.572832465171814,0.05324505269527435
5,0,32,7,0.6057192087173462,0.07882378995418549
5,0,32,8,0.45751816034317017,0.1105918437242508
5,0,32,9,0.4403280019760132,0.12784582376480103
5,0,32,10,0.4428294599056244,0.13172399997711182
5,0,32,11,0.4773021638393402,0.12296604365110397
5,0,32,12,0.4952225685119629,0.07197888195514679
5,0,32,13,0.42749688029289246,0.13615205883979797
5,0,32,14,0.4325355589389801,0.06295136362314224
5,0,32,15,0.42336979508399963,0.07164636999368668
5,0,32,16,0.6283847093582153,0.08179783076047897
5,0,32,17,0.4796698987483978,0.061541639268398285
5,0,32,18,0.5382618308067322,0.12015457451343536
5,0,32,19,0.3932383954524994,0.08180157095193863
5,0,32,20,0.4737320840358734,0.05691313371062279
5,0,32,21,0.29095473885536194,0.0826374962925911
5,0,32,22,0.33704084157943726,0.08639681339263916
5,0,32,23,0.34812846779823303,0.09922603517770767
5,0,32,24,0.6449905037879944,0.1406056433916092
5,0,32,25,0.4738589823246002,0.0794978141784668
5,0,32,26,0.3974436819553375,0.16577012836933136
5,0,32,27,0.5102109909057617,0.0413370244204998
5,0,32,28,0.5546312928199768,0.09492608904838562
5,0,32,29,0.5336666107177734,0.06503451615571976
5,0,32,30,0.6005871295928955,0.07930802553892136
5,0,32,31,0.6151867508888245,0.06904596090316772
5,1,32,0,0.5402716398239136,0.04107596352696419
5,1,32,1,0.42115309834480286,0.060543037950992584
5,1,32,2,0.46288126707077026,0.1476716250181198
5,1,32,3,0.5932244062423706,0.12042883783578873
5,1,32,4,0.47059446573257446,0.061382193118333817
5,1,32,5,0.41864851117134094,0.05349614843726158
5,1,32,6,0.6637303829193115,0.08766433596611023
5,1,32,7,0.40468817949295044,0.039270054548978806
5,1,32,8,0.529670774936676,0.07231134921312332
5,1,32,9,0.5239815711975098,0.08222268521785736
5,1,32,10,0.4783061742782593,0.09018613398075104
5,1,32,11,0.5178468227386475,0.053230442106723785
5,1,32,12,0.5280584096908569,0.04880860075354576
5,1,32,13,0.5887803435325623,0.1027105301618576
5,1,32,14,0.4669105112552643,0.08361267298460007
5,1,32,15,0.6771477460861206,0.0628899410367012
5,1,32,16,0.5063904523849487,0.033504121005535126
5,1,32,17,0.6631423234939575,0.06917333602905273
5,1,32,18,0.5182373523712158,0.11839772015810013
5,1,32,19,0.5554704666137695,0.054768167436122894
5,1,32,20,0.4830712378025055,0.19474323093891144
5,1,32,21,0.4165044128894806,0.09217336028814316
5,1,32,22,0.632977306842804,0.059851787984371185
5,1,32,23,0.5617355704307556,0.06819593161344528
5,1,32,24,0.5813937783241272,0.06570842862129211
5,1,32,25,0.5466083884239197,0.10561635345220566
5,1,32,26,0.4120800495147705,0.045885104686021805
5,1,32,27,0.5197203755378723,0.09940175712108612
5,1,32,28,0.4515354633331299,0.030541392043232918
5,1,32,29,0.6226204633712769,0.10781607776880264
5,1,32,30,0.5442314147949219,0.04574714973568916
5,1,32,31,0.557433009147644,0.08294294774532318
5,2,64,0,0.5222247838973999,0.1635591685771942
5,2,64,1,0.3974040746688843,0.18993259966373444
5,2,64,2,0.4953138828277588,0.2630487382411957
5,2,64,3,0.6441561579704285,0.10254184901714325
5,2,64,4,0.6574119925498962,0.15959037840366364
5,2,64,5,0.47396549582481384,0.19486910104751587
5,2,64,6,0.5681694746017456,0.130423903465271
5,2,64,7,0.347902774810791,0.14728319644927979
5,2,64,8,0.5293298959732056,0.23659375309944153
5,2,64,9,0.5370941162109375,0.14858931303024292
5,2,64,10,0.5602583289146423,0.1381329596042633
5,2,64,11,0.5533763766288757,0.13185633718967438
5,2,64,12,0.35055461525917053,0.17819075286388397
5,2,64,13,0.5850228071212769,0.20242920517921448
5,2,64,14,0.5962079763412476,0.18936240673065186
5,2,64,15,0.33203360438346863,0.1926119178533554
5,2,64,16,0.44377395510673523,0.26686519384384155
5,2,64,17,0.557220995426178,0.2575910985469818
5,2,64,18,0.5376001596450806,0.2191745489835739
5,2,64,19,0.3634316027164459,0.1894744336605072
5,2,64,20,0.44654661417007446,0.20039518177509308
5,2,64,21,0.4400855004787445,0.22781991958618164
5,2,64,22,0.5122785568237305,0.2465287297964096
5,2,64,23,0.3838869631290436,0.15234853327274323
5,2,64,24,0.49952206015586853,0.13634267449378967
5,2,64,25,0.421980619430542,0.25176915526390076
5,2,64,26,0.48134171962738037,0.1972009390592575
5,2,64,27,0.6946448087692261,0.14529426395893097
5,2,64,28,0.4623408019542694,0.13603396713733673
5,2,64,29,0.6093809008598328,0.19416965544223785
5,2,64,30,0.6165409088134766,0.2306448519229889
5,2,64,31,0.5501275062561035,0.2022853046655655
5,2,64,32,0.2531422972679138,0.16639377176761627
5,2,64,33,0.5830804109573364,0.16488416492938995
5,2,64,34,0.710637092590332,0.09475294500589371
5,2,64,35,0.5151049494743347,0.19440260529518127
5,2,64,36,0.4255668520927429,0.1969975084066391
5,2,64,37,0.4505511224269867,0.1901194453239441
5,2,64,38,0.4816707372665405,0.1634627729654312
5,2,64,39,0.5544870495796204,0.24341197311878204
5,2,64,40,0.6853073835372925,0.13330049812793732
5,2,64,41,0.39244234561920166,0.1666092723608017
5,2,64,42,0.4952104091644287,0.2572851777076721
5,2,64,43,0.5564299821853638,0.322538822889328
5,2,64,44,0.5628702044487,0.16860772669315338
5,2,64,45,0.37719324231147766,0.25245970487594604
5,2,64,46,0.5286210179328918,0.24159635603427887
5,2,64,47,0.385972797870636,0.29994845390319824
5,2,64,48,0.5387073159217834,0.24158765375614166
5,2,64,49,0.316135048866272,0.1259903907775879
5,2,64,50,0.6817800998687744,0.1259509176015854
5,2,64,51,0.5670267939567566,0.08786773681640625
5,2,64,52,0.410898894071579,0.2216017097234726
5,2,64,53,0.6113581657409668,0.2245911806821823
5,2,64,54,0.41266217827796936,0.15679486095905304
5,2,64,55,0.6958816647529602,0.1497310996055603
5,2,64,56,0.5389654040336609,0.262686163187027
5,2,64,57,0.5314427018165588,0.15505634248256683
5,2,64,58,0.6824913024902344,0.19251787662506104
5,2,64,59,0.6003797054290771,0.1623678058385849
5,2,64,60,0.4880327582359314,0.17687101662158966
5,2,64,61,0.5995379090309143,0.2364656627178192
5,2,64,62,0.6355579495429993,0.17821532487869263
5,2,64,63,0.5278733372688293,0.19107618927955627
5,3,64,0,0.3936709761619568,0.04922017082571983
5,3,64,1,0.40739110112190247,0.22309516370296478
5,3,64,2,0.5085359811782837,0.14562083780765533
5,3,64,3,0.5167250037193298,0.22464056313037872
5,3,64,4,0.6898040175437927,0.13801518082618713
5,3,64,5,0.3773209750652313,0.2116798311471939
5,3,64,6,0.35325586795806885,0.11760755628347397
5,3,64,7,0.4525938630104065,0.1430974155664444
5,3,64,8,0.5429255366325378,0.10669869929552078
5,3,64,9,0.5373764634132385,0.07452086359262466
5,3,64,10,0.5090925097465515,0.159995436668396
5,3,64,11,0.591238796710968,0.09567175060510635
5,3,64,12,0.38921019434928894,0.14531877636909485
5,3,64,13,0.44573482871055603,0.11368398368358612
5,3,64,14,0.5377699136734009,0.1328195035457611
5,3,64,15,0.43632614612579346,0.044981494545936584
5,3,64,16,0.403255820274353,0.09156087785959244
5,3,64,17,0.41493502259254456,0.16379186511039734
5,3,64,18,0.5062281489372253,0.09660111367702484
5,3,64,19,0.37422749400138855,0.1919483244419098
5,3,64,20,0.6149594783782959,0.0701802596449852
5,3,64,21,0.6248716711997986,0.09147100150585175
5,3,64,22,0.5532046556472778,0.10902334004640579
5,3,64,23,0.6080505847930908,0.17675739526748657
5,3,64,24,0.5557246804237366,0.2032027393579483
5,3,64,25,0.5184818506240845,0.10522500425577164
5,3,64,26,0.43954673409461975,0.13220082223415375
5,3,64,27,0.442018061876297,0.21119630336761475
5,3,64,28,0.5307996273040771,0.17104241251945496
5,3,64,29,0.5080681443214417,0.22144000232219696
5,3,64,30,0.4709259271621704,0.19306233525276184
5,3,64,31,0.5707443356513977,0.12314404547214508
5,3,64,32,0.5793985724449158,0.17268362641334534
5,3,64,33,0.5948399901390076,0.07992693781852722
5,3,64,34,0.6206005811691284,0.08788599818944931
5,3,64,35,0.4874776303768158,0.1872338205575943
5,3,64,36,0.6005943417549133,0.20074057579040527
5,3,64,37,0.5029495358467102,0.14580252766609192
5,3,64,38,0.43601322174072266,0.140236034989357
5,3,64,39,0.43461552262306213,0.13113877177238464
5,3,64,40,0.3526691496372223,0.12963354587554932
5,3,64,41,0.4456920623779297,0.15979214012622833
5,3,64,42,0.37351953983306885,0.0950285866856575
5,3,64,43,0.4908246695995331,0.19363418221473694
5,3,64,44,0.5261529684066772,0.2039019912481308
5,3,64,45,0.454378604888916,0.1912931203842163
5,3,64,46,0.42790576815605164,0.09574521332979202
5,3,64,47,0.5377800464630127,0.1359042376279831
5,3,64,48,0.46046730875968933,0.20082125067710876
5,3,64,49,0.6335949897766113,0.11065009981393814
5,3,64,50,0.5382395386695862,0.06492356956005096
5,3,64,51,0.43326443433761597,0.13573133945465088
5,3,64,52,0.3672177493572235,0.1601228266954422
5,3,64,53,0.5283048152923584,0.13277940452098846
5,3,64,54,0.467917799949646,0.09395141154527664
5,3,64,55,0.3908919095993042,0.1878136396408081
5,3,64,56,0.5010685324668884,0.1894281953573227
5,3,64,57,0.5590794682502747,0.10848408937454224
5,3,64,58,0.42154598236083984,0.15202420949935913
5,3,64,59,0.4658002555370331,0.22959306836128235
5,3,64,60,0.3959624171257019,0.15986143052577972
5,3,64,61,0.42932242155075073,0.2016625702381134
5,3,64,62,0.5085487365722656,0.21934926509857178
5,3,64,63,0.4439663290977478,0.14820002019405365
5,4,128,0,0.6948127150535583,0.24944034218788147
5,4,128,1,0.6369508504867554,0.13000483810901642
5,4,128,2,0.6762337684631348,0.06591352820396423
5,4,128,3,0.622755229473114,0.30431079864501953
5,4,128,4,0.6638551354408264,0.3628990352153778
5,4,128,5,0.5251994132995605,0.19456082582473755
5,4,128,6,0.7638770341873169,0.10076837241649628
5,4,128,7,0.7058306932449341,0.1323283165693283
5,4,128,8,0.7079972624778748,0.208230122923851
5,4,128,9,0.4648045599460602,0.09829498082399368
5,4,128,10,0.7107904553413391,0.21908777952194214
5,4,128,11,0.5659035444259644,0.11138728260993958
5,4,128,12,0.501153290271759,0.18373872339725494
5,4,128,13,0.5060409307479858,0.27740684151649475
5,4,128,14,0.7955581545829773,0.1396787017583847
5,4,128,15,0.6396128535270691,0.16114532947540283
5,4,128,16,0.7788837552070618,0.11203816533088684
5,4,128,17,0.5430641174316406,0.15162988007068634
5,4,128,18,0.6441777348518372,0.2784978151321411
5,4,128,19,0.41666877269744873,0.27972424030303955
5,4,128,20,0.37363386154174805,0.269290566444397
5,4,128,21,0.6726319193840027,0.2688106298446655
5,4,128,22,0.5397698283195496,0.2193414717912674
5,4,128,23,0.6129143834114075,0.18567903339862823
5,4,128,24,0.6577187776565552,0.072895348072052
5,4,128,25,0.6808091402053833,0.2229468822479248
5,4,128,26,0.6481565833091736,0.06045783311128616
5,4,128,27,0.6712787747383118,0.29308393597602844
5,4,128,28,0.5157793164253235,0.18351390957832336
5,4,128,29,0.31035366654396057,0.18945862352848053
5,4,128,30,0.6747276782989502,0.10932101309299469
5,4,128,31,0.698675274848938,0.1892487108707428
5,4,128,32,0.5834484100341797,0.3337450325489044
5,4,128,33,0.7374043464660645,0.1498114913702011
5,4,128,34,0.6085237264633179,0.2967730760574341
5,4,128,35,0.415555477142334,0.3480720520019531
5,4,128,36,0.4700775444507599,0.20594847202301025
5,4,128,37,0.5980518460273743,0.22775085270404816
5,4,128,38,0.7112748026847839,0.11738782376050949
5,4,128,39,0.5673150420188904,0.15841923654079437
5,4,128,40,0.6762791275978088,0.2214209884405136
5,4,128,41,0.560734748840332,0.18960842490196228
5,4,128,42,0.7907805442810059,0.11963484436273575
5,4,128,43,0.6014938354492188,0.18758879601955414
5,4,128,44,0.3213372826576233,0.156419575214386
5,4,128,45,0.7686997652053833,0.12314177304506302
5,4,128,46,0.35719478130340576,0.25720101594924927
5,4,128,47,0.6445088982582092,0.262895405292511
5,4,128,48,0.7164282202720642,0.15099799633026123
5,4,128,49,0.6652490496635437,0.2359398901462555
5,4,128,50,0.44025054574012756,0.30593907833099365
5,4,128,51,0.7125312089920044,0.09659229964017868
5,4,128,52,0.6578083634376526,0.1591912806034088
5,4,128,53,0.7271643877029419,0.15714146196842194
5,4,128,54,0.623767614364624,0.0680454820394516
5,4,128,55,0.2969166934490204,0.10416790097951889
5,4,128,56,0.6479831337928772,0.04289548471570015
5,4,128,57,0.7396154999732971,0.07598861306905746
5,4,128,58,0.5925233960151672,0.07067514210939407
5,4,128,59,0.7003418803215027,0.2144886553287506
5,4,128,60,0.6629461050033569,0.17508600652217865
5,4,128,61,0.6067659258842468,0.10410409420728683
5,4,128,62,0.4636048972606659,0.20509862899780273
5,4,128,63,0.4740796685218811,0.22454829514026642
5,4,128,64,0.35618090629577637,0.08917231857776642
5,4,128,65,0.6932438611984253,0.32221511006355286
5,4,128,66,0.6104684472084045,0.27827098965644836
5,4,128,67,0.5080183744430542,0.19773805141448975
5,4,128,68,0.613822877407074,0.32945936918258667
5,4,128,69,0.37578290700912476,0.17733390629291534
5,4,128,70,0.5719944834709167,0.0727517381310463
5,4,128,71,0.5305992960929871,0.12592436373233795
5,4,128,72,0.4846037030220032,0.23557007312774658
5,4,128,73,0.7682363390922546,0.11230632662773132
5,4,128,74,0.47103971242904663,0.23119668662548065
5,4,128,75,0.41779425740242004,0.30147984623908997
5,4,128,76,0.4285716712474823,0.11427304893732071
5,4,128,77,0.6489630341529846,0.30085667967796326
5,4,128,78,0.6254318356513977,0.23259982466697693
5,4,128,79,0.4157787561416626,0.3156062364578247
5,4,128,80,0.6718454360961914,0.3480129837989807
5,4,128,81,0.6426924467086792,0.1222521960735321
5,4,128,82,0.6875617504119873,0.24971193075180054
5,4,128,83,0.5353561043739319,0.2400059849023819
5,4,128,84,0.5368350148200989,0.1478201299905777
5,4,128,85,0.43478304147720337,0.14717407524585724
5,4,128,86,0.716532289981842,0.10146579891443253
5,4,128,87,0.621740996837616,0.08446524292230606
5,4,128,88,0.660423219203949,0.3273279070854187
5,4,128,89,0.519989013671875,0.08252041786909103
5,4,128,90,0.7006903886795044,0.12455233931541443
5,4,128,91,0.6155019402503967,0.28798022866249084
5,4,128,92,0.4901602268218994,0.1802651435136795
5,4,128,93,0.6475093364715576,0.2928124964237213
5,4,128,94,0.40726134181022644,0.13639409840106964
5,4,128,95,0.6646512746810913,0.10753945261240005
5,4,128,96,0.6055382490158081,0.2918493449687958
5,4,128,97,0.6343076229095459,0.12628158926963806
5,4,128,98,0.6050513386726379,0.23641175031661987
5,4,128,99,0.41533321142196655,0.23053261637687683
5,4,128,100,0.6387136578559875,0.2212865650653839
5,4,128,101,0.5645315051078796,0.04991403594613075
5,4,128,102,0.7207956314086914,0.16911198198795319
5,4,128,103,0.598845899105072,0.26970139145851135
5,4,128,104,0.3930717408657074,0.09843555837869644
5,4,128,105,0.721135139465332,0.18832901120185852
5,4,128,106,0.7386538982391357,0.13057994842529297
5,4,128,107,0.5378186702728271,0.22248020768165588
5,4,128,108,0.43399953842163086,0.351035475730896
5,4,128,109,0.5037335157394409,0.18369603157043457
5,4,128,110,0.37131643295288086,0.07441858947277069
5,4,128,111,0.4083765745162964,0.3211776912212372
5,4,128,112,0.6533083319664001,0.3296976685523987
5,4,128,113,0.3866007328033447,0.21859382092952728
5,4,128,114,0.3643300533294678,0.1281869262456894
5,4,128,115,0.6413363814353943,0.27896592020988464
5,4,128,116,0.6081344485282898,0.3133348524570465
5,4,128,117,0.5222830176353455,0.2592889964580536
5,4,128,118,0.6880348324775696,0.18402737379074097
5,4,128,119,0.6149564385414124,0.31559959053993225
5,4,128,120,0.42374736070632935,0.048763614147901535
5,4,128,121,0.604195237159729,0.3183714747428894
5,4,128,122,0.2823740541934967,0.13592462241649628
5,4,128,123,0.6143991947174072,0.3351339101791382
5,4,128,124,0.706735372543335,0.1385342925786972
5,4,128,125,0.3735865354537964,0.123203806579113
5,4,128,126,0.7653896808624268,0.19573265314102173
5,4,128,127,0.6316754817962646,0.30528724193573
5,5,128,0,0.8383775949478149,0.12731826305389404
5,5,128,1,0.8221107721328735,0.11413221806287766
5,5,128,2,0.606692373752594,0.20171770453453064
5,5,128,3,0.8699970841407776,0.08322401344776154
5,5,128,4,0.8401772975921631,0.11338555812835693
5,5,128,5,0.6485956907272339,0.15384182333946228
5,5,128,6,0.8531094193458557,0.09453323483467102
5,5,128,7,0.619971513748169,0.15252456068992615
5,5,128,8,0.861046552658081,0.08678987622261047
5,5,128,9,0.8382176756858826,0.08898676931858063
5,5,128,10,0.7769056558609009,0.1059318408370018
5,5,128,11,0.6297667622566223,0.21127985417842865
5,5,128,12,0.5683484673500061,0.28919342160224915
5,5,128,13,0.48213881254196167,0.14117228984832764
5,5,128,14,0.6566326022148132,0.2984497845172882
5,5,128,15,0.7327268123626709,0.1493213176727295
5,5,128,16,0.8948382139205933,0.0644402876496315
5,5,128,17,0.7965793013572693,0.15642523765563965
5,5,128,18,0.8097686767578125,0.11408142745494843
5,5,128,19,0.8402971029281616,0.08030126243829727
5,5,128,20,0.6470105051994324,0.16818833351135254
5,5,128,21,0.38789838552474976,0.34352394938468933
5,5,128,22,0.7090222239494324,0.06691480427980423
5,5,128,23,0.4389696419239044,0.26567479968070984
5,5,128,24,0.6830916404724121,0.05257795751094818
5,5,128,25,0.6122463941574097,0.34056228399276733
5,5,128,26,0.8217511177062988,0.09086696803569794
5,5,128,27,0.5015316009521484,0.2535099685192108
5,5,128,28,0.6776700615882874,0.250123530626297
5,5,128,29,0.8077936768531799,0.14447450637817383
5,5,128,30,0.6919978260993958,0.27023977041244507
5,5,128,31,0.7559788823127747,0.16989988088607788
5,5,128,32,0.8592962026596069,0.07952811568975449
5,5,128,33,0.8353772163391113,0.0686071515083313
5,5,128,34,0.8073230385780334,0.08042120933532715
5,5,128,35,0.7389062643051147,0.08558912575244904
5,5,128,36,0.731044590473175,0.1504712849855423
5,5,128,37,0.516706109046936,0.2618235647678375
5,5,128,38,0.7162799835205078,0.18806888163089752
5,5,128,39,0.47970908880233765,0.29972270131111145
5,5,128,40,0.7635210752487183,0.2104337364435196
5,5,128,41,0.7619186639785767,0.1287449449300766
5,5,128,42,0.8488574624061584,0.11030441522598267
5,5,128,43,0.4550861120223999,0.36860066652297974
5,5,128,44,0.38022536039352417,0.2765514850616455
5,5,128,45,0.793103039264679,0.09321525692939758
5,5,128,46,0.6518668532371521,0.14351263642311096
5,5,128,47,0.5003979206085205,0.18254536390304565
5,5,128,48,0.8749238848686218,0.06734656542539597
5,5,128,49,0.8674482107162476,0.06617098301649094
5,5,128,50,0.8353713750839233,0.07678923010826111
5,5,128,51,0.5478896498680115,0.05574796348810196
5,5,128,52,0.5122233033180237,0.2793026864528656
5,5,128,53,0.819667398929596,0.12026672065258026
5,5,128,54,0.8431965708732605,0.06785181164741516
5,5,128,55,0.396927148103714,0.05845487117767334
5,5,128,56,0.9016230702400208,0.06350897997617722
5,5,128,57,0.47948920726776123,0.31231024861335754
5,5,128,58,0.8604015707969666,0.0951017364859581
5,5,128,59,0.836664080619812,0.0691734030842781
5,5,128,60,0.6305416226387024,0.23766374588012695
5,5,128,61,0.7404717803001404,0.09901940077543259
5,5,128,62,0.6827231645584106,0.186196431517601
5,5,128,63,0.811030387878418,0.11267505586147308
5,5,128,64,0.6896613240242004,0.09929360449314117
5,5,128,65,0.8351566195487976,0.08318717032670975
5,5,128,66,0.687730073928833,0.08791838586330414
5,5,128,67,0.5276445150375366,0.25339993834495544
5,5,128,68,0.7697520852088928,0.1532924771308899
5,5,128,69,0.4025319516658783,0.24347521364688873
5,5,128,70,0.5922842025756836,0.14984384179115295
5,5,128,71,0.7327898144721985,0.15066465735435486
5,5,128,72,0.710351288318634,0.09498611837625504
5,5,128,73,0.8591203689575195,0.0758550763130188
5,5,128,74,0.8170350790023804,0.08558810502290726
5,5,128,75,0.7418070435523987,0.1147107258439064
5,5,128,76,0.5463854074478149,0.1343681514263153
5,5,128,77,0.7653542160987854,0.11579319834709167
5,5,128,78,0.6777695417404175,0.2601272165775299
5,5,128,79,0.8593396544456482,0.08544604480266571
5,5,128,80,0.8621333241462708,0.07890026271343231
5,5,128,81,0.4284246265888214,0.22400952875614166
5,5,128,82,0.894320547580719,0.07727887481451035
5,5,128,83,0.47412392497062683,0.24403449892997742
5,5,128,84,0.6321806907653809,0.077985480427742
5,5,128,85,0.7582180500030518,0.1305231899023056
5,5,128,86,0.7903673648834229,0.10558276623487473
5,5,128,87,0.8544307351112366,0.1164526641368866
5,5,128,88,0.697649359703064,0.05894048511981964
5,5,128,89,0.6108032464981079,0.09210644662380219
5,5,128,90,0.8535167574882507,0.07618917524814606
5,5,128,91,0.7093150019645691,0.1567085087299347
5,5,128,92,0.7487781047821045,0.12645967304706573
5,5,128,93,0.7936555743217468,0.14924706518650055
5,5,128,94,0.5696997046470642,0.2549044191837311
5,5,128,95,0.8213721513748169,0.09093216806650162
5,5,128,96,0.7154381275177002,0.1820460855960846
5,5,128,97,0.7637584209442139,0.16027794778347015
5,5,128,98,0.6595981121063232,0.18098801374435425
5,5,128,99,0.7472721934318542,0.0941266268491745
5,5,128,100,0.857200562953949,0.07173441350460052
5,5,128,101,0.8715695142745972,0.0926365852355957
5,5,128,102,0.8476834893226624,0.10749547183513641
5,5,128,103,0.7202222347259521,0.08387251943349838
5,5,128,104,0.5840982794761658,0.23109540343284607
5,5,128,105,0.46350765228271484,0.36280784010887146
5,5,128,106,0.8159496784210205,0.1339402049779892
5,5,128,107,0.7122728824615479,0.18293333053588867
5,5,128,108,0.7312551140785217,0.1408466100692749
5,5,128,109,0.40220141410827637,0.32023555040359497
5,5,128,110,0.4175843596458435,0.267053484916687
5,5,128,111,0.6931522488594055,0.19492335617542267
5,5,128,112,0.44375136494636536,0.3349849581718445
5,5,128,113,0.7481513023376465,0.14169573783874512
5,5,128,114,0.6298154592514038,0.15590710937976837
5,5,128,115,0.5665971040725708,0.1693693846464157
5,5,128,116,0.7900753617286682,0.12322302907705307
5,5,128,117,0.6363685727119446,0.12169495224952698
5,5,128,118,0.8493192195892334,0.07272857427597046
5,5,128,119,0.7627167105674744,0.1845751702785492
5,5,128,120,0.8341763615608215,0.0755169689655304
5,5,128,121,0.7832596898078918,0.16668656468391418
5,5,128,122,0.7659749388694763,0.10695555806159973
5,5,128,123,0.6323961019515991,0.2130502164363861
5,5,128,124,0.8065829277038574,0.09409663081169128
5,5,128,125,0.838916003704071,0.07687747478485107
5,5,128,126,0.8636084794998169,0.11320511996746063
5,5,128,127,0.38678261637687683,0.3083064556121826
6,0,32,0,0.585732638835907,0.08899424970149994
6,0,32,1,0.5502833127975464,0.07343494892120361
6,0,32,2,0.6142838001251221,0.07796703279018402
6,0,32,3,0.27195224165916443,0.107511505484581
6,0,32,4,0.26688915491104126,0.0795721560716629
6,0,32,5,0.3027845621109009,0.08728201687335968
6,0,32,6,0.4065728187561035,0.04522664472460747
6,0,32,7,0.4596138894557953,0.16031520068645477
6,0,32,8,0.5326442122459412,0.0275295227766037
6,0,32,9,0.5677422285079956,0.012579604983329773
6,0,32,10,0.45285657048225403,0.04704150930047035
6,0,32,11,0.6279624104499817,0.051384616643190384
6,0,32,12,0.6025406122207642,0.04939654842019081
6,0,32,13,0.48675814270973206,0.0993710607290268
6,0,32,14,0.48267191648483276,0.03954054415225983
6,0,32,15,0.48327088356018066,0.1268434077501297
6,0,32,16,0.34968188405036926,0.09455536305904388
6,0,32,17,0.5520981550216675,0.07474160939455032
6,0,32,18,0.35235151648521423,0.11845278739929199
6,0,32,19,0.2704874277114868,0.09187869727611542
6,0,32,20,0.4176499545574188,0.06975924968719482
6,0,32,21,0.3894233703613281,0.10371073335409164
6,0,32,22,0.3261992335319519,0.09624092280864716
6,0,32,23,0.6639350652694702,0.11469412595033646
6,0,32,24,0.6738077402114868,0.05100538954138756
6,0,32,25,0.5550951957702637,0.07662291824817657
6,0,32,26,0.49258852005004883,0.09830295294523239
6,0,32,27,0.46572262048721313,0.07244694232940674
6,0,32,28,0.6930457949638367,0.08925414830446243
6,0,32,29,0.47033435106277466,0.050553739070892334
6,0,32,30,0.2920336127281189,0.08861279487609863
6,0,32,31,0.31923869252204895,0.08753121644258499
6,1,32,0,0.5143978595733643,0.12439462542533875
6,1,32,1,0.5068261027336121,0.056823208928108215
6,1,32,2,0.5963253974914551,0.0934082642197609
6,1,32,3,0.49190986156463623,0.0773506760597229
6,1,32,4,0.4865550994873047,0.11281927675008774
6,1,32,5,0.3706784248352051,0.08368852734565735
6,1,32,6,0.5742617845535278,0.07594195008277893
6,1,32,7,0.4970747232437134,0.07984714210033417
6,1,32,8,0.6145220994949341,0.038649871945381165
6,1,32,9,0.4037986099720001,0.04238481447100639
6,1,32,10,0.3878193497657776,0.08316128700971603
6,1,32,11,0.5647183060646057,0.06970860809087753
6,1,32,12,0.48022472858428955,0.05672316625714302
6,1,32,13,0.46036356687545776,0.11159193515777588
6,1,32,14,0.42453867197036743,0.11536961048841476
6,1,32,15,0.6655181646347046,0.05537889152765274
6,1,32,16,0.492320716381073,0.047858934849500656
6,1,32,17,0.3758298456668854,0.06379172205924988
6,1,32,18,0.569788932800293,0.049515288323163986
6,1,32,19,0.5524283647537231,0.1574202924966812
6,1,32,20,0.6753085851669312,0.10642942786216736
6,1,32,21,0.5832539200782776,0.05215592682361603
6,1,32,22,0.42077624797821045,0.04827447608113289
6,1,32,23,0.5159462094306946,0.061552517116069794
6,1,32,24,0.3630766272544861,0.06568219512701035
6,1,32,25,0.5073060393333435,0.11737195402383804
6,1,32,26,0.36918962001800537,0.04769507795572281
6,1,32,27,0.48261991143226624,0.05084778741002083
6,1,32,28,0.4866463840007782,0.11982013285160065
6,1,32,29,0.49571067094802856,0.046531397849321365
6,1,32,30,0.40100714564323425,0.09971784800291061
6,1,32,31,0.5916987061500549,0.0682452991604805
6,2,64,0,0.5663063526153564,0.25283440947532654
6,2,64,1,0.48711976408958435,0.14977091550827026
6,2,64,2,0.5747911930084229,0.21341584622859955
6,2,64,3,0.5113958716392517,0.14423252642154694
6,2,64,4,0.43988847732543945,0.17764350771903992
6,2,64,5,0.5282949209213257,0.135665625333786
6,2,64,6,0.5858232975006104,0.17803902924060822
6,2,64,7,0.300102561712265,0.09927044808864594
6,2,64,8,0.6210733652114868,0.18367493152618408
6,2,64,9,0.5735322833061218,0.13469697535037994
6,2,64,10,0.455646276473999,0.271645188331604
6,2,64,11,0.2993919849395752,0.1326156109571457
6,2,64,12,0.6046177744865417,0.2497565895318985
6,2,64,13,0.4131552577018738,0.21700558066368103
6,2,64,14,0.4671330451965332,0.16581054031848907
6,2,64,15,0.355593204498291,0.12787513434886932
6,2,64,16,0.488770991563797,0.09440314769744873
6,2,64,17,0.5113211274147034,0.2386639267206192
6,2,64,18,0.6450133323669434,0.17855706810951233
6,2,64,19,0.3895706832408905,0.11076325923204422
6,2,64,20,0.5956880450248718,0.1986379325389862
6,2,64,21,0.5848244428634644,0.10196530818939209
6,2,64,22,0.5045651793479919,0.12208546698093414
6,2,64,23,0.44445234537124634,0.21086718142032623
6,2,64,24,0.271168053150177,0.0927979052066803
6,2,64,25,0.5187150239944458,0.13817645609378815
6,2,64,26,0.6971068382263184,0.10638964921236038
6,2,64,27,0.5968380570411682,0.15952156484127045
6,2,64,28,0.4157922565937042,0.13761909306049347
6,2,64,29,0.3292553424835205,0.12641748785972595
6,2,64,30,0.5037454962730408,0.13068175315856934
6,2,64,31,0.6685008406639099,0.09769906848669052
6,2,64,32,0.4954407513141632,0.2547028064727783
6,2,64,33,0.4898596405982971,0.16689100861549377
6,2,64,34,0.6611231565475464,0.15267008543014526
6,2,64,35,0.6153724193572998,0.12478180974721909
6,2,64,36,0.6060432195663452,0.15048740804195404
6,2,64,37,0.5329360961914062,0.10045944154262543
6,2,64,38,0.5451828837394714,0.13034957647323608
6,2,64,39,0.41746485233306885,0.16797560453414917
6,2,64,40,0.5924877524375916,0.1492965966463089
6,2,64,41,0.38202008605003357,0.15509659051895142
6,2,64,42,0.6028925776481628,0.11110243201255798
6,2,64,43,0.591187596321106,0.13399845361709595
6,2,64,44,0.5538020133972168,0.25125589966773987
6,2,64,45,0.45512962341308594,0.22177018225193024
6,2,64,46,0.6024566292762756,0.31532448530197144
6,2,64,47,0.572913408279419,0.09902244061231613
6,2,64,48,0.5394720435142517,0.22009548544883728
6,2,64,49,0.52747642993927,0.17638258635997772
6,2,64,50,0.5954933166503906,0.10951452702283859
6,2,64,51,0.5155082941055298,0.16929692029953003
6,2,64,52,0.4564977288246155,0.11666680872440338
6,2,64,53,0.5533615946769714,0.238289937376976
6,2,64,54,0.6624575853347778,0.1518193781375885
6,2,64,55,0.56710284948349,0.23551544547080994
6,2,64,56,0.5202568173408508,0.18707603216171265
6,2,64,57,0.369324654340744,0.16734711825847626
6,2,64,58,0.4811665713787079,0.11561059206724167
6,2,64,59,0.6145806908607483,0.11274760961532593
6,2,64,60,0.5573286414146423,0.19162830710411072
6,2,64,61,0.433432936668396,0.19714994728565216
6,2,64,62,0.5148242712020874,0.0709850862622261
6,2,64,63,0.4602757394313812,0.08750509470701218
6,3,64,0,0.475960373878479,0.05605451017618179
6,3,64,1,0.6118319034576416,0.11104821413755417
6,3,64,2,0.7202311158180237,0.21105395257472992
6,3,64,3,0.5711740851402283,0.133728489279747
6,3,64,4,0.34674856066703796,0.10094530880451202
6,3,64,5,0.5169215798377991,0.1260843276977539
6,3,64,6,0.30600038170814514,0.1424945890903473
6,3,64,7,0.27287957072257996,0.1237911581993103
6,3,64,8,0.6768415570259094,0.08614073693752289
6,3,64,9,0.4219745993614197,0.23251985013484955
6,3,64,10,0.5511845350265503,0.0765526220202446
6,3,64,11,0.586259663105011,0.31261810660362244
6,3,64,12,0.552651047706604,0.10081727802753448
6,3,64,13,0.5213766098022461,0.12270473688840866
6,3,64,14,0.49425458908081055,0.10109508037567139
6,3,64,15,0.6093822717666626,0.1664293259382248
6,3,64,16,0.4708872139453888,0.06976214796304703
6,3,64,17,0.6062319278717041,0.13109242916107178
6,3,64,18,0.664060115814209,0.28269314765930176
6,3,64,19,0.3286839425563812,0.21824528276920319
6,3,64,20,0.4341438114643097,0.10449590533971786
6,3,64,21,0.46783822774887085,0.09604047238826752
6,3,64,22,0.655449628829956,0.14277993142604828
6,3,64,23,0.5166138410568237,0.14076420664787292
6,3,64,24,0.6319947838783264,0.29675528407096863
6,3,64,25,0.5803197622299194,0.23607490956783295
6,3,64,26,0.5111409425735474,0.07601244002580643
6,3,64,27,0.7208936810493469,0.16572798788547516
6,3,64,28,0.534550666809082,0.09588330239057541
6,3,64,29,0.6212171316146851,0.2055700421333313
6,3,64,30,0.27212825417518616,0.2061918079853058
6,3,64,31,0.6115434765815735,0.1963726133108139
6,3,64,32,0.5592204332351685,0.24795971810817719
6,3,64,33,0.6523459553718567,0.20997105538845062
6,3,64,34,0.5501435399055481,0.28650039434432983
6,3,64,35,0.5294949412345886,0.12466342747211456
6,3,64,36,0.7180476784706116,0.11416507512331009
6,3,64,37,0.5593400001525879,0.08200224488973618
6,3,64,38,0.5347315073013306,0.1332770437002182
6,3,64,39,0.6021463871002197,0.26224640011787415
6,3,64,40,0.6788852214813232,0.2623633146286011
6,3,64,41,0.5617032647132874,0.054847002029418945
6,3,64,42,0.3433791995048523,0.18160678446292877
6,3,64,43,0.35379159450531006,0.10636503994464874
6,3,64,44,0.6071994304656982,0.25359880924224854
6,3,64,45,0.40461063385009766,0.21253003180027008
6,3,64,46,0.6224240660667419,0.13829801976680756
6,3,64,47,0.393151193857193,0.06669449061155319
6,3,64,48,0.607853889465332,0.1453939825296402
6,3,64,49,0.35919010639190674,0.18272708356380463
6,3,64,50,0.5365714430809021,0.15329837799072266
6,3,64,51,0.31049537658691406,0.14527271687984467
6,3,64,52,0.34260526299476624,0.07679619640111923
6,3,64,53,0.5642563104629517,0.2579439878463745
6,3,64,54,0.2972308099269867,0.23632493615150452
6,3,64,55,0.41531893610954285,0.09312023967504501
6,3,64,56,0.6228691339492798,0.07254809886217117
6,3,64,57,0.5089397430419922,0.07138913869857788
6,3,64,58,0.6201895475387573,0.30876919627189636
6,3,64,59,0.6617488265037537,0.15920042991638184
6,3,64,60,0.7090566754341125,0.07609659433364868
6,3,64,61,0.3227415978908539,0.11992554366588593
6,3,64,62,0.5930282473564148,0.12319868803024292
6,3,64,63,0.6925147175788879,0.1483447104692459
6,4,128,0,0.5174652934074402,0.34316182136535645
