subject,channel,alpha,f1,drop_pp
1,0,1.0,0.6307276294142132,0.0
1,0,0.75,0.6138400379864272,1.6887591427786064
1,0,0.5,0.5917683057131314,3.8959323701081794
1,0,0.25,0.5680577842189014,6.266984519531182
1,0,0.0,0.5403438908362537,9.038373857795957
1,1,1.0,0.6307276294142132,0.0
1,1,0.75,0.6433579076994441,-1.263027828523089
1,1,0.5,0.6585728998822017,-2.784527046798846
1,1,0.25,0.6639904116743632,-3.3262782260150003
1,1,0.0,0.6447474571876808,-1.4019827773467552
1,2,1.0,0.6307276294142132,0.0
1,2,0.75,0.6176083081824874,1.3119321231725878
1,2,0.5,0.5994129694655471,3.1314659948666113
1,2,0.25,0.584396501521682,4.633112789253124
1,2,0.0,0.5417943109820618,8.893331843215147
1,3,1.0,0.6307276294142132,0.0
1,3,0.75,0.621527762417679,0.919986699653419
1,3,0.5,0.5821424088767929,4.858522053742032
1,3,0.25,0.5679348569905232,6.279277242369008
1,3,0.0,0.5133215196210503,11.74061097931629
1,4,1.0,0.6307276294142132,0.0
1,4,0.75,0.625779006243766,0.4948623170447197
1,4,0.5,0.6171200703675195,1.3607559046693751
1,4,0.25,0.6022171479712903,2.8510481442922897
1,4,0.0,0.5512008944924696,7.952673492174367
1,5,1.0,0.6307276294142132,0.0
1,5,0.75,0.5676351461970242,6.309248321718908
1,5,0.5,0.5177242546614431,11.300337475277011
1,5,0.25,0.4682681255700103,16.245950384420293
1,5,0.0,0.44333332952254434,18.73942998916689
1,6,1.0,0.6307276294142132,0.0
1,6,0.75,0.634347011562687,-0.3619382148473793
1,6,0.5,0.6349093962595701,-0.4181766845356871
1,6,0.25,0.6368434333973051,-0.6115803983091861
1,6,0.0,0.6332555017258112,-0.2527872311598012
1,7,1.0,0.6307276294142132,0.0
1,7,0.75,0.6441860119683128,-1.345838255409959
1,7,0.5,0.627544741933466,0.3182887480747243
1,7,0.25,0.6091916670204676,2.1535962393745667
1,7,0.0,0.5740288905722482,5.669873884196508
1,8,1.0,0.6307276294142132,0.0
1,8,0.75,0.6353689369339839,-0.46413075197706544
1,8,0.5,0.6466385343151072,-1.5910904900893974
1,8,0.25,0.6255840681204575,0.5143561293755705
1,8,0.0,0.5924037503539445,3.8323879060268684
2,0,1.0,0.8366329350417911,0.0
2,0,0.75,0.8034830600335423,3.314987500824884
2,0,0.5,0.7981613616700609,3.847157337173024
2,0,0.25,0.7977527643480739,3.8880170693717298
2,0,0.0,0.7715183476172308,6.511458742456034
2,1,1.0,0.8366329350417911,0.0
2,1,0.75,0.7998261100369869,3.6806825004804256
2,1,0.5,0.774562370771253,6.207056427053814
2,1,0.25,0.7581904825559648,7.844245248582638
2,1,0.0,0.7224381647756171,11.419477026617407
2,2,1.0,0.8366329350417911,0.0
2,2,0.75,0.8423828247393452,-0.5749889697554078
2,2,0.5,0.8183535330396398,1.827940200215139
2,2,0.25,0.8025598207854998,3.4073114256291337
2,2,0.0,0.7703657461809635,6.626718886082761
2,3,1.0,0.8366329350417911,0.0
2,3,0.75,0.8254308734954874,1.1202061546303765
2,3,0.5,0.8136930961089412,2.29398389328499
2,3,0.25,0.8026794961887582,3.3953438853032925
2,3,0.0,0.7675527844562924,6.908015058549877
2,4,1.0,0.8366329350417911,0.0
2,4,0.75,0.8383779877938823,-0.17450527520911363
2,4,0.5,0.8115404651514407,2.509246989035041
2,4,0.25,0.8051777439500334,3.145519109175776
2,4,0.0,0.7905840224158172,4.604891262597399
2,5,1.0,0.8366329350417911,0.0
2,5,0.75,0.8276610085932864,0.8971926448504752
2,5,0.5,0.7925792713167666,4.405366372502451
2,5,0.25,0.7751512675911906,6.148166745060058
2,5,0.0,0.7533321924313594,8.330074261043174
2,6,1.0,0.8366329350417911,0.0
2,6,0.75,0.8052530032873813,3.1379931754409895
2,6,0.5,0.7830593489382403,5.35735861035509
2,6,0.25,0.7732672968932198,6.336563814857133
2,6,0.0,0.7546716826454316,8.196125239635954
2,7,1.0,0.8366329350417911,0.0
2,7,0.75,0.8191183841402879,1.7514550901503223
2,7,0.5,0.7606439806245349,7.598895441725628
2,7,0.25,0.6897992657970788,14.68336692447123
2,7,0.0,0.600387277964507,23.62456570772842
2,8,1.0,0.8366329350417911,0.0
2,8,0.75,0.8257114986462812,1.092143639550991
2,8,0.5,0.7795827713461466,5.7050163695644525
2,8,0.25,0.7281456581434733,10.848727689831783
2,8,0.0,0.7265560255015533,11.007690954023786
3,0,1.0,0.7966295840114412,0.0
3,0,0.75,0.794720850213305,0.1908733798136275
3,0,0.5,0.7901417257510208,0.648785826042042
3,0,0.25,0.7750599107878662,2.156967322357506
3,0,0.0,0.7425692171437446,5.406036686769666
3,1,1.0,0.7966295840114412,0.0
3,1,0.75,0.8122372148200334,-1.5607630808592177
3,1,0.5,0.7994196049147696,-0.2790020903328361
3,1,0.25,0.7689492523209145,2.768033169052675
3,1,0.0,0.7353050067658253,6.132457724561591
3,2,1.0,0.7966295840114412,0.0
3,2,0.75,0.7818947880794289,1.4734795932012323
3,2,0.5,0.6754260217593869,12.12035622520543
3,2,0.25,0.5683144390924277,22.831514491901352
3,2,0.0,0.5412073905886475,25.54221934227937
3,3,1.0,0.7966295840114412,0.0
3,3,0.75,0.6905049809497265,10.612460306171478
3,3,0.5,0.6151495575470223,18.148002646441896
3,3,0.25,0.5887654000106017,20.78641840008395
3,3,0.0,0.5518542866022296,24.477529740921167
3,4,1.0,0.7966295840114412,0.0
3,4,0.75,0.7912295002241336,0.5400083787307608
3,4,0.5,0.7636367357555741,3.2992848255867124
3,4,0.25,0.7330695275677547,6.356005644368656
3,4,0.0,0.6846514075293306,11.19781764821106
3,5,1.0,0.7966295840114412,0.0
3,5,0.75,0.7241657660542502,7.2463817957191035
3,5,0.5,0.7002060751629345,9.64235088485067
3,5,0.25,0.6750237324287308,12.160585158271042
3,5,0.0,0.5745844762174243,22.204510779401698
3,6,1.0,0.7966295840114412,0.0
3,6,0.75,0.7835415695544901,1.308801445695118
3,6,0.5,0.7667631132889265,2.9866470722514693
3,6,0.25,0.7485443706744539,4.808521333698734
3,6,0.0,0.7329594866135767,6.367009739786456
3,7,1.0,0.7966295840114412,0.0
3,7,0.75,0.7820005000698237,1.4629083941617549
3,7,0.5,0.744233690763603,5.239589324783822
3,7,0.25,0.7026474970575715,9.398208695386979
3,7,0.0,0.6415808329601433,15.50487510512979
3,8,1.0,0.7966295840114412,0.0
3,8,0.75,0.7855434627877784,1.1086121223662815
3,8,0.5,0.7674944859678013,2.9135098043639895
3,8,0.25,0.7348156999569351,6.181388405450616
3,8,0.0,0.6912234369820714,10.54061470293698
4,0,1.0,0.7316079001627073,0.0
4,0,0.75,0.7292130163274749,0.2394883835232342
4,0,0.5,0.742566272009478,-1.0958371846770731
4,0,0.25,0.711573648892611,2.003425127009628
4,0,0.0,0.6309280185376677,10.06798816250396
4,1,1.0,0.7316079001627073,0.0
4,1,0.75,0.7324884350711218,-0.08805349084145542
4,1,0.5,0.722777927233675,0.8829972929032315
4,1,0.25,0.693399693014183,3.8208207148524242
4,1,0.0,0.6487695685666357,8.283833159607157
4,2,1.0,0.7316079001627073,0.0
4,2,0.75,0.6940618096645119,3.754609049819535
4,2,0.5,0.6555583435302281,7.604955663247914
4,2,0.25,0.6251480392325464,10.645986093016091
4,2,0.0,0.5685975609756098,16.301033918709752
4,3,1.0,0.7316079001627073,0.0
4,3,0.75,0.6979843536251711,3.3623546537536186
4,3,0.5,0.6624713157827747,6.913658437993253
4,3,0.25,0.6304901392449351,10.111776091777214
4,3,0.0,0.5883006819933616,14.330721816934567
4,4,1.0,0.7316079001627073,0.0
4,4,0.75,0.7988370266816684,-6.722912651896118
4,4,0.5,0.7931130935377794,-6.15051933750721
4,4,0.25,0.7609257050821796,-2.9317804919472334
4,4,0.0,0.7155473013425112,1.606059882019606
4,5,1.0,0.7316079001627073,0.0
4,5,0.75,0.7325432346956662,-0.09353345329589091
4,5,0.5,0.7232807503221238,0.832714984058347
4,5,0.25,0.7098152633685515,2.1792636794155773
4,5,0.0,0.6722422532503285,5.936564691237878
4,6,1.0,0.7316079001627073,0.0
4,6,0.75,0.7025471246260077,2.9060775536699612
4,6,0.5,0.6906502740465778,4.095762611612952
4,6,0.25,0.6771603663545157,5.444753380819156
4,6,0.0,0.6771933848050312,5.441451535767605
4,7,1.0,0.7316079001627073,0.0
4,7,0.75,0.7194010217161393,1.2206878446567981
4,7,0.5,0.699586814175938,3.2021085986769227
4,7,0.25,0.6415224136917509,9.008548647095637
4,7,0.0,0.6133858851664633,11.822201499624397
4,8,1.0,0.7316079001627073,0.0
4,8,0.75,0.7936676778879944,-6.205977772528715
4,8,0.5,0.8002449478726852,-6.863704770997792
4,8,0.25,0.745995496397224,-1.4387596234516686
4,8,0.0,0.6983344349696116,3.327346519309571
5,0,1.0,0.6038496196256005,0.0
5,0,0.75,0.6060086834620861,-0.2159063836485675
5,0,0.5,0.5941856990701478,0.9663920555452621
5,0,0.25,0.5865685577701546,1.7281061855445867
5,0,0.0,0.5238328479745986,8.001677165100185
5,1,1.0,0.6038496196256005,0.0
5,1,0.75,0.6159913583614294,-1.214173873582891
5,1,0.5,0.613451526084916,-0.9601906459315579
5,1,0.25,0.5816903132953499,2.215930633025054
5,1,0.0,0.5579653123935241,4.588430723207637
5,2,1.0,0.6038496196256005,0.0
5,2,0.75,0.5990376207333775,0.4811998892222946
5,2,0.5,0.6181597282031974,-1.4310108577596958
5,2,0.25,0.6273844534802699,-2.353483385466948
5,2,0.0,0.6134202043476238,-0.9570584722023323
5,3,1.0,0.6038496196256005,0.0
5,3,0.75,0.6352051490986759,-3.1355529473075405
5,3,0.5,0.6543354303621499,-5.048581073654946
5,3,0.25,0.6459933183209948,-4.214369869539436
5,3,0.0,0.5980245093579681,0.5825110267632327
5,4,1.0,0.6038496196256005,0.0
5,4,0.75,0.5951672793942063,0.8682340231394137
5,4,0.5,0.5924526653383534,1.1396954287247074
5,4,0.25,0.5821013590507776,2.174826057482282
5,4,0.0,0.5808527202898388,2.2996899335761656
5,5,1.0,0.6038496196256005,0.0
5,5,0.75,0.567975043851767,3.587457577383346
5,5,0.5,0.5382544138304507,6.559520579514977
5,5,0.25,0.5122163979351221,9.163322169047838
5,5,0.0,0.5051934680087377,9.86561516168628
5,6,1.0,0.6038496196256005,0.0
5,6,0.75,0.5983355206474302,0.5514098978170234
5,6,0.5,0.6012968809734585,0.2552738652142006
5,6,0.25,0.6013440402784689,0.2505579347131581
5,6,0.0,0.6068706208805293,-0.3021001254928879
5,7,1.0,0.6038496196256005,0.0
5,7,0.75,0.6070556495135859,-0.3206029887985462
5,7,0.5,0.6002283636414985,0.3621255984102012
5,7,0.25,0.5849982274614628,1.885139216413767
5,7,0.0,0.5550406334448679,4.880898618073259
5,8,1.0,0.6038496196256005,0.0
5,8,0.75,0.5890731799380104,1.4776439687590015
5,8,0.5,0.5809191837829356,2.2930435842664854
5,8,0.25,0.5489678105869897,5.488180903861073
5,8,0.0,0.48689789878662326,11.69517208389772
6,0,1.0,0.7560806532837614,0.0
6,0,0.75,0.7648611568415149,-0.8780503557753505
6,0,0.5,0.7463917157986982,0.9688937485063165
6,0,0.25,0.7006807971193423,5.5399856164419115
6,0,0.0,0.6476115057429771,10.84691475407843
6,1,1.0,0.7560806532837614,0.0
6,1,0.75,0.7516711707946768,0.4409482489084571
6,1,0.5,0.720663071943518,3.541758134024342
6,1,0.25,0.6804472921146266,7.563336116913478
6,1,0.0,0.6629772294000167,9.31034238837447
6,2,1.0,0.7560806532837614,0.0
6,2,0.75,0.754339497392129,0.17411558916323733
6,2,0.5,0.7604825099050241,-0.440185662126269
6,2,0.25,0.7395021856360973,1.657846764766413
6,2,0.0,0.723020011397551,3.3060641886210385
6,3,1.0,0.7560806532837614,0.0
6,3,0.75,0.7637767600079817,-0.7696106724220275
6,3,0.5,0.7609070065551939,-0.48263532714325486
6,3,0.25,0.7423000169649456,1.3780636318815764
6,3,0.0,0.7253186909488711,3.076196233489026
6,4,1.0,0.7560806532837614,0.0
6,4,0.75,0.7374251029940099,1.8655550289751521
6,4,0.5,0.7029602274592591,5.312042582450227
6,4,0.25,0.6608851122247719,9.519554105898953
6,4,0.0,0.6430429934103117,11.30376598734497
6,5,1.0,0.7560806532837614,0.0
6,5,0.75,0.7502308172259827,0.5849836057778668
6,5,0.5,0.7425450591669924,1.3535594116768968
6,5,0.25,0.7141458168543724,4.1934836429389
6,5,0.0,0.6931514380385175,6.292921524524386
6,6,1.0,0.7560806532837614,0.0
6,6,0.75,0.7416339170808195,1.44467362029419
6,6,0.5,0.7301704577604256,2.5910195523335844
6,6,0.25,0.6667267747172538,8.935387856650756
6,6,0.0,0.6167942418804016,13.928641140335984
6,7,1.0,0.7560806532837614,0.0
6,7,0.75,0.7479655739579393,0.8115079325822117
6,7,0.5,0.729197250814682,2.6883402469079387
6,7,0.25,0.6725988543936059,8.348179889015551
6,7,0.0,0.568342813770568,18.773783951319345
6,8,1.0,0.7560806532837614,0.0
6,8,0.75,0.7323100929533913,2.377056033037006
6,8,0.5,0.7154056434203042,4.067500986345718
6,8,0.25,0.6643954421030234,9.168521118073802
6,8,0.0,0.6282651260077224,12.781552727603895
7,0,1.0,0.7387171240021089,0.0
7,0,0.75,0.7330105984183177,0.5706525583791144
7,0,0.5,0.7334407707429218,0.5276353259187072
7,0,0.25,0.7208763388853546,1.7840785116754243
7,0,0.0,0.6753310797910005,6.338604421110839
7,1,1.0,0.7387171240021089,0.0
7,1,0.75,0.7095236899955557,2.9193434006553165
7,1,0.5,0.6845000314248357,5.421709257727314
7,1,0.25,0.6174529230084786,12.126420099363022
7,1,0.0,0.6080515987155561,13.066552528655272
7,2,1.0,0.7387171240021089,0.0
7,2,0.75,0.7296405274598395,0.9076596542269333
7,2,0.5,0.7128500801389801,2.586704386312877
7,2,0.25,0.6943845053258009,4.4332618676308
7,2,0.0,0.5757065345213461,16.301058948076275
7,3,1.0,0.7387171240021089,0.0
7,3,0.75,0.7264597430308737,1.2257380971235188
7,3,0.5,0.6763263499682961,6.239077403381277
7,3,0.25,0.6625810551828422,7.613606881926671
7,3,0.0,0.6487838201332632,8.993330386884569
7,4,1.0,0.7387171240021089,0.0
7,4,0.75,0.7125131522409701,2.6203971761138756
7,4,0.5,0.705320974324464,3.3396149677644926
7,4,0.25,0.6808978798666228,5.781924413548611
7,4,0.0,0.6549361911506,8.37809328515089
7,5,1.0,0.7387171240021089,0.0
7,5,0.75,0.741502033707678,-0.2784909705569105
7,5,0.5,0.740585865888254,-0.18687418861451643
7,5,0.25,0.7267761718428815,1.1940952159227414
7,5,0.0,0.7175902350286155,2.112688897349335
7,6,1.0,0.7387171240021089,0.0
7,6,0.75,0.728467353783061,1.0249770219047827
7,6,0.5,0.7054421659061294,3.3274958095979468
7,6,0.25,0.6843620808579054,5.435504314420347
7,6,0.0,0.6865139213718532,5.2203202630255685
7,7,1.0,0.7387171240021089,0.0
7,7,0.75,0.7348831702667067,0.38339537354021846
7,7,0.5,0.7112947254970696,2.7422398505039247
7,7,0.25,0.5790760257922284,15.964109820988048
7,7,0.0,0.5441487318691396,19.456839213296927
7,8,1.0,0.7387171240021089,0.0
7,8,0.75,0.7294180098940161,0.929911410809281
7,8,0.5,0.7251918899185942,1.3525234083514692
7,8,0.25,0.6814657552627268,5.725136873938208
7,8,0.0,0.6353878635829832,10.332926041912572
8,0,1.0,0.7656028787223629,0.0
8,0,0.75,0.7711156245485615,-0.5512745826198651
8,0,0.5,0.7631789373505877,0.24239413717751512
8,0,0.25,0.7512738107177956,1.4329068004567236
8,0,0.0,0.7064030495538252,5.9199829168537725
8,1,1.0,0.7656028787223629,0.0
8,1,0.75,0.7667535563669047,-0.11506776445417977
8,1,0.5,0.7672215916718534,-0.1618712949490564
8,1,0.25,0.7525377991732913,1.3065079549071545
8,1,0.0,0.7440190817850393,2.1583796937323596
8,2,1.0,0.7656028787223629,0.0
8,2,0.75,0.7677982659879022,-0.21953872655393614
8,2,0.5,0.7775450329257195,-1.1942154203356647
8,2,0.25,0.7771071081688802,-1.15042294465173
8,2,0.0,0.775945700151312,-1.0342821428949156
8,3,1.0,0.7656028787223629,0.0
8,3,0.75,0.7658645456037458,-0.026166688138296035
8,3,0.5,0.771341094812564,-0.5738216090201087
8,3,0.25,0.77179618161096,-0.6193302888597096
8,3,0.0,0.7334983555227536,3.2104523199609325
8,4,1.0,0.7656028787223629,0.0
8,4,0.75,0.7569552942215907,0.8647584500772187
8,4,0.5,0.7426303728650022,2.297250585736066
8,4,0.25,0.7208920017976469,4.471087692471598
8,4,0.0,0.7112174234593114,5.43854552630515
8,5,1.0,0.7656028787223629,0.0
8,5,0.75,0.7483070969078036,1.7295781814559263
8,5,0.5,0.6966788843293134,6.892399439304953
8,5,0.25,0.6301005757527496,13.55023029696133
8,5,0.0,0.5662085373682952,19.939434135406763
8,6,1.0,0.7656028787223629,0.0
8,6,0.75,0.7573249961319802,0.8277882590382646
8,6,0.5,0.7456636202691551,1.9939258453207764
8,6,0.25,0.7374915309931298,2.811134772923307
8,6,0.0,0.7366009429156598,2.900193580670307
8,7,1.0,0.7656028787223629,0.0
8,7,0.75,0.7623172949076832,0.32855838146796934
8,7,0.5,0.7659641472868217,-0.03612685644588387
8,7,0.25,0.76336775105967,0.22351276626928485
8,7,0.0,0.7161401915682488,4.9462687154114064
8,8,1.0,0.7656028787223629,0.0
8,8,0.75,0.7687121602716831,-0.31092815493202197
8,8,0.5,0.7529970378478286,1.2605840874534313
8,8,0.25,0.6967115279003799,6.889135082198294
8,8,0.0,0.6374390842560752,12.816379446628767
9,0,1.0,0.7854441854441854,0.0
9,0,0.75,0.7937910331485294,-0.8346847704344018
9,0,0.5,0.793528939448107,-0.8084754003921613
9,0,0.25,0.774649264752789,1.0794920691396426
9,0,0.0,0.7561711017455212,2.9273083698664215
9,1,1.0,0.7854441854441854,0.0
9,1,0.75,0.7733308358308358,1.2113349613349533
9,1,0.5,0.7491311148489367,3.6313070595248687
9,1,0.25,0.7120331490632579,7.34110363809275
9,1,0.0,0.6842920385796838,10.115214686450159
9,2,1.0,0.7854441854441854,0.0
9,2,0.75,0.7876887393200989,-0.2244553875913491
9,2,0.5,0.7712505162138792,1.4193669230306183
9,2,0.25,0.7532366317180026,3.220755372618278
9,2,0.0,0.7467130632214757,3.873112222270969
9,3,1.0,0.7854441854441854,0.0
9,3,0.75,0.7756214663704364,0.9822719073748987
9,3,0.5,0.7564944588139011,2.894972663028428
9,3,0.25,0.7549989534311803,3.0445232013005086
9,3,0.0,0.7500341619768793,3.541002346730604
9,4,1.0,0.7854441854441854,0.0
9,4,0.75,0.7717477420681675,1.369644337601783
9,4,0.5,0.7702551834130781,1.518900203110729
9,4,0.25,0.7486277165649955,3.681646887918988
9,4,0.0,0.7085913547294475,7.685283071473792
9,5,1.0,0.7854441854441854,0.0
9,5,0.75,0.7792778901992516,0.6166295244933728
9,5,0.5,0.7652978278310347,2.0146357613150645
9,5,0.25,0.7243711817415492,6.107300370263613
9,5,0.0,0.6486170840595242,13.682710138466113
9,6,1.0,0.7854441854441854,0.0
9,6,0.75,0.7788701994610814,0.6573985983103992
9,6,0.5,0.7750619598448928,1.0382225599292583
9,6,0.25,0.7598977975381833,2.5546387906002055
9,6,0.0,0.7418394599285534,4.360472551563199
9,7,1.0,0.7854441854441854,0.0
9,7,0.75,0.783556904898518,0.18872805456673358
9,7,0.5,0.7700390193600892,1.5405166084096145
9,7,0.25,0.7606445284223712,2.479965702181419
9,7,0.0,0.6978687978687979,8.757538757538752
9,8,1.0,0.7854441854441854,0.0
9,8,0.75,0.7650552487848319,2.0388936659353485
9,8,0.5,0.7762870017521937,0.9157183691991699
9,8,0.25,0.7669677797507197,1.8476405693465647
9,8,0.0,0.7209487496429441,6.4495435801241285
10,0,1.0,0.7242751687406718,0.0
10,0,0.75,0.720977597935726,0.32975708049457486
10,0,0.5,0.6761317324458508,4.8143436294820985
10,0,0.25,0.653008185616873,7.126698312379876
10,0,0.0,0.5924376968076908,13.183747193298101
10,1,1.0,0.7242751687406718,0.0
10,1,0.75,0.7165132841795113,0.7761884561160448
10,1,0.5,0.684160525814735,4.011464292593681
10,1,0.25,0.6365319164686114,8.774325227206036
10,1,0.0,0.6282265553268818,9.604861341379001
10,2,1.0,0.7242751687406718,0.0
10,2,0.75,0.7343614242163861,-1.008625547571429
10,2,0.5,0.7021406780438573,2.21344906968145
10,2,0.25,0.6924601547802877,3.181501396038411
10,2,0.0,0.6547447855939889,6.953038314668292
10,3,1.0,0.7242751687406718,0.0
10,3,0.75,0.72893942792825,-0.4664259187578179
10,3,0.5,0.7169353424283936,0.7339826312278142
10,3,0.25,0.6974378144651641,2.6837354275507708
10,3,0.0,0.5972803741379593,12.699479460271245
10,4,1.0,0.7242751687406718,0.0
10,4,0.75,0.7264808376634004,-0.22056689227286652
10,4,0.5,0.7265287553991362,-0.22535866584644237
10,4,0.25,0.695097478478923,2.9177690261748768
10,4,0.0,0.6758532589079707,4.842190983270111
10,5,1.0,0.7242751687406718,0.0
10,5,0.75,0.74208236275285,-1.780719401217823
10,5,0.5,0.7337048642459627,-0.9429695505290936
10,5,0.25,0.7075492806886328,1.6725888052039006
10,5,0.0,0.6586287728802611,6.564639586041066
10,6,1.0,0.7242751687406718,0.0
10,6,0.75,0.7490660100331795,-2.479084129250775
10,6,0.5,0.7327636941178716,-0.8488525377199796
10,6,0.25,0.7149744864141863,0.930068232648551
10,6,0.0,0.6778982631866856,4.637690555398621
10,7,1.0,0.7242751687406718,0.0
10,7,0.75,0.6923644360377786,3.191073270289313
10,7,0.5,0.6681452247222636,5.612994401840821
10,7,0.25,0.6265645483782738,9.771062036239798
10,7,0.0,0.6051557701548473,11.911939858582443
10,8,1.0,0.7242751687406718,0.0
10,8,0.75,0.7142954327362324,0.9979736004439355
10,8,0.5,0.6482429288939427,7.603223984672902
10,8,0.25,0.6364966555183946,8.777851322227715
10,8,0.0,0.600329244192829,12.39459245478428
11,0,1.0,0.8275010332660137,0.0
11,0,0.75,0.825059339158052,0.24416941079616894
11,0,0.5,0.8277763720977522,-0.027533883173858076
11,0,0.25,0.8182404810353994,0.9260552230614283
11,0,0.0,0.7863378597940351,4.116317347197851
11,1,1.0,0.8275010332660137,0.0
11,1,0.75,0.8492838044462019,-2.178277118018823
11,1,0.5,0.8543709017158976,-2.6869868449883927
11,1,0.25,0.8288244717555256,-0.13234384895119966
11,1,0.0,0.7634925601717434,6.400847309427027
11,2,1.0,0.8275010332660137,0.0
11,2,0.75,0.8153130091589269,1.2188024107086748
11,2,0.5,0.8034132037188819,2.4087829547131734
11,2,0.25,0.7695693293813998,5.793170388461388
11,2,0.0,0.7396717452884854,8.78292879775282
11,3,1.0,0.8275010332660137,0.0
11,3,0.75,0.8393721441510047,-1.1871110884991043
11,3,0.5,0.8322798355673868,-0.4778802301373175
11,3,0.25,0.8147075277018412,1.279350556417247
11,3,0.0,0.7688650212132719,5.863601205274172
11,4,1.0,0.8275010332660137,0.0
11,4,0.75,0.8268538941272754,0.06471391387382619
11,4,0.5,0.8230597737481452,0.44412595178684455
11,4,0.25,0.8036154050053854,2.3885628260628233
11,4,0.0,0.7779901717359818,4.951086153003182
11,5,1.0,0.8275010332660137,0.0
11,5,0.75,0.8045470696322015,2.295396363381219
11,5,0.5,0.7328605834972157,9.464044976879793
11,5,0.25,0.6776343078280574,14.98667254379562
11,5,0.0,0.6461804853048486,18.132054796116503
11,6,1.0,0.8275010332660137,0.0
11,6,0.75,0.8284293770779388,-0.09283438119251919
11,6,0.5,0.8329944659233122,-0.5493432657298514
11,6,0.25,0.8345231555855105,-0.7022122319496837
11,6,0.0,0.8235557153329036,0.39453179331100374
11,7,1.0,0.8275010332660137,0.0
11,7,0.75,0.8319560860578346,-0.44550527918209015
11,7,0.5,0.8147336341272932,1.2767399138720492
11,7,0.25,0.759031080322744,6.8469952943269625
11,7,0.0,0.7099863709120272,11.751466235398645
11,8,1.0,0.8275010332660137,0.0
11,8,0.75,0.8306784410209234,-0.31774077549097113
11,8,0.5,0.8169209013820095,1.0580131884004196
11,8,0.25,0.7980278082644082,2.947322500160543
11,8,0.0,0.7645665723011569,6.2934460964856775
12,0,1.0,0.8268960591880793,0.0
12,0,0.75,0.8084551997997325,1.844085938834683
12,0,0.5,0.8052191200913285,2.1676939096750836
12,0,0.25,0.78060184084045,4.629421834762926
12,0,0.0,0.7691948513505242,5.770120783755505
12,1,1.0,0.8268960591880793,0.0
12,1,0.75,0.8250316170548391,0.18644421332402183
12,1,0.5,0.81657500429851,1.0321054889569248
12,1,0.25,0.7336232055775203,9.327285361055903
12,1,0.0,0.6868437310297776,14.00523281583017
12,2,1.0,0.8268960591880793,0.0
12,2,0.75,0.8338032934807128,-0.6907234292633513
12,2,0.5,0.8398418387665699,-1.2945779578490635
12,2,0.25,0.8266151996081165,0.028085957996282218
12,2,0.0,0.7661001920735537,6.079586711452556
12,3,1.0,0.8268960591880793,0.0
12,3,0.75,0.8213264896246584,0.5569569563420917
12,3,0.5,0.800266080662214,2.662997852586524
12,3,0.25,0.7495066945399711,7.73893646481082
12,3,0.0,0.6960997159216624,13.079634326641687
12,4,1.0,0.8268960591880793,0.0
12,4,0.75,0.7969125028349847,2.9983556353094576
12,4,0.5,0.7675186534872555,5.937740570082384
12,4,0.25,0.7110043923603245,11.589166682775476
12,4,0.0,0.6845055458985705,14.23905132895088
12,5,1.0,0.8268960591880793,0.0
12,5,0.75,0.8030192053155046,2.3876853872574655
12,5,0.5,0.798087855594575,2.8808203593504333
12,5,0.25,0.7396731359603013,8.722292322777802
12,5,0.0,0.6945499116592351,13.234614752884422
12,6,1.0,0.8268960591880793,0.0
12,6,0.75,0.8136826055726485,1.3213453615430804
12,6,0.5,0.8196994940347608,0.7196565153318457
12,6,0.25,0.8129476280306304,1.3948431157448926
12,6,0.0,0.7977633371075994,2.91327220804799
12,7,1.0,0.8268960591880793,0.0
12,7,0.75,0.8218549570523619,0.5041102135717401
12,7,0.5,0.8069571273796626,1.993893180841666
12,7,0.25,0.7833004366559881,4.3595622532091145
12,7,0.0,0.7400856946912994,8.681036449677993
12,8,1.0,0.8268960591880793,0.0
12,8,0.75,0.8436615828384848,-1.6765523650405512
12,8,0.5,0.8417445671032507,-1.484850791517145
12,8,0.25,0.8035777139544377,2.3318345233641624
12,8,0.0,0.7487346024117226,7.816145677635666
13,0,1.0,0.91250101555948,0.0
13,0,0.75,0.90443552087998,0.8065494679500018
13,0,0.5,0.8814746721937704,3.102634336570964
13,0,0.25,0.8157646542111117,9.673636134836839
13,0,0.0,0.7821908523843926,13.031016317508747
13,1,1.0,0.91250101555948,0.0
13,1,0.75,0.8955877030796957,1.6913312479784337
13,1,0.5,0.864481352848741,4.80196627107391
13,1,0.25,0.8509063442679918,6.159467129148821
13,1,0.0,0.841033674339301,7.1467341220179055
13,2,1.0,0.91250101555948,0.0
13,2,0.75,0.9206510528547498,-0.8150037295269752
13,2,0.5,0.9230998466549901,-1.0598831095510075
13,2,0.25,0.9102202334416926,0.22807821177874832
13,2,0.0,0.859625669086628,5.287534647285208
13,3,1.0,0.91250101555948,0.0
13,3,0.75,0.9153383811516904,-0.28373655922103724
13,3,0.5,0.9022009085985464,1.0300106960933642
13,3,0.25,0.8977105837752049,1.4790431784275193
13,3,0.0,0.8687072018809643,4.379381367851575
13,4,1.0,0.91250101555948,0.0
13,4,0.75,0.916207536315721,-0.3706520756241005
13,4,0.5,0.9131555960587896,-0.06545804993095539
13,4,0.25,0.9085019619297706,0.3999053629709426
13,4,0.0,0.8588855483924291,5.3615467167050905
13,5,1.0,0.91250101555948,0.0
13,5,0.75,0.9080376138899109,0.4463401669569156
13,5,0.5,0.8841541562909287,2.8346859268551294
13,5,0.25,0.8186861191342812,9.381489642519881
13,5,0.0,0.792430376402925,12.007063915655502
13,6,1.0,0.91250101555948,0.0
13,6,0.75,0.8973584745287608,1.5142541030719214
13,6,0.5,0.8871604518062242,2.5340563753255885
13,6,0.25,0.8713281036162207,4.117291194325934
13,6,0.0,0.8647821351761511,4.771888038332895
13,7,1.0,0.91250101555948,0.0
13,7,0.75,0.8879267155419809,2.457430001749916
13,7,0.5,0.8509465475928891,6.155446796659092
13,7,0.25,0.8093439362741143,10.315707928536577
13,7,0.0,0.7867624755682314,12.573853999124863
13,8,1.0,0.91250101555948,0.0
13,8,0.75,0.905929678287854,0.6571337271626065
13,8,0.5,0.8986413739320716,1.3859641627408492
13,8,0.25,0.8939597402435886,1.8541275315891448
13,8,0.0,0.8681412721871641,4.435974337231596
14,0,1.0,0.7603864266345501,0.0
14,0,0.75,0.7621126056523433,-0.17261790177931502
14,0,0.5,0.7403860728851632,2.000035374938691
14,0,0.25,0.7246929127851047,3.5693513849445413
14,0,0.0,0.7175583573040719,4.282806933047823
14,1,1.0,0.7603864266345501,0.0
14,1,0.75,0.75310447861844,0.7281948016110151
14,1,0.5,0.7482146550060289,1.2171771628521233
14,1,0.25,0.7271513296010437,3.3235097033506467
14,1,0.0,0.7109245099505793,4.946191668397082
14,2,1.0,0.7603864266345501,0.0
14,2,0.75,0.7502868879435702,1.0099538690979903
14,2,0.5,0.7226390423502739,3.7747384284276264
14,2,0.25,0.710998247493523,4.938817914102711
14,2,0.0,0.6866194034730939,7.376702316145622
14,3,1.0,0.7603864266345501,0.0
14,3,0.75,0.7553201302042988,0.506629643025136
14,3,0.5,0.7236245760188937,3.67618506156564
14,3,0.25,0.6953175084372644,6.506891819728578
14,3,0.0,0.6795228970873,8.086352954725019
14,4,1.0,0.7603864266345501,0.0
14,4,0.75,0.7731789029755851,-1.2792476341034975
14,4,0.5,0.7742309393845707,-1.3844512750020521
14,4,0.25,0.7546527093516507,0.5733717282899398
14,4,0.0,0.6992486023271418,6.113782430740833
14,5,1.0,0.7603864266345501,0.0
14,5,0.75,0.69788195332892,6.250447330563014
14,5,0.5,0.7000761903565782,6.031023627797194
14,5,0.25,0.675336468176645,8.504995845790509
14,5,0.0,0.6243408207558471,13.604560587870306
14,6,1.0,0.7603864266345501,0.0
14,6,0.75,0.758538058528956,0.18483681055941892
14,6,0.5,0.7576716367278911,0.27147899066590764
14,6,0.25,0.7426499930330419,1.7736433601508228
14,6,0.0,0.7422436818179649,1.8142744816585288
14,7,1.0,0.7603864266345501,0.0
14,7,0.75,0.7629121675687689,-0.25257409342187565
14,7,0.5,0.7541033096588652,0.6283116975684955
14,7,0.25,0.7502241931510225,1.0162233483527627
14,7,0.0,0.7392834561241365,2.1102970510413654
14,8,1.0,0.7603864266345501,0.0
14,8,0.75,0.7735135916714865,-1.312716503693634
14,8,0.5,0.757834363221789,0.2552063412761152
14,8,0.25,0.7376587072504076,2.272771938414253
14,8,0.0,0.6419413401396445,11.84450864949056
15,0,1.0,0.86594063205103,0.0
15,0,0.75,0.8774215321004443,-1.1480900049414267
15,0,0.5,0.8658346974920819,0.010593455894813975
15,0,0.25,0.8162218034128097,4.97188286382203
15,0,0.0,0.7863250586707785,7.961557338025149
15,1,1.0,0.86594063205103,0.0
15,1,0.75,0.8855092072286969,-1.9568575177666858
15,1,0.5,0.8478602013301767,1.8080430720853302
15,1,0.25,0.7957527350562866,7.018789699474337
15,1,0.0,0.7623548527115798,10.358577933945023
15,2,1.0,0.86594063205103,0.0
15,2,0.75,0.8486076843031789,1.7332947747851102
15,2,0.5,0.816750083972089,4.9190548078940965
15,2,0.25,0.7674388116613582,9.850182038967182
15,2,0.0,0.7262410290663184,13.969960298471163
15,3,1.0,0.86594063205103,0.0
15,3,0.75,0.8601418919806534,0.5798740070376618
15,3,0.5,0.8496463643435863,1.6294267707443688
15,3,0.25,0.8142707876753732,5.166984437565681
15,3,0.0,0.8026863312184058,6.325430083262418
15,4,1.0,0.86594063205103,0.0
15,4,0.75,0.8917379802694747,-2.5797348218444704
15,4,0.5,0.8990460217779738,-3.310538972694377
15,4,0.25,0.8451230950406882,2.0817537010341836
15,4,0.0,0.8200216216396827,4.591901041134728
15,5,1.0,0.86594063205103,0.0
15,5,0.75,0.87481397256942,-0.8873340518389949
15,5,0.5,0.8404866119571283,2.545402009390174
15,5,0.25,0.6015110077440566,26.442962430697335
15,5,0.0,0.563256583149151,30.268404890187906
15,6,1.0,0.86594063205103,0.0
15,6,0.75,0.8555242543306891,1.0416377720340875
15,6,0.5,0.8457016247942114,2.0239007256818597
15,6,0.25,0.8181786489793487,4.7761983071681335
15,6,0.0,0.7800949896667759,8.584564238425408
15,7,1.0,0.86594063205103,0.0
15,7,0.75,0.8572228494478218,0.8717782603208213
15,7,0.5,0.8275193844909987,3.842124756003129
15,7,0.25,0.8183161889364856,4.7624443114544395
15,7,0.0,0.7941370627742773,7.180356927675269
15,8,1.0,0.86594063205103,0.0
15,8,0.75,0.8737723314279003,-0.7831699376870338
15,8,0.5,0.8707332130728895,-0.4792581021859532
15,8,0.25,0.8474614282739018,1.8479203777128195
15,8,0.0,0.823316627590472,4.262400446055803
16,0,1.0,0.8513640741215224,0.0
16,0,0.75,0.8582138590203107,-0.6849784898788291
16,0,0.5,0.8413930451793425,0.9971028942179827
16,0,0.25,0.7785464471407706,7.281762698075179
16,0,0.0,0.7182164779292377,13.314759619228466
16,1,1.0,0.8513640741215224,0.0
16,1,0.75,0.8408093713182476,1.0554702803274751
16,1,0.5,0.8193152667258671,3.20488073956553
16,1,0.25,0.7661306923682318,8.523338175329053
16,1,0.0,0.7022855065073895,14.907856761413285
16,2,1.0,0.8513640741215224,0.0
16,2,0.75,0.8509958308423358,0.03682432791866086
16,2,0.5,0.8394885325011491,1.1875541620373298
16,2,0.25,0.7494951100917165,10.186896402980583
16,2,0.0,0.6946075689602115,15.675650516131089
16,3,1.0,0.8513640741215224,0.0
16,3,0.75,0.8492079234653088,0.21561506562135513
16,3,0.5,0.8357958110416381,1.5568263079884237
16,3,0.25,0.8220633580536556,2.930071606786677
16,3,0.0,0.7963413259280678,5.502274819345454
16,4,1.0,0.8513640741215224,0.0
16,4,0.75,0.8227833443232482,2.8580729798274196
16,4,0.5,0.8008974538441198,5.046662027740256
16,4,0.25,0.7579244379696065,9.343963615191587
16,4,0.0,0.701958535645131,14.940553847639137
16,5,1.0,0.8513640741215224,0.0
16,5,0.75,0.827015393934416,2.434868018710634
16,5,0.5,0.7650753828199931,8.628869130152928
16,5,0.25,0.7218030932941734,12.9560980827349
16,5,0.0,0.6725699150700285,17.879415905149386
16,6,1.0,0.8513640741215224,0.0
16,6,0.75,0.8534547743337112,-0.2090700212188823
16,6,0.5,0.8665067266764513,-1.514265255492897
16,6,0.25,0.8807022998888272,-2.9338225767304826
16,6,0.0,0.8878667992930139,-3.6502725171491557
16,7,1.0,0.8513640741215224,0.0
16,7,0.75,0.8583114034525091,-0.694732933098674
16,7,0.5,0.845560832089504,0.5803242032018319
16,7,0.25,0.8062847621373467,4.50793119841757
16,7,0.0,0.7625516343476855,8.88124397738369
16,8,1.0,0.8513640741215224,0.0
16,8,0.75,0.8485091673941753,0.28549067273471174
16,8,0.5,0.8335187893473239,1.7845284774198444
16,8,0.25,0.7900809416822837,6.128313243923866
16,8,0.0,0.7361553945909785,11.520867953054392
17,0,1.0,0.7852379209135342,0.0
17,0,0.75,0.7783418345302346,0.6896086383299527
17,0,0.5,0.7201083982716746,6.512952264185956
17,0,0.25,0.6959085207962562,8.932940011727798
17,0,0.0,0.6651686409560122,12.006927995752193
17,1,1.0,0.7852379209135342,0.0
17,1,0.75,0.7949890357204686,-0.9751114806934469
17,1,0.5,0.7965050172473626,-1.1267096333828386
17,1,0.25,0.7924714282629036,-0.723350734936945
17,1,0.0,0.7490952326873388,3.6142688226195374
17,2,1.0,0.7852379209135342,0.0
17,2,0.75,0.779464826131368,0.5773094782166144
17,2,0.5,0.7814840032306934,0.3753917682840724
17,2,0.25,0.7726136633281269,1.2624257585407306
17,2,0.0,0.7413097400617381,4.392818085179606
17,3,1.0,0.7852379209135342,0.0
17,3,0.75,0.7824946431303048,0.27432777832293587
17,3,0.5,0.7745790671114691,1.0658853802065105
17,3,0.25,0.760638586304082,2.4599334609452184
17,3,0.0,0.7377134701226463,4.752445079088785
17,4,1.0,0.7852379209135342,0.0
17,4,0.75,0.7842306968156503,0.10072240978838964
17,4,0.5,0.7689950567627901,1.6242864150744052
17,4,0.25,0.7464953747009226,3.874254621261153
17,4,0.0,0.7332531669600993,5.198475395343483
17,5,1.0,0.7852379209135342,0.0
17,5,0.75,0.7775145889915711,0.7723331921963061
17,5,0.5,0.7716348961069406,1.3603024806593589
17,5,0.25,0.6945421958782213,9.069572503531287
17,5,0.0,0.4557629042271921,32.9475016686342
17,6,1.0,0.7852379209135342,0.0
17,6,0.75,0.7921521034331814,-0.6914182519647261
17,6,0.5,0.7988155867847196,-1.3577665871185474
17,6,0.25,0.8060041591508709,-2.07662382373367
17,6,0.0,0.789746185278637,-0.45082643651028764
17,7,1.0,0.7852379209135342,0.0
17,7,0.75,0.7993473029214138,-1.410938200787959
17,7,0.5,0.7821377212846357,0.31001996288985145
17,7,0.25,0.7761141442726183,0.9123776640915904
17,7,0.0,0.7447680282192204,4.0469892694313785
17,8,1.0,0.7852379209135342,0.0
17,8,0.75,0.7700077588204588,1.5230162093075372
17,8,0.5,0.7577084246372671,2.7529496276267107
17,8,0.25,0.7383205312980224,4.691738961551173
17,8,0.0,0.6818918583208582,10.334606259267598
18,0,1.0,0.7455094614792942,0.0
18,0,0.75,0.7409208103977842,0.45886510815099646
18,0,0.5,0.7200280602694746,2.5481401209819565
18,0,0.25,0.6990284549809842,4.648100649830999
18,0,0.0,0.6783218562582424,6.718760522105183
18,1,1.0,0.7455094614792942,0.0
18,1,0.75,0.7305216939211673,1.4987767558126919
18,1,0.5,0.7339834529134291,1.1526008565865054
18,1,0.25,0.7230165821074911,2.249287937180311
18,1,0.0,0.712374641932653,3.3134819546641214
18,2,1.0,0.7455094614792942,0.0
18,2,0.75,0.7593472084694473,-1.3837746990153055
18,2,0.5,0.744874768722373,0.06346927569211847
18,2,0.25,0.7112922205299677,3.4217240949326544
18,2,0.0,0.6666436678326542,7.886579364664003
18,3,1.0,0.7455094614792942,0.0
18,3,0.75,0.7473046459333779,-0.17951844540836648
18,3,0.5,0.7100830209981942,3.5426440481099997
18,3,0.25,0.6746483315572804,7.086112992201377
18,3,0.0,0.6155126597811701,12.999680169812411
18,4,1.0,0.7455094614792942,0.0
18,4,0.75,0.7513919711082945,-0.5882509629000277
18,4,0.5,0.7556937106306668,-1.0184249151372615
18,4,0.25,0.6634638035497634,8.204565792953078
18,4,0.0,0.6254050412435506,12.010442023574363
18,5,1.0,0.7455094614792942,0.0
18,5,0.75,0.7349833890414821,1.0526072437812117
18,5,0.5,0.7020526278026521,4.34568336766421
18,5,0.25,0.6496965076867944,9.581295379249976
18,5,0.0,0.5667455907583808,17.876387072091337
18,6,1.0,0.7455094614792942,0.0
18,6,0.75,0.7521572540657131,-0.6647792586418899
18,6,0.5,0.7483575945556172,-0.2848133076323034
18,6,0.25,0.7504399374913179,-0.4930476012023677
18,6,0.0,0.7550404992539255,-0.9531037774631268
18,7,1.0,0.7455094614792942,0.0
18,7,0.75,0.7200846460525072,2.5424815426786984
18,7,0.5,0.7036948117812918,4.181464969800242
18,7,0.25,0.6587851765259649,8.672428495332928
18,7,0.0,0.6673299310328918,7.817953044640236
18,8,1.0,0.7455094614792942,0.0
18,8,0.75,0.7417523686940083,0.37570927852859093
18,8,0.5,0.7337988032651809,1.1710658214113323
18,8,0.25,0.688927345273994,5.658211620530018
18,8,0.0,0.6783250223629628,6.718443911633143
19,0,1.0,0.8530043616041059,0.0
19,0,0.75,0.8488781300038377,0.4126231600268149
19,0,0.5,0.8353348651578469,1.7669496446258925
19,0,0.25,0.8214757739787475,3.1528587625358373
19,0,0.0,0.7767265969554702,7.627776464863567
19,1,1.0,0.8530043616041059,0.0
19,1,0.75,0.8399274374788065,1.3076924125299372
19,1,0.5,0.8031551113737548,4.984925023035103
19,1,0.25,0.7787106505758387,7.429371102826721
19,1,0.0,0.7551515790831687,9.785278252093722
19,2,1.0,0.8530043616041059,0.0
19,2,0.75,0.8562240754684298,-0.32197138643239587
19,2,0.5,0.8351443072031306,1.7860054400975267
19,2,0.25,0.8217722546967152,3.1232106907390644
19,2,0.0,0.8090846962143313,4.391966538977455
19,3,1.0,0.8530043616041059,0.0
19,3,0.75,0.8346153166845979,1.838904491950799
19,3,0.5,0.7734751803020059,7.952918130209996
19,3,0.25,0.6924511083931373,16.05532532109686
19,3,0.0,0.657745093136164,19.525926846794185
19,4,1.0,0.8530043616041059,0.0
19,4,0.75,0.8594249369702197,-0.6420575366113845
19,4,0.5,0.8344755117685961,1.852884983550973
19,4,0.25,0.8057426326830082,4.72617289210977
19,4,0.0,0.7537519816517131,9.925237995239279
19,5,1.0,0.8530043616041059,0.0
19,5,0.75,0.8000108848066319,5.2993476797474015
19,5,0.5,0.7434646544430665,10.953970716103933
19,5,0.25,0.7010079349740154,15.19964266300905
19,5,0.0,0.6149142358887387,23.809012571536712
19,6,1.0,0.8530043616041059,0.0
19,6,0.75,0.8395012656929951,1.3503095911110763
19,6,0.5,0.8271942635095966,2.5810098094509293
19,6,0.25,0.8221716433907361,3.0832718213369747
19,6,0.0,0.7982277269140451,5.477663469006078
19,7,1.0,0.8530043616041059,0.0
19,7,0.75,0.8306203848885356,2.238397671557024
19,7,0.5,0.7870032415675821,6.600112003652381
19,7,0.25,0.7145128852374156,13.849147636669024
19,7,0.0,0.6469186422332798,20.60857193708261
19,8,1.0,0.8530043616041059,0.0
19,8,0.75,0.8543424176673067,-0.13380560632008098
19,8,0.5,0.8358362305219766,1.7168131082129223
19,8,0.25,0.8233620104015764,2.964235120252945
19,8,0.0,0.7568232052069968,9.618115639710911
20,0,1.0,0.7943788855148263,0.0
20,0,0.75,0.7933628114815956,0.10160740332306739
20,0,0.5,0.7939758622264941,0.04030232883321938
20,0,0.25,0.7495526368090086,4.482624870581764
20,0,0.0,0.7042585786385531,9.012030687627314
20,1,1.0,0.7943788855148263,0.0
20,1,0.75,0.7630381272175144,3.1340758297311866
20,1,0.5,0.7506663625983404,4.371252291648586
20,1,0.25,0.7383768837950196,5.600200171980663
20,1,0.0,0.7260019882970703,6.837689721775597
20,2,1.0,0.7943788855148263,0.0
20,2,0.75,0.7913280541866755,0.30508313281507604
20,2,0.5,0.8004473324674748,-0.6068446952648521
20,2,0.25,0.8094304416790766,-1.5051556164250357
20,2,0.0,0.7842614500547189,1.011743546010735
20,3,1.0,0.7943788855148263,0.0
20,3,0.75,0.7682712024102378,2.610768310458844
20,3,0.5,0.7420844455374422,5.229443997738404
20,3,0.25,0.742350346233611,5.202853928121531
20,3,0.0,0.7340687534949351,6.031013201989122
20,4,1.0,0.7943788855148263,0.0
20,4,0.75,0.8114501114293047,-1.7071225914478405
20,4,0.5,0.8223087068862194,-2.7929821371393104
20,4,0.25,0.8078894609839247,-1.3510575469098396
20,4,0.0,0.7572550644652554,3.7123821049570904
20,5,1.0,0.7943788855148263,0.0
20,5,0.75,0.8006289420618524,-0.625005654702615
20,5,0.5,0.8187929422023321,-2.4414056687505847
20,5,0.25,0.7833985415551905,1.0980343959635763
20,5,0.0,0.6919947006544128,10.238418486041345
20,6,1.0,0.7943788855148263,0.0
20,6,0.75,0.768022712035323,2.6356173479503253
20,6,0.5,0.7562281256992862,3.815075981554006
20,6,0.25,0.7353253246069202,5.905356090790603
20,6,0.0,0.7166279029304251,7.775098258440116
20,7,1.0,0.7943788855148263,0.0
20,7,0.75,0.7756885171574832,1.8690368357343057
20,7,0.5,0.7507835987625961,4.359528675223013
20,7,0.25,0.7007803961950754,9.35984893197509
20,7,0.0,0.659991567774781,13.43873177400453
20,8,1.0,0.7943788855148263,0.0
20,8,0.75,0.8114174655070256,-1.7038579992199376
20,8,0.5,0.7882811151627095,0.6097770352116783
20,8,0.25,0.7820605332800232,1.2318352234803043
20,8,0.0,0.7220620485225198,7.231683699230651
21,0,1.0,0.7483666795064619,0.0
21,0,0.75,0.7220710919060342,2.6295587600427606
21,0,0.5,0.6889692554464688,5.939742405999304
21,0,0.25,0.6541018644060133,9.426481510044859
21,0,0.0,0.6378656247605914,11.050105474587046
21,1,1.0,0.7483666795064619,0.0
21,1,0.75,0.7391678426629938,0.9198836843468006
21,1,0.5,0.7475881961176079,0.0778483388854001
21,1,0.25,0.7517186201300399,-0.335194062357802
21,1,0.0,0.7555738987555431,-0.7207219249081298
21,2,1.0,0.7483666795064619,0.0
21,2,0.75,0.7641824017896672,-1.581572228320538
21,2,0.5,0.7630953407659147,-1.4728661259452824
21,2,0.25,0.7502703660339579,-0.19036865274960624
21,2,0.0,0.710497956245399,3.786872326106283
21,3,1.0,0.7483666795064619,0.0
21,3,0.75,0.749814989263766,-0.14483097573041448
21,3,0.5,0.7445260895118119,0.3840589994649979
21,3,0.25,0.7286824493035082,1.9684230202953623
21,3,0.0,0.6820412663886273,6.6325413117834575
21,4,1.0,0.7483666795064619,0.0
21,4,0.75,0.743267257941171,0.5099421565290863
21,4,0.5,0.74392993237505,0.44367471314118445
21,4,0.25,0.7373533952286578,1.1013284277804014
21,4,0.0,0.7233904437116873,2.4976235794774593
21,5,1.0,0.7483666795064619,0.0
21,5,0.75,0.7456674532064007,0.26992263000611416
21,5,0.5,0.7415908477409526,0.6775831765509222
21,5,0.25,0.7104759149335165,3.789076457294538
21,5,0.0,0.638593832790033,10.977284671642884
21,6,1.0,0.7483666795064619,0.0
21,6,0.75,0.7523891860117907,-0.4022506505328871
21,6,0.5,0.7606185919343813,-1.2251912427919454
21,6,0.25,0.7622871237612754,-1.3920444254813535
21,6,0.0,0.7494446003006201,-0.10779207941582492
21,7,1.0,0.7483666795064619,0.0
21,7,0.75,0.7469985981943232,0.13680813121386137
21,7,0.5,0.7507844711766579,-0.24177916701960678
21,7,0.25,0.7679864718082664,-1.961979230180455
21,7,0.0,0.7608438796660552,-1.2477200159593305
21,8,1.0,0.7483666795064619,0.0
21,8,0.75,0.7298807263923544,1.84859531141075
21,8,0.5,0.7349291100710823,1.3437569435379548
21,8,0.25,0.724485749075913,2.388093043054884
21,8,0.0,0.7191485293907554,2.92181501157065
22,0,1.0,0.7368093091494448,0.0
22,0,0.75,0.7314621295940189,0.5347179555425852
22,0,0.5,0.7052561101561057,3.155319899333908
22,0,0.25,0.6957615276355635,4.104778151388122
22,0,0.0,0.6814781607146916,5.5331148434753175
22,1,1.0,0.7368093091494448,0.0
22,1,0.75,0.7172690537194915,1.9540255429953302
22,1,0.5,0.7030950582397527,3.3714250909692045
22,1,0.25,0.6937559531840538,4.305335596539095
22,1,0.0,0.681875181563864,5.4934127585580805
22,2,1.0,0.7368093091494448,0.0
22,2,0.75,0.7269598136059534,0.9849495543491349
22,2,0.5,0.6952458320979525,4.156347705149221
22,2,0.25,0.6436757356908472,9.313357345859751
22,2,0.0,0.6081031003049879,12.870620884445682
22,3,1.0,0.7368093091494448,0.0
22,3,0.75,0.7214271118830367,1.5382197266408104
22,3,0.5,0.6629186366045844,7.3890672544860365
22,3,0.25,0.620719050990618,11.609025815882678
22,3,0.0,0.5857929552786278,15.101635387081691
22,4,1.0,0.7368093091494448,0.0
22,4,0.75,0.7383427418188655,-0.15334326694207423
22,4,0.5,0.7247572438358074,1.205206531363734
22,4,0.25,0.7054747775803925,3.1334531569052304
22,4,0.0,0.6469868180798923,8.982249106955242
22,5,1.0,0.7368093091494448,0.0
22,5,0.75,0.6998636097812114,3.694569936823333
22,5,0.5,0.6244159246208426,11.239338452860215
22,5,0.25,0.5874259393982941,14.938336975115064
22,5,0.0,0.5451583533883542,19.16509557610906
22,6,1.0,0.7368093091494448,0.0
22,6,0.75,0.7423045478893832,-0.5495238739938402
22,6,0.5,0.7318291292082995,0.4980179941145302
22,6,0.25,0.7135246778660911,2.3284631283353674
22,6,0.0,0.699763572640786,3.704573650865872
22,7,1.0,0.7368093091494448,0.0
22,7,0.75,0.7026459326055636,3.416337654388113
22,7,0.5,0.6487667912339763,8.804251791546847
22,7,0.25,0.5917318963100702,14.50774128393746
22,7,0.0,0.5418153343959796,19.499397475346512
22,8,1.0,0.7368093091494448,0.0
22,8,0.75,0.7156464918904376,2.116281725900715
22,8,0.5,0.7025650530628155,3.4244256086629288
22,8,0.25,0.684174558557816,5.2634750591628805
22,8,0.0,0.6264236961328554,11.038561301658934
23,0,1.0,0.7380472125091024,0.0
23,0,0.75,0.74303226892654,-0.49850564174375167
23,0,0.5,0.7364180700161106,0.1629142492991842
23,0,0.25,0.6705274772751391,6.751973523396337
23,0,0.0,0.6170488605444765,12.099835196462594
23,1,1.0,0.7380472125091024,0.0
23,1,0.75,0.7476259801894289,-0.9578767680326505
23,1,0.5,0.7508773702365287,-1.283015772742624
23,1,0.25,0.7357971094916977,0.2250103017404692
23,1,0.0,0.7087944180416507,2.925279446745177
23,2,1.0,0.7380472125091024,0.0
23,2,0.75,0.735574420812662,0.2472791696440435
23,2,0.5,0.7217395617944479,1.6307650714654565
23,2,0.25,0.6942919114515931,4.3755301057509355
23,2,0.0,0.6521905493994151,8.585666310968731
23,3,1.0,0.7380472125091024,0.0
23,3,0.75,0.7447502507672251,-0.6703038258122684
23,3,0.5,0.7443849488146689,-0.6337736305566444
23,3,0.25,0.7124302374053478,2.5616975103754602
23,3,0.0,0.6694474939323957,6.859971857670677
23,4,1.0,0.7380472125091024,0.0
23,4,0.75,0.7129406446644481,2.510656784465437
23,4,0.5,0.6928000370881775,4.524717542092493
23,4,0.25,0.6439380668986916,9.410914561041084
23,4,0.0,0.6000962815546929,13.795093095440958
23,5,1.0,0.7380472125091024,0.0
23,5,0.75,0.6855131931875214,5.253401932158108
23,5,0.5,0.6359726921721316,10.207452033697084
23,5,0.25,0.5841292015201929,15.391801098890955
23,5,0.0,0.5473944750313919,19.06527374777105
23,6,1.0,0.7380472125091024,0.0
23,6,0.75,0.7189734948865261,1.907371762257637
23,6,0.5,0.6878453222512595,5.020189025784294
23,6,0.25,0.6689349817934781,6.911223071562434
23,6,0.0,0.6756123891288499,6.243482338025252
23,7,1.0,0.7380472125091024,0.0
23,7,0.75,0.7241670712883084,1.3880141220794062
23,7,0.5,0.7007122318232807,3.733498068582175
23,7,0.25,0.6527303439340152,8.531686857508724
23,7,0.0,0.5927359810568932,14.531123145220926
23,8,1.0,0.7380472125091024,0.0
23,8,0.75,0.7394536551364168,-0.14064426273143749
23,8,0.5,0.7505594413040937,-1.2512228794991254
23,8,0.25,0.7196096142744182,1.8437598234684272
23,8,0.0,0.6760724449106501,6.197476759845233
24,0,1.0,0.7155570591087171,0.0
24,0,0.75,0.7112651619456618,0.4291897163055336
24,0,0.5,0.6836031597792382,3.1953899329478896
24,0,0.25,0.6422880757952903,7.326898331342679
24,0,0.0,0.6049123610602231,11.06446980484941
24,1,1.0,0.7155570591087171,0.0
24,1,0.75,0.6930191529804649,2.253790612825224
24,1,0.5,0.6640897621170168,5.146729699170038
24,1,0.25,0.6426798680190371,7.287719108968005
24,1,0.0,0.6110426001533052,10.45144589554119
24,2,1.0,0.7155570591087171,0.0
24,2,0.75,0.6975379227058278,1.8019136402889324
24,2,0.5,0.69517917429032,2.0377884818397196
24,2,0.25,0.6589643401334164,5.659271897530072
24,2,0.0,0.6053655546020245,11.019150450669269
24,3,1.0,0.7155570591087171,0.0
24,3,0.75,0.7516190428871861,-3.606198377846892
24,3,0.5,0.7843508460325038,-6.879378692378668
24,3,0.25,0.7813613664320282,-6.580430732331111
24,3,0.0,0.7821839366761623,-6.662687756744512
24,4,1.0,0.7155570591087171,0.0
24,4,0.75,0.7370376264759875,-2.148056736727033
24,4,0.5,0.6999293649740667,1.5627694134650483
24,4,0.25,0.6903204368398539,2.523662226886325
24,4,0.0,0.6551891695245341,6.036788958418304
24,5,1.0,0.7155570591087171,0.0
24,5,0.75,0.6755152404895672,4.00418186191499
24,5,0.5,0.6089367387649842,10.662032034373292
24,5,0.25,0.5485849022621767,16.697215684654044
24,5,0.0,0.50397718208338,21.15798770253371
24,6,1.0,0.7155570591087171,0.0
24,6,0.75,0.703472571823933,1.2084487284784173
24,6,0.5,0.6751786702904021,4.037838881831501
24,6,0.25,0.6370099425379001,7.854711657081703
24,6,0.0,0.6151724527024811,10.038460640623603
24,7,1.0,0.7155570591087171,0.0
24,7,0.75,0.7077739962051743,0.7783062903542803
24,7,0.5,0.699450667194158,1.6106391914559093
24,7,0.25,0.6140552608678624,10.15017982408547
24,7,0.0,0.5617915872383776,15.376547187033951
24,8,1.0,0.7155570591087171,0.0
24,8,0.75,0.7280611469102591,-1.2504087801541997
24,8,0.5,0.7029972075254215,1.2559851583295645
24,8,0.25,0.680222124172633,3.5334934936084195
24,8,0.0,0.6641369357187435,5.142012338997359
25,0,1.0,0.7915679679545122,0.0
25,0,0.75,0.7760342835038418,1.5533684450670382
25,0,0.5,0.7515409625623435,4.002700539216875
25,0,0.25,0.7251505466272451,6.641742132726714
25,0,0.0,0.6900297491941572,10.153821876035508
25,1,1.0,0.7915679679545122,0.0
25,1,0.75,0.7805644007032537,1.1003567251258506
25,1,0.5,0.7561206557813019,3.544731217321029
25,1,0.25,0.7285137059325222,6.305426202199005
25,1,0.0,0.7012850733233271,9.028289463118512
25,2,1.0,0.7915679679545122,0.0
25,2,0.75,0.7724096816919677,1.9158286262544566
25,2,0.5,0.757382261275137,3.418570667937526
25,2,0.25,0.7192282173579314,7.233975059658082
25,2,0.0,0.6469120829261483,14.46558850283639
25,3,1.0,0.7915679679545122,0.0
25,3,0.75,0.7946450960122188,-0.30771280577065463
25,3,0.5,0.7843517462262447,0.7216221728267525
25,3,0.25,0.771274399972122,2.0293567982390237
25,3,0.0,0.7451726942651123,4.639527368939989
25,4,1.0,0.7915679679545122,0.0
25,4,0.75,0.7610337674577793,3.0534200496732944
25,4,0.5,0.7077152806829226,8.385268727158968
25,4,0.25,0.6411945105365501,15.037345741796216
25,4,0.0,0.5899976346404918,20.15703333140204
25,5,1.0,0.7915679679545122,0.0
25,5,0.75,0.7446758155989949,4.689215235551735
25,5,0.5,0.698130088350188,9.343787960432426
25,5,0.25,0.5968038009178562,19.4764167036656
25,5,0.0,0.5565801001877109,23.498786776680134
25,6,1.0,0.7915679679545122,0.0
25,6,0.75,0.7864788938831346,0.5089074071377597
25,6,0.5,0.768076097245811,2.349187070870118
25,6,0.25,0.7571871528638446,3.4380815090667594
25,6,0.0,0.7393847989373451,5.2183169017167135
25,7,1.0,0.7915679679545122,0.0
25,7,0.75,0.7938512801303397,-0.22833121758274455
25,7,0.5,0.7770620917184732,1.450587623603905
25,7,0.25,0.7441173337973137,4.745063415719852
25,7,0.0,0.6936171882146717,9.795077973984057
25,8,1.0,0.7915679679545122,0.0
25,8,0.75,0.8050638221912311,-1.349585423671884
25,8,0.5,0.8047415419326978,-1.3173573978185527
25,8,0.25,0.7977918346953294,-0.6223866740817208
25,8,0.0,0.7803809417357608,1.118702621875145
26,0,1.0,0.7032238706281341,0.0
26,0,0.75,0.6887299754914885,1.4493895136645563
26,0,0.5,0.6743067000513532,2.8917170576780893
26,0,0.25,0.6538024921254978,4.942137850263628
26,0,0.0,0.6280610675104128,7.516280311772128
26,1,1.0,0.7032238706281341,0.0
26,1,0.75,0.7160512214079524,-1.2827350779818336
26,1,0.5,0.7065081085420681,-0.3284237913934063
26,1,0.25,0.6925170952402802,1.0706775387853917
26,1,0.0,0.678182561902299,2.50413087258351
26,2,1.0,0.7032238706281341,0.0
26,2,0.75,0.7090591310231178,-0.5835260394983721
26,2,0.5,0.7033911746516789,-0.0167304023544812
26,2,0.25,0.6830776917858967,2.014617884223735
26,2,0.0,0.6596788451112682,4.35450255168659
26,3,1.0,0.7032238706281341,0.0
26,3,0.75,0.6935179588310935,0.9705911797040612
26,3,0.5,0.6934095012098093,0.9814369418324809
26,3,0.25,0.7029565208031261,0.026734982500797866
26,3,0.0,0.6750332211737742,2.8190649454359895
26,4,1.0,0.7032238706281341,0.0
26,4,0.75,0.6899820597039906,1.324181092414345
26,4,0.5,0.6766100512303574,2.661381939777663
26,4,0.25,0.62125079171584,8.19730789122941
26,4,0.0,0.6045611999969549,9.866267063117917
26,5,1.0,0.7032238706281341,0.0
26,5,0.75,0.6988612068289969,0.43626637991371897
26,5,0.5,0.6799750247460118,2.324884588212228
26,5,0.25,0.5768349956255927,12.638887500254137
26,5,0.0,0.5023000270502993,20.092384357783477
26,6,1.0,0.7032238706281341,0.0
26,6,0.75,0.6982915761686678,0.4932294459466302
26,6,0.5,0.6780336821788798,2.5190188449254247
26,6,0.25,0.6532584486790152,4.996542194911891
26,6,0.0,0.6373451601693885,6.587871045874561
26,7,1.0,0.7032238706281341,0.0
26,7,0.75,0.7111193380131269,-0.7895467384992805
26,7,0.5,0.695711153588417,0.7512717039717121
26,7,0.25,0.6814047773526121,2.1819093275522006
26,7,0.0,0.6447385034837876,5.848536714434649
26,8,1.0,0.7032238706281341,0.0
26,8,0.75,0.6932752325724576,0.9948638055676473
26,8,0.5,0.6807806989903908,2.244317163774323
26,8,0.25,0.6468071948543429,5.641667577379117
26,8,0.0,0.6171347357768036,8.608913485133051
27,0,1.0,0.8586905110643954,0.0
27,0,0.75,0.8645608442558556,-0.5870333191460131
27,0,0.5,0.8539345658773749,0.4755945187020494
27,0,0.25,0.827630421038662,3.10600900257334
27,0,0.0,0.7894785864221651,6.9211924642230365
27,1,1.0,0.8586905110643954,0.0
27,1,0.75,0.8454115903631165,1.3278920701278896
27,1,0.5,0.8375656939612726,2.112481710312286
27,1,0.25,0.8145194504644733,4.417106059992215
27,1,0.0,0.7933736714747027,6.5316839589692695
27,2,1.0,0.8586905110643954,0.0
27,2,0.75,0.850189626697183,0.8500884367212413
27,2,0.5,0.8164382552313587,4.225225583303671
27,2,0.25,0.7777240043070883,8.09665067573071
27,2,0.0,0.70223718527419,15.645332579020543
27,3,1.0,0.8586905110643954,0.0
27,3,0.75,0.8618786676437018,-0.3188156579306378
27,3,0.5,0.8640189178523614,-0.5328406787965978
27,3,0.25,0.8451975942369299,1.3492916827465562
27,3,0.0,0.6874674709610165,17.122304010337896
27,4,1.0,0.8586905110643954,0.0
27,4,0.75,0.8639058796886584,-0.5215368624262973
27,4,0.5,0.8373428266976822,2.1347684366713193
27,4,0.25,0.8282727672109417,3.041774385345375
27,4,0.0,0.8123602812040601,4.633022986033531
27,5,1.0,0.8586905110643954,0.0
27,5,0.75,0.8588867866915839,-0.019627562718849134
27,5,0.5,0.8473571241434178,1.1333386920977628
27,5,0.25,0.7696354175661385,8.90550934982569
27,5,0.0,0.6945514166271044,16.413909443729104
27,6,1.0,0.8586905110643954,0.0
27,6,0.75,0.8580197393600048,0.06707717043906714
27,6,0.5,0.8463830899884494,1.2307421075946068
27,6,0.25,0.833418984275944,2.527152678845146
27,6,0.0,0.8028144584468835,5.587605261751194
27,7,1.0,0.8586905110643954,0.0
27,7,0.75,0.8699927642560182,-1.1302253191622813
27,7,0.5,0.8718382306300867,-1.3147719565691274
27,7,0.25,0.8631922968824866,-0.4501785818091131
27,7,0.0,0.7603741524742957,9.831635859009968
27,8,1.0,0.8586905110643954,0.0
27,8,0.75,0.8577592283378956,0.09312827264997825
27,8,0.5,0.850409121908823,0.8281389155572416
27,8,0.25,0.8379783071292866,2.0712203935108864
27,8,0.0,0.7743613083073695,8.432920275702593
28,0,1.0,0.7786930762935701,0.0
28,0,0.75,0.7870919723551302,-0.8398896061560079
28,0,0.5,0.788908783203272,-1.021570690970186
28,0,0.25,0.7881811259447957,-0.9488049651225627
28,0,0.0,0.758244377957679,2.0448698335891136
28,1,1.0,0.7786930762935701,0.0
28,1,0.75,0.7789336209305588,-0.024054463698874873
28,1,0.5,0.7703309806769456,0.8362095616624488
28,1,0.25,0.7230854357585641,5.5607640535006
28,1,0.0,0.7005038700540801,7.8189206239489994
28,2,1.0,0.7786930762935701,0.0
28,2,0.75,0.7708655576881362,0.7827518605433847
28,2,0.5,0.7673789332989613,1.1314142994608756
28,2,0.25,0.7473686904979094,3.132438579566066
28,2,0.0,0.6910875794480759,8.760549684549424
28,3,1.0,0.7786930762935701,0.0
28,3,0.75,0.7858837885860176,-0.7190712292447499
28,3,0.5,0.8054269494221884,-2.67338731286183
28,3,0.25,0.8038635985156,-2.5170522222029867
28,3,0.0,0.6775729286496907,10.112014764387943
28,4,1.0,0.7786930762935701,0.0
28,4,0.75,0.7881930166313563,-0.9499940337786228
28,4,0.5,0.7760389765194771,0.2654099774093033
28,4,0.25,0.751123176810206,2.756989948336408
28,4,0.0,0.7272322752010701,5.146080109249995
28,5,1.0,0.7786930762935701,0.0
28,5,0.75,0.7521695725499282,2.6523503743641874
28,5,0.5,0.6800915064717121,9.860156982185798
28,5,0.25,0.5941634914551399,18.45295848384302
28,5,0.0,0.46108965447709727,31.76034218164728
28,6,1.0,0.7786930762935701,0.0
28,6,0.75,0.7704335380176781,0.8259538275891987
28,6,0.5,0.7514112936222074,2.728178267136272
28,6,0.25,0.736928653149649,4.176442314392115
28,6,0.0,0.711501593058564,6.719148323500612
28,7,1.0,0.7786930762935701,0.0
28,7,0.75,0.768221820228701,1.0471256064869094
28,7,0.5,0.7515012415394565,2.7191834754113575
28,7,0.25,0.7143553229741123,6.433775331945779
28,7,0.0,0.6772735556317119,10.141952066185823
28,8,1.0,0.7786930762935701,0.0
28,8,0.75,0.7995634459231289,-2.0870369629558794
28,8,0.5,0.7994159394464071,-2.0722863152837
28,8,0.25,0.8046530260335618,-2.5959949739991717
28,8,0.0,0.7313040092190466,4.738906707452351
29,0,1.0,0.7914176599662076,0.0
29,0,0.75,0.7774348172985773,1.398284266763028
29,0,0.5,0.755173512503337,3.6244147462870635
29,0,0.25,0.7092091104669866,8.220854949922096
29,0,0.0,0.6625331419846492,12.888451798155842
29,1,1.0,0.7914176599662076,0.0
29,1,0.75,0.7808857161491249,1.0531943817082667
29,1,0.5,0.7613832851015763,3.003437486463134
29,1,0.25,0.7310935995482748,6.032406041793282
29,1,0.0,0.709590589819914,8.182707014629365
29,2,1.0,0.7914176599662076,0.0
29,2,0.75,0.7890562101987674,0.2361449767440238
29,2,0.5,0.7821342860751728,0.9283373891034841
29,2,0.25,0.7752057809353174,1.6211879030890164
29,2,0.0,0.7446830968270489,4.673456313915869
29,3,1.0,0.7914176599662076,0.0
29,3,0.75,0.7869292691216055,0.4488390844602064
29,3,0.5,0.7838106544155901,0.7607005550617552
29,3,0.25,0.758945250741468,3.2472409224739596
29,3,0.0,0.7473801241865733,4.403753577963432
29,4,1.0,0.7914176599662076,0.0
29,4,0.75,0.7746433572075087,1.6774302758698956
29,4,0.5,0.7305881941797233,6.082946578648429
29,4,0.25,0.6961334596472241,9.528420031898355
29,4,0.0,0.6652286644852591,12.618899548094852
29,5,1.0,0.7914176599662076,0.0
29,5,0.75,0.7974813743127273,-0.6063714346519644
29,5,0.5,0.7707804160853324,2.063724388087518
29,5,0.25,0.6945979307733546,9.681972919285297
29,5,0.0,0.6524776048896714,13.894005507653617
29,6,1.0,0.7914176599662076,0.0
29,6,0.75,0.7947510843550676,-0.33334243888599735
29,6,0.5,0.7916678068451117,-0.02501468789041228
29,6,0.25,0.8025834184030906,-1.1165758436882944
29,6,0.0,0.7920477527241992,-0.06300927579916404
29,7,1.0,0.7914176599662076,0.0
29,7,0.75,0.8015513534033989,-1.0133693437191282
29,7,0.5,0.8114800140450429,-2.0062354078835276
29,7,0.25,0.7883045054307266,0.3113154535481
29,7,0.0,0.7515029476308763,3.991471233533128
29,8,1.0,0.7914176599662076,0.0
29,8,0.75,0.7841972406678289,0.7220419298378689
29,8,0.5,0.7544685543248011,3.694910564140652
29,8,0.25,0.7185305291450736,7.2887130821133965
29,8,0.0,0.6624724239932104,12.894523597299724
30,0,1.0,0.8142813957398102,0.0
30,0,0.75,0.8289581643489354,-1.4676768609125257
30,0,0.5,0.8349698267731054,-2.0688431033295207
30,0,0.25,0.8103583818764416,0.3923013863368574
30,0,0.0,0.7659051208836098,4.8376274856200325
30,1,1.0,0.8142813957398102,0.0
30,1,0.75,0.7965537908025508,1.7727604937259334
30,1,0.5,0.7581574065623221,5.6123989177488065
30,1,0.25,0.7490473373711373,6.5234058368672905
30,1,0.0,0.7280960884215244,8.618530731828578
30,2,1.0,0.8142813957398102,0.0
30,2,0.75,0.791606871636112,2.267452410369819
30,2,0.5,0.7811335796442408,3.3147816095569382
30,2,0.25,0.7376162761783136,7.666511956149657
30,2,0.0,0.7088545713831618,10.54268243566484
30,3,1.0,0.8142813957398102,0.0
30,3,0.75,0.8077992538826613,0.6482141857148904
30,3,0.5,0.7841637738345928,3.0117621905217384
30,3,0.25,0.7618935679573028,5.238782778250739
30,3,0.0,0.7424967446139106,7.17846511258996
30,4,1.0,0.8142813957398102,0.0
30,4,0.75,0.8050854014478211,0.9195994291989029
30,4,0.5,0.7953856325817914,1.8895763158018775
30,4,0.25,0.7685665137004043,4.5714882039405875
30,4,0.0,0.7583158781379997,5.596551760181045
30,5,1.0,0.8142813957398102,0.0
30,5,0.75,0.8167932809513258,-0.25118852115155743
30,5,0.5,0.812315319175047,0.19660765647632195
30,5,0.25,0.7463093844048032,6.797201133500696
30,5,0.0,0.6345272655541052,17.975413018570496
30,6,1.0,0.8142813957398102,0.0
30,6,0.75,0.819095898785583,-0.48145030457728
30,6,0.5,0.8168963800222632,-0.26149842824529923
30,6,0.25,0.8237705559569215,-0.9489160217111325
30,6,0.0,0.8188250814536697,-0.45436857138595466
30,7,1.0,0.8142813957398102,0.0
30,7,0.75,0.813149815337223,0.11315804025872067
30,7,0.5,0.7927425555307822,2.1538840209027965
30,7,0.25,0.723450746512083,9.08306492277272
30,7,0.0,0.6868218312537295,12.745956448608064
30,8,1.0,0.8142813957398102,0.0
30,8,0.75,0.81559685771601,-0.13154619761998054
30,8,0.5,0.7939454124161175,2.0335983323692686
30,8,0.25,0.7788751742560136,3.5406221483796574
30,8,0.0,0.7131990078489836,10.108238789082657
31,0,1.0,0.7504068549897279,0.0
31,0,0.75,0.7377355396093228,1.2671315380405113
31,0,0.5,0.7305946245952221,1.9812230394505859
31,0,0.25,0.7154017381996436,3.5005116790084334
31,0,0.0,0.6822251051193051,6.81817498704228
31,1,1.0,0.7504068549897279,0.0
31,1,0.75,0.7300058462107019,2.0401008779026064
31,1,0.5,0.6986062756242294,5.180057936549853
31,1,0.25,0.6867952031630022,6.361165182672568
31,1,0.0,0.6750706968332693,7.533615815645867
31,2,1.0,0.7504068549897279,0.0
31,2,0.75,0.7356777318501279,1.4729123139600064
31,2,0.5,0.7233008491843851,2.7106005805342837
31,2,0.25,0.7100688352938874,4.03380196958405
31,2,0.0,0.673810731510646,7.659612347908196
31,3,1.0,0.7504068549897279,0.0
31,3,0.75,0.7769798605907192,-2.6573005600991295
31,3,0.5,0.7796270560261594,-2.9220201036431526
31,3,0.25,0.7600414547090614,-0.9634599719333448
31,3,0.0,0.7607299409186201,-1.0323085928892195
31,4,1.0,0.7504068549897279,0.0
31,4,0.75,0.7472705658200691,0.31362891696588013
31,4,0.5,0.7308874445040111,1.9519410485716815
31,4,0.25,0.7143261757783772,3.608067921135072
31,4,0.0,0.6707920398875362,7.961481510219171
31,5,1.0,0.7504068549897279,0.0
31,5,0.75,0.767298485783568,-1.689163079384004
31,5,0.5,0.7521107576090778,-0.17039026193498286
31,5,0.25,0.7174632287066256,3.2943626283102323
31,5,0.0,0.699642699328004,5.076415566172388
31,6,1.0,0.7504068549897279,0.0
31,6,0.75,0.7371832773305834,1.3223577659144503
31,6,0.5,0.7357299974721812,1.467685751754677
31,6,0.25,0.7335484155675754,1.6858439422152482
31,6,0.0,0.7061229520809016,4.428390290882634
31,7,1.0,0.7504068549897279,0.0
31,7,0.75,0.7412584835958752,0.9148371393852717
31,7,0.5,0.7052510822688786,4.515577272084936
31,7,0.25,0.6707336795767904,7.967317541293751
31,7,0.0,0.6323785701872141,11.802828480251382
31,8,1.0,0.7504068549897279,0.0
31,8,0.75,0.7314778879353186,1.8928967054409274
31,8,0.5,0.7165361872068258,3.3870667782902153
31,8,0.25,0.6774834320582808,7.292342293144715
31,8,0.0,0.6288783263461843,12.152852864354358
32,0,1.0,0.7802908540629692,0.0
32,0,0.75,0.7605980733835844,1.9692780679384736
32,0,0.5,0.7439921984339917,3.6298655628977494
32,0,0.25,0.7060758597257535,7.421499433721568
32,0,0.0,0.6901145065085792,9.017634755438998
32,1,1.0,0.7802908540629692,0.0
32,1,0.75,0.7852463924659923,-0.49555384030230964
32,1,0.5,0.7656457772189413,1.4645076844027827
32,1,0.25,0.7205714879639048,5.971936609906436
32,1,0.0,0.667804829039673,11.248602502329618
32,2,1.0,0.7802908540629692,0.0
32,2,0.75,0.7732899812302381,0.7000872832731098
32,2,0.5,0.7623792205511888,1.7911633511780378
32,2,0.25,0.7353229786637976,4.4967875399171575
32,2,0.0,0.6878519753519754,9.243887871099377
32,3,1.0,0.7802908540629692,0.0
32,3,0.75,0.763718399871748,1.6572454191221109
32,3,0.5,0.7135075305246693,6.678332353829985
32,3,0.25,0.677599702940466,10.269115112250315
32,3,0.0,0.6614330637915543,11.885779027141485
32,4,1.0,0.7802908540629692,0.0
32,4,0.75,0.7595819883837738,2.0708865679195387
32,4,0.5,0.7249730480450367,5.531780601793246
32,4,0.25,0.6626202837773569,11.767057028561222
32,4,0.0,0.6511742308584199,12.91166232045493
32,5,1.0,0.7802908540629692,0.0
32,5,0.75,0.7931420188152181,-1.28511647522489
32,5,0.5,0.7730269887615788,0.7263865301390338
32,5,0.25,0.7401112154481896,4.017963861477957
32,5,0.0,0.6693175869049282,11.097326715804101
32,6,1.0,0.7802908540629692,0.0
32,6,0.75,0.7615133929046776,1.8777461158291597
32,6,0.5,0.7361190471156991,4.417180694727008
32,6,0.25,0.6989937749529618,8.12970791100074
32,6,0.0,0.6806073756565618,9.968347840640735
32,7,1.0,0.7802908540629692,0.0
32,7,0.75,0.7789339646840574,0.1356889378911763
32,7,0.5,0.7387786843304637,4.151216973250548
32,7,0.25,0.6503465272394494,12.994432682351976
32,7,0.0,0.5965876021839798,18.37032518789894
32,8,1.0,0.7802908540629692,0.0
32,8,0.75,0.7703669077609157,0.992394630205351
32,8,0.5,0.7537026867707255,2.658816729224367
32,8,0.25,0.7190964771495402,6.119437691342899
32,8,0.0,0.6509655814708832,12.932527259208593
33,0,1.0,0.8582354434530057,0.0
33,0,0.75,0.8463323231059297,1.190312034707608
33,0,0.5,0.8445376307399063,1.3697812713099444
33,0,0.25,0.8183457699370502,3.9889673515955515
33,0,0.0,0.7785267948783667,7.9708648574639
33,1,1.0,0.8582354434530057,0.0
33,1,0.75,0.8937574186415361,-3.5521975188530397
33,1,0.5,0.8865852683617852,-2.8349824908779464
33,1,0.25,0.8612494801090373,-0.30140366560316156
33,1,0.0,0.8256144613272479,3.2620982125757814
33,2,1.0,0.8582354434530057,0.0
33,2,0.75,0.8613883934126525,-0.3152949959646767
33,2,0.5,0.8594902709953194,-0.12548275423136523
33,2,0.25,0.8390414418324044,1.9194001620601364
33,2,0.0,0.7981980424866337,6.0037400966372
33,3,1.0,0.8582354434530057,0.0
33,3,0.75,0.8524254700426385,0.5809973410367264
33,3,0.5,0.8531122695329524,0.5123173920053348
33,3,0.25,0.8460348973060838,1.2200546146921898
33,3,0.0,0.8212655333052272,3.6969910147778506
33,4,1.0,0.8582354434530057,0.0
33,4,0.75,0.888014186843255,-2.977874339024922
33,4,0.5,0.9055845723292398,-4.734912887623411
33,4,0.25,0.8771610565202257,-1.892561306721996
33,4,0.0,0.8353935403965087,2.2841903056497026
33,5,1.0,0.8582354434530057,0.0
33,5,0.75,0.8634294651013943,-0.5194021648388558
33,5,0.5,0.8358173153437548,2.2418128109250923
33,5,0.25,0.8006665140493517,5.756892940365399
33,5,0.0,0.7657074407874762,9.252800266552953
33,6,1.0,0.8582354434530057,0.0
33,6,0.75,0.8467318824413181,1.150356101168759
33,6,0.5,0.8293922494927031,2.884319396030266
33,6,0.25,0.803224600636982,5.501084281602376
33,6,0.0,0.7869235685683613,7.131187488464441
33,7,1.0,0.8582354434530057,0.0
33,7,0.75,0.863610677533869,-0.5375234080863267
33,7,0.5,0.8451549949844921,1.308044846851364
33,7,0.25,0.8222800073765013,3.595543607650442
33,7,0.0,0.7708680582639085,8.736738518909725
33,8,1.0,0.8582354434530057,0.0
33,8,0.75,0.8768508846051093,-1.8615441152103562
33,8,0.5,0.8681135438112523,-0.9878100358246544
33,8,0.25,0.8479050960378132,1.0330347415192564
33,8,0.0,0.8121074130697219,4.612803038328384
34,0,1.0,0.8428134232130371,0.0
34,0,0.75,0.8370994391370297,0.5713984076007428
34,0,0.5,0.846360366139618,-0.3546942926580865
34,0,0.25,0.8245616637218384,1.8251759491198727
34,0,0.0,0.75488320030324,8.793022290979714
34,1,1.0,0.8428134232130371,0.0
34,1,0.75,0.8440748796318001,-0.1261456418762963
34,1,0.5,0.8299979427093538,1.2815480503683307
34,1,0.25,0.809836110264425,3.297731294861206
34,1,0.0,0.779540685138028,6.3272738075009105
34,2,1.0,0.8428134232130371,0.0
34,2,0.75,0.8521315865966069,-0.9318163383569833
34,2,0.5,0.8543545790410876,-1.1541155828050487
34,2,0.25,0.8496517577370644,-0.6838334524027267
34,2,0.0,0.839991797037025,0.28216261760121153
34,3,1.0,0.8428134232130371,0.0
34,3,0.75,0.8487478976188776,-0.5934474405840495
34,3,0.5,0.8376371144663827,0.5176308746654423
34,3,0.25,0.8329273726733667,0.9886050539670399
34,3,0.0,0.8199419304134153,2.287149279962175
34,4,1.0,0.8428134232130371,0.0
34,4,0.75,0.8322302217859967,1.058320142704039
34,4,0.5,0.8304505353348464,1.2362887878190731
34,4,0.25,0.8190037598700715,2.3809663342965637
34,4,0.0,0.7870770428714828,5.573638034155426
34,5,1.0,0.8428134232130371,0.0
34,5,0.75,0.8390267768388322,0.3786646374204894
34,5,0.5,0.8393338395964446,0.34795836165925076
34,5,0.25,0.7967320391498566,4.6081384063180515
34,5,0.0,0.7555939939341222,8.72194292789149
34,6,1.0,0.8428134232130371,0.0
34,6,0.75,0.8267649501843165,1.604847302872059
34,6,0.5,0.8204505068480304,2.2362916365006646
34,6,0.25,0.8063908757482927,3.642254746474438
34,6,0.0,0.7974071157686435,4.540630744439356
34,7,1.0,0.8428134232130371,0.0
34,7,0.75,0.8502909524307928,-0.7477529217755685
34,7,0.5,0.834311123405804,0.8502299807233049
34,7,0.25,0.8306551031438327,1.2158320069204365
34,7,0.0,0.8076472851781433,3.516613803489377
34,8,1.0,0.8428134232130371,0.0
34,8,0.75,0.84376911218384,-0.09556889708028926
34,8,0.5,0.8378976003040846,0.49158229089525385
34,8,0.25,0.8197017033276357,2.3111719885401394
34,8,0.0,0.7840896998746189,5.872372333841824
35,0,1.0,0.7278588203773675,0.0
35,0,0.75,0.7208424570470429,0.7016363330324626
35,0,0.5,0.7156584333912623,1.220038698610515
35,0,0.25,0.7111227389931694,1.6736081384198132
35,0,0.0,0.6879711893547165,3.9887631022651027
35,1,1.0,0.7278588203773675,0.0
35,1,0.75,0.7053942437697565,2.246457660761103
35,1,0.5,0.6933442630253623,3.451455735200515
35,1,0.25,0.687689798016176,4.016902236119146
35,1,0.0,0.660927386248744,6.693143412862346
35,2,1.0,0.7278588203773675,0.0
35,2,0.75,0.7270914958166385,0.07673245607290324
35,2,0.5,0.7179648929017675,0.9893927475600028
35,2,0.25,0.7064248568904559,2.1433963486911622
35,2,0.0,0.6937274221139862,3.4131398263381296
35,3,1.0,0.7278588203773675,0.0
35,3,0.75,0.7178953907051039,0.9963429672263602
35,3,0.5,0.7091191540325279,1.873966634483959
35,3,0.25,0.6995243094701052,2.8334510907262245
35,3,0.0,0.6733707908830124,5.448802949435505
35,4,1.0,0.7278588203773675,0.0
35,4,0.75,0.7196571980658524,0.8201622311515111
35,4,0.5,0.7124357844006135,1.5423035976753985
35,4,0.25,0.7149971912697553,1.2861629107612238
35,4,0.0,0.7017535435449862,2.6105276832381286
35,5,1.0,0.7278588203773675,0.0
35,5,0.75,0.7168156809998518,1.1043139377515665
35,5,0.5,0.7031503097832873,2.470851059408019
35,5,0.25,0.6922054843495944,3.5653336027773097
35,5,0.0,0.6805841067340314,4.7274713643336135
35,6,1.0,0.7278588203773675,0.0
35,6,0.75,0.7141235039170819,1.3735316460285585
35,6,0.5,0.7091534734370964,1.870534694027104
35,6,0.25,0.6867893040968103,4.106951628055722
35,6,0.0,0.683660365601127,4.419845477624051
35,7,1.0,0.7278588203773675,0.0
35,7,0.75,0.7280113198487198,-0.015249947135231867
35,7,0.5,0.7247775564019459,0.3081263975421633
35,7,0.25,0.7038804622095709,2.3978358167796587
35,7,0.0,0.6884455776590213,3.941324271834623
35,8,1.0,0.7278588203773675,0.0
35,8,0.75,0.7210587179702364,0.6800102407131137
35,8,0.5,0.7079726603212245,1.9886160056142965
35,8,0.25,0.6946828109307931,3.3176009446574395
35,8,0.0,0.6697560189968632,5.810280138050428
36,0,1.0,0.717484520762008,0.0
36,0,0.75,0.6890208752994289,2.846364546257907
36,0,0.5,0.6567376171756458,6.074690358636214
36,0,0.25,0.6377131044370482,7.977141632495977
36,0,0.0,0.6223190996298472,9.516542113216076
36,1,1.0,0.717484520762008,0.0
36,1,0.75,0.704468962679167,1.301555808284094
36,1,0.5,0.699312174170112,1.8172346591895927
36,1,0.25,0.6857299273835842,3.175459337842379
36,1,0.0,0.647670365995888,6.981415476611996
36,2,1.0,0.717484520762008,0.0
36,2,0.75,0.7169123717852574,0.05721489767506194
36,2,0.5,0.7048915466014246,1.259297416058336
36,2,0.25,0.6879761093901944,2.950841137181359
36,2,0.0,0.6464015364694241,7.108298429258387
36,3,1.0,0.717484520762008,0.0
36,3,0.75,0.7061786392878829,1.1305881474125035
36,3,0.5,0.6919795379575137,2.5504982804494314
36,3,0.25,0.6820264987326011,3.5458022029406844
36,3,0.0,0.6486160153471183,6.886850541488965
36,4,1.0,0.717484520762008,0.0
36,4,0.75,0.719347494933489,-0.18629741714810688
36,4,0.5,0.7168740091453429,0.06105116166650326
36,4,0.25,0.7056314266243996,1.1853094137608378
36,4,0.0,0.6976787824521269,1.9805738309881082
36,5,1.0,0.717484520762008,0.0
36,5,0.75,0.727088907962948,-0.9604387200940034
36,5,0.5,0.7325662813200826,-1.5081760558074642
36,5,0.25,0.7237288720117064,-0.6244351249698465
36,5,0.0,0.6997242077513615,1.7760313010646511
36,6,1.0,0.717484520762008,0.0
36,6,0.75,0.7085596845037956,0.8924836258212387
36,6,0.5,0.6859181661750231,3.156635458698487
36,6,0.25,0.6763565914534082,4.112792930859976
36,6,0.0,0.6477275260579918,6.9756994704016195
36,7,1.0,0.717484520762008,0.0
36,7,0.75,0.7059577155074049,1.1526805254603034
36,7,0.5,0.6692550609103769,4.822945985163107
36,7,0.25,0.6459664433814897,7.151807738051829
36,7,0.0,0.5987383744394188,11.874614632258918
36,8,1.0,0.717484520762008,0.0
36,8,0.75,0.6988392761839777,1.8645244578030296
36,8,0.5,0.6897426858501705,2.774183491183746
36,8,0.25,0.6658567967587257,5.1627724003282305
36,8,0.0,0.6311242710260943,8.636024973591372
37,0,1.0,0.88835934799337,0.0
37,0,0.75,0.8754649607335655,1.2894387259804518
37,0,0.5,0.8718189842934327,1.6540363699937277
37,0,0.25,0.8385838436897346,4.977550430363542
37,0,0.0,0.791408218261728,9.6951129731642
37,1,1.0,0.88835934799337,0.0
37,1,0.75,0.8825222617135908,0.5837086279779191
37,1,0.5,0.8875457862306203,0.08135617627497149
37,1,0.25,0.8759086698264658,1.245067816690426
37,1,0.0,0.8479420692493698,4.041727874400025
37,2,1.0,0.88835934799337,0.0
37,2,0.75,0.88672784051254,0.16315074808299634
37,2,0.5,0.8724403177763626,1.5919030217007468
37,2,0.25,0.8155646889337738,7.279465905959626
37,2,0.0,0.7771745639739341,11.118478401943587
37,3,1.0,0.88835934799337,0.0
37,3,0.75,0.8843568258270684,0.4002522166301592
37,3,0.5,0.8840057378518917,0.43536101414782813
37,3,0.25,0.8831743880004196,0.5184959992950433
37,3,0.0,0.8579211269132778,3.04382210800922
37,4,1.0,0.88835934799337,0.0
37,4,0.75,0.8864384750621136,0.19208729312564232
37,4,0.5,0.8746635310719577,1.3695816921412307
37,4,0.25,0.8414334550463665,4.692589294700356
37,4,0.0,0.7971238671429962,9.123548085037381
37,5,1.0,0.88835934799337,0.0
37,5,0.75,0.8939000354114607,-0.5540687418090662
37,5,0.5,0.8440862963125813,4.427305168078877
37,5,0.25,0.8035074567239049,8.485189126946512
37,5,0.0,0.781400402170333,10.6958945823037
37,6,1.0,0.88835934799337,0.0
37,6,0.75,0.8836681046196602,0.46912433737098524
37,6,0.5,0.8859039383609102,0.24554096324598262
37,6,0.25,0.8793199172117812,0.9039430781588864
37,6,0.0,0.8535442195707685,3.4815128422601482
37,7,1.0,0.88835934799337,0.0
37,7,0.75,0.8715020691602794,1.6857278833090628
37,7,0.5,0.8404125109068511,4.794683708651892
37,7,0.25,0.8211732851162138,6.718606287715623
37,7,0.0,0.7982560811854054,9.010326680796465
37,8,1.0,0.88835934799337,0.0
37,8,0.75,0.866567295203753,2.1792052789617045
37,8,0.5,0.8542000104920153,3.415933750135469
37,8,0.25,0.830476103129709,5.788324486366103
37,8,0.0,0.8195382057964756,6.88211421968944
38,0,1.0,0.7646124701858463,0.0
38,0,0.75,0.7616985237669986,0.29139464188476794
38,0,0.5,0.7436348986463118,2.09775715395345
38,0,0.25,0.7216676129388866,4.294485724695973
38,0,0.0,0.6817076212847215,8.29048489011248
38,1,1.0,0.7646124701858463,0.0
38,1,0.75,0.7606726938959986,0.3939776289847763
38,1,0.5,0.7530055156565187,1.1606954529327584
38,1,0.25,0.7150917166385349,4.952075354731145
38,1,0.0,0.6905432884834861,7.406918170236021
38,2,1.0,0.7646124701858463,0.0
38,2,0.75,0.7398726663463775,2.4739803839468832
38,2,0.5,0.7146658402277091,4.994662995813726
38,2,0.25,0.6839076009276425,8.070486925820386
38,2,0.0,0.6463329421453092,11.827952804053709
38,3,1.0,0.7646124701858463,0.0
38,3,0.75,0.767910510978585,-0.32980407927386546
38,3,0.5,0.784459479899496,-1.9847009713649721
38,3,0.25,0.7772269202964632,-1.2614450110616904
38,3,0.0,0.7248620398061631,3.9750430379683177
38,4,1.0,0.7646124701858463,0.0
38,4,0.75,0.7650896280289453,-0.047715784309898535
38,4,0.5,0.7317765567765567,3.2835913409289597
38,4,0.25,0.6893051606481879,7.530730953765841
38,4,0.0,0.6283438067333869,13.626866345245947
38,5,1.0,0.7646124701858463,0.0
38,5,0.75,0.7042885325820623,6.032393760378407
38,5,0.5,0.5903451747850623,17.4267295400784
38,5,0.25,0.5479734702815645,21.66389999042818
38,5,0.0,0.5409055070677835,22.37069631180628
38,6,1.0,0.7646124701858463,0.0
38,6,0.75,0.7493707477257769,1.5241722460069385
38,6,0.5,0.7289106964292139,3.5701773756632416
38,6,0.25,0.7140323935593283,5.058007662651798
38,6,0.0,0.7216600199401795,4.295245024566685
38,7,1.0,0.7646124701858463,0.0
38,7,0.75,0.7703846106831183,-0.5772140497271927
38,7,0.5,0.7810197086850295,-1.640723849918313
38,7,0.25,0.7764567205783228,-1.1844250392476496
38,7,0.0,0.7303501655977153,3.4262304588131065
38,8,1.0,0.7646124701858463,0.0
38,8,0.75,0.7849964014761347,-2.038393129028837
38,8,0.5,0.7716808823882624,-0.7068412202416052
38,8,0.25,0.7580122208915805,0.6600249294265836
38,8,0.0,0.7417753495417536,2.283712064409271
39,0,1.0,0.7664347748684046,0.0
39,0,0.75,0.7437638975948292,2.267087727357542
39,0,0.5,0.722332705045471,4.410206982293364
39,0,0.25,0.6793512109648423,8.708356390356231
39,0,0.0,0.6597751653590973,10.665960950930732
39,1,1.0,0.7664347748684046,0.0
39,1,0.75,0.7581078046768903,0.8326970191514294
39,1,0.5,0.7399894476623107,2.644532720609394
39,1,0.25,0.7335713034687348,3.286347139966983
39,1,0.0,0.7295832263458504,3.6851548522554234
39,2,1.0,0.7664347748684046,0.0
39,2,0.75,0.7660792979882785,0.035547688012615986
39,2,0.5,0.748476745513646,1.7958029354758653
39,2,0.25,0.7315616495534123,3.4873125314992315
39,2,0.0,0.7104186516831515,5.601612318525307
39,3,1.0,0.7664347748684046,0.0
39,3,0.75,0.7476384399006876,1.8796334967717043
39,3,0.5,0.7067832463629072,5.965152850549737
39,3,0.25,0.6759759728978543,9.045880197055034
39,3,0.0,0.6432603040052257,12.31744708631789
39,4,1.0,0.7664347748684046,0.0
39,4,0.75,0.7705565526420015,-0.4121777773596902
39,4,0.5,0.767504432549996,-0.10696576815913961
39,4,0.25,0.7416972611428811,2.4737513725523463
39,4,0.0,0.6666405505228815,9.97942243455231
39,5,1.0,0.7664347748684046,0.0
39,5,0.75,0.7589465446891037,0.7488230179300892
39,5,0.5,0.738380286177038,2.805448869136662
39,5,0.25,0.6648404241122942,10.159435075611045
39,5,0.0,0.5284258450248658,23.800892984353883
39,6,1.0,0.7664347748684046,0.0
39,6,0.75,0.7702467774762551,-0.38120026078505287
39,6,0.5,0.7683726614271752,-0.1937886558770585
39,6,0.25,0.7598937011622453,0.6541073706159306
39,6,0.0,0.7611319162577881,0.5302858610616523
39,7,1.0,0.7664347748684046,0.0
39,7,0.75,0.7553734535376165,1.1061321330788076
39,7,0.5,0.7809711202568345,-1.453634538842985
39,7,0.25,0.7462622908200371,2.0172484048367467
39,7,0.0,0.7133965804163044,5.3038194452100225
39,8,1.0,0.7664347748684046,0.0
39,8,0.75,0.7658278726684111,0.06069021999934865
39,8,0.5,0.7698267558464927,-0.3391980978088127
39,8,0.25,0.731811867538238,3.4622907330166597
39,8,0.0,0.7227670229349099,4.36677519334947
40,0,1.0,0.7609335877349094,0.0
40,0,0.75,0.762764687957503,-0.18311002225935846
40,0,0.5,0.7500386174358373,1.0894970299072049
40,0,0.25,0.7250596950239074,3.5873892711001942
40,0,0.0,0.6994581161247828,6.147547161012657
40,1,1.0,0.7609335877349094,0.0
40,1,0.75,0.753171147779512,0.7762439955397382
40,1,0.5,0.7543278961290293,0.6605691605880093
40,1,0.25,0.7530857233671564,0.7847864367752977
40,1,0.0,0.7582931399263905,0.26404478085189087
40,2,1.0,0.7609335877349094,0.0
40,2,0.75,0.7638866183131922,-0.2953030578282778
40,2,0.5,0.7544655445896369,0.6468043145272495
40,2,0.25,0.7584907031664931,0.2442884568416237
40,2,0.0,0.7372772340685134,2.3656353666395957
40,3,1.0,0.7609335877349094,0.0
40,3,0.75,0.7627391011445949,-0.18055134096854886
40,3,0.5,0.7588201555592861,0.211343217562332
40,3,0.25,0.7589368560393076,0.19967316956017722
40,3,0.0,0.7496102621715526,1.13233255633568
40,4,1.0,0.7609335877349094,0.0
40,4,0.75,0.7565761158200928,0.4357471914816613
40,4,0.5,0.7698700219576506,-0.8936434222741263
40,4,0.25,0.7776409339161152,-1.670734618120584
40,4,0.0,0.7676494183298201,-0.6715830594910766
40,5,1.0,0.7609335877349094,0.0
40,5,0.75,0.7725792109474743,-1.1645623212564904
40,5,0.5,0.7728494672355671,-1.1915879500657756
40,5,0.25,0.7637760091107763,-0.2842421375866877
40,5,0.0,0.7492717238746769,1.166186386023249
40,6,1.0,0.7609335877349094,0.0
40,6,0.75,0.7577047625900437,0.3228825144865666
40,6,0.5,0.7459152031554782,1.5018384579431165
40,6,0.25,0.7406690757612384,2.0264511973670962
40,6,0.0,0.7152211364789595,4.5712451255949915
40,7,1.0,0.7609335877349094,0.0
40,7,0.75,0.7515426032199362,0.9390984514973222
40,7,0.5,0.7471756593607493,1.3757928374160122
40,7,0.25,0.7175327041181112,4.3400883616798165
40,7,0.0,0.6483779478443998,11.255563989050954
40,8,1.0,0.7609335877349094,0.0
40,8,0.75,0.74997471065286,1.0958877082049345
40,8,0.5,0.7407593406636147,2.017424707129467
40,8,0.25,0.6719246402513129,8.900894748359644
40,8,0.0,0.6184614458109838,14.247214192392555
