subject,channel,r,f1_drop_mean,f1_drop_sd
1,0,5,0.09201478037117321,0.006896735590418064
1,1,5,0.047644165632144776,0.010830104948249096
1,2,5,0.08491693240852197,0.007092019719839099
1,3,5,0.1156049683272147,0.013628556843594144
1,4,5,0.06447574108556667,0.012295701978005013
1,5,5,0.0941454338452137,0.010757686750731176
1,6,5,0.07235439381394052,0.006423517202918098
1,7,5,0.10444002036481867,0.005391917427798783
1,8,5,0.12974655980086186,0.01287300749759546
2,0,5,0.12920782450740279,0.012169019661201692
2,1,5,0.14724532723571476,0.01322970398293351
2,2,5,0.11340300469043182,0.014875543880180085
2,3,5,0.079481512403872,0.020777299604191647
2,4,5,0.11269503386577566,0.016819163733483578
2,5,5,0.12366963720493458,0.011193437961647195
2,6,5,0.0723728843058025,0.015934379508927867
2,7,5,0.1800284727092914,0.018280762702644688
2,8,5,0.10567500395779661,0.020281936368800102
3,0,5,0.15504031018954237,0.020566696590330516
3,1,5,0.15113698607718568,0.015199449012660257
3,2,5,0.21149570516042657,0.014207051834411009
3,3,5,0.2181549590828804,0.016343883265750373
3,4,5,0.12726990454797757,0.011869445401654665
3,5,5,0.19803476349182558,0.012077162827910213
3,6,5,0.06914868450614672,0.0062527105235647765
3,7,5,0.1480903171026167,0.017133840465904687
3,8,5,0.16159870877819132,0.0038006140097378953
4,0,5,0.11486442259275106,0.010528032517866357
4,1,5,0.15019555891568112,0.018371700789317973
4,2,5,0.1618490445409351,0.012889018359032944
4,3,5,0.1325342847376005,0.004488706919672644
4,4,5,0.030296241809185998,0.008350187104316982
4,5,5,0.09287044953564502,0.018548084833428926
4,6,5,0.044894840987092,0.017809943855821107
4,7,5,0.12885262952696935,0.009919221056656222
4,8,5,0.11692343657395794,0.005916595605470788
5,0,5,0.06911596705142638,0.01931720925290219
5,1,5,0.10599680101674239,0.014968319319383402
5,2,5,0.07568368797614711,0.00975848400437422
5,3,5,0.0949416572967555,0.02316236284028648
5,4,5,0.07850752573397955,0.020364435587391636
5,5,5,0.09355183626901217,0.0009611982870597603
5,6,5,0.04531044344288824,0.00900464223237849
5,7,5,0.0747813302560284,0.0065361529411291225
5,8,5,0.13067678827860524,0.013468812432108679
6,0,5,0.09280345939494343,0.015094916109676277
6,1,5,0.11355099772681698,0.01425348962760946
6,2,5,0.09097332146379138,0.017038886476288
6,3,5,0.054935129401619556,0.017252069692204382
6,4,5,0.17309532297130792,0.010001779837459259
6,5,5,0.12590901842728303,0.015736744456131598
6,6,5,0.1364067556892121,0.02220128200344586
6,7,5,0.17728261600653872,0.004373633057818433
6,8,5,0.12073686233275698,0.011197378831886453
7,0,5,0.09127790638127198,0.0077149031341622
7,1,5,0.11400582997906224,0.026172992964945258
7,2,5,0.16981542986155568,0.012535546404713157
7,3,5,0.09893100384099526,0.019725167847868232
7,4,5,0.09558015860812577,0.01687014805361638
7,5,5,0.1286944357427874,0.019185313444359187
7,6,5,0.0585346118512007,0.008187030969794475
7,7,5,0.1630728672408766,0.0048881164163528425
7,8,5,0.16787747457316243,0.01874268764346933
8,0,5,0.12667890481691935,0.008558462253028252
8,1,5,0.11828869958267929,0.014037915668424179
8,2,5,0.04278716499065842,0.014163991395397198
8,3,5,0.11476813452500978,0.0076043408169151165
8,4,5,0.11464870753989824,0.01011974728742571
8,5,5,0.22021063320291293,0.020075680719559667
8,6,5,0.06873878526756191,0.021304879699876864
8,7,5,0.16277299484913887,0.016699044772984048
8,8,5,0.178795540293465,0.0183699273898501
9,0,5,0.09449244376412598,0.01318698833412338
9,1,5,0.14110303290188317,0.009399536391775888
9,2,5,0.15782473296646315,0.02226109506903201
9,3,5,0.06413713881394886,0.014999382316912177
9,4,5,0.07925419705484889,0.012245080299508427
9,5,5,0.15643535515346724,0.015445398572854853
9,6,5,0.042548707417878306,0.012790803284139443
9,7,5,0.15035965951603084,0.005818249985671053
9,8,5,0.13072478655728467,0.02301738967927328
10,0,5,0.18877899909501838,0.03396297637083177
10,1,5,0.08981022047369239,0.013499896787475443
10,2,5,0.05307889546292466,0.014259887082000827
10,3,5,0.1472970883988346,0.015001053289634362
10,4,5,0.07538965340376307,0.012292688600511215
10,5,5,0.11770055504484338,0.011596562587656727
10,6,5,0.033348889211484004,0.01786682396380683
10,7,5,0.13049558521974056,0.012370706339666205
10,8,5,0.16276960944625615,0.005579200497904886
11,0,5,0.08379597879303642,0.01510387195451083
11,1,5,0.19115629691596156,0.00729068504216452
11,2,5,0.1317572090496031,0.009658264288004231
11,3,5,0.12696714540698043,0.013729565995979824
11,4,5,0.09829892581818997,0.016972255166740977
11,5,5,0.11570209214022091,0.022022928409118073
11,6,5,0.032139288441725554,0.008289512783299468
11,7,5,0.16866946934804278,0.016123580729604996
11,8,5,0.15198288047874903,0.004061943040875335
12,0,5,0.0397869005847022,0.009807574394881741
12,1,5,0.13194567335876684,0.0156872357215174
12,2,5,0.17243581745903608,0.013149620529480424
12,3,5,0.14922675499479515,0.02606175966633735
12,4,5,0.10946534103051853,0.028274016082523175
12,5,5,0.05723966161192846,0.011183201248740126
12,6,5,0.03518818786887192,0.014827065654736904
12,7,5,0.15418118965725608,0.01869130888963275
12,8,5,0.07711001942243856,0.009962200005860468
13,0,5,0.14201171622532485,0.005549113665016669
13,1,5,0.1282985412288266,0.013095032066011111
13,2,5,0.16860279280018126,0.010533483444373161
13,3,5,0.08063708534832678,0.00376260947958493
13,4,5,0.10528223858531285,0.011987488714061724
13,5,5,0.17264951540127033,0.015181425892884431
13,6,5,0.05297973543577761,0.007977001014996949
13,7,5,0.15215533371845413,0.005021850918888635
13,8,5,0.10860724005588185,0.016481033664519463
14,0,5,0.1392788153322236,0.010883800261740323
14,1,5,0.07517974354116279,0.007297808678019807
14,2,5,0.10032469990337803,0.014289155432251502
14,3,5,0.11028776614375177,0.01715003357346526
14,4,5,0.06591777552583722,0.007051318401597869
14,5,5,0.08922397271733781,0.01093407565953799
14,6,5,0.0210053009696733,0.007753204116825093
14,7,5,0.11057280901525839,0.014829999121380055
14,8,5,0.13393985136123504,0.011360810858592063
15,0,5,0.1626120108007546,0.02284554875882286
15,1,5,0.14177281800097055,0.010829211693108498
15,2,5,0.1700080941647322,0.00349678681577766
15,3,5,0.12201813224280345,0.018242288470731317
15,4,5,0.09270432613598775,0.01682045901003227
15,5,5,0.22651998937624337,0.008741657665936799
15,6,5,0.08953319683235035,0.013877881230477116
15,7,5,0.11571690887316048,0.012171196466944612
15,8,5,0.15297830556813374,0.028756421027860517
16,0,5,0.1307082531297698,0.00980620536728611
16,1,5,0.14217442546542472,0.007263646817418992
16,2,5,0.17136448456826908,0.01332051746012378
16,3,5,0.11933130346532114,0.019507651827368647
16,4,5,0.11683584405411673,0.018889177205190365
16,5,5,0.1435676511665729,0.012464516091387563
16,6,5,0.008813167638964203,0.00545914028822298
16,7,5,0.15453449666479252,0.014560532689211654
16,8,5,0.15448461710988923,0.016574214028047075
17,0,5,0.17155518050997962,0.009202370578381018
17,1,5,0.11517134187705177,0.010430378798277663
17,2,5,0.12316330572791796,0.00703127455745653
17,3,5,0.13877257535907453,0.011036580352164913
17,4,5,0.1450488131529646,0.00803020274293579
17,5,5,0.19423101884118993,0.012935747711631501
17,6,5,0.07131553085973823,0.01048312629115843
17,7,5,0.11595871574164007,0.010044892963997408
17,8,5,0.15868268447745393,0.00963853807214085
18,0,5,0.06689574800274534,0.010868391197925119
18,1,5,0.08526461118421928,0.01012809838899821
18,2,5,0.12775025859720432,0.007771295145829929
18,3,5,0.14646179381037655,0.006714248079229533
18,4,5,0.11512560767137417,0.002848086330075798
18,5,5,0.12437910333060861,0.012820561146935961
18,6,5,0.02864002921712403,0.005326223643180546
18,7,5,0.16768485534810812,0.007850433070189901
18,8,5,0.10975513211409094,0.006315094758938293
19,0,5,0.09415936676925815,0.006349485368950006
19,1,5,0.11919615845177012,0.011644459910186401
19,2,5,0.11659622537748811,0.0075706740251353
19,3,5,0.16940047290991234,0.015256664777206552
19,4,5,0.10729907634131448,0.016940332157237968
19,5,5,0.135203075057267,0.00901392430412857
19,6,5,0.07870908552037084,0.006585266866403507
19,7,5,0.1846721795376527,0.002916047266227337
19,8,5,0.15250868941712412,0.02146207237740826
20,0,5,0.14962596610306036,0.014357414952184998
20,1,5,0.13448428954540373,0.018662968524694082
20,2,5,0.11962583681485868,0.009585484208383439
20,3,5,0.06807746069089042,0.016399092340760348
20,4,5,0.10048115461905023,0.01737057614213493
20,5,5,0.14748455963641421,0.011405500673471087
20,6,5,0.08694331278068804,0.01712458131424823
20,7,5,0.13555987726727317,0.01139227586003843
20,8,5,0.17007424613419225,0.010768836826849069
21,0,5,0.14363556581543307,0.013095007481794319
21,1,5,0.03491255114515892,0.013303192473730543
21,2,5,0.08729945858688744,0.01627531683355066
21,3,5,0.09204564040521854,0.012134217593697896
21,4,5,0.07293531516960446,0.023898923152572974
21,5,5,0.06040459301302596,0.012559726660266057
21,6,5,0.053382862114588515,0.00850693923326863
21,7,5,0.10155873411969785,0.0098976237339114
21,8,5,0.06833518446860272,0.020154126940333333
22,0,5,0.12859960496079065,0.015363200396068661
22,1,5,0.13492100357521875,0.012977197465553092
22,2,5,0.12694863248226013,0.00809359138502857
22,3,5,0.10340569485175295,0.014292449865590695
22,4,5,0.12170203301082169,0.008364705960077915
22,5,5,0.15405447595495952,0.014872854466483102
22,6,5,0.03812863622902614,0.006644208763945509
22,7,5,0.1827186912594339,0.007040948926446464
22,8,5,0.1801406688620596,0.014291481832704294
23,0,5,0.12775999176837172,0.010561884909487024
23,1,5,0.11003258407824024,0.013236092022864217
23,2,5,0.11627874334536122,0.010125279867589132
23,3,5,0.09546851074543312,0.010727041702931211
23,4,5,0.1362712665607701,0.009249027361363247
23,5,5,0.1326013825196664,0.003551222991303294
23,6,5,0.06515694866703037,0.007733298505462144
23,7,5,0.19980604917468328,0.011365034457492415
23,8,5,0.14599558798570905,0.011354353543084294
24,0,5,0.10015056304140768,0.009533496587895622
24,1,5,0.11702011944683699,0.01729725150922393
24,2,5,0.11119207102420134,0.007698737778992955
24,3,5,0.041182528765019336,0.014199689050016319
24,4,5,0.09374320340143727,0.016828857013127894
24,5,5,0.09217465629804174,0.011022902243298415
24,6,5,0.05186571942120701,0.0047516007592232675
24,7,5,0.16209970456919676,0.007714047608468289
24,8,5,0.08813930148468385,0.008505896121818329
25,0,5,0.15195812750579293,0.010738162436927054
25,1,5,0.11588953332548224,0.017245307575329754
25,2,5,0.17500025709738315,0.007036297886875132
25,3,5,0.1546009596034623,0.010109811814828337
25,4,5,0.17445783275036414,0.0077488155578027814
25,5,5,0.16953723655803327,0.01220288147716517
25,6,5,0.08437883801230042,0.007997261167335174
25,7,5,0.13240175564009748,0.010137818595937728
25,8,5,0.07997725756160326,0.007571919261599065
26,0,5,0.12014849625534338,0.007905238569873681
26,1,5,0.07089513143295534,0.013924239212464046
26,2,5,0.1376843847384725,0.012369256070644775
26,3,5,0.07409796259405417,0.012849977660154104
26,4,5,0.10601201816733144,0.006720680294199559
26,5,5,0.15959413388929378,0.01007495835454387
26,6,5,0.07841627532958986,0.008184836948975222
26,7,5,0.12864784869492157,0.007683467233764896
26,8,5,0.10943625204112677,0.005251534007776346
27,0,5,0.10164735363975863,0.008413647726164757
27,1,5,0.12588438741064345,0.011867559466218505
27,2,5,0.1701240805242582,0.008016606732717604
27,3,5,0.1464444936185359,0.013215693580372303
27,4,5,0.15722813506692673,0.011195073532267943
27,5,5,0.1261271063222888,0.01229106530860995
27,6,5,0.07444851787129378,0.014428904226601535
27,7,5,0.19433022897213778,0.01342297032278965
27,8,5,0.15547839975244354,0.013296322099095148
28,0,5,0.10629382678078944,0.020883382028408393
28,1,5,0.11767435354962046,0.019200172340248477
28,2,5,0.075541945576411,0.00871497406274884
28,3,5,0.14887976836406738,0.0079173791979226
28,4,5,0.13884569446419256,0.00977487675233172
28,5,5,0.24718713309903767,0.017018769846221037
28,6,5,0.07757766873939291,0.01089325907155744
28,7,5,0.1489393459859369,0.010929702153563677
28,8,5,0.1380659411126306,0.012323085977890105
29,0,5,0.16354612743263283,0.016900513009904014
29,1,5,0.12465419349455306,0.01047531169134958
29,2,5,0.14196376051268436,0.01702253244906689
29,3,5,0.07846719857167943,0.011161276381004004
29,4,5,0.1307133904457964,0.006007466032948821
29,5,5,0.18994151427347467,0.01372277441541066
29,6,5,0.052246482734873444,0.0059731023414902875
29,7,5,0.12364658677358265,0.014518505191144645
29,8,5,0.17648555054990417,0.017518486830099832
30,0,5,0.11760105518785754,0.011311885943512878
30,1,5,0.07890077425971505,0.0031665545255461294
30,2,5,0.14764943438446804,0.009944970982647938
30,3,5,0.06435204418724513,0.012804258080866977
30,4,5,0.10417595720851494,0.008098662598225306
30,5,5,0.17555964016653453,0.010315851988349991
30,6,5,0.02183648395892006,0.010184402535466567
30,7,5,0.19161352269866078,0.016653912372813197
30,8,5,0.15242528254188764,0.018273049406068557
31,0,5,0.10871231065964451,0.015979696570988636
31,1,5,0.07318616616067945,0.02549308481915152
31,2,5,0.13300104794228979,0.009516238445077398
31,3,5,0.060224096949748375,0.007883918005006875
31,4,5,0.1184187548447111,0.01201294762731852
31,5,5,0.11192579041913767,0.01480318696882248
31,6,5,0.08920200241608847,0.01110003406369179
31,7,5,0.14675510191841137,0.008183719762468527
31,8,5,0.14673672697701604,0.016282330185447842
32,0,5,0.1157739822460987,0.016952482233848078
32,1,5,0.08591906176738014,0.021879296227555325
32,2,5,0.13286887952087417,0.00870549109229141
32,3,5,0.05940091457208139,0.009775630124458494
32,4,5,0.1733136075203756,0.02042746745930777
32,5,5,0.17018789747749058,0.017919975926172706
32,6,5,0.11746983410735215,0.010438698908691882
32,7,5,0.18261596482964346,0.013021661720648309
32,8,5,0.1303561025667885,0.016829701937800784
33,0,5,0.10545045009555218,0.01349951005432168
33,1,5,0.15980347812927315,0.008179431486380917
33,2,5,0.09320708859264429,0.012998357300269981
33,3,5,0.05970642164381159,0.006177790270516776
33,4,5,0.09938599275896202,0.00408943045226851
33,5,5,0.06993919367226994,0.0109283236171908
33,6,5,0.09526659990538713,0.005666011472894099
33,7,5,0.1240182478427602,0.010722087992375843
33,8,5,0.22034740186386775,0.01655155059304728
34,0,5,0.13138582265933635,0.01378222230894407
34,1,5,0.10112222800993849,0.011387373266935799
34,2,5,0.0920598222196722,0.006410669260185166
34,3,5,0.07811808524806989,0.01604463285929966
34,4,5,0.09614664844059664,0.010506081767208368
34,5,5,0.062441608577548637,0.007950125181154082
34,6,5,0.059349091822238506,0.005920186716707508
34,7,5,0.14721884401850077,0.014003233050451107
34,8,5,0.1590397737631487,0.014320409027330524
35,0,5,0.08364035272210288,0.01026915511911942
35,1,5,0.11646066959179499,0.00785746095949931
35,2,5,0.12426209147745348,0.011520429619827065
35,3,5,0.08883351991437712,0.01360629426652216
35,4,5,0.04933011222541193,0.0051815752401847435
35,5,5,0.13502061349658534,0.005416818898232311
35,6,5,0.04435227627661877,0.0026008426325773043
35,7,5,0.1151271465944594,0.009190755297650158
35,8,5,0.05900202830878818,0.010447727401212043
36,0,5,0.048914445523280434,0.015196388903974286
36,1,5,0.07023895149375174,0.0164750377755746
36,2,5,0.08819375304692856,0.010667562272873299
36,3,5,0.09580442858130815,0.010136442124856773
36,4,5,0.09069985609808381,0.014632304154067433
36,5,5,0.11221640045957984,0.020065628697298533
36,6,5,0.09660698323662278,0.011212610660745841
36,7,5,0.10932747161522652,0.012811150043818765
36,8,5,0.07713246640938007,0.004329510009139743
37,0,5,0.16072934472592346,0.016351443744293724
37,1,5,0.16526649523977732,0.01997443526093429
37,2,5,0.21926072063979643,0.019168394620320616
37,3,5,0.09317481216703945,0.007713017752952745
37,4,5,0.13998339595027479,0.022411579239132617
37,5,5,0.1543183759522404,0.010884356292706643
37,6,5,0.058556859903728456,0.01001723001682203
37,7,5,0.13427519442032304,0.008507596659357772
37,8,5,0.12383108463008159,0.013916476668026334
38,0,5,0.11894893269038127,0.009516507519160972
38,1,5,0.13453643041888852,0.014927212357720869
38,2,5,0.12616677347812139,0.01218158207740246
38,3,5,0.1542284663799824,0.0111426970405563
38,4,5,0.17221394118624742,0.016310586367481204
38,5,5,0.14759730714075353,0.001923077848914896
38,6,5,0.047613378431566655,0.013650514202873406
38,7,5,0.12614541241807944,0.013112585048188151
38,8,5,0.09825485897232086,0.013465985842653974
39,0,5,0.11948671439716026,0.005922933939234808
39,1,5,0.06517008943434237,0.018449937528041152
39,2,5,0.08898706363763623,0.013803902976163412
39,3,5,0.08487350858930628,0.003575150119941886
39,4,5,0.1044149762420292,0.01003794340371418
39,5,5,0.18946775657826026,0.015783772746800203
39,6,5,0.043610648929007054,0.005271344427474667
39,7,5,0.13959475291515983,0.006689701184615802
39,8,5,0.09561140373296592,0.016783978079457834
40,0,5,0.11232600901390336,0.003933552182217196
40,1,5,0.04582485097050495,0.01689295433766926
40,2,5,0.057885537996909854,0.009855717168994695
40,3,5,-0.0016036372464412363,0.013167253082518612
40,4,5,0.038053102354026994,0.012604463228620947
40,5,5,0.041028331014335874,0.009373843343237811
40,6,5,0.06694880273899625,0.009207912759952575
40,7,5,0.17791843472052044,0.009203530426583255
40,8,5,0.16651854343842332,0.018378287317207306
