subject,block,block_width,feature_channel,gate_mean,gate_sd
1,0,32,0,0.5459275245666504,0.09582784026861191
1,0,32,1,0.4575518071651459,0.08765340596437454
1,0,32,2,0.40118408203125,0.08725757151842117
1,0,32,3,0.3675975799560547,0.09310045838356018
1,0,32,4,0.5124673247337341,0.050644975155591965
1,0,32,5,0.4566560983657837,0.09453468024730682
1,0,32,6,0.5613512396812439,0.06093479320406914
1,0,32,7,0.392836332321167,0.08069232106208801
1,0,32,8,0.48494091629981995,0.05249810591340065
1,0,32,9,0.4609973728656769,0.10902056843042374
1,0,32,10,0.5405334234237671,0.09615616500377655
1,0,32,11,0.4291022717952728,0.03723246231675148
1,0,32,12,0.5003150701522827,0.038336727768182755
1,0,32,13,0.3230077922344208,0.05103754624724388
1,0,32,14,0.4827919900417328,0.09434512257575989
1,0,32,15,0.4710719585418701,0.051582105457782745
1,0,32,16,0.42810508608818054,0.051590483635663986
1,0,32,17,0.487748920917511,0.09349830448627472
1,0,32,18,0.510979950428009,0.08935060352087021
1,0,32,19,0.4225967526435852,0.047869425266981125
1,0,32,20,0.44244885444641113,0.061285410076379776
1,0,32,21,0.476551353931427,0.09628467261791229
1,0,32,22,0.47553542256355286,0.0608617439866066
1,0,32,23,0.3826843202114105,0.062193613499403
1,0,32,24,0.6262034773826599,0.02684127353131771
1,0,32,25,0.3797396123409271,0.06553912907838821
1,0,32,26,0.5665473937988281,0.0612407922744751
1,0,32,27,0.48813918232917786,0.021447211503982544
1,0,32,28,0.41530680656433105,0.02216208167374134
1,0,32,29,0.3905015289783478,0.0855548232793808
1,0,32,30,0.5516290068626404,0.0490516796708107
1,0,32,31,0.5018563270568848,0.07409442216157913
1,1,32,0,0.569054365158081,0.04053941369056702
1,1,32,1,0.47787585854530334,0.03595077618956566
1,1,32,2,0.6225832104682922,0.04537782445549965
1,1,32,3,0.4392434060573578,0.0445902943611145
1,1,32,4,0.5141251087188721,0.049081381410360336
1,1,32,5,0.5388282537460327,0.027721736580133438
1,1,32,6,0.5259935259819031,0.040344394743442535
1,1,32,7,0.582202136516571,0.01925867237150669
1,1,32,8,0.43857651948928833,0.04235541820526123
1,1,32,9,0.5251258015632629,0.05146677792072296
1,1,32,10,0.5151388645172119,0.06635759770870209
1,1,32,11,0.4015343189239502,0.03602515533566475
1,1,32,12,0.35859835147857666,0.040222447365522385
1,1,32,13,0.5544506907463074,0.05063224583864212
1,1,32,14,0.41735273599624634,0.05266718193888664
1,1,32,15,0.6024793386459351,0.0356936939060688
1,1,32,16,0.44174182415008545,0.03399600833654404
1,1,32,17,0.5701462030410767,0.04772360622882843
1,1,32,18,0.4113813638687134,0.033097926527261734
1,1,32,19,0.35409170389175415,0.045114271342754364
1,1,32,20,0.6143094897270203,0.034547846764326096
1,1,32,21,0.6199748516082764,0.02284429408609867
1,1,32,22,0.4103885293006897,0.048608507961034775
1,1,32,23,0.5554455518722534,0.04717562720179558
1,1,32,24,0.499981552362442,0.042691539973020554
1,1,32,25,0.5025261044502258,0.05522470921278
1,1,32,26,0.6054022908210754,0.0550587996840477
1,1,32,27,0.5248978137969971,0.05364634469151497
1,1,32,28,0.3821871876716614,0.06112099811434746
1,1,32,29,0.5007241368293762,0.05651366710662842
1,1,32,30,0.6114235520362854,0.02997238002717495
1,1,32,31,0.5752207636833191,0.03789598122239113
1,2,64,0,0.5307726860046387,0.044777482748031616
1,2,64,1,0.46472635865211487,0.04143379256129265
1,2,64,2,0.5275159478187561,0.03979051113128662
1,2,64,3,0.433719664812088,0.06307180225849152
1,2,64,4,0.4649026691913605,0.04738388583064079
1,2,64,5,0.4714861810207367,0.037505295127630234
1,2,64,6,0.3568820655345917,0.0581103190779686
1,2,64,7,0.4900175631046295,0.04065191000699997
1,2,64,8,0.551978588104248,0.0537603385746479
1,2,64,9,0.5091379880905151,0.06094735115766525
1,2,64,10,0.52614825963974,0.05290850251913071
1,2,64,11,0.5324407815933228,0.059103433042764664
1,2,64,12,0.5171754956245422,0.03447391465306282
1,2,64,13,0.4724148213863373,0.04573861509561539
1,2,64,14,0.50837242603302,0.014188750647008419
1,2,64,15,0.48324230313301086,0.045005060732364655
1,2,64,16,0.5566028356552124,0.038335658609867096
1,2,64,17,0.5295105576515198,0.029488595202565193
1,2,64,18,0.42612385749816895,0.023428158834576607
1,2,64,19,0.41674044728279114,0.053290557116270065
1,2,64,20,0.4707605242729187,0.09651026129722595
1,2,64,21,0.41976380348205566,0.043895334005355835
1,2,64,22,0.5051320195198059,0.036676712334156036
1,2,64,23,0.4408496916294098,0.05037802830338478
1,2,64,24,0.454090416431427,0.08900517970323563
1,2,64,25,0.4635160565376282,0.07037411630153656
1,2,64,26,0.511893093585968,0.0654422715306282
1,2,64,27,0.39028576016426086,0.024217169731855392
1,2,64,28,0.5613014698028564,0.05133082717657089
1,2,64,29,0.4334617257118225,0.07953988015651703
1,2,64,30,0.4655510485172272,0.06281892210245132
1,2,64,31,0.5579410791397095,0.05813300982117653
1,2,64,32,0.5369136929512024,0.0282583050429821
1,2,64,33,0.56794673204422,0.03459908813238144
1,2,64,34,0.5818566083908081,0.0920870453119278
1,2,64,35,0.41597798466682434,0.04613618552684784
1,2,64,36,0.5683402419090271,0.04411794990301132
1,2,64,37,0.5504381060600281,0.040576498955488205
1,2,64,38,0.44822782278060913,0.04712224006652832
1,2,64,39,0.5749157667160034,0.029260627925395966
1,2,64,40,0.5087579488754272,0.031280767172575
1,2,64,41,0.4715592861175537,0.052251819521188736
1,2,64,42,0.6232855916023254,0.05950068309903145
1,2,64,43,0.4088095426559448,0.0373845100402832
1,2,64,44,0.5053955316543579,0.037235599011182785
1,2,64,45,0.5981276035308838,0.043362557888031006
1,2,64,46,0.5269953012466431,0.015922904014587402
1,2,64,47,0.5022277235984802,0.07743874192237854
1,2,64,48,0.5777292251586914,0.07289687544107437
1,2,64,49,0.47090187668800354,0.027477802708745003
1,2,64,50,0.4715435206890106,0.05381683632731438
1,2,64,51,0.4455322325229645,0.044245753437280655
1,2,64,52,0.45628660917282104,0.024624057114124298
1,2,64,53,0.5734547972679138,0.042222972959280014
1,2,64,54,0.5669999718666077,0.030821265652775764
1,2,64,55,0.4647645950317383,0.03484432399272919
1,2,64,56,0.4481273591518402,0.04539135843515396
1,2,64,57,0.3441658020019531,0.06390228122472763
1,2,64,58,0.4847169816493988,0.03332345187664032
1,2,64,59,0.5385188460350037,0.06092357635498047
1,2,64,60,0.5476933717727661,0.04529813304543495
1,2,64,61,0.46175387501716614,0.044572677463293076
1,2,64,62,0.5168250203132629,0.061858151108026505
1,2,64,63,0.5494000315666199,0.059514883905649185
1,3,64,0,0.5642305612564087,0.03771580383181572
1,3,64,1,0.5964603424072266,0.1084875613451004
1,3,64,2,0.6054793000221252,0.050980016589164734
1,3,64,3,0.5612877607345581,0.04553070291876793
1,3,64,4,0.4981306493282318,0.060362689197063446
1,3,64,5,0.4642876088619232,0.051794812083244324
1,3,64,6,0.5950871706008911,0.04311032593250275
1,3,64,7,0.5606240034103394,0.07208748906850815
1,3,64,8,0.4449435770511627,0.04843535274267197
1,3,64,9,0.6365275382995605,0.08193891495466232
1,3,64,10,0.5018509030342102,0.10328284651041031
1,3,64,11,0.5183587670326233,0.048056792467832565
1,3,64,12,0.4205484092235565,0.07137951254844666
1,3,64,13,0.6329759955406189,0.07223653048276901
1,3,64,14,0.5343585014343262,0.0561070553958416
1,3,64,15,0.4998970031738281,0.09568710625171661
1,3,64,16,0.46210920810699463,0.027377407997846603
1,3,64,17,0.573792040348053,0.08666263520717621
1,3,64,18,0.6148427128791809,0.058163922280073166
1,3,64,19,0.47112664580345154,0.04584228992462158
1,3,64,20,0.5431414246559143,0.04206012934446335
1,3,64,21,0.5193256735801697,0.09095385670661926
1,3,64,22,0.5061812400817871,0.03073180839419365
1,3,64,23,0.4807721674442291,0.04318220913410187
1,3,64,24,0.6053286790847778,0.06626883894205093
1,3,64,25,0.4754153788089752,0.07956993579864502
1,3,64,26,0.4186635911464691,0.0831935852766037
1,3,64,27,0.6021983027458191,0.04907076060771942
1,3,64,28,0.536614179611206,0.08050791174173355
1,3,64,29,0.5137789249420166,0.0693083107471466
1,3,64,30,0.4576863944530487,0.06793728470802307
1,3,64,31,0.5570228695869446,0.09533260762691498
1,3,64,32,0.569331169128418,0.07551764696836472
1,3,64,33,0.5483918786048889,0.06504333019256592
1,3,64,34,0.4780302047729492,0.034999553114175797
1,3,64,35,0.5553705096244812,0.03440897911787033
1,3,64,36,0.49784404039382935,0.06099797040224075
1,3,64,37,0.5202030539512634,0.06535061448812485
1,3,64,38,0.39694130420684814,0.07332876324653625
1,3,64,39,0.5421407222747803,0.038740068674087524
1,3,64,40,0.4898262917995453,0.05885927379131317
1,3,64,41,0.41230884194374084,0.03700241819024086
1,3,64,42,0.5233170390129089,0.03507615625858307
1,3,64,43,0.5204352140426636,0.11157672107219696
1,3,64,44,0.4428439736366272,0.08935915678739548
1,3,64,45,0.4731427729129791,0.03534160181879997
1,3,64,46,0.48942142724990845,0.09040515869855881
1,3,64,47,0.4919693171977997,0.07425117492675781
1,3,64,48,0.5329036712646484,0.03237105533480644
1,3,64,49,0.47178587317466736,0.05170886218547821
1,3,64,50,0.548203706741333,0.06964849680662155
1,3,64,51,0.48009926080703735,0.07866345345973969
1,3,64,52,0.4044089913368225,0.039949219673871994
1,3,64,53,0.4489516019821167,0.07232421636581421
1,3,64,54,0.39791932702064514,0.03802906721830368
1,3,64,55,0.5341436862945557,0.06071164458990097
1,3,64,56,0.43454480171203613,0.09659582376480103
1,3,64,57,0.5161398649215698,0.07734349370002747
1,3,64,58,0.5013879537582397,0.09944072365760803
1,3,64,59,0.3277817964553833,0.07248732447624207
1,3,64,60,0.5313615202903748,0.0674261525273323
1,3,64,61,0.4703030288219452,0.06377490609884262
1,3,64,62,0.3875104784965515,0.06895098835229874
1,3,64,63,0.4023551046848297,0.026689069345593452
1,4,128,0,0.41085878014564514,0.10889294743537903
1,4,128,1,0.3641088008880615,0.1719488948583603
1,4,128,2,0.6648509502410889,0.17050741612911224
1,4,128,3,0.5417992472648621,0.04635835811495781
1,4,128,4,0.6007074117660522,0.14389050006866455
1,4,128,5,0.4325065612792969,0.06620928645133972
1,4,128,6,0.5243352651596069,0.05695038288831711
1,4,128,7,0.6604464650154114,0.13693146407604218
1,4,128,8,0.4781763553619385,0.05253347381949425
1,4,128,9,0.5391958355903625,0.12419583648443222
1,4,128,10,0.5311165452003479,0.0534755177795887
1,4,128,11,0.6898324489593506,0.1063171923160553
1,4,128,12,0.5297720432281494,0.06677887588739395
1,4,128,13,0.6417863368988037,0.08607938885688782
1,4,128,14,0.4945218861103058,0.13422834873199463
1,4,128,15,0.5424908399581909,0.04899843782186508
1,4,128,16,0.3870060443878174,0.08849802613258362
1,4,128,17,0.6338168382644653,0.14716853201389313
1,4,128,18,0.5821180939674377,0.09920794516801834
1,4,128,19,0.34748756885528564,0.11036448180675507
1,4,128,20,0.5193344950675964,0.037159696221351624
1,4,128,21,0.2624940872192383,0.16559024155139923
1,4,128,22,0.5219835638999939,0.03768421709537506
1,4,128,23,0.527625322341919,0.037760425359010696
1,4,128,24,0.5512018799781799,0.0667809247970581
1,4,128,25,0.5398666858673096,0.07837584614753723
1,4,128,26,0.6729763746261597,0.0834350511431694
1,4,128,27,0.4683287739753723,0.05199273303151131
1,4,128,28,0.6098982095718384,0.11426826566457748
1,4,128,29,0.5897651314735413,0.12296435236930847
1,4,128,30,0.4512653648853302,0.07487058639526367
1,4,128,31,0.6117480397224426,0.08950955420732498
1,4,128,32,0.44569170475006104,0.10983967036008835
1,4,128,33,0.493147611618042,0.05791861563920975
1,4,128,34,0.6676146388053894,0.15266111493110657
1,4,128,35,0.5524930357933044,0.14411579072475433
1,4,128,36,0.5539771318435669,0.048043519258499146
1,4,128,37,0.4125962555408478,0.0677562728524208
1,4,128,38,0.5351961255073547,0.0658312439918518
1,4,128,39,0.4539547562599182,0.0631469339132309
1,4,128,40,0.6271375417709351,0.10178965330123901
1,4,128,41,0.5944756865501404,0.05005495250225067
1,4,128,42,0.5406853556632996,0.048001646995544434
1,4,128,43,0.4927217662334442,0.0984078124165535
1,4,128,44,0.5809856057167053,0.08389071375131607
1,4,128,45,0.48603662848472595,0.09956667572259903
1,4,128,46,0.5672685503959656,0.07017704099416733
1,4,128,47,0.643611490726471,0.11502908170223236
1,4,128,48,0.6328048706054688,0.14753347635269165
1,4,128,49,0.5876988768577576,0.05778609216213226
1,4,128,50,0.5511593818664551,0.046625372022390366
1,4,128,51,0.56785649061203,0.08076626807451248
1,4,128,52,0.33977872133255005,0.09431230276823044
1,4,128,53,0.5823909044265747,0.11610517650842667
1,4,128,54,0.3416576087474823,0.0732027143239975
1,4,128,55,0.5265544652938843,0.05154755711555481
1,4,128,56,0.460490345954895,0.05732446908950806
1,4,128,57,0.6419102549552917,0.14999905228614807
1,4,128,58,0.46959245204925537,0.06470704823732376
1,4,128,59,0.31690505146980286,0.1399346888065338
1,4,128,60,0.6015194058418274,0.12052930146455765
1,4,128,61,0.40275490283966064,0.09458368271589279
1,4,128,62,0.680995762348175,0.14355741441249847
1,4,128,63,0.6508174538612366,0.10692664980888367
1,4,128,64,0.6734496355056763,0.12436315417289734
1,4,128,65,0.6313788890838623,0.07335393130779266
1,4,128,66,0.44073328375816345,0.06802945584058762
1,4,128,67,0.6220167279243469,0.12053465098142624
1,4,128,68,0.5553179383277893,0.12088420987129211
1,4,128,69,0.5093746185302734,0.06568197160959244
1,4,128,70,0.660344660282135,0.10461053252220154
1,4,128,71,0.457625150680542,0.07547622919082642
1,4,128,72,0.5186210870742798,0.07933355867862701
1,4,128,73,0.5136256814002991,0.04556415230035782
1,4,128,74,0.5180200338363647,0.07508388161659241
1,4,128,75,0.6203894019126892,0.10547295957803726
1,4,128,76,0.5339692234992981,0.07578376680612564
1,4,128,77,0.41022932529449463,0.12815594673156738
1,4,128,78,0.4899132251739502,0.07834885269403458
1,4,128,79,0.6077131628990173,0.10666491836309433
1,4,128,80,0.6112709045410156,0.06234998628497124
1,4,128,81,0.5718366503715515,0.07896018773317337
1,4,128,82,0.5617491602897644,0.09103351086378098
1,4,128,83,0.6466383934020996,0.12406697124242783
1,4,128,84,0.5950955748558044,0.04402149096131325
1,4,128,85,0.7129847407341003,0.1793016940355301
1,4,128,86,0.6856465935707092,0.1753355860710144
1,4,128,87,0.449656218290329,0.048394955694675446
1,4,128,88,0.6894504427909851,0.12432564049959183
1,4,128,89,0.4307035505771637,0.15314185619354248
1,4,128,90,0.44595831632614136,0.07631219178438187
1,4,128,91,0.3690354824066162,0.14803960919380188
1,4,128,92,0.40651458501815796,0.08529955893754959
1,4,128,93,0.5836334228515625,0.07575000822544098
1,4,128,94,0.4999033212661743,0.10827739536762238
1,4,128,95,0.5036659836769104,0.03275810927152634
1,4,128,96,0.550423264503479,0.13237757980823517
1,4,128,97,0.528908371925354,0.09015420079231262
1,4,128,98,0.6240670680999756,0.1333441287279129
1,4,128,99,0.6263254284858704,0.15558776259422302
1,4,128,100,0.49370989203453064,0.12553803622722626
1,4,128,101,0.33600616455078125,0.13218988478183746
1,4,128,102,0.5603084564208984,0.06802849471569061
1,4,128,103,0.5845503211021423,0.07219105958938599
1,4,128,104,0.3843355178833008,0.11074398458003998
1,4,128,105,0.6604543328285217,0.11455098539590836
1,4,128,106,0.5346065759658813,0.07241283357143402
1,4,128,107,0.6391373872756958,0.13900689780712128
1,4,128,108,0.6321679949760437,0.07227738946676254
1,4,128,109,0.7337745428085327,0.1647166758775711
1,4,128,110,0.40347713232040405,0.04560447484254837
1,4,128,111,0.3954823911190033,0.11783551424741745
1,4,128,112,0.7413842082023621,0.13060863316059113
1,4,128,113,0.36521559953689575,0.07399649918079376
1,4,128,114,0.6180114150047302,0.1687929928302765
1,4,128,115,0.45396000146865845,0.11177115887403488
1,4,128,116,0.39506301283836365,0.09314980357885361
1,4,128,117,0.38940271735191345,0.049973368644714355
1,4,128,118,0.5402683615684509,0.09342538565397263
1,4,128,119,0.5812057852745056,0.08173708617687225
1,4,128,120,0.38357654213905334,0.10952328145503998
1,4,128,121,0.6624280214309692,0.16505101323127747
1,4,128,122,0.6015151143074036,0.09405291825532913
1,4,128,123,0.4984044134616852,0.04197808727622032
1,4,128,124,0.4444524347782135,0.05174245312809944
1,4,128,125,0.4102618098258972,0.0646040141582489
1,4,128,126,0.42601796984672546,0.06564699113368988
1,4,128,127,0.683921217918396,0.10567250102758408
1,5,128,0,0.6346467137336731,0.15694481134414673
1,5,128,1,0.4577710032463074,0.11001314967870712
1,5,128,2,0.5174298882484436,0.12537358701229095
1,5,128,3,0.4960143268108368,0.013957181014120579
1,5,128,4,0.3011191189289093,0.055611658841371536
1,5,128,5,0.5531948804855347,0.04288056492805481
1,5,128,6,0.6420083045959473,0.1663939505815506
1,5,128,7,0.6007021069526672,0.14487749338150024
1,5,128,8,0.45747438073158264,0.06659829616546631
1,5,128,9,0.5122660994529724,0.12085918337106705
1,5,128,10,0.48310306668281555,0.036802902817726135
1,5,128,11,0.47538673877716064,0.08410734683275223
1,5,128,12,0.42223837971687317,0.036831121891736984
1,5,128,13,0.6044406890869141,0.08230260759592056
1,5,128,14,0.5347849130630493,0.12952345609664917
1,5,128,15,0.5570284128189087,0.09259870648384094
1,5,128,16,0.5176869630813599,0.046665970236063004
1,5,128,17,0.4793921113014221,0.05341203883290291
1,5,128,18,0.5488705635070801,0.06809526681900024
1,5,128,19,0.35510411858558655,0.03923053666949272
1,5,128,20,0.43055468797683716,0.10226968675851822
1,5,128,21,0.34669172763824463,0.05981594696640968
1,5,128,22,0.4800826907157898,0.15346446633338928
1,5,128,23,0.3887535333633423,0.10733842849731445
1,5,128,24,0.5388721227645874,0.03754935786128044
1,5,128,25,0.43001431226730347,0.11213088035583496
1,5,128,26,0.4942682385444641,0.08397226780653
1,5,128,27,0.568622887134552,0.04890547692775726
1,5,128,28,0.430691123008728,0.0371645987033844
1,5,128,29,0.4936300218105316,0.11403940618038177
1,5,128,30,0.4777337610721588,0.05498000234365463
1,5,128,31,0.5848153829574585,0.09112300723791122
1,5,128,32,0.655311107635498,0.1402408331632614
1,5,128,33,0.6299595832824707,0.14605103433132172
1,5,128,34,0.564236044883728,0.07762226462364197
1,5,128,35,0.5872669219970703,0.11988075822591782
1,5,128,36,0.5254241228103638,0.060370948165655136
1,5,128,37,0.5714283585548401,0.03849722072482109
1,5,128,38,0.46486130356788635,0.07192566990852356
1,5,128,39,0.3648355305194855,0.15280848741531372
1,5,128,40,0.5996739864349365,0.10097264498472214
1,5,128,41,0.4958614706993103,0.0415070615708828
1,5,128,42,0.5994969606399536,0.06594284623861313
1,5,128,43,0.5237928628921509,0.04720958322286606
1,5,128,44,0.3907748758792877,0.06105142459273338
1,5,128,45,0.5916440486907959,0.05508169159293175
1,5,128,46,0.49663496017456055,0.05899014696478844
1,5,128,47,0.6225941777229309,0.067459337413311
1,5,128,48,0.5743941068649292,0.09718987345695496
1,5,128,49,0.4221290051937103,0.06526216119527817
1,5,128,50,0.5283520221710205,0.19896622002124786
1,5,128,51,0.6438056230545044,0.07733947783708572
1,5,128,52,0.5797526240348816,0.03980439528822899
1,5,128,53,0.41761377453804016,0.058390505611896515
1,5,128,54,0.6346510052680969,0.05217684805393219
1,5,128,55,0.4857492744922638,0.10976233333349228
1,5,128,56,0.43197980523109436,0.04326871410012245
1,5,128,57,0.6230949759483337,0.15816131234169006
1,5,128,58,0.41781148314476013,0.05903870612382889
1,5,128,59,0.5861033797264099,0.045219771564006805
1,5,128,60,0.7194070219993591,0.11604291945695877
1,5,128,61,0.3993879556655884,0.02995903417468071
1,5,128,62,0.5914487242698669,0.09181717783212662
1,5,128,63,0.6465021371841431,0.16616180539131165
1,5,128,64,0.5224050283432007,0.07796117663383484
1,5,128,65,0.5471479296684265,0.025903338566422462
1,5,128,66,0.42190316319465637,0.13559794425964355
1,5,128,67,0.6069012880325317,0.14043809473514557
1,5,128,68,0.40621188282966614,0.1105264201760292
1,5,128,69,0.5664271116256714,0.1515156775712967
1,5,128,70,0.5615060329437256,0.1282845437526703
1,5,128,71,0.4414609968662262,0.022462215274572372
1,5,128,72,0.5437788963317871,0.07268501073122025
1,5,128,73,0.44393786787986755,0.06702866405248642
1,5,128,74,0.6016128659248352,0.06035904958844185
1,5,128,75,0.4301178455352783,0.05309276282787323
1,5,128,76,0.4580811858177185,0.10567359626293182
1,5,128,77,0.45991551876068115,0.09560545533895493
1,5,128,78,0.5375097393989563,0.045499082654714584
1,5,128,79,0.48434367775917053,0.060477640479803085
1,5,128,80,0.44538959860801697,0.03130979463458061
1,5,128,81,0.5483323931694031,0.07316698879003525
1,5,128,82,0.6261662840843201,0.0917966291308403
1,5,128,83,0.4659886360168457,0.0200137160718441
1,5,128,84,0.40416190028190613,0.02445424348115921
1,5,128,85,0.6297414302825928,0.08852175623178482
1,5,128,86,0.45525628328323364,0.03997138515114784
1,5,128,87,0.39982858300209045,0.10674281418323517
1,5,128,88,0.3832397758960724,0.04885420203208923
1,5,128,89,0.3804683983325958,0.0654812678694725
1,5,128,90,0.452631413936615,0.060472503304481506
1,5,128,91,0.5289844274520874,0.051734235137701035
1,5,128,92,0.6546701788902283,0.15972395241260529
1,5,128,93,0.5553582310676575,0.052408646792173386
1,5,128,94,0.5256087779998779,0.03029129095375538
1,5,128,95,0.38867926597595215,0.11685192584991455
1,5,128,96,0.5931944847106934,0.0670689195394516
1,5,128,97,0.558380663394928,0.08190754055976868
1,5,128,98,0.5292037129402161,0.09006314724683762
1,5,128,99,0.5986457467079163,0.10794442892074585
1,5,128,100,0.5644903182983398,0.046410705894231796
1,5,128,101,0.5120797157287598,0.02990180067718029
1,5,128,102,0.3637407422065735,0.07423271238803864
1,5,128,103,0.3828588128089905,0.06687706708908081
1,5,128,104,0.7260575294494629,0.1005713939666748
1,5,128,105,0.5636276006698608,0.10187121480703354
1,5,128,106,0.42693543434143066,0.09585440158843994
1,5,128,107,0.5850971341133118,0.058862701058387756
1,5,128,108,0.4190235137939453,0.13424384593963623
1,5,128,109,0.5462754964828491,0.1316516399383545
1,5,128,110,0.36571258306503296,0.06087462976574898
1,5,128,111,0.4160250425338745,0.03182980418205261
1,5,128,112,0.41390907764434814,0.10167370736598969
1,5,128,113,0.45521876215934753,0.035526424646377563
1,5,128,114,0.4833948016166687,0.07382622361183167
1,5,128,115,0.4695448577404022,0.07084573805332184
1,5,128,116,0.3329928517341614,0.0407971516251564
1,5,128,117,0.4503649175167084,0.11312375962734222
1,5,128,118,0.579657793045044,0.15494970977306366
1,5,128,119,0.3889821767807007,0.023031679913401604
1,5,128,120,0.6233268976211548,0.07617450505495071
1,5,128,121,0.45143380761146545,0.05186132341623306
1,5,128,122,0.41187602281570435,0.06930568814277649
1,5,128,123,0.47945818305015564,0.05681253969669342
1,5,128,124,0.629054844379425,0.12781204283237457
1,5,128,125,0.6000282764434814,0.0546315535902977
1,5,128,126,0.5055539011955261,0.06835820525884628
1,5,128,127,0.7010322213172913,0.099093958735466
2,0,32,0,0.5685527324676514,0.10422728955745697
2,0,32,1,0.595579206943512,0.08118227124214172
2,0,32,2,0.6091618537902832,0.049046892672777176
2,0,32,3,0.498272180557251,0.04895076900720596
2,0,32,4,0.5527668595314026,0.04418152943253517
2,0,32,5,0.4875231683254242,0.04527563229203224
2,0,32,6,0.547461211681366,0.055242814123630524
2,0,32,7,0.4433072507381439,0.03097405470907688
2,0,32,8,0.5134657621383667,0.04000866040587425
2,0,32,9,0.5140759944915771,0.0700547844171524
2,0,32,10,0.5060732960700989,0.07006850838661194
2,0,32,11,0.5701838731765747,0.051147256046533585
2,0,32,12,0.5675479173660278,0.02215755172073841
2,0,32,13,0.35664358735084534,0.027851127088069916
2,0,32,14,0.6210407614707947,0.06834045052528381
2,0,32,15,0.5779969692230225,0.10918787866830826
2,0,32,16,0.5605971813201904,0.024151118472218513
2,0,32,17,0.5745311975479126,0.0482076033949852
2,0,32,18,0.31329581141471863,0.03263167664408684
2,0,32,19,0.44566088914871216,0.06487427651882172
2,0,32,20,0.47266238927841187,0.060756076127290726
2,0,32,21,0.46024879813194275,0.01683175377547741
2,0,32,22,0.6021884679794312,0.0581950843334198
2,0,32,23,0.5807009339332581,0.06532179564237595
2,0,32,24,0.5947855710983276,0.06361854821443558
2,0,32,25,0.3662634491920471,0.047599297016859055
2,0,32,26,0.41415783762931824,0.05591706559062004
2,0,32,27,0.37123292684555054,0.032636817544698715
2,0,32,28,0.5496388673782349,0.07705195993185043
2,0,32,29,0.5094753503799438,0.10706974565982819
2,0,32,30,0.5105300545692444,0.0695318803191185
2,0,32,31,0.560398280620575,0.0539005845785141
2,1,32,0,0.5342903137207031,0.09206969290971756
2,1,32,1,0.4119986295700073,0.03590622544288635
2,1,32,2,0.5310284495353699,0.04999068006873131
2,1,32,3,0.4692826569080353,0.08400793373584747
2,1,32,4,0.2922019958496094,0.08777514100074768
2,1,32,5,0.3474813997745514,0.0802014097571373
2,1,32,6,0.4553365409374237,0.12214832007884979
2,1,32,7,0.5085398554801941,0.10458922386169434
2,1,32,8,0.47534000873565674,0.10001916438341141
2,1,32,9,0.396552711725235,0.08442848175764084
2,1,32,10,0.4796466827392578,0.09340807050466537
2,1,32,11,0.5607687830924988,0.08166401088237762
2,1,32,12,0.4959954023361206,0.09948813170194626
2,1,32,13,0.6374136805534363,0.04584265872836113
2,1,32,14,0.5632861852645874,0.0643896758556366
2,1,32,15,0.3411163091659546,0.0765848308801651
2,1,32,16,0.5680755376815796,0.06064062938094139
2,1,32,17,0.5558602809906006,0.0933486595749855
2,1,32,18,0.5687971711158752,0.025608070194721222
2,1,32,19,0.553118884563446,0.11120815575122833
2,1,32,20,0.5695912837982178,0.06621133536100388
2,1,32,21,0.502986490726471,0.10861233621835709
2,1,32,22,0.6182900071144104,0.06958077102899551
2,1,32,23,0.4980058968067169,0.03728754073381424
2,1,32,24,0.6138823628425598,0.07288505882024765
2,1,32,25,0.5708822011947632,0.06569120287895203
2,1,32,26,0.5602360367774963,0.0678999051451683
2,1,32,27,0.5025954246520996,0.11533093452453613
2,1,32,28,0.5663630962371826,0.036631740629673004
2,1,32,29,0.4058695137500763,0.0757785513997078
2,1,32,30,0.4988580644130707,0.13825108110904694
2,1,32,31,0.4284982681274414,0.0769711509346962
2,2,64,0,0.4738134443759918,0.11577059328556061
2,2,64,1,0.4734838008880615,0.15719372034072876
2,2,64,2,0.6420764327049255,0.1045626699924469
2,2,64,3,0.40931981801986694,0.11906274408102036
2,2,64,4,0.4672415256500244,0.06412467360496521
2,2,64,5,0.43988552689552307,0.1328098177909851
2,2,64,6,0.45597922801971436,0.05037282779812813
2,2,64,7,0.6344836950302124,0.07550608366727829
2,2,64,8,0.556275486946106,0.11004182696342468
2,2,64,9,0.5013944506645203,0.10513655096292496
2,2,64,10,0.580500602722168,0.1774604618549347
2,2,64,11,0.5101380348205566,0.14840205013751984
2,2,64,12,0.6121407747268677,0.040231216698884964
2,2,64,13,0.40396052598953247,0.13351337611675262
2,2,64,14,0.30740663409233093,0.09761690348386765
2,2,64,15,0.40373581647872925,0.15526364743709564
2,2,64,16,0.5579507946968079,0.19071818888187408
2,2,64,17,0.5547651052474976,0.09886474907398224
2,2,64,18,0.5866616368293762,0.1265174001455307
2,2,64,19,0.609904944896698,0.09860952943563461
2,2,64,20,0.5694042444229126,0.08426549285650253
2,2,64,21,0.5183088779449463,0.07958512008190155
2,2,64,22,0.4002976417541504,0.13031648099422455
2,2,64,23,0.44371694326400757,0.23190441727638245
2,2,64,24,0.5039793252944946,0.07855207473039627
2,2,64,25,0.46465492248535156,0.08077125996351242
2,2,64,26,0.5088731646537781,0.09262480586767197
2,2,64,27,0.6104210019111633,0.1788325160741806
2,2,64,28,0.5727648735046387,0.14128653705120087
2,2,64,29,0.4982561469078064,0.1321392059326172
2,2,64,30,0.5085848569869995,0.14407306909561157
2,2,64,31,0.5859708786010742,0.07633809745311737
2,2,64,32,0.5443792343139648,0.0756373479962349
2,2,64,33,0.47123607993125916,0.0885097086429596
2,2,64,34,0.42843252420425415,0.10915999859571457
2,2,64,35,0.49003541469573975,0.08637503534555435
2,2,64,36,0.5459935665130615,0.0647805854678154
2,2,64,37,0.3860548138618469,0.10454455763101578
2,2,64,38,0.4059286117553711,0.15857502818107605
2,2,64,39,0.3726702034473419,0.121991828083992
2,2,64,40,0.5227434635162354,0.11035701632499695
2,2,64,41,0.5129285454750061,0.16676178574562073
2,2,64,42,0.5139449238777161,0.09405135363340378
2,2,64,43,0.6326297521591187,0.11068438738584518
2,2,64,44,0.5899931192398071,0.11537863314151764
2,2,64,45,0.4977329671382904,0.10932933539152145
2,2,64,46,0.5058043003082275,0.21310432255268097
2,2,64,47,0.4672389030456543,0.16560839116573334
2,2,64,48,0.5536655187606812,0.08184964954853058
2,2,64,49,0.524985134601593,0.13116978108882904
2,2,64,50,0.4868447482585907,0.14214476943016052
2,2,64,51,0.5651718378067017,0.0604579858481884
2,2,64,52,0.4028385579586029,0.14586973190307617
2,2,64,53,0.5553311705589294,0.12193257361650467
2,2,64,54,0.5396579504013062,0.06754957884550095
2,2,64,55,0.5274118781089783,0.05676964297890663
2,2,64,56,0.3546334207057953,0.05719369649887085
2,2,64,57,0.6318889856338501,0.14700430631637573
2,2,64,58,0.52205890417099,0.12427695840597153
2,2,64,59,0.6125508546829224,0.15251629054546356
2,2,64,60,0.46894699335098267,0.150934100151062
2,2,64,61,0.4936845600605011,0.1056070402264595
2,2,64,62,0.5426244735717773,0.11152245104312897
2,2,64,63,0.49714168906211853,0.16105979681015015
2,3,64,0,0.5268604159355164,0.08703098446130753
2,3,64,1,0.5539549589157104,0.0610046423971653
2,3,64,2,0.6052625775337219,0.040674448013305664
2,3,64,3,0.5777796506881714,0.04949962720274925
2,3,64,4,0.47708579897880554,0.06447002291679382
2,3,64,5,0.551103413105011,0.0915767252445221
2,3,64,6,0.6020445823669434,0.10603834688663483
2,3,64,7,0.4480312466621399,0.026011591777205467
2,3,64,8,0.4879530072212219,0.07845307141542435
2,3,64,9,0.403487890958786,0.10189557075500488
2,3,64,10,0.43578311800956726,0.07466692477464676
2,3,64,11,0.3578731417655945,0.07324253022670746
2,3,64,12,0.4678414463996887,0.1290762722492218
2,3,64,13,0.3923843204975128,0.09278391301631927
2,3,64,14,0.4565654993057251,0.076776884496212
2,3,64,15,0.4815087914466858,0.160964235663414
2,3,64,16,0.478067547082901,0.14959388971328735
2,3,64,17,0.3931017816066742,0.0678676962852478
2,3,64,18,0.5234734416007996,0.028963880613446236
2,3,64,19,0.4262723922729492,0.10646698623895645
2,3,64,20,0.44553273916244507,0.10469517111778259
2,3,64,21,0.4781306982040405,0.05120840296149254
2,3,64,22,0.46455150842666626,0.040707021951675415
2,3,64,23,0.41251158714294434,0.07321912795305252
2,3,64,24,0.4156014919281006,0.06195734068751335
2,3,64,25,0.5454191565513611,0.1375780701637268
2,3,64,26,0.4952738285064697,0.09358260780572891
2,3,64,27,0.44251707196235657,0.06765609234571457
2,3,64,28,0.4870290160179138,0.053003210574388504
2,3,64,29,0.3761664927005768,0.07788794487714767
2,3,64,30,0.4660215377807617,0.16556374728679657
2,3,64,31,0.5690831542015076,0.05433790385723114
2,3,64,32,0.5199830532073975,0.08552221953868866
2,3,64,33,0.5045775175094604,0.1305280476808548
2,3,64,34,0.5699742436408997,0.08438017964363098
2,3,64,35,0.45844805240631104,0.12357454746961594
2,3,64,36,0.4412599503993988,0.05160857364535332
2,3,64,37,0.475005567073822,0.08319872617721558
2,3,64,38,0.4997021555900574,0.050519078969955444
2,3,64,39,0.5480965375900269,0.06089701130986214
2,3,64,40,0.5278680920600891,0.1011173203587532
2,3,64,41,0.48135262727737427,0.10513490438461304
2,3,64,42,0.4874759018421173,0.11034269630908966
2,3,64,43,0.4129025936126709,0.08151513338088989
2,3,64,44,0.4593149721622467,0.09744271636009216
2,3,64,45,0.4297022819519043,0.12648946046829224
2,3,64,46,0.41011300683021545,0.10510928928852081
2,3,64,47,0.624584972858429,0.10375671088695526
2,3,64,48,0.5051854252815247,0.18889403343200684
2,3,64,49,0.6154729127883911,0.09503287076950073
2,3,64,50,0.5945537686347961,0.09752263873815536
2,3,64,51,0.4000128507614136,0.044839538633823395
2,3,64,52,0.4811561703681946,0.1589118391275406
2,3,64,53,0.4657268226146698,0.14377762377262115
2,3,64,54,0.5034736394882202,0.15188953280448914
2,3,64,55,0.4781463146209717,0.12252946197986603
2,3,64,56,0.4900476634502411,0.06587259471416473
2,3,64,57,0.45735323429107666,0.08481180667877197
2,3,64,58,0.5835422277450562,0.11722391843795776
2,3,64,59,0.5697433948516846,0.09518219530582428
2,3,64,60,0.4714292287826538,0.04080980643630028
2,3,64,61,0.5138489007949829,0.06624750047922134
2,3,64,62,0.609773576259613,0.08960790187120438
2,3,64,63,0.5814381837844849,0.10917171090841293
2,4,128,0,0.6213254928588867,0.13373339176177979
2,4,128,1,0.6556280851364136,0.31435832381248474
2,4,128,2,0.7596278786659241,0.20601773262023926
2,4,128,3,0.5929071307182312,0.34890058636665344
2,4,128,4,0.30135661363601685,0.08345476537942886
2,4,128,5,0.4658689498901367,0.272763729095459
2,4,128,6,0.7314122915267944,0.22329287230968475
2,4,128,7,0.5100240707397461,0.24487291276454926
2,4,128,8,0.4292636215686798,0.23731698095798492
2,4,128,9,0.7192825078964233,0.25362834334373474
2,4,128,10,0.38644760847091675,0.1771036833524704
2,4,128,11,0.6682553291320801,0.056828513741493225
2,4,128,12,0.6458055377006531,0.1419997364282608
2,4,128,13,0.6078916192054749,0.36199766397476196
2,4,128,14,0.6349250674247742,0.06866075843572617
2,4,128,15,0.6670144200325012,0.3327710032463074
2,4,128,16,0.695392370223999,0.24255311489105225
2,4,128,17,0.6703159213066101,0.18382686376571655
2,4,128,18,0.28253138065338135,0.19821754097938538
2,4,128,19,0.24470266699790955,0.23373058438301086
2,4,128,20,0.6640816330909729,0.2775683104991913
2,4,128,21,0.5262635350227356,0.05656705051660538
2,4,128,22,0.6709266901016235,0.2937089502811432
2,4,128,23,0.604259729385376,0.055830322206020355
2,4,128,24,0.7775352001190186,0.1277177780866623
2,4,128,25,0.6983577013015747,0.2936098277568817
2,4,128,26,0.7384752631187439,0.10622061043977737
2,4,128,27,0.47955548763275146,0.20494408905506134
2,4,128,28,0.7064457535743713,0.173895463347435
2,4,128,29,0.6159110069274902,0.22425426542758942
2,4,128,30,0.7504913210868835,0.08749382197856903
2,4,128,31,0.7067891955375671,0.28379207849502563
2,4,128,32,0.729901134967804,0.09134303033351898
2,4,128,33,0.6977982521057129,0.24512320756912231
2,4,128,34,0.7625435590744019,0.14517763257026672
2,4,128,35,0.3380906581878662,0.15576604008674622
2,4,128,36,0.3131210505962372,0.17699633538722992
2,4,128,37,0.7925140857696533,0.16604414582252502
2,4,128,38,0.5033005475997925,0.1639413982629776
2,4,128,39,0.6260685324668884,0.30979710817337036
2,4,128,40,0.43181923031806946,0.04859824851155281
2,4,128,41,0.6983545422554016,0.14918413758277893
2,4,128,42,0.5769051909446716,0.052541714161634445
2,4,128,43,0.27422481775283813,0.17897967994213104
2,4,128,44,0.6298465132713318,0.19794055819511414
2,4,128,45,0.7044642567634583,0.21126142144203186
2,4,128,46,0.817694365978241,0.1192958876490593
2,4,128,47,0.7546915411949158,0.1489533632993698
2,4,128,48,0.5343409180641174,0.1021517738699913
2,4,128,49,0.8521913886070251,0.09819167107343674
2,4,128,50,0.6375404000282288,0.2862064242362976
2,4,128,51,0.4428001940250397,0.2506548762321472
2,4,128,52,0.41445979475975037,0.14413432776927948
2,4,128,53,0.3482072651386261,0.09148219227790833
2,4,128,54,0.7182190418243408,0.2830137014389038
2,4,128,55,0.6646785140037537,0.3382096290588379
2,4,128,56,0.4973207414150238,0.092938631772995
2,4,128,57,0.24846306443214417,0.1653071939945221
2,4,128,58,0.7865557074546814,0.16979645192623138
2,4,128,59,0.6927838325500488,0.14670045673847198
2,4,128,60,0.6798552870750427,0.0481155626475811
2,4,128,61,0.6692603826522827,0.23734480142593384
2,4,128,62,0.5846495032310486,0.07394666969776154
2,4,128,63,0.4380528926849365,0.2638204097747803
2,4,128,64,0.7481048107147217,0.21404647827148438
2,4,128,65,0.7636057734489441,0.2007582038640976
2,4,128,66,0.41358470916748047,0.339018851518631
2,4,128,67,0.750741720199585,0.23042751848697662
2,4,128,68,0.4540278911590576,0.24284525215625763
2,4,128,69,0.6402882933616638,0.3264254629611969
2,4,128,70,0.605120062828064,0.22371315956115723
2,4,128,71,0.29943913221359253,0.2161388248205185
2,4,128,72,0.3169289529323578,0.2153979390859604
2,4,128,73,0.26845356822013855,0.17557331919670105
2,4,128,74,0.45821669697761536,0.09227495640516281
2,4,128,75,0.2843458950519562,0.1497524082660675
2,4,128,76,0.31349849700927734,0.14896048605442047
2,4,128,77,0.7268522381782532,0.2646878659725189
2,4,128,78,0.7588817477226257,0.2062355875968933
2,4,128,79,0.7336623072624207,0.22848594188690186
2,4,128,80,0.6022891402244568,0.18842101097106934
2,4,128,81,0.7649315595626831,0.0812053456902504
2,4,128,82,0.2762300372123718,0.18880954384803772
2,4,128,83,0.6962994337081909,0.12377651780843735
2,4,128,84,0.38923728466033936,0.3747780919075012
2,4,128,85,0.5464764833450317,0.05352793261408806
2,4,128,86,0.4973198473453522,0.15045347809791565
2,4,128,87,0.6257336735725403,0.14048361778259277
2,4,128,88,0.672136664390564,0.3339030146598816
2,4,128,89,0.5655384063720703,0.16091977059841156
2,4,128,90,0.764690101146698,0.12768062949180603
2,4,128,91,0.35337916016578674,0.11558722704648972
2,4,128,92,0.27556511759757996,0.2151941955089569
2,4,128,93,0.40351346135139465,0.19827315211296082
2,4,128,94,0.5680414438247681,0.18294300138950348
2,4,128,95,0.7400338053703308,0.10769887268543243
2,4,128,96,0.43656525015830994,0.1062714233994484
2,4,128,97,0.7293208837509155,0.10961227118968964
2,4,128,98,0.6812653541564941,0.1826697289943695
2,4,128,99,0.5674633979797363,0.18094389140605927
2,4,128,100,0.7177404165267944,0.09274005144834518
2,4,128,101,0.2985885441303253,0.20644958317279816
2,4,128,102,0.6216093897819519,0.2737581133842468
2,4,128,103,0.37587636709213257,0.22422301769256592
2,4,128,104,0.47916755080223083,0.09104853123426437
2,4,128,105,0.4656919240951538,0.06187824159860611
2,4,128,106,0.3977673649787903,0.31544867157936096
2,4,128,107,0.6361779570579529,0.3526822328567505
2,4,128,108,0.734356164932251,0.1068168506026268
2,4,128,109,0.41379106044769287,0.1015988141298294
2,4,128,110,0.5738006234169006,0.18268068134784698
2,4,128,111,0.2705116868019104,0.14559559524059296
2,4,128,112,0.7839551568031311,0.11465442925691605
2,4,128,113,0.3936910629272461,0.07911615073680878
2,4,128,114,0.5823251605033875,0.12715931236743927
2,4,128,115,0.5467191338539124,0.22017225623130798
2,4,128,116,0.40649542212486267,0.1167054995894432
2,4,128,117,0.6915677785873413,0.28508591651916504
2,4,128,118,0.7879800200462341,0.12347215414047241
2,4,128,119,0.511199951171875,0.23249533772468567
2,4,128,120,0.3956814706325531,0.15868376195430756
2,4,128,121,0.46753308176994324,0.06966789811849594
2,4,128,122,0.6514741778373718,0.3081037998199463
2,4,128,123,0.26967212557792664,0.10782185941934586
2,4,128,124,0.4654098153114319,0.24347089231014252
2,4,128,125,0.33865460753440857,0.1619388312101364
2,4,128,126,0.600104808807373,0.25195950269699097
2,4,128,127,0.5936597585678101,0.16995346546173096
2,5,128,0,0.48533207178115845,0.09560277312994003
2,5,128,1,0.8143805861473083,0.19365844130516052
2,5,128,2,0.6978471875190735,0.13915769755840302
2,5,128,3,0.6326729655265808,0.07672828435897827
2,5,128,4,0.5685844421386719,0.07788802683353424
2,5,128,5,0.42418405413627625,0.05722322314977646
2,5,128,6,0.6892073750495911,0.23583878576755524
2,5,128,7,0.7526294589042664,0.12944987416267395
2,5,128,8,0.3951314687728882,0.17293111979961395
2,5,128,9,0.7607465982437134,0.16127362847328186
2,5,128,10,0.5987366437911987,0.0565674751996994
2,5,128,11,0.3875795900821686,0.1568056046962738
2,5,128,12,0.2995831370353699,0.1743791401386261
2,5,128,13,0.3731336295604706,0.18709342181682587
2,5,128,14,0.7374804019927979,0.15041403472423553
2,5,128,15,0.6353927850723267,0.154715895652771
2,5,128,16,0.7141513824462891,0.18372634053230286
2,5,128,17,0.6089296936988831,0.04245930537581444
2,5,128,18,0.7908458113670349,0.17093980312347412
2,5,128,19,0.6859680414199829,0.2325063943862915
2,5,128,20,0.6458291411399841,0.11228135973215103
2,5,128,21,0.2870754599571228,0.15566885471343994
2,5,128,22,0.6406534910202026,0.17076435685157776
2,5,128,23,0.6114996671676636,0.06919684261083603
2,5,128,24,0.7681277394294739,0.19632184505462646
2,5,128,25,0.7949370741844177,0.1767730414867401
2,5,128,26,0.7493289113044739,0.1971801519393921
2,5,128,27,0.7670575380325317,0.11562126129865646
2,5,128,28,0.742790162563324,0.18243755400180817
2,5,128,29,0.7327728867530823,0.20040540397167206
2,5,128,30,0.757317066192627,0.15313628315925598
2,5,128,31,0.8120816349983215,0.19099384546279907
2,5,128,32,0.7799160480499268,0.12251724302768707
2,5,128,33,0.5572125911712646,0.06796040385961533
2,5,128,34,0.7380765080451965,0.18160726130008698
2,5,128,35,0.673151969909668,0.113548144698143
2,5,128,36,0.7760063409805298,0.20888693630695343
2,5,128,37,0.7708916068077087,0.21430708467960358
2,5,128,38,0.7785915732383728,0.1466577649116516
2,5,128,39,0.7224860191345215,0.16023267805576324
2,5,128,40,0.38676318526268005,0.0663381814956665
2,5,128,41,0.808182954788208,0.18665823340415955
2,5,128,42,0.429586797952652,0.09427578002214432
2,5,128,43,0.5537404417991638,0.053710151463747025
2,5,128,44,0.7670382857322693,0.19949349761009216
2,5,128,45,0.4601452052593231,0.033240847289562225
2,5,128,46,0.775763213634491,0.1772766411304474
2,5,128,47,0.7491136193275452,0.19049058854579926
2,5,128,48,0.8151490688323975,0.17237424850463867
2,5,128,49,0.7580490112304688,0.11063724756240845
2,5,128,50,0.6930519938468933,0.1801634579896927
2,5,128,51,0.6673694849014282,0.15418899059295654
2,5,128,52,0.6392199397087097,0.08642801642417908
2,5,128,53,0.47421586513519287,0.07453959435224533
2,5,128,54,0.7597672939300537,0.15960709750652313
2,5,128,55,0.7446870803833008,0.23381540179252625
2,5,128,56,0.8001403212547302,0.1440514177083969
2,5,128,57,0.7690934538841248,0.1950468122959137
2,5,128,58,0.7517706751823425,0.23753765225410461
2,5,128,59,0.6509155631065369,0.09689129889011383
2,5,128,60,0.435160368680954,0.07166453450918198
2,5,128,61,0.7346324324607849,0.13657552003860474
2,5,128,62,0.40172961354255676,0.05030164122581482
2,5,128,63,0.31926387548446655,0.1541231870651245
2,5,128,64,0.7918142080307007,0.17325130105018616
2,5,128,65,0.7175936698913574,0.17222914099693298
2,5,128,66,0.7835526466369629,0.18985465168952942
2,5,128,67,0.8053182363510132,0.20146788656711578
2,5,128,68,0.7701236009597778,0.19392620027065277
2,5,128,69,0.7844243049621582,0.20689451694488525
2,5,128,70,0.4848116934299469,0.07769620418548584
2,5,128,71,0.6891880035400391,0.09682323038578033
2,5,128,72,0.7510149478912354,0.17265257239341736
2,5,128,73,0.4711480736732483,0.08001794666051865
2,5,128,74,0.786080002784729,0.2001069039106369
2,5,128,75,0.25995004177093506,0.19418342411518097
2,5,128,76,0.3785409927368164,0.1858980804681778
2,5,128,77,0.7335674166679382,0.12457547336816788
2,5,128,78,0.742047905921936,0.12909828126430511
2,5,128,79,0.7778373956680298,0.19264687597751617
2,5,128,80,0.3278363049030304,0.044356487691402435
2,5,128,81,0.4017598032951355,0.137660950422287
2,5,128,82,0.3982309103012085,0.16175517439842224
2,5,128,83,0.7751855850219727,0.1709272414445877
2,5,128,84,0.7748650908470154,0.20367468893527985
2,5,128,85,0.34695160388946533,0.062136583030223846
2,5,128,86,0.6442633867263794,0.06649699062108994
2,5,128,87,0.566032350063324,0.05608402192592621
2,5,128,88,0.41938790678977966,0.13735012710094452
2,5,128,89,0.8115871548652649,0.1541258990764618
2,5,128,90,0.6460609436035156,0.1008637472987175
2,5,128,91,0.44935834407806396,0.08638720214366913
2,5,128,92,0.7528064846992493,0.24301521480083466
2,5,128,93,0.44280871748924255,0.09872028231620789
2,5,128,94,0.37230566143989563,0.13569284975528717
2,5,128,95,0.7608829140663147,0.21228183805942535
2,5,128,96,0.7514181137084961,0.10118870437145233
2,5,128,97,0.8000538945198059,0.15954048931598663
2,5,128,98,0.7610592842102051,0.22322306036949158
2,5,128,99,0.42915403842926025,0.1328999102115631
2,5,128,100,0.7675961852073669,0.18391945958137512
2,5,128,101,0.7402167916297913,0.2383015751838684
2,5,128,102,0.736430823802948,0.1778126358985901
2,5,128,103,0.38657426834106445,0.11199012398719788
2,5,128,104,0.7235760688781738,0.25338178873062134
2,5,128,105,0.4603882431983948,0.06824710965156555
2,5,128,106,0.5760712027549744,0.046452444046735764
2,5,128,107,0.6553654670715332,0.14549361169338226
2,5,128,108,0.7365884780883789,0.11357217282056808
2,5,128,109,0.5852785706520081,0.0605657696723938
2,5,128,110,0.47685036063194275,0.08327016234397888
2,5,128,111,0.5969058275222778,0.1381838172674179
2,5,128,112,0.7491828799247742,0.14554530382156372
2,5,128,113,0.3935462534427643,0.15835519134998322
2,5,128,114,0.7188498973846436,0.24895629286766052
2,5,128,115,0.7832311391830444,0.1778889149427414
2,5,128,116,0.7078454494476318,0.15922535955905914
2,5,128,117,0.7526304721832275,0.21378113329410553
2,5,128,118,0.7630932331085205,0.18002919852733612
2,5,128,119,0.8140286207199097,0.16168271005153656
2,5,128,120,0.6945741176605225,0.1730765998363495
2,5,128,121,0.6002237796783447,0.03574558347463608
2,5,128,122,0.7726674675941467,0.19687943160533905
2,5,128,123,0.7283995747566223,0.22735345363616943
2,5,128,124,0.6861668229103088,0.10242625325918198
2,5,128,125,0.5912172198295593,0.12945741415023804
2,5,128,126,0.4314975142478943,0.08887213468551636
2,5,128,127,0.5199499726295471,0.133604034781456
3,0,32,0,0.5662133097648621,0.04902676120400429
3,0,32,1,0.4953446686267853,0.060589514672756195
3,0,32,2,0.5690163969993591,0.08630046248435974
3,0,32,3,0.4500959515571594,0.0885855108499527
3,0,32,4,0.3703538775444031,0.0722375214099884
3,0,32,5,0.43686679005622864,0.07397588342428207
3,0,32,6,0.5905250906944275,0.036415308713912964
3,0,32,7,0.3990147113800049,0.05777827650308609
3,0,32,8,0.5674089193344116,0.11440623551607132
3,0,32,9,0.40179064869880676,0.07649438083171844
3,0,32,10,0.32931995391845703,0.056299515068531036
3,0,32,11,0.4415968060493469,0.10321572422981262
3,0,32,12,0.4291745722293854,0.06886616349220276
3,0,32,13,0.3998049199581146,0.10074567794799805
3,0,32,14,0.3919205665588379,0.09390972554683685
3,0,32,15,0.37454771995544434,0.06850173324346542
3,0,32,16,0.4672280251979828,0.04633688926696777
3,0,32,17,0.5383135676383972,0.06473245471715927
3,0,32,18,0.590859591960907,0.05780712142586708
3,0,32,19,0.42670944333076477,0.0829022228717804
3,0,32,20,0.44644397497177124,0.07375060021877289
3,0,32,21,0.43414634466171265,0.0824166014790535
3,0,32,22,0.5972775220870972,0.12062342464923859
3,0,32,23,0.592271089553833,0.06609602272510529
3,0,32,24,0.5638291239738464,0.06630802154541016
3,0,32,25,0.47124847769737244,0.04750268533825874
3,0,32,26,0.5215463638305664,0.09170358628034592
3,0,32,27,0.5340061783790588,0.07427458465099335
3,0,32,28,0.5254170298576355,0.08127883821725845
3,0,32,29,0.48840105533599854,0.05532873049378395
3,0,32,30,0.5068556070327759,0.05905931070446968
3,0,32,31,0.4980536997318268,0.04782002791762352
3,1,32,0,0.30524173378944397,0.10741078108549118
3,1,32,1,0.5646955966949463,0.0450160950422287
3,1,32,2,0.502047061920166,0.07513846457004547
3,1,32,3,0.4695204496383667,0.09326347708702087
3,1,32,4,0.43313515186309814,0.10375697910785675
3,1,32,5,0.40735626220703125,0.055725108832120895
3,1,32,6,0.3355307877063751,0.03574429824948311
3,1,32,7,0.6104466319084167,0.07743348181247711
3,1,32,8,0.6851574182510376,0.11493654549121857
3,1,32,9,0.4848748445510864,0.08512692153453827
3,1,32,10,0.49371615052223206,0.03607760742306709
3,1,32,11,0.44927018880844116,0.09812913089990616
3,1,32,12,0.317649781703949,0.12093251943588257
3,1,32,13,0.39392155408859253,0.044482599943876266
3,1,32,14,0.4335237741470337,0.15404431521892548
3,1,32,15,0.5364116430282593,0.09475617855787277
3,1,32,16,0.6040602326393127,0.045566193759441376
3,1,32,17,0.5695539116859436,0.07458266615867615
3,1,32,18,0.4963826537132263,0.07466758787631989
3,1,32,19,0.4458390176296234,0.03251668065786362
3,1,32,20,0.6240619421005249,0.10103204846382141
3,1,32,21,0.5498596429824829,0.11876189708709717
3,1,32,22,0.5517878532409668,0.11642526835203171
3,1,32,23,0.5366942286491394,0.09354998916387558
3,1,32,24,0.5761187076568604,0.09087426215410233
3,1,32,25,0.45586422085762024,0.055739372968673706
3,1,32,26,0.5053044557571411,0.06967543810606003
3,1,32,27,0.48663130402565,0.15232381224632263
3,1,32,28,0.6100333333015442,0.1624407321214676
3,1,32,29,0.6315731406211853,0.1348753422498703
3,1,32,30,0.5316737294197083,0.027309367433190346
3,1,32,31,0.4831230640411377,0.07623962312936783
3,2,64,0,0.5302871465682983,0.1567569524049759
3,2,64,1,0.3896559476852417,0.1822701394557953
3,2,64,2,0.5290790796279907,0.2273474931716919
3,2,64,3,0.5776585936546326,0.12314855307340622
3,2,64,4,0.5529460310935974,0.1338862180709839
3,2,64,5,0.46890437602996826,0.1283007562160492
3,2,64,6,0.4065935015678406,0.18931370973587036
3,2,64,7,0.6119232773780823,0.17864228785037994
3,2,64,8,0.4624728262424469,0.10762377828359604
3,2,64,9,0.5824669599533081,0.049926724284887314
3,2,64,10,0.6060634255409241,0.1363653689622879
3,2,64,11,0.6088090538978577,0.10139261931180954
3,2,64,12,0.539868950843811,0.19744496047496796
3,2,64,13,0.5457568764686584,0.18377713859081268
3,2,64,14,0.47763609886169434,0.2050996571779251
3,2,64,15,0.5551403164863586,0.2001815289258957
3,2,64,16,0.4521639943122864,0.08165670931339264
3,2,64,17,0.4991316795349121,0.18879902362823486
3,2,64,18,0.4831586182117462,0.10342064499855042
3,2,64,19,0.6014604568481445,0.10631300508975983
3,2,64,20,0.5747195482254028,0.17279602587223053
3,2,64,21,0.5167238116264343,0.07736856490373611
3,2,64,22,0.36357203125953674,0.14408932626247406
3,2,64,23,0.6078487634658813,0.1780279278755188
3,2,64,24,0.6355785131454468,0.13740378618240356
3,2,64,25,0.5418756008148193,0.21634064614772797
3,2,64,26,0.33424073457717896,0.1353597193956375
3,2,64,27,0.5621007084846497,0.16644169390201569
3,2,64,28,0.26254716515541077,0.09644953906536102
3,2,64,29,0.43766409158706665,0.10843704640865326
3,2,64,30,0.5110119581222534,0.15358421206474304
3,2,64,31,0.52978515625,0.06923936307430267
3,2,64,32,0.38208630681037903,0.1354243904352188
3,2,64,33,0.4211326241493225,0.19052168726921082
3,2,64,34,0.505495548248291,0.1569652408361435
3,2,64,35,0.3819285035133362,0.09977949410676956
3,2,64,36,0.5850631594657898,0.11220510303974152
3,2,64,37,0.50926673412323,0.0806899145245552
3,2,64,38,0.5142360329627991,0.22323831915855408
3,2,64,39,0.38879069685935974,0.11014003306627274
3,2,64,40,0.5022943019866943,0.14395371079444885
3,2,64,41,0.6328650116920471,0.0555366687476635
3,2,64,42,0.5524609088897705,0.08235464990139008
3,2,64,43,0.5941397547721863,0.14600451290607452
3,2,64,44,0.41051265597343445,0.11638699471950531
3,2,64,45,0.6306111812591553,0.09589622169733047
3,2,64,46,0.5499518513679504,0.1736442595720291
3,2,64,47,0.5056324005126953,0.12850844860076904
3,2,64,48,0.6102272272109985,0.1145307868719101
3,2,64,49,0.6243248581886292,0.1576191931962967
3,2,64,50,0.5970458388328552,0.10856183618307114
3,2,64,51,0.4940822124481201,0.0853394865989685
3,2,64,52,0.4668099284172058,0.08259471505880356
3,2,64,53,0.4968011975288391,0.15545454621315002
3,2,64,54,0.3565037250518799,0.1734439879655838
3,2,64,55,0.446476548910141,0.08236157149076462
3,2,64,56,0.5312637686729431,0.17561089992523193
3,2,64,57,0.6697011590003967,0.10120643675327301
3,2,64,58,0.4506535530090332,0.18526619672775269
3,2,64,59,0.6507055163383484,0.1493348926305771
3,2,64,60,0.5429083704948425,0.15989305078983307
3,2,64,61,0.40011993050575256,0.0629732608795166
3,2,64,62,0.5177066922187805,0.14261171221733093
3,2,64,63,0.5530003309249878,0.21582353115081787
3,3,64,0,0.5433747172355652,0.15663081407546997
3,3,64,1,0.43168866634368896,0.18080344796180725
3,3,64,2,0.5832089185714722,0.13701575994491577
3,3,64,3,0.410946786403656,0.2335401475429535
3,3,64,4,0.3437691926956177,0.04548826813697815
3,3,64,5,0.41788944602012634,0.1402798444032669
3,3,64,6,0.4199445843696594,0.06211652234196663
3,3,64,7,0.42196714878082275,0.1464768946170807
3,3,64,8,0.4865422546863556,0.12104532122612
3,3,64,9,0.5211915373802185,0.06115054339170456
3,3,64,10,0.44132333993911743,0.07656397670507431
3,3,64,11,0.4690960645675659,0.14426551759243011
3,3,64,12,0.3062281012535095,0.07568326592445374
3,3,64,13,0.504463791847229,0.15206506848335266
3,3,64,14,0.47915026545524597,0.08634727448225021
3,3,64,15,0.46430662274360657,0.04458162561058998
3,3,64,16,0.55894535779953,0.07416552305221558
3,3,64,17,0.5684576630592346,0.0893385261297226
3,3,64,18,0.5895563960075378,0.09457386285066605
3,3,64,19,0.4041052460670471,0.08778383582830429
3,3,64,20,0.47619280219078064,0.08792469650506973
3,3,64,21,0.3626287281513214,0.10281574726104736
3,3,64,22,0.32543298602104187,0.1605253964662552
3,3,64,23,0.4122806787490845,0.0931527242064476
3,3,64,24,0.5276051759719849,0.17823359370231628
3,3,64,25,0.5265583395957947,0.1436295062303543
3,3,64,26,0.4720936417579651,0.16285306215286255
3,3,64,27,0.5063159465789795,0.13542000949382782
3,3,64,28,0.4204972982406616,0.09314370155334473
3,3,64,29,0.5814539790153503,0.11224428564310074
3,3,64,30,0.5208131670951843,0.17270083725452423
3,3,64,31,0.5958094596862793,0.12679333984851837
3,3,64,32,0.4388818144798279,0.06469143182039261
3,3,64,33,0.4611201882362366,0.17259739339351654
3,3,64,34,0.5495690107345581,0.11374018341302872
3,3,64,35,0.36461392045021057,0.10437323153018951
3,3,64,36,0.5184143781661987,0.05321592837572098
3,3,64,37,0.39525002241134644,0.13108861446380615
3,3,64,38,0.5591878294944763,0.08535521477460861
3,3,64,39,0.5610032081604004,0.14029790461063385
3,3,64,40,0.5035707950592041,0.15187287330627441
3,3,64,41,0.6102162599563599,0.15610884130001068
3,3,64,42,0.5723392367362976,0.11195039004087448
3,3,64,43,0.4427725076675415,0.08786828070878983
3,3,64,44,0.4827050566673279,0.2213754951953888
3,3,64,45,0.34885817766189575,0.06680729240179062
3,3,64,46,0.48176297545433044,0.14015327394008636
3,3,64,47,0.3742661774158478,0.17494817078113556
3,3,64,48,0.5119116306304932,0.10876428335905075
3,3,64,49,0.43612927198410034,0.20230917632579803
3,3,64,50,0.41922706365585327,0.11490628123283386
3,3,64,51,0.6401800513267517,0.04530784487724304
3,3,64,52,0.5615085959434509,0.07695718854665756
3,3,64,53,0.40395233035087585,0.08883416652679443
3,3,64,54,0.5128572583198547,0.13439670205116272
3,3,64,55,0.5083467960357666,0.15851344168186188
3,3,64,56,0.5208213329315186,0.15577584505081177
3,3,64,57,0.4705650210380554,0.1456945240497589
3,3,64,58,0.45750659704208374,0.17083080112934113
3,3,64,59,0.49945786595344543,0.09058582037687302
3,3,64,60,0.4273717403411865,0.1156219020485878
3,3,64,61,0.45974284410476685,0.19029942154884338
3,3,64,62,0.4001227915287018,0.17546485364437103
3,3,64,63,0.6050617694854736,0.08746165037155151
3,4,128,0,0.513952910900116,0.1196303442120552
3,4,128,1,0.6491777896881104,0.11815593391656876
3,4,128,2,0.45924851298332214,0.05505053326487541
3,4,128,3,0.5463429093360901,0.020511414855718613
3,4,128,4,0.812282145023346,0.12155309319496155
3,4,128,5,0.7371965646743774,0.22224904596805573
3,4,128,6,0.7476115226745605,0.14349162578582764
3,4,128,7,0.6702311038970947,0.26392030715942383
3,4,128,8,0.6137985587120056,0.31767281889915466
3,4,128,9,0.7040191888809204,0.1570890098810196
3,4,128,10,0.35300859808921814,0.32478269934654236
3,4,128,11,0.44376468658447266,0.3540807366371155
3,4,128,12,0.6753135323524475,0.11907534301280975
3,4,128,13,0.6101688742637634,0.3232257068157196
3,4,128,14,0.616324782371521,0.11114349216222763
3,4,128,15,0.4170264005661011,0.25667038559913635
3,4,128,16,0.41036513447761536,0.13738735020160675
3,4,128,17,0.6015521287918091,0.2741343379020691
3,4,128,18,0.6470558643341064,0.38586434721946716
3,4,128,19,0.8022481799125671,0.11368458718061447
3,4,128,20,0.4491491913795471,0.2952202260494232
3,4,128,21,0.7793747782707214,0.1297745406627655
3,4,128,22,0.3470819592475891,0.07114928215742111
3,4,128,23,0.825843095779419,0.10817863792181015
3,4,128,24,0.6479278206825256,0.25149059295654297
3,4,128,25,0.6839180588722229,0.23384930193424225
3,4,128,26,0.3953663408756256,0.2809406518936157
3,4,128,27,0.41606828570365906,0.287699818611145
3,4,128,28,0.5170745253562927,0.2282964587211609
3,4,128,29,0.7096807360649109,0.22344638407230377
3,4,128,30,0.6871174573898315,0.09125085920095444
3,4,128,31,0.4203563630580902,0.28275981545448303
3,4,128,32,0.3750840425491333,0.11398003250360489
3,4,128,33,0.4383934736251831,0.24264036118984222
3,4,128,34,0.4747125506401062,0.3373309373855591
3,4,128,35,0.6968311071395874,0.2081083357334137
3,4,128,36,0.626885175704956,0.30069229006767273
3,4,128,37,0.6996420621871948,0.20247402787208557
3,4,128,38,0.5837242007255554,0.20683124661445618
3,4,128,39,0.44486114382743835,0.30623316764831543
3,4,128,40,0.49122101068496704,0.1866815835237503
3,4,128,41,0.6937494277954102,0.2363964468240738
3,4,128,42,0.45881545543670654,0.1534060388803482
3,4,128,43,0.4213728904724121,0.24884608387947083
3,4,128,44,0.5414096713066101,0.24966272711753845
3,4,128,45,0.40007585287094116,0.18527816236019135
3,4,128,46,0.4239579439163208,0.3390967845916748
3,4,128,47,0.5285242795944214,0.25893351435661316
3,4,128,48,0.6724523305892944,0.12759222090244293
3,4,128,49,0.2667252719402313,0.11815119534730911
3,4,128,50,0.32211562991142273,0.15016713738441467
3,4,128,51,0.753252387046814,0.11962691694498062
3,4,128,52,0.35846230387687683,0.20912332832813263
3,4,128,53,0.5166767239570618,0.03781765699386597
3,4,128,54,0.7138286828994751,0.17793940007686615
3,4,128,55,0.3701980412006378,0.3169391453266144
3,4,128,56,0.40888711810112,0.219878152012825
3,4,128,57,0.7592617273330688,0.10311544686555862
3,4,128,58,0.6676830053329468,0.32213398814201355
3,4,128,59,0.30161795020103455,0.18357039988040924
3,4,128,60,0.6509204506874084,0.15092237293720245
3,4,128,61,0.366176038980484,0.27282479405403137
3,4,128,62,0.6661944389343262,0.2376869022846222
3,4,128,63,0.6876190900802612,0.20292042195796967
3,4,128,64,0.6422097086906433,0.34848421812057495
3,4,128,65,0.39432501792907715,0.30549386143684387
3,4,128,66,0.2787400186061859,0.11804057657718658
3,4,128,67,0.22169902920722961,0.14299391210079193
3,4,128,68,0.6951712965965271,0.10399684309959412
3,4,128,69,0.5999892950057983,0.31107640266418457
3,4,128,70,0.7240105271339417,0.2240334153175354
3,4,128,71,0.674824595451355,0.2570960819721222
3,4,128,72,0.4209914803504944,0.11723244935274124
3,4,128,73,0.6278799176216125,0.3093697726726532
3,4,128,74,0.7111236453056335,0.10314594209194183
3,4,128,75,0.24707520008087158,0.15921823680400848
3,4,128,76,0.6349930167198181,0.117048479616642
3,4,128,77,0.42451146245002747,0.3227735757827759
3,4,128,78,0.682441234588623,0.23579388856887817
3,4,128,79,0.6738263368606567,0.2630254328250885
3,4,128,80,0.4133286774158478,0.335222065448761
3,4,128,81,0.3812476098537445,0.2468293309211731
3,4,128,82,0.6312249898910522,0.2280036062002182
3,4,128,83,0.45838379859924316,0.1006491407752037
3,4,128,84,0.5998140573501587,0.30287596583366394
3,4,128,85,0.6457226872444153,0.306021511554718
3,4,128,86,0.7028270363807678,0.207892507314682
3,4,128,87,0.3971521258354187,0.2905859053134918
3,4,128,88,0.46391937136650085,0.21155869960784912
3,4,128,89,0.6182379126548767,0.09041197597980499
3,4,128,90,0.5192535519599915,0.07190054655075073
3,4,128,91,0.5543645024299622,0.16838586330413818
3,4,128,92,0.7062979936599731,0.21391738951206207
3,4,128,93,0.5298579335212708,0.17246763408184052
3,4,128,94,0.7162882089614868,0.10908357053995132
3,4,128,95,0.5131244659423828,0.06041867658495903
3,4,128,96,0.7228701710700989,0.1724005490541458
3,4,128,97,0.20536163449287415,0.14884397387504578
3,4,128,98,0.26927152276039124,0.1273118555545807
3,4,128,99,0.8317188024520874,0.10058245807886124
3,4,128,100,0.5612919330596924,0.09935418516397476
3,4,128,101,0.42111751437187195,0.3565087616443634
3,4,128,102,0.6824840307235718,0.23323944211006165
3,4,128,103,0.6369324326515198,0.27477946877479553
3,4,128,104,0.685893177986145,0.2881976068019867
3,4,128,105,0.6534898281097412,0.16216988861560822
3,4,128,106,0.31606730818748474,0.13851335644721985
3,4,128,107,0.5755674839019775,0.14330480992794037
3,4,128,108,0.6266534924507141,0.18028075993061066
3,4,128,109,0.6495737433433533,0.2329920530319214
3,4,128,110,0.7731958031654358,0.09891865402460098
3,4,128,111,0.4765867590904236,0.08184977620840073
3,4,128,112,0.7750543355941772,0.1297861635684967
3,4,128,113,0.8230645060539246,0.10897710174322128
3,4,128,114,0.2962607443332672,0.11867157369852066
3,4,128,115,0.8572649955749512,0.10892090201377869
3,4,128,116,0.46249210834503174,0.12950333952903748
3,4,128,117,0.6403133273124695,0.26214325428009033
3,4,128,118,0.2812768518924713,0.11703667044639587
3,4,128,119,0.6805799603462219,0.2635117471218109
3,4,128,120,0.3798631429672241,0.13088494539260864
3,4,128,121,0.3331247866153717,0.08000415563583374
3,4,128,122,0.5918272733688354,0.1915331482887268
3,4,128,123,0.6142303943634033,0.1852978765964508
3,4,128,124,0.6177893280982971,0.23508618772029877
3,4,128,125,0.49111706018447876,0.10462315380573273
3,4,128,126,0.6144493222236633,0.061255838721990585
3,4,128,127,0.750342071056366,0.10173008590936661
3,5,128,0,0.7347977757453918,0.09594877809286118
3,5,128,1,0.600973904132843,0.11583569645881653
3,5,128,2,0.6564354300498962,0.1341278851032257
3,5,128,3,0.41291993856430054,0.10935144871473312
3,5,128,4,0.7779558300971985,0.11132235825061798
3,5,128,5,0.7073093056678772,0.26891595125198364
3,5,128,6,0.7833313345909119,0.14420391619205475
3,5,128,7,0.7760770916938782,0.196102574467659
3,5,128,8,0.7102299928665161,0.15708863735198975
3,5,128,9,0.7666950821876526,0.13862383365631104
3,5,128,10,0.43584465980529785,0.1055343747138977
3,5,128,11,0.4133603274822235,0.19124004244804382
3,5,128,12,0.7732815146446228,0.14027483761310577
3,5,128,13,0.671722948551178,0.10839886218309402
3,5,128,14,0.8164364695549011,0.08574273437261581
3,5,128,15,0.36628109216690063,0.08686789125204086
3,5,128,16,0.499421089887619,0.1278287023305893
3,5,128,17,0.7164418697357178,0.22672748565673828
3,5,128,18,0.774102509021759,0.16304296255111694
3,5,128,19,0.7864537239074707,0.11025360971689224
3,5,128,20,0.6476185321807861,0.16036437451839447
3,5,128,21,0.7014994621276855,0.11866495758295059
3,5,128,22,0.6323494911193848,0.09622473269701004
3,5,128,23,0.7231440544128418,0.1885342299938202
3,5,128,24,0.7171871662139893,0.2140059471130371
3,5,128,25,0.6970990896224976,0.24364040791988373
3,5,128,26,0.5525808334350586,0.13929736614227295
3,5,128,27,0.6056893467903137,0.10174306482076645
3,5,128,28,0.7860853672027588,0.12656638026237488
3,5,128,29,0.5969198942184448,0.14591170847415924
3,5,128,30,0.6510515213012695,0.19733533263206482
3,5,128,31,0.4151839315891266,0.18064190447330475
3,5,128,32,0.4151497483253479,0.1564425230026245
3,5,128,33,0.6156714558601379,0.1211758553981781
3,5,128,34,0.5402154326438904,0.1358024775981903
3,5,128,35,0.7517353892326355,0.17228460311889648
3,5,128,36,0.5252813100814819,0.16264304518699646
3,5,128,37,0.7522636651992798,0.1757362335920334
3,5,128,38,0.7856857180595398,0.10627878457307816
3,5,128,39,0.7941330671310425,0.10159700363874435
3,5,128,40,0.7064660787582397,0.11440710723400116
3,5,128,41,0.6858737468719482,0.21927902102470398
3,5,128,42,0.5715824961662292,0.18369360268115997
3,5,128,43,0.5459722280502319,0.08394529670476913
3,5,128,44,0.816159188747406,0.13888949155807495
3,5,128,45,0.701280415058136,0.1093432679772377
3,5,128,46,0.6646487712860107,0.09943229705095291
3,5,128,47,0.560494601726532,0.2687414586544037
3,5,128,48,0.35359832644462585,0.0935000404715538
3,5,128,49,0.2949713468551636,0.1690639853477478
3,5,128,50,0.6920023560523987,0.16117390990257263
3,5,128,51,0.7299525737762451,0.08671946078538895
3,5,128,52,0.46296238899230957,0.09083537012338638
3,5,128,53,0.6884182095527649,0.09981800615787506
3,5,128,54,0.6945504546165466,0.12122080475091934
3,5,128,55,0.7916330099105835,0.11945784837007523
3,5,128,56,0.6399410367012024,0.13068145513534546
3,5,128,57,0.7174946665763855,0.13810378313064575
3,5,128,58,0.7259777188301086,0.20739255845546722
3,5,128,59,0.6189203262329102,0.1950739324092865
3,5,128,60,0.7759296894073486,0.11814272403717041
3,5,128,61,0.7276954650878906,0.07545696943998337
3,5,128,62,0.7530223727226257,0.19939160346984863
3,5,128,63,0.744242250919342,0.17799951136112213
3,5,128,64,0.6880965232849121,0.24422304332256317
3,5,128,65,0.5154591798782349,0.2073686420917511
3,5,128,66,0.6785751581192017,0.07405392825603485
3,5,128,67,0.5550291538238525,0.037807244807481766
3,5,128,68,0.7604472637176514,0.1796979457139969
3,5,128,69,0.6512951254844666,0.24809570610523224
3,5,128,70,0.8274601697921753,0.09391933679580688
3,5,128,71,0.7770362496376038,0.15404611825942993
3,5,128,72,0.5226376056671143,0.06227878853678703
3,5,128,73,0.489387184381485,0.08378788083791733
3,5,128,74,0.7513489127159119,0.1258244514465332
3,5,128,75,0.43376317620277405,0.12134335935115814
3,5,128,76,0.4502221345901489,0.11588676273822784
3,5,128,77,0.35499322414398193,0.2280554473400116
3,5,128,78,0.7677140831947327,0.07968471199274063
3,5,128,79,0.7195628881454468,0.23151050508022308
3,5,128,80,0.7656130194664001,0.14617662131786346
3,5,128,81,0.260593444108963,0.10929864645004272
3,5,128,82,0.6694433689117432,0.2839341461658478
3,5,128,83,0.8236719965934753,0.1360442042350769
3,5,128,84,0.6236509680747986,0.2151028960943222
3,5,128,85,0.7747045159339905,0.16783615946769714
3,5,128,86,0.7553752660751343,0.15118998289108276
3,5,128,87,0.5593839883804321,0.1266973465681076
3,5,128,88,0.7424494028091431,0.2384130358695984
3,5,128,89,0.5897403955459595,0.0809459388256073
3,5,128,90,0.4556370973587036,0.23798765242099762
3,5,128,91,0.3560018539428711,0.06344480067491531
3,5,128,92,0.3207351267337799,0.20263351500034332
3,5,128,93,0.5696178674697876,0.13353601098060608
3,5,128,94,0.7349008321762085,0.189079150557518
3,5,128,95,0.4877009987831116,0.2095182240009308
3,5,128,96,0.7441668510437012,0.20544028282165527
3,5,128,97,0.3798571228981018,0.3083660304546356
3,5,128,98,0.4990975260734558,0.16867388784885406
3,5,128,99,0.7822075486183167,0.1310087889432907
3,5,128,100,0.67432701587677,0.1697370558977127
3,5,128,101,0.2899371087551117,0.14176751673221588
3,5,128,102,0.7899008393287659,0.1522974818944931
3,5,128,103,0.7750424146652222,0.18803627789020538
3,5,128,104,0.8148319721221924,0.11738944053649902
3,5,128,105,0.7395987510681152,0.08842188864946365
3,5,128,106,0.37692272663116455,0.24432340264320374
3,5,128,107,0.772646963596344,0.17177657783031464
3,5,128,108,0.7227457761764526,0.07810243964195251
3,5,128,109,0.5420981645584106,0.19455525279045105
3,5,128,110,0.792518138885498,0.14910665154457092
3,5,128,111,0.5088084936141968,0.06498900800943375
3,5,128,112,0.7511412501335144,0.11820977926254272
3,5,128,113,0.8086889386177063,0.1218978688120842
3,5,128,114,0.42800068855285645,0.21758730709552765
3,5,128,115,0.8162891864776611,0.10118500143289566
3,5,128,116,0.800042986869812,0.10420418530702591
3,5,128,117,0.6622052788734436,0.2259029597043991
3,5,128,118,0.43860530853271484,0.07069974392652512
3,5,128,119,0.6837438344955444,0.2067505121231079
3,5,128,120,0.6884036660194397,0.17865988612174988
3,5,128,121,0.3545110821723938,0.10326434671878815
3,5,128,122,0.7491539716720581,0.22345849871635437
3,5,128,123,0.313174307346344,0.12574145197868347
3,5,128,124,0.5136850476264954,0.0458742119371891
3,5,128,125,0.680030107498169,0.16713906824588776
3,5,128,126,0.5157942175865173,0.11672051250934601
3,5,128,127,0.79886394739151,0.09017134457826614
4,0,32,0,0.5448729991912842,0.12238683551549911
4,0,32,1,0.5007479190826416,0.0412600040435791
4,0,32,2,0.4661670923233032,0.12852619588375092
4,0,32,3,0.4332367777824402,0.0701223760843277
4,0,32,4,0.514491617679596,0.08608955889940262
4,0,32,5,0.5840432047843933,0.1009485274553299
4,0,32,6,0.49719467759132385,0.10593876242637634
4,0,32,7,0.3808177411556244,0.07139325886964798
4,0,32,8,0.6401407718658447,0.07760396599769592
4,0,32,9,0.6127488017082214,0.024747468531131744
4,0,32,10,0.5762443542480469,0.04506319761276245
4,0,32,11,0.4510304927825928,0.10078129917383194
4,0,32,12,0.529435932636261,0.1134907677769661
4,0,32,13,0.4777687191963196,0.10425393283367157
4,0,32,14,0.4200240969657898,0.08460621535778046
4,0,32,15,0.6288769841194153,0.06705664098262787
4,0,32,16,0.6167221665382385,0.027458002790808678
4,0,32,17,0.550976574420929,0.11267687380313873
4,0,32,18,0.44582852721214294,0.03822188824415207
4,0,32,19,0.6081609725952148,0.07765787839889526
4,0,32,20,0.45091646909713745,0.04934903234243393
4,0,32,21,0.44138282537460327,0.06818842142820358
4,0,32,22,0.4364960491657257,0.07405006885528564
4,0,32,23,0.6198862195014954,0.04324017092585564
4,0,32,24,0.5397883057594299,0.10175967961549759
4,0,32,25,0.4005749523639679,0.09662662446498871
4,0,32,26,0.4476393461227417,0.10249504446983337
4,0,32,27,0.3914545178413391,0.08512523025274277
4,0,32,28,0.46741995215415955,0.13080862164497375
4,0,32,29,0.4188729524612427,0.04238313063979149
4,0,32,30,0.3541300892829895,0.03074892796576023
4,0,32,31,0.42672502994537354,0.02667972631752491
4,1,32,0,0.6404422521591187,0.060606274753808975
4,1,32,1,0.4398815929889679,0.03406484052538872
4,1,32,2,0.46831753849983215,0.038345806300640106
4,1,32,3,0.478848397731781,0.11249418556690216
4,1,32,4,0.42775288224220276,0.018141865730285645
4,1,32,5,0.41057220101356506,0.09098492562770844
4,1,32,6,0.5365201830863953,0.09521529823541641
4,1,32,7,0.5919255018234253,0.04251787066459656
4,1,32,8,0.49840736389160156,0.07930167019367218
4,1,32,9,0.41375818848609924,0.06922817975282669
4,1,32,10,0.6011753082275391,0.041974157094955444
4,1,32,11,0.5721457600593567,0.06958222389221191
4,1,32,12,0.5342873930931091,0.060006123036146164
4,1,32,13,0.515408992767334,0.06573545932769775
4,1,32,14,0.47039783000946045,0.05096917226910591
4,1,32,15,0.4243289530277252,0.07678724825382233
4,1,32,16,0.5829159021377563,0.012620178051292896
4,1,32,17,0.5612350106239319,0.05460304766893387
4,1,32,18,0.46324118971824646,0.07035918533802032
4,1,32,19,0.5402705669403076,0.09430067986249924
4,1,32,20,0.594285786151886,0.07102618366479874
4,1,32,21,0.6338397860527039,0.042904697358608246
4,1,32,22,0.5843197703361511,0.016238762065768242
4,1,32,23,0.4421372413635254,0.0794445127248764
4,1,32,24,0.49036315083503723,0.12103340774774551
4,1,32,25,0.3863416910171509,0.05040150508284569
4,1,32,26,0.37731847167015076,0.032409682869911194
4,1,32,27,0.610158383846283,0.038592591881752014
4,1,32,28,0.393856942653656,0.03452974557876587
4,1,32,29,0.6151092052459717,0.03725998476147652
4,1,32,30,0.5979662537574768,0.01625289022922516
4,1,32,31,0.5574815273284912,0.07984282821416855
4,2,64,0,0.6548568606376648,0.06582430750131607
4,2,64,1,0.381892591714859,0.06849466264247894
4,2,64,2,0.4070053696632385,0.10798603296279907
4,2,64,3,0.578266441822052,0.10396132618188858
4,2,64,4,0.49345770478248596,0.08053185045719147
4,2,64,5,0.595659613609314,0.03380557522177696
4,2,64,6,0.6999809145927429,0.13855093717575073
4,2,64,7,0.6392517685890198,0.08033976703882217
4,2,64,8,0.615757405757904,0.10773864388465881
4,2,64,9,0.47054895758628845,0.09705519676208496
4,2,64,10,0.48642680048942566,0.1718822419643402
4,2,64,11,0.45282015204429626,0.048116546124219894
4,2,64,12,0.454610139131546,0.04480277746915817
4,2,64,13,0.5308915376663208,0.05969208478927612
4,2,64,14,0.4349710941314697,0.06763046234846115
4,2,64,15,0.5742653012275696,0.15304569900035858
4,2,64,16,0.7013988494873047,0.12069058418273926
4,2,64,17,0.42423215508461,0.144514262676239
4,2,64,18,0.3810233473777771,0.22527793049812317
4,2,64,19,0.5225934386253357,0.11606790125370026
4,2,64,20,0.6828826665878296,0.15619789063930511
4,2,64,21,0.5961371064186096,0.17005503177642822
4,2,64,22,0.45102450251579285,0.044696416705846786
4,2,64,23,0.5017707943916321,0.15412041544914246
4,2,64,24,0.48695269227027893,0.08195456862449646
4,2,64,25,0.4120153486728668,0.11420605331659317
4,2,64,26,0.38277366757392883,0.11940079927444458
4,2,64,27,0.42872899770736694,0.04218859225511551
4,2,64,28,0.4911843240261078,0.16896028816699982
4,2,64,29,0.5375590324401855,0.06471625715494156
4,2,64,30,0.33194977045059204,0.08730344474315643
4,2,64,31,0.5706688761711121,0.12200936675071716
4,2,64,32,0.5335559844970703,0.07178139686584473
4,2,64,33,0.6296318173408508,0.11201252788305283
4,2,64,34,0.3709118068218231,0.06555727869272232
4,2,64,35,0.39341703057289124,0.13350190222263336
4,2,64,36,0.5249285101890564,0.0511554479598999
4,2,64,37,0.4732744097709656,0.0619443915784359
4,2,64,38,0.5701315999031067,0.09778173267841339
4,2,64,39,0.5778350830078125,0.05754092335700989
4,2,64,40,0.36735332012176514,0.14007852971553802
4,2,64,41,0.4153830111026764,0.1091519370675087
4,2,64,42,0.6892881393432617,0.07661554217338562
4,2,64,43,0.43508681654930115,0.1129947081208229
4,2,64,44,0.30405130982398987,0.1182619035243988
4,2,64,45,0.6410998106002808,0.08505459874868393
4,2,64,46,0.5994738936424255,0.10514337569475174
4,2,64,47,0.5835481286048889,0.07049495726823807
4,2,64,48,0.531110405921936,0.04088074713945389
4,2,64,49,0.36435195803642273,0.11028864234685898
4,2,64,50,0.4012400507926941,0.1378863900899887
4,2,64,51,0.4249286949634552,0.06662758439779282
4,2,64,52,0.5906888842582703,0.05004986375570297
4,2,64,53,0.5553330779075623,0.13792797923088074
4,2,64,54,0.41457539796829224,0.0788077637553215
4,2,64,55,0.7064849138259888,0.09300747513771057
4,2,64,56,0.38125836849212646,0.053208839148283005
4,2,64,57,0.6057118773460388,0.08125030249357224
4,2,64,58,0.4420074224472046,0.12920087575912476
4,2,64,59,0.5628988146781921,0.09969251602888107
4,2,64,60,0.7109584808349609,0.11829366534948349
4,2,64,61,0.6757457852363586,0.14148537814617157
4,2,64,62,0.3993447422981262,0.0478556752204895
4,2,64,63,0.46821510791778564,0.09198419749736786
4,3,64,0,0.4628811180591583,0.18656286597251892
4,3,64,1,0.4051051735877991,0.031201602891087532
4,3,64,2,0.411459356546402,0.10280368477106094
4,3,64,3,0.4499182105064392,0.05997021123766899
4,3,64,4,0.5108153820037842,0.10614288598299026
4,3,64,5,0.49116164445877075,0.08677656203508377
4,3,64,6,0.557796835899353,0.1490999162197113
4,3,64,7,0.3216818869113922,0.05895809084177017
4,3,64,8,0.3942933678627014,0.14799875020980835
4,3,64,9,0.49290668964385986,0.14148351550102234
4,3,64,10,0.48112696409225464,0.10641486197710037
4,3,64,11,0.498627245426178,0.1010742336511612
4,3,64,12,0.5918293595314026,0.16153475642204285
4,3,64,13,0.6576826572418213,0.08698007464408875
4,3,64,14,0.5119854211807251,0.10325612127780914
4,3,64,15,0.5058820843696594,0.14619554579257965
4,3,64,16,0.6136706471443176,0.09494689851999283
4,3,64,17,0.40284112095832825,0.14556606113910675
4,3,64,18,0.4718644320964813,0.2563022971153259
4,3,64,19,0.46726787090301514,0.14975768327713013
4,3,64,20,0.41062650084495544,0.10109570622444153
4,3,64,21,0.5112438797950745,0.14003032445907593
4,3,64,22,0.4956076145172119,0.17395633459091187
4,3,64,23,0.6663324236869812,0.052478574216365814
4,3,64,24,0.5099785923957825,0.07714918255805969
4,3,64,25,0.5947751402854919,0.07863763719797134
4,3,64,26,0.48588788509368896,0.17156675457954407
4,3,64,27,0.5654042363166809,0.0480043888092041
4,3,64,28,0.42832398414611816,0.03902648761868477
4,3,64,29,0.4841138422489166,0.08083013445138931
4,3,64,30,0.37847912311553955,0.13524755835533142
4,3,64,31,0.37376338243484497,0.12790195643901825
4,3,64,32,0.5944938063621521,0.10154088586568832
4,3,64,33,0.4619975984096527,0.11095341295003891
4,3,64,34,0.4899473190307617,0.09376709163188934
4,3,64,35,0.46423640847206116,0.28117331862449646
4,3,64,36,0.6683679819107056,0.09491918236017227
4,3,64,37,0.36784014105796814,0.1234918087720871
4,3,64,38,0.6324263215065002,0.10187549889087677
4,3,64,39,0.40375232696533203,0.10865052044391632
4,3,64,40,0.39676275849342346,0.10375817120075226
4,3,64,41,0.5065547227859497,0.15210086107254028
4,3,64,42,0.509034276008606,0.04774903133511543
4,3,64,43,0.44778305292129517,0.17899058759212494
4,3,64,44,0.2695367634296417,0.13930366933345795
4,3,64,45,0.4517941176891327,0.09376492351293564
4,3,64,46,0.6020389199256897,0.11968360096216202
4,3,64,47,0.4721861779689789,0.14767836034297943
4,3,64,48,0.4350781738758087,0.11622496694326401
4,3,64,49,0.6077249050140381,0.07919729501008987
4,3,64,50,0.4993148446083069,0.11869862675666809
4,3,64,51,0.578593909740448,0.19184203445911407
4,3,64,52,0.5350252985954285,0.132577046751976
4,3,64,53,0.6035097241401672,0.1469086855649948
4,3,64,54,0.3707011044025421,0.08398450165987015
4,3,64,55,0.6336054801940918,0.0742291659116745
4,3,64,56,0.4569052755832672,0.10778851807117462
4,3,64,57,0.4767290949821472,0.1591414213180542
4,3,64,58,0.49444112181663513,0.10729904472827911
4,3,64,59,0.49973082542419434,0.04915675148367882
4,3,64,60,0.4206712245941162,0.16776660084724426
4,3,64,61,0.4783344864845276,0.1235373243689537
4,3,64,62,0.45744529366493225,0.17383414506912231
4,3,64,63,0.36081162095069885,0.1739892065525055
4,4,128,0,0.7792069911956787,0.12702655792236328
4,4,128,1,0.8089022040367126,0.13789084553718567
4,4,128,2,0.7314706444740295,0.207596555352211
4,4,128,3,0.7137857675552368,0.22890494763851166
4,4,128,4,0.6738182306289673,0.15686959028244019
4,4,128,5,0.7439460158348083,0.19472986459732056
4,4,128,6,0.6863150000572205,0.05793451890349388
4,4,128,7,0.2345864325761795,0.1529076248407364
4,4,128,8,0.7224249243736267,0.16500931978225708
4,4,128,9,0.48611462116241455,0.07954981923103333
4,4,128,10,0.29995447397232056,0.2164001762866974
4,4,128,11,0.5430359840393066,0.05603903904557228
4,4,128,12,0.3866465985774994,0.07446913421154022
4,4,128,13,0.2490040361881256,0.15257808566093445
4,4,128,14,0.33068495988845825,0.1799887865781784
4,4,128,15,0.6604905128479004,0.10351056605577469
4,4,128,16,0.39147454500198364,0.23295322060585022
4,4,128,17,0.6391215324401855,0.08846122026443481
4,4,128,18,0.6963161826133728,0.1799629032611847
4,4,128,19,0.6632511615753174,0.05156385526061058
4,4,128,20,0.42821282148361206,0.09578470885753632
4,4,128,21,0.7264997959136963,0.2363392412662506
4,4,128,22,0.711531400680542,0.2772936224937439
4,4,128,23,0.4241594076156616,0.14388540387153625
4,4,128,24,0.7483600378036499,0.1019543930888176
4,4,128,25,0.3568890392780304,0.22260220348834991
4,4,128,26,0.7796959280967712,0.14402621984481812
4,4,128,27,0.7149636149406433,0.20331498980522156
4,4,128,28,0.732807457447052,0.216510608792305
4,4,128,29,0.29336461424827576,0.1905578225851059
4,4,128,30,0.3615884780883789,0.1491239368915558
4,4,128,31,0.6313686966896057,0.10751936584711075
4,4,128,32,0.32931432127952576,0.13650357723236084
4,4,128,33,0.6521352529525757,0.2994111180305481
4,4,128,34,0.7107200622558594,0.2598839998245239
4,4,128,35,0.6782459020614624,0.16926954686641693
4,4,128,36,0.46408316493034363,0.07483036816120148
4,4,128,37,0.44471678137779236,0.03749901428818703
4,4,128,38,0.29593226313591003,0.1108020469546318
4,4,128,39,0.5511428117752075,0.05578598752617836
4,4,128,40,0.402765691280365,0.3029116988182068
4,4,128,41,0.3452877700328827,0.16981887817382812
4,4,128,42,0.6298295855522156,0.16197477281093597
4,4,128,43,0.807146430015564,0.14057502150535583
4,4,128,44,0.7025691270828247,0.1357116848230362
4,4,128,45,0.4180949628353119,0.26333048939704895
4,4,128,46,0.6698151230812073,0.3047633469104767
4,4,128,47,0.3260624408721924,0.17088642716407776
4,4,128,48,0.6790054440498352,0.17982369661331177
4,4,128,49,0.7196395993232727,0.22930356860160828
4,4,128,50,0.6916919350624084,0.23391780257225037
4,4,128,51,0.4828910529613495,0.07369360327720642
4,4,128,52,0.7308138608932495,0.21862585842609406
4,4,128,53,0.6401509046554565,0.06832746416330338
4,4,128,54,0.5856246948242188,0.0659729465842247
4,4,128,55,0.5856754779815674,0.1450291872024536
4,4,128,56,0.3139882981777191,0.1103731170296669
4,4,128,57,0.6659041047096252,0.2749500870704651
4,4,128,58,0.6896020174026489,0.2661771774291992
4,4,128,59,0.3551035523414612,0.29543444514274597
4,4,128,60,0.4202437698841095,0.10416421294212341
4,4,128,61,0.7380853295326233,0.1303502917289734
4,4,128,62,0.3465280830860138,0.11812914162874222
4,4,128,63,0.7998688817024231,0.14687497913837433
4,4,128,64,0.4578612744808197,0.07317542284727097
4,4,128,65,0.5633635520935059,0.04751782491803169
4,4,128,66,0.6602606177330017,0.20914329588413239
4,4,128,67,0.7309234738349915,0.1473672091960907
4,4,128,68,0.7321072816848755,0.20294487476348877
4,4,128,69,0.4525067210197449,0.06259785592556
4,4,128,70,0.28643399477005005,0.25185224413871765
4,4,128,71,0.6675812005996704,0.22608061134815216
4,4,128,72,0.7308162450790405,0.11173158884048462
4,4,128,73,0.32622000575065613,0.3193063735961914
4,4,128,74,0.7649865746498108,0.19655358791351318
4,4,128,75,0.49544551968574524,0.17422273755073547
4,4,128,76,0.6697288155555725,0.1177964061498642
4,4,128,77,0.6841447949409485,0.15569838881492615
4,4,128,78,0.3746078312397003,0.09697076678276062
4,4,128,79,0.6686246991157532,0.11943390965461731
4,4,128,80,0.46410951018333435,0.22199440002441406
4,4,128,81,0.6053232550621033,0.18445193767547607
4,4,128,82,0.329344779253006,0.3015423119068146
4,4,128,83,0.7143764495849609,0.3257489502429962
4,4,128,84,0.7973345518112183,0.10257700830698013
4,4,128,85,0.33739203214645386,0.19356000423431396
4,4,128,86,0.65651535987854,0.22010253369808197
4,4,128,87,0.35093405842781067,0.21294450759887695
4,4,128,88,0.7766059637069702,0.08024611324071884
4,4,128,89,0.6286624670028687,0.3105483651161194
4,4,128,90,0.6993057727813721,0.20011229813098907
4,4,128,91,0.5481542944908142,0.05580434948205948
4,4,128,92,0.33810946345329285,0.13509264588356018
4,4,128,93,0.5527815818786621,0.06229271739721298
4,4,128,94,0.32558175921440125,0.16464689373970032
4,4,128,95,0.24457207322120667,0.08926719427108765
4,4,128,96,0.6345072984695435,0.09869098663330078
4,4,128,97,0.7314094305038452,0.21691791713237762
4,4,128,98,0.692129373550415,0.15083961188793182
4,4,128,99,0.7240843176841736,0.1659594476222992
4,4,128,100,0.8039135336875916,0.11381382495164871
4,4,128,101,0.7296762466430664,0.1619316190481186
4,4,128,102,0.6861811280250549,0.08429209142923355
4,4,128,103,0.6824543476104736,0.30405041575431824
4,4,128,104,0.6884294748306274,0.28831472992897034
4,4,128,105,0.33899521827697754,0.1339091956615448
4,4,128,106,0.6930043697357178,0.21487192809581757
4,4,128,107,0.4067997932434082,0.13142944872379303
4,4,128,108,0.6550600528717041,0.19425730407238007
4,4,128,109,0.7128728628158569,0.07858999073505402
4,4,128,110,0.6665381193161011,0.2186911553144455
4,4,128,111,0.6741089224815369,0.21587912738323212
4,4,128,112,0.6864455938339233,0.29252421855926514
4,4,128,113,0.6918420791625977,0.2140798419713974
4,4,128,114,0.613988995552063,0.08080989867448807
4,4,128,115,0.6914856433868408,0.27677860856056213
4,4,128,116,0.4314768314361572,0.14282898604869843
4,4,128,117,0.4984801709651947,0.1535501480102539
4,4,128,118,0.475453644990921,0.10025936365127563
4,4,128,119,0.5292618274688721,0.0410890057682991
4,4,128,120,0.691663920879364,0.0899447649717331
4,4,128,121,0.6198089122772217,0.28100496530532837
4,4,128,122,0.2839438021183014,0.13844259083271027
4,4,128,123,0.6033728122711182,0.2308105081319809
4,4,128,124,0.6884101629257202,0.27673646807670593
4,4,128,125,0.5687505006790161,0.18639156222343445
4,4,128,126,0.7598657011985779,0.1321200430393219
4,4,128,127,0.3565387725830078,0.23993125557899475
4,5,128,0,0.7454632520675659,0.13279607892036438
4,5,128,1,0.5491865277290344,0.026904938742518425
4,5,128,2,0.6756590008735657,0.16372181475162506
4,5,128,3,0.7215532660484314,0.10427170991897583
4,5,128,4,0.5117893815040588,0.11844398081302643
4,5,128,5,0.6193498373031616,0.1351955235004425
4,5,128,6,0.35064050555229187,0.05350162461400032
4,5,128,7,0.5052733421325684,0.0441487655043602
4,5,128,8,0.6003374457359314,0.04191163182258606
4,5,128,9,0.4508831799030304,0.04495706036686897
4,5,128,10,0.5469803214073181,0.08001743257045746
4,5,128,11,0.626416802406311,0.07691939175128937
4,5,128,12,0.5425835251808167,0.08099856972694397
4,5,128,13,0.4993533194065094,0.04847639054059982
4,5,128,14,0.49290406703948975,0.03536921739578247
4,5,128,15,0.5381873250007629,0.08292266726493835
4,5,128,16,0.48407575488090515,0.14465509355068207
4,5,128,17,0.6783192753791809,0.07163410633802414
4,5,128,18,0.5847401022911072,0.13786232471466064
4,5,128,19,0.6700797080993652,0.11766231805086136
4,5,128,20,0.507799506187439,0.07443825155496597
4,5,128,21,0.5850902795791626,0.1309753805398941
4,5,128,22,0.5515757203102112,0.11546282470226288
4,5,128,23,0.577099084854126,0.1934465765953064
4,5,128,24,0.4818316102027893,0.03007420338690281
4,5,128,25,0.6423047184944153,0.047519050538539886
4,5,128,26,0.6736637949943542,0.05652874335646629
4,5,128,27,0.653001606464386,0.06822249293327332
4,5,128,28,0.5136818289756775,0.07647935301065445
4,5,128,29,0.5741183757781982,0.0580405592918396
4,5,128,30,0.6377496719360352,0.13355235755443573
4,5,128,31,0.5166820883750916,0.08647222816944122
4,5,128,32,0.7009266018867493,0.17139388620853424
4,5,128,33,0.5885999798774719,0.0678243339061737
4,5,128,34,0.510312020778656,0.07088222354650497
4,5,128,35,0.6904531717300415,0.17216435074806213
4,5,128,36,0.33546409010887146,0.0787438377737999
4,5,128,37,0.6018663644790649,0.059423137456178665
4,5,128,38,0.4984791576862335,0.029960045590996742
4,5,128,39,0.49386969208717346,0.08459120243787766
4,5,128,40,0.4557960033416748,0.026162823662161827
4,5,128,41,0.47928711771965027,0.07360720634460449
4,5,128,42,0.6339846849441528,0.08874399214982986
4,5,128,43,0.6406129002571106,0.07140311598777771
4,5,128,44,0.7042948007583618,0.1055096760392189
4,5,128,45,0.49012959003448486,0.08029846847057343
4,5,128,46,0.45926880836486816,0.03450162708759308
4,5,128,47,0.7033060789108276,0.09972656518220901
4,5,128,48,0.6115490794181824,0.13333356380462646
4,5,128,49,0.7181965708732605,0.17376156151294708
4,5,128,50,0.6321895718574524,0.04435250908136368
4,5,128,51,0.5846771597862244,0.09649383276700974
4,5,128,52,0.6488009095191956,0.12850463390350342
4,5,128,53,0.5471886396408081,0.14288826286792755
4,5,128,54,0.4209797978401184,0.047921642661094666
4,5,128,55,0.5557941198348999,0.09040780365467072
4,5,128,56,0.41166049242019653,0.0582677498459816
4,5,128,57,0.5199081301689148,0.030295560136437416
4,5,128,58,0.6307000517845154,0.0865267813205719
4,5,128,59,0.6118749976158142,0.07642505317926407
4,5,128,60,0.6826467514038086,0.13878263533115387
4,5,128,61,0.476958692073822,0.056480929255485535
4,5,128,62,0.5555583238601685,0.09950047731399536
4,5,128,63,0.6828331351280212,0.1291458159685135
4,5,128,64,0.6154805421829224,0.02798623964190483
4,5,128,65,0.4950852394104004,0.04499382898211479
4,5,128,66,0.7092514038085938,0.1307169795036316
4,5,128,67,0.6681458353996277,0.04304303973913193
4,5,128,68,0.7044547200202942,0.1276758462190628
4,5,128,69,0.4940977096557617,0.017702998593449593
4,5,128,70,0.5111517310142517,0.055337224155664444
4,5,128,71,0.6797419786453247,0.13853590190410614
4,5,128,72,0.5886521339416504,0.0782904177904129
4,5,128,73,0.4557850658893585,0.07965462654829025
4,5,128,74,0.6224711537361145,0.1267303079366684
4,5,128,75,0.463128000497818,0.046892669051885605
4,5,128,76,0.6629376411437988,0.10030428320169449
4,5,128,77,0.7024900317192078,0.1769770234823227
4,5,128,78,0.49106866121292114,0.06807651370763779
4,5,128,79,0.5578646659851074,0.10150908678770065
4,5,128,80,0.4586174786090851,0.04603243246674538
4,5,128,81,0.6519654989242554,0.08602341264486313
4,5,128,82,0.38099467754364014,0.16568149626255035
4,5,128,83,0.7181240320205688,0.0627666786313057
4,5,128,84,0.43590405583381653,0.0811409130692482
4,5,128,85,0.3961433172225952,0.023592757061123848
4,5,128,86,0.7547118067741394,0.15008895099163055
4,5,128,87,0.5324437022209167,0.04679946228861809
4,5,128,88,0.48564302921295166,0.041945621371269226
4,5,128,89,0.46737879514694214,0.08162235468626022
4,5,128,90,0.4348406195640564,0.08092022687196732
4,5,128,91,0.7739717960357666,0.10868006199598312
4,5,128,92,0.4521867036819458,0.08795782178640366
4,5,128,93,0.6213383078575134,0.07834452390670776
4,5,128,94,0.5374694466590881,0.09547462314367294
4,5,128,95,0.5202701687812805,0.07451881468296051
4,5,128,96,0.6479968428611755,0.08701781183481216
4,5,128,97,0.6258257031440735,0.054603978991508484
4,5,128,98,0.6072335839271545,0.15891337394714355
4,5,128,99,0.5335232615470886,0.05202500894665718
4,5,128,100,0.5699232816696167,0.07177409529685974
4,5,128,101,0.6713137626647949,0.10500990599393845
4,5,128,102,0.6055447459220886,0.06028331071138382
4,5,128,103,0.5509423017501831,0.03797532990574837
4,5,128,104,0.6124941110610962,0.06804600358009338
4,5,128,105,0.560651957988739,0.11921390891075134
4,5,128,106,0.42641836404800415,0.033937424421310425
4,5,128,107,0.4839438498020172,0.13500896096229553
4,5,128,108,0.6475124359130859,0.11562046408653259
4,5,128,109,0.7017163634300232,0.18109269440174103
4,5,128,110,0.7374313473701477,0.13459840416908264
4,5,128,111,0.5561321377754211,0.03414415940642357
4,5,128,112,0.7021706104278564,0.1422150582075119
4,5,128,113,0.743155300617218,0.11479980498552322
4,5,128,114,0.6063055396080017,0.11172304302453995
4,5,128,115,0.6778382062911987,0.1704896092414856
4,5,128,116,0.35251256823539734,0.1366582065820694
4,5,128,117,0.5453131794929504,0.06313060969114304
4,5,128,118,0.7003123164176941,0.11274232715368271
4,5,128,119,0.5532687306404114,0.10035981982946396
4,5,128,120,0.687351405620575,0.14012008905410767
4,5,128,121,0.5535082817077637,0.05679154768586159
4,5,128,122,0.47744712233543396,0.07721153646707535
4,5,128,123,0.5455636382102966,0.11036845296621323
4,5,128,124,0.6904736161231995,0.1635800451040268
4,5,128,125,0.6257489323616028,0.06167018413543701
4,5,128,126,0.5916368961334229,0.03949446603655815
4,5,128,127,0.40345481038093567,0.07585147768259048
5,0,32,0,0.5315925478935242,0.031928084790706635
5,0,32,1,0.5076735615730286,0.03720657154917717
5,0,32,2,0.43759340047836304,0.10516528785228729
5,0,32,3,0.5541435480117798,0.08469289541244507
5,0,32,4,0.5194306969642639,0.02615218609571457
5,0,32,5,0.6580770015716553,0.035570237785577774
5,0,32,6,0.3861846923828125,0.04469778388738632
5,0,32,7,0.5483832955360413,0.05769381299614906
5,0,32,8,0.5601196885108948,0.06703166663646698
5,0,32,9,0.5357006788253784,0.019121019169688225
5,0,32,10,0.41901612281799316,0.06798281520605087
5,0,32,11,0.6900505423545837,0.08227930963039398
5,0,32,12,0.5498424172401428,0.06717292964458466
5,0,32,13,0.4738534688949585,0.04643896222114563
5,0,32,14,0.519171416759491,0.03507962450385094
5,0,32,15,0.4133327603340149,0.08702808618545532
5,0,32,16,0.5034350156784058,0.10843004286289215
5,0,32,17,0.3811835050582886,0.08805372565984726
5,0,32,18,0.531374990940094,0.05361092463135719
5,0,32,19,0.39657852053642273,0.07022610306739807
5,0,32,20,0.5459470152854919,0.07273279130458832
5,0,32,21,0.39080604910850525,0.05562973767518997
5,0,32,22,0.4214846193790436,0.03246282786130905
5,0,32,23,0.47472119331359863,0.04275613650679588
5,0,32,24,0.43387332558631897,0.07606267929077148
5,0,32,25,0.3973821997642517,0.04329432547092438
5,0,32,26,0.34521710872650146,0.07159702479839325
5,0,32,27,0.48987656831741333,0.07092098146677017
5,0,32,28,0.5224294066429138,0.033521730452775955
5,0,32,29,0.4114266037940979,0.05835989862680435
5,0,32,30,0.6080904006958008,0.03836705908179283
5,0,32,31,0.4017818570137024,0.07184047996997833
5,1,32,0,0.5160813331604004,0.1186634749174118
5,1,32,1,0.5356180667877197,0.03889381140470505
5,1,32,2,0.5686724781990051,0.04215102642774582
5,1,32,3,0.41088539361953735,0.10382100194692612
5,1,32,4,0.4817027151584625,0.06125223636627197
5,1,32,5,0.5342563986778259,0.042084790766239166
5,1,32,6,0.5217413306236267,0.06708598881959915
5,1,32,7,0.5126208662986755,0.09589138627052307
5,1,32,8,0.6011391282081604,0.05104430019855499
5,1,32,9,0.48730629682540894,0.07880615442991257
5,1,32,10,0.5764939188957214,0.09075400978326797
5,1,32,11,0.5722776651382446,0.08243852108716965
5,1,32,12,0.4558730125427246,0.12679827213287354
5,1,32,13,0.6093459725379944,0.05579930543899536
5,1,32,14,0.39573246240615845,0.08723504096269608
5,1,32,15,0.49893718957901,0.07216344028711319
5,1,32,16,0.4827192425727844,0.041999053210020065
5,1,32,17,0.40699777007102966,0.034306615591049194
5,1,32,18,0.35711199045181274,0.06552965939044952
5,1,32,19,0.5553077459335327,0.029171055182814598
5,1,32,20,0.5459674596786499,0.1156487762928009
5,1,32,21,0.3898588716983795,0.05542812868952751
5,1,32,22,0.4800128936767578,0.04502708092331886
5,1,32,23,0.5115269422531128,0.08139533549547195
5,1,32,24,0.4572921097278595,0.11035805940628052
5,1,32,25,0.412967324256897,0.0654720738530159
5,1,32,26,0.58397376537323,0.1072569414973259
5,1,32,27,0.4799897074699402,0.0938073918223381
5,1,32,28,0.49464863538742065,0.10783229768276215
5,1,32,29,0.6383205652236938,0.08372064679861069
5,1,32,30,0.4364336133003235,0.09532520920038223
5,1,32,31,0.49254050850868225,0.04330233484506607
5,2,64,0,0.5019550919532776,0.062153615057468414
5,2,64,1,0.5768624544143677,0.10394258052110672
5,2,64,2,0.5235763192176819,0.12811414897441864
5,2,64,3,0.5084500908851624,0.09380748867988586
5,2,64,4,0.5634090900421143,0.18247981369495392
5,2,64,5,0.4560474455356598,0.06199880316853523
5,2,64,6,0.48286232352256775,0.05907081440091133
5,2,64,7,0.43486618995666504,0.0420067124068737
5,2,64,8,0.3615334630012512,0.08212658017873764
5,2,64,9,0.5668771862983704,0.10119359940290451
5,2,64,10,0.513830304145813,0.19194704294204712
5,2,64,11,0.6090191006660461,0.06864410638809204
5,2,64,12,0.5679045915603638,0.07062757760286331
5,2,64,13,0.505357027053833,0.12886367738246918
5,2,64,14,0.6091228127479553,0.08227253705263138
5,2,64,15,0.4380578100681305,0.03679639846086502
5,2,64,16,0.5046535730361938,0.08390287309885025
5,2,64,17,0.4513181746006012,0.06668068468570709
5,2,64,18,0.5748305916786194,0.05778646841645241
5,2,64,19,0.5517024397850037,0.12471888214349747
5,2,64,20,0.47628116607666016,0.1337878555059433
5,2,64,21,0.6033223271369934,0.09738447517156601
5,2,64,22,0.6423459053039551,0.05949779599905014
5,2,64,23,0.4868049919605255,0.09161383658647537
5,2,64,24,0.4792536199092865,0.19573405385017395
5,2,64,25,0.5498909950256348,0.08391933888196945
5,2,64,26,0.6092838644981384,0.06126626953482628
5,2,64,27,0.5871922373771667,0.12181533873081207
5,2,64,28,0.5277454853057861,0.09606929868459702
5,2,64,29,0.4875374436378479,0.06477866321802139
5,2,64,30,0.5214773416519165,0.11916441470384598
5,2,64,31,0.564129650592804,0.06910184025764465
5,2,64,32,0.4320860207080841,0.1513407826423645
5,2,64,33,0.4357607662677765,0.10995609313249588
5,2,64,34,0.5525487065315247,0.15606597065925598
5,2,64,35,0.46415287256240845,0.04423774778842926
5,2,64,36,0.4536154866218567,0.1171216294169426
5,2,64,37,0.5238368511199951,0.11006010323762894
5,2,64,38,0.5119903087615967,0.0625288188457489
5,2,64,39,0.5059779286384583,0.08616659045219421
5,2,64,40,0.4005514085292816,0.11125325411558151
5,2,64,41,0.45092782378196716,0.1753859668970108
5,2,64,42,0.5747774839401245,0.047497931867837906
5,2,64,43,0.5776909589767456,0.09258997440338135
5,2,64,44,0.5283265113830566,0.13149325549602509
5,2,64,45,0.4952607750892639,0.12174629420042038
5,2,64,46,0.4818258285522461,0.1439914107322693
5,2,64,47,0.4449842572212219,0.09354600310325623
5,2,64,48,0.5594321489334106,0.06382625550031662
5,2,64,49,0.45332491397857666,0.09170421212911606
5,2,64,50,0.3666662871837616,0.09751464426517487
5,2,64,51,0.6385332345962524,0.07724782079458237
5,2,64,52,0.5504529476165771,0.1082397922873497
5,2,64,53,0.5456421971321106,0.10151974856853485
5,2,64,54,0.557682454586029,0.06845726072788239
5,2,64,55,0.5196048021316528,0.06499870866537094
5,2,64,56,0.4268605709075928,0.07518880069255829
5,2,64,57,0.5520568490028381,0.15772922337055206
5,2,64,58,0.6129032373428345,0.05457061529159546
5,2,64,59,0.5500588417053223,0.08035881072282791
5,2,64,60,0.5351083874702454,0.06274598836898804
5,2,64,61,0.6322843432426453,0.08079181611537933
5,2,64,62,0.5284999012947083,0.1230858713388443
5,2,64,63,0.49246469140052795,0.12654417753219604
5,3,64,0,0.5065414905548096,0.06046992540359497
5,3,64,1,0.5688309073448181,0.048802029341459274
5,3,64,2,0.5264809131622314,0.10539878904819489
5,3,64,3,0.4033617675304413,0.12983910739421844
5,3,64,4,0.49717482924461365,0.03924650698900223
5,3,64,5,0.4918799102306366,0.10882914066314697
5,3,64,6,0.45968514680862427,0.08649256825447083
5,3,64,7,0.44583919644355774,0.1032533198595047
5,3,64,8,0.5632561445236206,0.03910538926720619
5,3,64,9,0.3558359146118164,0.1208791509270668
5,3,64,10,0.540090799331665,0.12845945358276367
5,3,64,11,0.512926459312439,0.10758019238710403
5,3,64,12,0.4473057985305786,0.07125863432884216
5,3,64,13,0.35777121782302856,0.1241646334528923
5,3,64,14,0.45547226071357727,0.10272575169801712
5,3,64,15,0.5823936462402344,0.04750758409500122
5,3,64,16,0.45458200573921204,0.06513949483633041
5,3,64,17,0.49489158391952515,0.1359897255897522
5,3,64,18,0.4679255485534668,0.16772840917110443
5,3,64,19,0.6455181241035461,0.10444311797618866
5,3,64,20,0.47980964183807373,0.1883038878440857
5,3,64,21,0.3751637935638428,0.15548978745937347
5,3,64,22,0.49879974126815796,0.0845479741692543
5,3,64,23,0.37654396891593933,0.070200115442276
5,3,64,24,0.3728947043418884,0.0755218118429184
5,3,64,25,0.574623167514801,0.09833069890737534
5,3,64,26,0.4345339238643646,0.07143665850162506
5,3,64,27,0.4341117739677429,0.11793884634971619
5,3,64,28,0.6287736892700195,0.06052554026246071
5,3,64,29,0.48259541392326355,0.06820229440927505
5,3,64,30,0.5870270729064941,0.053478822112083435
5,3,64,31,0.4332737326622009,0.06479659676551819
5,3,64,32,0.4828757643699646,0.13906626403331757
5,3,64,33,0.4566672444343567,0.05136004835367203
5,3,64,34,0.43642956018447876,0.12997746467590332
5,3,64,35,0.4507654905319214,0.18407808244228363
5,3,64,36,0.5031370520591736,0.08459287136793137
5,3,64,37,0.3769035041332245,0.10169143974781036
5,3,64,38,0.41663286089897156,0.08922749012708664
5,3,64,39,0.5558772087097168,0.05855004861950874
5,3,64,40,0.5252870321273804,0.16351285576820374
5,3,64,41,0.6244089603424072,0.10185591876506805
5,3,64,42,0.5457499623298645,0.10143361985683441
5,3,64,43,0.5413690209388733,0.13934724032878876
5,3,64,44,0.5508050322532654,0.05428255721926689
5,3,64,45,0.3663278818130493,0.05522355064749718
5,3,64,46,0.561901330947876,0.1641707718372345
5,3,64,47,0.3545847237110138,0.09064848721027374
5,3,64,48,0.4456832706928253,0.06291399896144867
5,3,64,49,0.4314744472503662,0.1080225333571434
5,3,64,50,0.4526805877685547,0.1572003960609436
5,3,64,51,0.5156998038291931,0.08246751874685287
5,3,64,52,0.4921664297580719,0.11653811484575272
5,3,64,53,0.5551978349685669,0.11763208359479904
5,3,64,54,0.5122291445732117,0.1289789229631424
5,3,64,55,0.5184196829795837,0.08657906949520111
5,3,64,56,0.46301791071891785,0.1012430489063263
5,3,64,57,0.6225227117538452,0.09242930263280869
5,3,64,58,0.5071172118186951,0.07177276909351349
5,3,64,59,0.300123929977417,0.06227795407176018
5,3,64,60,0.41353797912597656,0.16290730237960815
5,3,64,61,0.48133528232574463,0.10890637338161469
5,3,64,62,0.4734143912792206,0.15657003223896027
5,3,64,63,0.3703854978084564,0.10398363322019577
5,4,128,0,0.46937698125839233,0.06710769981145859
5,4,128,1,0.41811537742614746,0.30260032415390015
5,4,128,2,0.650352418422699,0.2549961805343628
5,4,128,3,0.6488854289054871,0.137860506772995
5,4,128,4,0.7425573468208313,0.18216723203659058
5,4,128,5,0.4056999981403351,0.3310216963291168
5,4,128,6,0.6627581119537354,0.13203445076942444
5,4,128,7,0.6284579038619995,0.1593581885099411
5,4,128,8,0.6094253659248352,0.08258596807718277
5,4,128,9,0.4764592945575714,0.037444084882736206
5,4,128,10,0.6127011775970459,0.25521886348724365
5,4,128,11,0.4304094612598419,0.14259886741638184
5,4,128,12,0.5534385442733765,0.21546106040477753
5,4,128,13,0.6483253240585327,0.2667977213859558
5,4,128,14,0.5791721940040588,0.2851582467556
5,4,128,15,0.6502724289894104,0.08963821828365326
5,4,128,16,0.42704182863235474,0.1959933340549469
5,4,128,17,0.6921135187149048,0.20023375749588013
5,4,128,18,0.7138315439224243,0.21498775482177734
5,4,128,19,0.7182282209396362,0.17336401343345642
5,4,128,20,0.6409518718719482,0.2777630686759949
5,4,128,21,0.6745755672454834,0.11975175142288208
5,4,128,22,0.6215661764144897,0.33239415287971497
5,4,128,23,0.6550437808036804,0.08314663171768188
5,4,128,24,0.7535754442214966,0.09278692305088043
5,4,128,25,0.42807093262672424,0.10624674707651138
5,4,128,26,0.5403197407722473,0.13466203212738037
5,4,128,27,0.4950147271156311,0.22736303508281708
5,4,128,28,0.5411578416824341,0.05359574034810066
5,4,128,29,0.6302223801612854,0.13669253885746002
5,4,128,30,0.38715100288391113,0.21787713468074799
5,4,128,31,0.8044553995132446,0.11321776360273361
5,4,128,32,0.538122296333313,0.2245636284351349
5,4,128,33,0.30826127529144287,0.1280735731124878
5,4,128,34,0.45162415504455566,0.16175925731658936
5,4,128,35,0.7072397470474243,0.15295960009098053
5,4,128,36,0.7389261722564697,0.08943615108728409
5,4,128,37,0.48386815190315247,0.046996522694826126
5,4,128,38,0.744049072265625,0.10391214489936829
5,4,128,39,0.25908181071281433,0.15242522954940796
5,4,128,40,0.5091106295585632,0.06668586283922195
5,4,128,41,0.3842444121837616,0.0805697962641716
5,4,128,42,0.4798509478569031,0.11744086444377899
5,4,128,43,0.6541979312896729,0.1863940805196762
5,4,128,44,0.4255223572254181,0.029784061014652252
5,4,128,45,0.5376296639442444,0.10455954074859619
5,4,128,46,0.8236645460128784,0.12203606218099594
5,4,128,47,0.446904718875885,0.34183046221733093
5,4,128,48,0.6265262961387634,0.3023504316806793
5,4,128,49,0.6462790369987488,0.10873113572597504
5,4,128,50,0.6610245108604431,0.28678709268569946
5,4,128,51,0.6385327577590942,0.2545399069786072
5,4,128,52,0.49232181906700134,0.1704772710800171
5,4,128,53,0.6929832696914673,0.12070681899785995
5,4,128,54,0.5037923455238342,0.08873537182807922
5,4,128,55,0.5888940095901489,0.0825943723320961
5,4,128,56,0.5890892744064331,0.10163521021604538
5,4,128,57,0.4934624135494232,0.05592026188969612
5,4,128,58,0.37003159523010254,0.17109057307243347
5,4,128,59,0.4808647930622101,0.0867413803935051
5,4,128,60,0.48579126596450806,0.1394985318183899
5,4,128,61,0.4694986343383789,0.08967486023902893
5,4,128,62,0.436113178730011,0.06955048441886902
5,4,128,63,0.41012805700302124,0.31288182735443115
5,4,128,64,0.44212910532951355,0.3339819312095642
5,4,128,65,0.6383889317512512,0.10371886193752289
5,4,128,66,0.6986607909202576,0.23024536669254303
5,4,128,67,0.29038429260253906,0.15186600387096405
5,4,128,68,0.5358009934425354,0.11842266470193863
5,4,128,69,0.6170313954353333,0.3134618401527405
5,4,128,70,0.6873064041137695,0.20277254283428192
5,4,128,71,0.7790712714195251,0.10770814120769501
5,4,128,72,0.6505511403083801,0.054050642997026443
5,4,128,73,0.41616812348365784,0.03907932713627815
5,4,128,74,0.6508059501647949,0.16258253157138824
5,4,128,75,0.7037271857261658,0.2136627435684204
5,4,128,76,0.6250529885292053,0.21892164647579193
5,4,128,77,0.5699461102485657,0.06605984270572662
5,4,128,78,0.6653186082839966,0.06474670022726059
5,4,128,79,0.27814939618110657,0.12483056634664536
5,4,128,80,0.5435664057731628,0.10983046144247055
5,4,128,81,0.5527362823486328,0.10285662859678268
5,4,128,82,0.4610082805156708,0.21872277557849884
5,4,128,83,0.523135244846344,0.15386773645877838
5,4,128,84,0.5121811032295227,0.16544601321220398
5,4,128,85,0.703514039516449,0.20558063685894012
5,4,128,86,0.6434221863746643,0.1466352939605713
5,4,128,87,0.45814621448516846,0.3497352600097656
5,4,128,88,0.29953712224960327,0.12537294626235962
5,4,128,89,0.4343329966068268,0.2987709045410156
5,4,128,90,0.5091772675514221,0.18048027157783508
5,4,128,91,0.686357855796814,0.174953430891037
5,4,128,92,0.6534209847450256,0.06873663514852524
5,4,128,93,0.6237403154373169,0.12048836797475815
5,4,128,94,0.4258643686771393,0.04299688711762428
5,4,128,95,0.41224196553230286,0.04805997386574745
5,4,128,96,0.6179249882698059,0.33079078793525696
5,4,128,97,0.638953447341919,0.2876092791557312
5,4,128,98,0.3823402225971222,0.2596736252307892
5,4,128,99,0.5567531585693359,0.02787088230252266
5,4,128,100,0.6627794504165649,0.2101161777973175
5,4,128,101,0.5915201902389526,0.04944304749369621
5,4,128,102,0.5288894772529602,0.07627338916063309
5,4,128,103,0.44981470704078674,0.17873358726501465
5,4,128,104,0.3201429843902588,0.16642852127552032
5,4,128,105,0.736420214176178,0.09993882477283478
5,4,128,106,0.6321869492530823,0.2413552850484848
5,4,128,107,0.3209083080291748,0.09725189208984375
5,4,128,108,0.6150462031364441,0.2441796064376831
5,4,128,109,0.5012094974517822,0.15175603330135345
5,4,128,110,0.35345956683158875,0.0902288481593132
5,4,128,111,0.7624204158782959,0.09851628541946411
5,4,128,112,0.3410719335079193,0.12774179875850677
5,4,128,113,0.36904504895210266,0.2518412470817566
5,4,128,114,0.6912065744400024,0.21467895805835724
5,4,128,115,0.4936221241950989,0.29704728722572327
5,4,128,116,0.45450058579444885,0.31549271941185
5,4,128,117,0.5554301738739014,0.1587701290845871
5,4,128,118,0.7230573892593384,0.07988905906677246
5,4,128,119,0.3527665436267853,0.16651134192943573
5,4,128,120,0.4035989046096802,0.054885152727365494
5,4,128,121,0.31710314750671387,0.12895925343036652
5,4,128,122,0.6345584392547607,0.21326112747192383
5,4,128,123,0.5508577227592468,0.11734385043382645
5,4,128,124,0.7764357328414917,0.10934028029441833
5,4,128,125,0.7508736252784729,0.10342548787593842
5,4,128,126,0.3191665709018707,0.18841736018657684
5,4,128,127,0.664955735206604,0.2530364990234375
5,5,128,0,0.7735976576805115,0.10988067835569382
5,5,128,1,0.6784515380859375,0.10885462164878845
5,5,128,2,0.4321958124637604,0.2220640927553177
5,5,128,3,0.7640929818153381,0.19325196743011475
5,5,128,4,0.7047747373580933,0.1628347635269165
5,5,128,5,0.3448258936405182,0.14337989687919617
5,5,128,6,0.6697368025779724,0.13008612394332886
5,5,128,7,0.6189851760864258,0.22698324918746948
5,5,128,8,0.762324869632721,0.1117476224899292
5,5,128,9,0.6422622799873352,0.1580050140619278
5,5,128,10,0.6404745578765869,0.16673943400382996
5,5,128,11,0.6417193412780762,0.07410577684640884
5,5,128,12,0.5006446838378906,0.136371448636055
5,5,128,13,0.6552104353904724,0.18358521163463593
5,5,128,14,0.5343177318572998,0.20116043090820312
5,5,128,15,0.5535937547683716,0.12140966951847076
5,5,128,16,0.7434976696968079,0.23378986120224
5,5,128,17,0.5350325703620911,0.18975526094436646
5,5,128,18,0.7453455328941345,0.18712930381298065
5,5,128,19,0.743590772151947,0.20470726490020752
5,5,128,20,0.7820210456848145,0.132746160030365
5,5,128,21,0.7410554885864258,0.17952609062194824
5,5,128,22,0.6568202972412109,0.11527764797210693
5,5,128,23,0.7137669324874878,0.16921521723270416
5,5,128,24,0.7733645439147949,0.11532941460609436
5,5,128,25,0.44691118597984314,0.0544886514544487
5,5,128,26,0.6712636351585388,0.19552484154701233
5,5,128,27,0.4045282006263733,0.12120111286640167
5,5,128,28,0.6588171720504761,0.10367032140493393
5,5,128,29,0.628889262676239,0.0918792262673378
5,5,128,30,0.7267487049102783,0.10823113471269608
5,5,128,31,0.7558414340019226,0.12054945528507233
5,5,128,32,0.49302974343299866,0.14728862047195435
5,5,128,33,0.8103741407394409,0.09194539487361908
5,5,128,34,0.7126121520996094,0.09172733128070831
5,5,128,35,0.6590322256088257,0.12085980921983719
5,5,128,36,0.7722519636154175,0.13509969413280487
5,5,128,37,0.518843412399292,0.218999445438385
5,5,128,38,0.8006858825683594,0.06865902990102768
5,5,128,39,0.4291693866252899,0.10467538237571716
5,5,128,40,0.6869642734527588,0.11295105516910553
5,5,128,41,0.6278858780860901,0.08605392277240753
5,5,128,42,0.5932866930961609,0.14479759335517883
5,5,128,43,0.3986507058143616,0.07670082151889801
5,5,128,44,0.5595348477363586,0.1831222027540207
5,5,128,45,0.7257752418518066,0.07695399224758148
5,5,128,46,0.6216316223144531,0.1915316879749298
5,5,128,47,0.6767035722732544,0.06128929927945137
5,5,128,48,0.6982880234718323,0.09890852123498917
5,5,128,49,0.7452365159988403,0.10990896075963974
5,5,128,50,0.7321340441703796,0.1776753067970276
5,5,128,51,0.7765614986419678,0.1262495219707489
5,5,128,52,0.7259824275970459,0.08933794498443604
5,5,128,53,0.7483439445495605,0.14949576556682587
5,5,128,54,0.5954607129096985,0.17574606835842133
5,5,128,55,0.6157435178756714,0.1792297512292862
5,5,128,56,0.5204554200172424,0.11898567527532578
5,5,128,57,0.457356333732605,0.08755502849817276
5,5,128,58,0.5175232291221619,0.13609957695007324
5,5,128,59,0.5971949696540833,0.20009829103946686
5,5,128,60,0.49839094281196594,0.21060672402381897
5,5,128,61,0.7027531266212463,0.13897059857845306
5,5,128,62,0.6782189011573792,0.06636591255664825
5,5,128,63,0.5617589354515076,0.09401463717222214
5,5,128,64,0.6933232545852661,0.0754777118563652
5,5,128,65,0.5926322937011719,0.18932470679283142
5,5,128,66,0.7970331907272339,0.09187845140695572
5,5,128,67,0.7832015752792358,0.13384868204593658
5,5,128,68,0.4665493667125702,0.12498823553323746
5,5,128,69,0.6347856521606445,0.22236165404319763
5,5,128,70,0.7600795030593872,0.08323222398757935
5,5,128,71,0.8128990530967712,0.1130458191037178
5,5,128,72,0.7084088325500488,0.16017185151576996
5,5,128,73,0.575194239616394,0.07770690321922302
5,5,128,74,0.6700464487075806,0.2254989594221115
5,5,128,75,0.716357409954071,0.13219048082828522
5,5,128,76,0.7369701862335205,0.15270072221755981
5,5,128,77,0.6067377924919128,0.12081913650035858
5,5,128,78,0.6287319660186768,0.08687524497509003
5,5,128,79,0.5082547068595886,0.13518975675106049
5,5,128,80,0.7997903823852539,0.13231340050697327
5,5,128,81,0.674963116645813,0.19241103529930115
5,5,128,82,0.5878568887710571,0.19124719500541687
5,5,128,83,0.736351728439331,0.15930090844631195
5,5,128,84,0.47188153862953186,0.13689890503883362
5,5,128,85,0.6610659956932068,0.07821180671453476
5,5,128,86,0.797512948513031,0.09062279760837555
5,5,128,87,0.3826168477535248,0.22931061685085297
5,5,128,88,0.6073173880577087,0.1872478723526001
5,5,128,89,0.7118497490882874,0.1487535536289215
5,5,128,90,0.5141372084617615,0.11651121824979782
5,5,128,91,0.5262737274169922,0.22517582774162292
5,5,128,92,0.732058048248291,0.18104441463947296
5,5,128,93,0.4168160557746887,0.1269664615392685
5,5,128,94,0.6188121438026428,0.07321421802043915
5,5,128,95,0.7294639348983765,0.16583220660686493
5,5,128,96,0.723358154296875,0.0890536680817604
5,5,128,97,0.6683349013328552,0.17975574731826782
5,5,128,98,0.7284700870513916,0.06827612966299057
5,5,128,99,0.7698341608047485,0.12285777926445007
5,5,128,100,0.640795886516571,0.23444142937660217
5,5,128,101,0.6881756782531738,0.05079211667180061
5,5,128,102,0.641456663608551,0.15589813888072968
5,5,128,103,0.5918622016906738,0.18628330528736115
5,5,128,104,0.6997107863426208,0.13800197839736938
5,5,128,105,0.7689417004585266,0.06305823475122452
5,5,128,106,0.7408663034439087,0.1287582814693451
5,5,128,107,0.6771430969238281,0.08482835441827774
5,5,128,108,0.7630648016929626,0.16151146590709686
5,5,128,109,0.5128982067108154,0.16217893362045288
5,5,128,110,0.5105764865875244,0.11159498989582062
5,5,128,111,0.7469333410263062,0.1224471777677536
5,5,128,112,0.6453661918640137,0.16773566603660583
5,5,128,113,0.6433804035186768,0.18820920586585999
5,5,128,114,0.7571343779563904,0.11538856476545334
5,5,128,115,0.8319575190544128,0.07704450935125351
5,5,128,116,0.7846018671989441,0.08007940649986267
5,5,128,117,0.7449864745140076,0.06862684339284897
5,5,128,118,0.574924111366272,0.18368075788021088
5,5,128,119,0.7158499956130981,0.15048645436763763
5,5,128,120,0.7040951251983643,0.180281862616539
5,5,128,121,0.47963300347328186,0.08893059939146042
5,5,128,122,0.7764815092086792,0.177180677652359
5,5,128,123,0.48462775349617004,0.13503150641918182
5,5,128,124,0.7645622491836548,0.09031900018453598
5,5,128,125,0.6600604057312012,0.2025131732225418
5,5,128,126,0.37420758605003357,0.1821603924036026
5,5,128,127,0.7747166752815247,0.1255495548248291
6,0,32,0,0.5871096253395081,0.03114485554397106
6,0,32,1,0.42059141397476196,0.06360146403312683
6,0,32,2,0.4457370638847351,0.0398588553071022
6,0,32,3,0.42133405804634094,0.03404776006937027
6,0,32,4,0.3904472589492798,0.02068372815847397
6,0,32,5,0.46682900190353394,0.024753503501415253
6,0,32,6,0.5491620302200317,0.05072852596640587
6,0,32,7,0.43238767981529236,0.02739146538078785
6,0,32,8,0.35894453525543213,0.03466452658176422
6,0,32,9,0.3523668348789215,0.04973606392741203
6,0,32,10,0.5141660571098328,0.031111950054764748
6,0,32,11,0.4464441239833832,0.03539883345365524
6,0,32,12,0.5928099155426025,0.03177795559167862
6,0,32,13,0.3411189317703247,0.07315913587808609
6,0,32,14,0.4070923626422882,0.03186013922095299
6,0,32,15,0.47558578848838806,0.041082218289375305
6,0,32,16,0.635905385017395,0.01727183908224106
6,0,32,17,0.6082920432090759,0.022015035152435303
6,0,32,18,0.46390780806541443,0.04376109689474106
6,0,32,19,0.5188165903091431,0.04710366949439049
6,0,32,20,0.46899399161338806,0.04430451616644859
6,0,32,21,0.5190339684486389,0.03366280719637871
6,0,32,22,0.49277570843696594,0.02656223066151142
6,0,32,23,0.4667990207672119,0.032510146498680115
6,0,32,24,0.5488502383232117,0.06631144881248474
6,0,32,25,0.5011332631111145,0.04470789432525635
6,0,32,26,0.5691579580307007,0.017593136057257652
6,0,32,27,0.4461161196231842,0.018917471170425415
6,0,32,28,0.5043237805366516,0.053416527807712555
6,0,32,29,0.5843135714530945,0.045113835483789444
6,0,32,30,0.6100088953971863,0.06061272695660591
6,0,32,31,0.5280410647392273,0.05157622694969177
6,1,32,0,0.3688451945781708,0.04503610357642174
6,1,32,1,0.557517409324646,0.021550333127379417
6,1,32,2,0.6471497416496277,0.05127791315317154
6,1,32,3,0.40593504905700684,0.06729050725698471
6,1,32,4,0.4456646740436554,0.061011310666799545
6,1,32,5,0.4590130150318146,0.020161811262369156
6,1,32,6,0.39963778853416443,0.01417454332113266
6,1,32,7,0.4279201626777649,0.05475704371929169
6,1,32,8,0.5118275284767151,0.053999848663806915
6,1,32,9,0.5500841736793518,0.028343237936496735
6,1,32,10,0.5174773335456848,0.07491369545459747
6,1,32,11,0.6084231734275818,0.022493623197078705
6,1,32,12,0.49594399333000183,0.008765981532633305
6,1,32,13,0.4475530982017517,0.088227778673172
6,1,32,14,0.5522446632385254,0.035449735820293427
6,1,32,15,0.4504469335079193,0.046891022473573685
6,1,32,16,0.4043433666229248,0.06546288728713989
6,1,32,17,0.4362468719482422,0.06893318891525269
6,1,32,18,0.6088049411773682,0.06261379271745682
6,1,32,19,0.5217345356941223,0.06104248762130737
6,1,32,20,0.5304399132728577,0.06236744299530983
6,1,32,21,0.6110659837722778,0.04454490542411804
6,1,32,22,0.5986913442611694,0.036321889609098434
6,1,32,23,0.5439834594726562,0.020722799003124237
6,1,32,24,0.4694530665874481,0.06040282920002937
6,1,32,25,0.4092535376548767,0.08408669382333755
6,1,32,26,0.5634878277778625,0.04895948991179466
6,1,32,27,0.4720373749732971,0.08595086634159088
6,1,32,28,0.5964903235435486,0.025256115943193436
6,1,32,29,0.5451174974441528,0.05255063250660896
6,1,32,30,0.5677174925804138,0.05660461634397507
6,1,32,31,0.405997097492218,0.060547877103090286
6,2,64,0,0.6334334015846252,0.04894163832068443
6,2,64,1,0.561159610748291,0.09628046303987503
6,2,64,2,0.5472314953804016,0.04091852530837059
6,2,64,3,0.5553362965583801,0.035025324672460556
6,2,64,4,0.6003466844558716,0.022945784032344818
6,2,64,5,0.4843151569366455,0.043931324034929276
6,2,64,6,0.569582998752594,0.05012717470526695
6,2,64,7,0.5061893463134766,0.05592283234000206
6,2,64,8,0.585413932800293,0.03442860767245293
6,2,64,9,0.6113424897193909,0.02690427005290985
6,2,64,10,0.6148580312728882,0.055669765919446945
6,2,64,11,0.5715217590332031,0.09249989688396454
6,2,64,12,0.6158150434494019,0.028419209644198418
6,2,64,13,0.5325179696083069,0.033304329961538315
6,2,64,14,0.43632495403289795,0.10004519671201706
6,2,64,15,0.4475094974040985,0.04105546325445175
6,2,64,16,0.5544611215591431,0.03962119296193123
6,2,64,17,0.4493381083011627,0.11986332386732101
6,2,64,18,0.4787733852863312,0.09474562108516693
6,2,64,19,0.49285784363746643,0.033067040145397186
6,2,64,20,0.5529260635375977,0.08377327024936676
6,2,64,21,0.3862575590610504,0.05822428688406944
6,2,64,22,0.4453718662261963,0.0273344237357378
6,2,64,23,0.5472917556762695,0.037218570709228516
6,2,64,24,0.5764083862304688,0.05812620744109154
6,2,64,25,0.5357654690742493,0.06328341364860535
6,2,64,26,0.5201239585876465,0.0582360103726387
6,2,64,27,0.3869447410106659,0.06393464654684067
6,2,64,28,0.5427860021591187,0.05045386776328087
6,2,64,29,0.41452857851982117,0.05826435983181
6,2,64,30,0.5293723344802856,0.04427125304937363
6,2,64,31,0.4215470552444458,0.04516088217496872
6,2,64,32,0.4456601142883301,0.05973287671804428
6,2,64,33,0.5362548828125,0.0574854277074337
6,2,64,34,0.5072270035743713,0.0692833662033081
6,2,64,35,0.6417245268821716,0.031516626477241516
6,2,64,36,0.5521989464759827,0.06255494803190231
6,2,64,37,0.5720244646072388,0.039662230759859085
6,2,64,38,0.42090222239494324,0.08748681843280792
6,2,64,39,0.5766450762748718,0.032526783645153046
6,2,64,40,0.6127135753631592,0.03961450234055519
6,2,64,41,0.4817659854888916,0.036152638494968414
6,2,64,42,0.4690176844596863,0.049389347434043884
6,2,64,43,0.48291224241256714,0.029360810294747353
6,2,64,44,0.5182375907897949,0.03902183100581169
6,2,64,45,0.42935290932655334,0.029347483068704605
6,2,64,46,0.5931825637817383,0.08240026980638504
6,2,64,47,0.4451819062232971,0.01599804498255253
6,2,64,48,0.47924041748046875,0.02690025418996811
6,2,64,49,0.5367389917373657,0.11445743590593338
6,2,64,50,0.5337537527084351,0.10981006175279617
6,2,64,51,0.518818736076355,0.05977029353380203
6,2,64,52,0.47652319073677063,0.04602188244462013
6,2,64,53,0.44322386384010315,0.042757291346788406
6,2,64,54,0.47794923186302185,0.03870907425880432
6,2,64,55,0.40029487013816833,0.05093834176659584
6,2,64,56,0.556578516960144,0.05853433534502983
6,2,64,57,0.5159770846366882,0.10142029076814651
6,2,64,58,0.5590659976005554,0.02678210660815239
6,2,64,59,0.6175293326377869,0.06778229027986526
6,2,64,60,0.41516515612602234,0.05403933301568031
6,2,64,61,0.5163595080375671,0.06539368629455566
6,2,64,62,0.40078985691070557,0.05505574494600296
6,2,64,63,0.5343649387359619,0.026017719879746437
6,3,64,0,0.4422684907913208,0.10666950792074203
6,3,64,1,0.48789358139038086,0.05918820574879646
6,3,64,2,0.5524473786354065,0.047395333647727966
6,3,64,3,0.3435787260532379,0.05719318613409996
6,3,64,4,0.43953007459640503,0.07523346692323685
6,3,64,5,0.4719124138355255,0.06455762684345245
6,3,64,6,0.48229363560676575,0.03075294941663742
6,3,64,7,0.47653040289878845,0.0748748704791069
6,3,64,8,0.5153557062149048,0.0703861266374588
6,3,64,9,0.4783491790294647,0.036123424768447876
6,3,64,10,0.5380667448043823,0.042421892285346985
6,3,64,11,0.36542531847953796,0.07405475527048111
6,3,64,12,0.523764967918396,0.06206392124295235
6,3,64,13,0.46290382742881775,0.041546545922756195
6,3,64,14,0.48964637517929077,0.07781817764043808
6,3,64,15,0.40299299359321594,0.08014781773090363
6,3,64,16,0.5329456329345703,0.06709897518157959
6,3,64,17,0.44711899757385254,0.09281987696886063
6,3,64,18,0.4708990454673767,0.09076175838708878
6,3,64,19,0.4151741862297058,0.051725585013628006
6,3,64,20,0.36033332347869873,0.04734122380614281
6,3,64,21,0.5080586075782776,0.05564266815781593
6,3,64,22,0.47512638568878174,0.10722692310810089
6,3,64,23,0.5910542011260986,0.05582451820373535
6,3,64,24,0.4342728555202484,0.08190049231052399
6,3,64,25,0.5250332355499268,0.06215288117527962
6,3,64,26,0.481405645608902,0.04821031913161278
6,3,64,27,0.4147143065929413,0.09058652073144913
6,3,64,28,0.5102942585945129,0.08895996958017349
6,3,64,29,0.4290218949317932,0.0810295045375824
6,3,64,30,0.541069507598877,0.0645480677485466
6,3,64,31,0.4507618546485901,0.08433963358402252
6,3,64,32,0.5077118277549744,0.05357107147574425
6,3,64,33,0.5149974822998047,0.05456220731139183
6,3,64,34,0.4255516529083252,0.08270041644573212
6,3,64,35,0.5601346492767334,0.03177526965737343
6,3,64,36,0.36747750639915466,0.08845125138759613
6,3,64,37,0.5101268887519836,0.03440839424729347
6,3,64,38,0.4195513427257538,0.02140411175787449
6,3,64,39,0.5392859578132629,0.11504743993282318
6,3,64,40,0.5021410584449768,0.10344283282756805
6,3,64,41,0.4558385908603668,0.071314238011837
6,3,64,42,0.489627480506897,0.11619821935892105
6,3,64,43,0.45558488368988037,0.019149282947182655
6,3,64,44,0.4252004623413086,0.1023927554488182
6,3,64,45,0.4694267213344574,0.10092227905988693
6,3,64,46,0.45811957120895386,0.0425887405872345
6,3,64,47,0.47071123123168945,0.050300899893045425
6,3,64,48,0.44221964478492737,0.03612315282225609
6,3,64,49,0.49591514468193054,0.07171369343996048
6,3,64,50,0.5071289539337158,0.05842477083206177
6,3,64,51,0.5845865607261658,0.048514753580093384
6,3,64,52,0.5456196665763855,0.06720981001853943
6,3,64,53,0.4959591031074524,0.11029309779405594
6,3,64,54,0.4507814943790436,0.07403905689716339
6,3,64,55,0.5887870788574219,0.10481435060501099
6,3,64,56,0.5241499543190002,0.10898173600435257
