subject,channel,r,f1_drop_mean,f1_drop_sd
1,0,5,0.10716021984792132,0.008604483490933436
1,1,5,0.0702769679790346,0.01689063473797109
1,2,5,0.07253298345684808,0.010174546679498356
1,3,5,0.0846333362755795,0.015141548680320187
1,4,5,-0.0036768791736619512,0.008948189434938738
1,5,5,0.07597858634317298,0.008976921389463093
1,6,5,0.04588778392036004,0.008214590648931855
1,7,5,0.07068974943957182,0.010861075859130825
1,8,5,0.10020389956519637,0.010088674538804332
2,0,5,0.08681925992694003,0.014384601860830674
2,1,5,0.10066436822880065,0.01760844595064906
2,2,5,0.16596424364851448,0.013319416264830498
2,3,5,0.1000891318682007,0.012761101744531373
2,4,5,0.09474375761863366,0.01906412779798171
2,5,5,0.1696786928604535,0.004708668367491129
2,6,5,0.06930910586000594,0.01134358992833943
2,7,5,0.16005202015750958,0.01596490771204311
2,8,5,0.14242643355022644,0.009888782164063964
3,0,5,0.1389586662305096,0.01329535862014026
3,1,5,0.14975155579039764,0.008243715309216587
3,2,5,0.19500418202560685,0.016598729857418733
3,3,5,0.2303123946690325,0.0081254680422811
3,4,5,0.1628725049741991,0.014557507574662478
3,5,5,0.11806381388188028,0.011036672675068887
3,6,5,0.08857770789952693,0.0043765268827188316
3,7,5,0.19040543154881046,0.014118111087522141
3,8,5,0.2099636305941522,0.011511313200462827
4,0,5,0.1963842142659302,0.018486791306939056
4,1,5,0.16566125887749442,0.014788808081840153
4,2,5,0.16261949998433228,0.010173512249974755
4,3,5,0.12753081028953991,0.01824259299217551
4,4,5,0.16918232118684737,0.011348207075106238
4,5,5,0.2341863400114433,0.01548481049788076
4,6,5,0.07028189462235154,0.008144377362447764
4,7,5,0.1296748128016421,0.010095039012389404
4,8,5,0.19334356199776712,0.018886887471592298
5,0,5,0.06888977998597537,0.01997478635125587
5,1,5,0.09806695625715212,0.015797728240949747
5,2,5,0.04733807930312446,0.008657735682957638
5,3,5,0.05951190033303104,0.011372465418615378
5,4,5,0.08116210436919317,0.009652153237704214
5,5,5,0.08952869497613967,0.01641160297702294
5,6,5,0.031142931386104265,0.006698141462742272
5,7,5,0.07897104554301516,0.0065706799701190635
5,8,5,0.13354760261744225,0.011596664069161332
6,0,5,0.09444160526982877,0.00827966793851319
6,1,5,0.06454087234475223,0.013210262338223594
6,2,5,0.07340524028166102,0.020116209760713225
6,3,5,0.05784715786027601,0.0041454044177703046
6,4,5,0.05606590417943578,0.004384675708127886
6,5,5,0.1251575598931997,0.005445034006819589
6,6,5,0.07923869254658802,0.012173908651603957
6,7,5,0.11743629571940306,0.004628377350858101
6,8,5,0.08039992058094587,0.019844251355149993
7,0,5,0.0995583362120992,0.009302317473519709
7,1,5,0.052855315347492215,0.01615434524240391
7,2,5,0.08857030573068,0.01260004067859164
7,3,5,0.06892688704414063,0.013619728939692176
7,4,5,0.039063784925661205,0.022137156757558278
7,5,5,0.13262690084921822,0.025948177392933546
7,6,5,0.07914499207854815,0.01524766033568345
7,7,5,0.11955662024312988,0.009380403240879586
7,8,5,0.13753684711254568,0.016258383401249313
8,0,5,0.11889088273481119,0.015587407475865114
8,1,5,0.08300015584859677,0.008898987048806048
8,2,5,0.02595275144148086,0.016231942592492773
8,3,5,0.10397076210367681,0.013431377994115675
8,4,5,0.07554150247618356,0.004379687426984865
8,5,5,0.1878347011313523,0.01309642555714226
8,6,5,0.06363321660575953,0.012087362766111286
8,7,5,0.15870122880729667,0.011343105107569331
8,8,5,0.1693387557367251,0.006745473173231417
9,0,5,0.13364357145895064,0.011068934676398232
9,1,5,0.17287330443207652,0.011091591478598093
9,2,5,0.1513318921320585,0.016321676793834526
9,3,5,0.09313091810418053,0.007167151129188988
9,4,5,0.060915137442685244,0.006572813247637248
9,5,5,0.17789911826542054,0.015886272244262003
9,6,5,0.069465219109805,0.020290296788862367
9,7,5,0.19849674319232516,0.013771345565136536
9,8,5,0.14255040842947497,0.012152191705849188
10,0,5,0.11002752977995904,0.012503986425519488
10,1,5,0.0767649727292534,0.01438651952910237
10,2,5,0.06758220685386299,0.014610016806991219
10,3,5,0.14523012066537938,0.015023821832543312
10,4,5,0.06592031451814302,0.014531864716309026
10,5,5,0.10083224508297672,0.021081449729931975
10,6,5,0.06455372353276183,0.00606612639816122
10,7,5,0.17105547321267195,0.011008802644615186
10,8,5,0.1260048725254091,0.020170525636426507
11,0,5,0.09928799347996034,0.014609075625281829
11,1,5,0.15732492785356025,0.012711663340865863
11,2,5,0.1419178792463667,0.005546197277894454
11,3,5,0.1441631321857805,0.011377116346997843
11,4,5,0.16236442462844097,0.014407076512833895
11,5,5,0.12945579375101626,0.018945295292267607
11,6,5,0.05650571718963911,0.014915297520078386
11,7,5,0.18516417339407135,0.009680572963218332
11,8,5,0.1705800928989793,0.013658441539376674
12,0,5,0.12382960348456176,0.009605685137474269
12,1,5,0.1952929203025809,0.007265770170475869
12,2,5,0.17774605647421512,0.011019732184304125
12,3,5,0.17538751001732275,0.021325718457709374
12,4,5,0.18968297731635997,0.00915327421668584
12,5,5,0.15144077719551335,0.01558346201049354
12,6,5,0.06965431081855582,0.001793852283466437
12,7,5,0.15216826186831095,0.007417296809388355
12,8,5,0.12630388053559066,0.021547054777505185
13,0,5,0.15355592975635182,0.013409042404121529
13,1,5,0.13791497261753605,0.012718055683703523
13,2,5,0.13016891911630676,0.009184191504046951
13,3,5,0.10626483635058677,0.009961539523996085
13,4,5,0.0841850510199357,0.007725525537671221
13,5,5,0.26165650131024387,0.01546951560525972
13,6,5,0.09419221662992283,0.006027762375194923
13,7,5,0.14209164304034372,0.004444889514408813
13,8,5,0.17162547910905845,0.01612419537460697
14,0,5,0.11039118729644534,0.009702225476995929
14,1,5,0.09833734819852658,0.008976194823600386
14,2,5,0.15275874794111405,0.010503810774544082
14,3,5,0.15454281031506217,0.007974516985861307
14,4,5,0.13191239183374381,0.014396567581130096
14,5,5,0.10888875684583395,0.010371476840133387
14,6,5,0.013619271185150961,0.003959890380673897
14,7,5,0.15293289472456467,0.010583157125285412
14,8,5,0.13486008473022684,0.01702125035990135
15,0,5,0.17150973801988217,0.010058113332030286
15,1,5,0.13986983826066196,0.012013247106712945
15,2,5,0.1586983805827204,0.011379507749040787
15,3,5,0.12756579438236382,0.011041366075316833
15,4,5,0.15494874461496838,0.018908636343748515
15,5,5,0.24489838255360655,0.012380139385583584
15,6,5,0.13825444584063945,0.00913993738821998
15,7,5,0.10665949290674256,0.014759439577079803
15,8,5,0.17162981992499582,0.021000944907853765
16,0,5,0.09373466410437367,0.020286692537835348
16,1,5,0.09012337756355311,0.008882021910544465
16,2,5,0.15794699214705735,0.007510815308637373
16,3,5,0.11229107973046541,0.013134778812446788
16,4,5,0.14436583160808092,0.007565185472277795
16,5,5,0.1771037496353816,0.01840657929953459
16,6,5,0.02029464277101616,0.007653893350719542
16,7,5,0.17610233632672745,0.016663432893582977
16,8,5,0.15894885692186853,0.01942034587800108
17,0,5,0.21654747703628052,0.009822195999304825
17,1,5,0.1907696792950781,0.012244587872677076
17,2,5,0.170130070382145,0.011051754453799845
17,3,5,0.16743890799194475,0.019314971024652156
17,4,5,0.08310677076571141,0.010885351650897872
17,5,5,0.19264375198486916,0.013026033977417506
17,6,5,0.05076723885359358,0.015342584418413265
17,7,5,0.11050337023454168,0.006466304811516932
17,8,5,0.16931092896886255,0.008164607250210986
18,0,5,0.06927093281385202,0.011976896777651446
18,1,5,0.05015203861330857,0.011287899876791619
18,2,5,0.06250207725148453,0.008068218540370936
18,3,5,0.1541468701710724,0.006970330877928749
18,4,5,0.12129209250571742,0.0074573250423265874
18,5,5,0.19428324503038785,0.011636309792283675
18,6,5,0.015482431488513892,0.010971524726181011
18,7,5,0.1378667872982216,0.00360655343754988
18,8,5,0.11963149671463942,0.011937403670406596
19,0,5,0.06762256899151627,0.00578030623446283
19,1,5,0.10987350989849572,0.008492396147769046
19,2,5,0.11369878946153458,0.012976825246509957
19,3,5,0.14386806802053503,0.011972456838337801
19,4,5,0.1026503242018462,0.012684031385900714
19,5,5,0.18110969280831554,0.011115838110779269
19,6,5,0.08884682189451394,0.004461936171590111
19,7,5,0.15020089079822763,0.018145835035552848
19,8,5,0.14378347676235836,0.012663060067043553
20,0,5,0.09481879441423942,0.02356951401027717
20,1,5,0.1295604753122608,0.008986965822511609
20,2,5,0.12481827372574592,0.014176212647176915
20,3,5,0.08239041528661602,0.007989422790963405
20,4,5,0.11275792977729011,0.014810102953103508
20,5,5,0.15639732746795726,0.016059255768519347
20,6,5,0.032812160313946806,0.00934372379351521
20,7,5,0.11797252852322264,0.018202658966390846
20,8,5,0.14298639995867388,0.019724928611865977
21,0,5,0.196120003111163,0.016670739666652973
21,1,5,0.07861951628450567,0.022051804105247357
21,2,5,0.10020527305773234,0.012129502787175199
21,3,5,0.09422320401891886,0.016118338770670385
21,4,5,0.12728212837497083,0.014754344458402454
21,5,5,0.14186219134310338,0.008927764598361356
21,6,5,0.06777642261814662,0.014130048445904495
21,7,5,0.13884411204298705,0.013717773863264114
21,8,5,0.12839720216600964,0.013879196316718242
22,0,5,0.07711730248810693,0.006649391090043247
22,1,5,0.09359665819727056,0.012272330400169605
22,2,5,0.1485022541546726,0.01959836469862705
22,3,5,0.08398899434301929,0.013969952440186839
22,4,5,0.10468984243762358,0.009770825577176562
22,5,5,0.12311739017716239,0.017189668515674383
22,6,5,0.03962783481974428,0.010522730914692564
22,7,5,0.11890422972890236,0.015779582500140613
22,8,5,0.12982369438459465,0.01289368807693479
23,0,5,0.10716205076235519,0.011057448074251595
23,1,5,0.0864294991696736,0.024683437418992704
23,2,5,0.0851198828325955,0.007323839627400722
23,3,5,0.07001470568953894,0.011621389023228216
23,4,5,0.08433165600204788,0.011125001928091271
23,5,5,0.14098722473977351,0.016495992807550906
23,6,5,0.08506789711385696,0.007669665269368619
23,7,5,0.10159231142755268,0.01068505493346106
23,8,5,0.13038431155463293,0.0113334921258789
24,0,5,0.12720434227757912,0.010658067179030119
24,1,5,0.09339155380147965,0.010547107183720735
24,2,5,0.17732234352289217,0.0019938936230188007
24,3,5,0.05500122153074669,0.015085738012788055
24,4,5,0.1893494653995694,0.017177035239481088
24,5,5,0.14137779273599546,0.0027847043403241116
24,6,5,0.06975494916123164,0.008935624656241157
24,7,5,0.1429319593289649,0.018177120257274113
24,8,5,0.09232216828871083,0.015053537576589199
25,0,5,0.17968539758618945,0.003851740992019305
25,1,5,0.1209668516214069,0.013047342528544463
25,2,5,0.12860255101783807,0.009696367505742737
25,3,5,0.14615854516099475,0.01635709828093314
25,4,5,0.15679628398990703,0.002232471480093515
25,5,5,0.17442734628606366,0.006691167123696755
25,6,5,0.0767618217345021,0.009467910942660451
25,7,5,0.14137565252012632,0.011601959957539971
25,8,5,0.09816220930088,0.010669128308041046
26,0,5,0.11728715058953934,0.0026826969352051447
26,1,5,0.0778808055441264,0.013340657522032626
26,2,5,0.10844325064906457,0.007562661816606495
26,3,5,0.054650528530601684,0.01113917849864345
26,4,5,0.11323611324803029,0.007316613087592716
26,5,5,0.16554507954516523,0.010385819769427958
26,6,5,0.044394596845771364,0.005596652407577846
26,7,5,0.10366161409551478,0.0012690563960932142
26,8,5,0.13570038995741102,0.011360798066952378
27,0,5,0.15705570215819192,0.0054258579202938325
27,1,5,0.08024484876104199,0.01632375906336984
27,2,5,0.15274861183374794,0.010749882124182167
27,3,5,0.13110887200424615,0.013194262209036385
27,4,5,0.1365619519136272,0.012510492977511561
27,5,5,0.19593650768599233,0.011486854227520233
27,6,5,0.0699664271847146,0.017720860741895328
27,7,5,0.16986990788759265,0.00915985088462045
27,8,5,0.17478157223404928,0.011760552317647638
28,0,5,0.13544063290523956,0.01693102359324788
28,1,5,0.12751938914355657,0.020621377810105198
28,2,5,0.11376942827254913,0.005014188754670628
28,3,5,0.0870355476874097,0.016121727493443993
28,4,5,0.08757960219183081,0.008565831838193835
28,5,5,0.19285313846361987,0.011097065703689273
28,6,5,0.057781618325942904,0.007981825143441694
28,7,5,0.09612256154119728,0.008727840665803677
28,8,5,0.1664291809801443,0.008587709894995452
29,0,5,0.18694826415326565,0.017453886584353612
29,1,5,0.10063698197828216,0.00450223454039922
29,2,5,0.1262905249715547,0.013014877565793871
29,3,5,0.060207890656198915,0.012417010455016557
29,4,5,0.15184047125106287,0.010548039600861413
29,5,5,0.21510448649039632,0.009948094634730278
29,6,5,0.044391026907871514,0.015062286014003399
29,7,5,0.09547881515782035,0.010075096012898936
29,8,5,0.16641322104888548,0.01668650312645614
30,0,5,0.10862107981005942,0.011803259757213731
30,1,5,0.10792025362848781,0.01786783975920261
30,2,5,0.0848464551408423,0.012272236619155236
30,3,5,0.07347818119138305,0.009480081745282573
30,4,5,0.11011980880705874,0.011478781226378826
30,5,5,0.20583373766590002,0.010799868359947229
30,6,5,0.027652114680508478,0.01222782893513165
30,7,5,0.12294093384297089,0.012967881613920663
30,8,5,0.11230279803110121,0.02127529847539593
31,0,5,0.10098199119101851,0.012083517507514269
31,1,5,0.07811263280805818,0.015248240266945007
31,2,5,0.09462263517890852,0.013772425956142942
31,3,5,0.048281813952945396,0.016007929523721626
31,4,5,0.08710459960751349,0.0038427425693985115
31,5,5,0.15973478311111733,0.006108461569826571
31,6,5,0.058667606474997205,0.010347796527523307
31,7,5,0.1504503842718182,0.015998611040049057
31,8,5,0.10888162650633752,0.018112855857727966
32,0,5,0.058948283009411594,0.019068593855523553
32,1,5,0.09353743198068362,0.011441830072429682
32,2,5,0.10593277424683578,0.018037184743651614
32,3,5,0.009622731474392854,0.010633118463085867
32,4,5,0.09718639700466555,0.0037619279807477226
32,5,5,0.15322226478823484,0.01592839150592453
32,6,5,0.04361615287131957,0.010180633682335684
32,7,5,0.07926054572942749,0.01934751872543502
32,8,5,0.04485053835233917,0.008826948586154395
33,0,5,0.20282680869531083,0.013927272836207505
33,1,5,0.17455002004324355,0.01413303590351652
33,2,5,0.14196465553826865,0.008748653915785049
33,3,5,0.10132192909513311,0.011905131033224502
33,4,5,0.10139885575397926,0.012040223721627387
33,5,5,0.06771295584285279,0.012095675931800776
33,6,5,0.17161026869806817,0.005979222550521225
33,7,5,0.15153198836038065,0.004136487808105008
33,8,5,0.21462357898537981,0.022878234448013453
34,0,5,0.16233320319748565,0.018183443763238463
34,1,5,0.12496041910569042,0.01775677761745723
34,2,5,0.08509083219997986,0.01567097522114281
34,3,5,0.07326879663982833,0.0058623386514637995
34,4,5,0.10467038245891329,0.00896688980059527
34,5,5,0.06708306024634017,0.01343982033959334
34,6,5,0.046253580784624646,0.008965868570413808
34,7,5,0.1504281218504397,0.010484988793210548
34,8,5,0.12347676855245535,0.011329115544083265
35,0,5,0.10173940546873214,0.009557439075359423
35,1,5,0.10577810388622935,0.011984260141296705
35,2,5,0.08935873720239296,0.009639500164040863
35,3,5,0.10202539902792211,0.012032080142755475
35,4,5,0.009956848750445313,0.0060429020278396604
35,5,5,0.12962584970095173,0.002322005053081357
35,6,5,0.05635769404747541,0.009828629240881558
35,7,5,0.13740319506702015,0.004672548600292535
35,8,5,0.1033309868580679,0.01147931888790422
36,0,5,0.038924566961436466,0.010153635262961569
36,1,5,0.07856775152069322,0.010981138299638326
36,2,5,0.09082051504146327,0.017511277994390607
36,3,5,0.07915487617107311,0.013088375360267327
36,4,5,0.09173973589156496,0.013901494975968454
36,5,5,0.08652748365709446,0.03327510985329269
36,6,5,0.06578757712539011,0.00825853942076558
36,7,5,0.12790713967302694,0.014560533088574506
36,8,5,0.07415176050584935,0.011164824879072124
37,0,5,0.13837011646279154,0.004675947126112288
37,1,5,0.12954598135128367,0.01880312115324338
37,2,5,0.20695636717777166,0.013265438369061857
37,3,5,0.05189469402026581,0.015216642807181411
37,4,5,0.18086736069828865,0.01599998941219622
37,5,5,0.195310125982546,0.016774644984109535
37,6,5,0.10651483164565265,0.012285822733449114
37,7,5,0.16683613700944933,0.011809005778081631
37,8,5,0.12063523210430327,0.015656676473579368
38,0,5,0.16391413696606008,0.012141163540092556
38,1,5,0.1521333461929974,0.011049643895955608
38,2,5,0.1257315772099314,0.012204588041580913
38,3,5,0.1090274239987586,0.0217936738864132
38,4,5,0.21318909604467362,0.019696539384500347
38,5,5,0.209923837535484,0.021273962449736724
38,6,5,0.06205285414117576,0.010455115683166004
38,7,5,0.11648211823623764,0.011321613971562637
38,8,5,0.12067883389343055,0.016787278181029004
39,0,5,0.1147255709793947,0.009770437308724251
39,1,5,0.09616401077923334,0.010091289813138728
39,2,5,0.07565247819076823,0.01522324611923913
39,3,5,0.09519817805474988,0.01184004594034415
39,4,5,0.08753627232090708,0.003703485405455854
39,5,5,0.21902660872068513,0.011139534502990862
39,6,5,0.06080120132750224,0.003641353463871965
39,7,5,0.16174511245810533,0.01782197420595419
39,8,5,0.08304652154793501,0.007439708777171661
40,0,5,0.13769917528342454,0.012408723132010167
40,1,5,0.07918405855612809,0.019339449740004545
40,2,5,0.0602286147895565,0.009828533435483948
40,3,5,0.04837257211099275,0.0031966834777485105
40,4,5,0.029711110253050288,0.013694708604254426
40,5,5,0.14218702111059953,0.01310719714082331
40,6,5,0.08807159977965384,0.011477532014337537
40,7,5,0.19752053273122921,0.014965592308191306
40,8,5,0.14966405280610565,0.015835000759762824
