subject,channel,alpha,f1,drop_pp
1,0,1.0,0.7206048866555532,0.0
1,0,0.75,0.7212751299877658,-0.067024333221255
1,0,0.5,0.7123111370743844,0.8293749581168797
1,0,0.25,0.6937482522833016,2.685663437225161
1,0,0.0,0.6775547119184525,4.3050174737100715
1,1,1.0,0.7206048866555532,0.0
1,1,0.75,0.7148576319850667,0.5747254670486535
1,1,0.5,0.7094440727508465,1.116081390470669
1,1,0.25,0.7054657584423646,1.5139128213188635
1,1,0.0,0.6944208192586765,2.618406739687673
1,2,1.0,0.7206048866555532,0.0
1,2,0.75,0.7200331032952889,0.057178336026431076
1,2,0.5,0.7090617959505521,1.1543090705001147
1,2,0.25,0.6933817497149196,2.7223136940633608
1,2,0.0,0.6653767392456592,5.522814740989402
1,3,1.0,0.7206048866555532,0.0
1,3,0.75,0.7201882014477645,0.04166852077887029
1,3,0.5,0.7030795582464442,1.7525328409109031
1,3,0.25,0.7004262231208273,2.017866353472597
1,3,0.0,0.7015367661952882,1.906812046026507
1,4,1.0,0.7206048866555532,0.0
1,4,0.75,0.723332145030867,-0.27272583753137347
1,4,0.5,0.7319023576922956,-1.129747103674239
1,4,0.25,0.7366676292542285,-1.606274259867524
1,4,0.0,0.7159107058401692,0.4694180815383975
1,5,1.0,0.7206048866555532,0.0
1,5,0.75,0.7234447204619293,-0.2839833806376091
1,5,0.5,0.6960960036560624,2.4508882999490833
1,5,0.25,0.6737746792328243,4.683020742272892
1,5,0.0,0.6361211154561964,8.44837711993568
1,6,1.0,0.7206048866555532,0.0
1,6,0.75,0.7221065012188651,-0.15016145633118816
1,6,0.5,0.7228125588179936,-0.22076721624403328
1,6,0.25,0.7310741491266148,-1.0469262471061613
1,6,0.0,0.7132869330765704,0.7317953578982794
1,7,1.0,0.7206048866555532,0.0
1,7,0.75,0.7114512313489296,0.9153655306623598
1,7,0.5,0.6917987762399135,2.880611041563974
1,7,0.25,0.6538495613176322,6.675532533792106
1,7,0.0,0.5726759286893597,14.792895796619355
1,8,1.0,0.7206048866555532,0.0
1,8,0.75,0.7161133453403647,0.4491541315188474
1,8,0.5,0.7039942927545796,1.6610593900973636
1,8,0.25,0.6741546916463693,4.645019500918391
1,8,0.0,0.6179435230333863,10.266136362216693
2,0,1.0,0.9182173447934611,0.0
2,0,0.75,0.9255810326184538,-0.7363687824992748
2,0,0.5,0.9258846324388668,-0.7667287645405696
2,0,0.25,0.9190615763546798,-0.08442315612187112
2,0,0.0,0.908519348823118,0.9697995970343043
2,1,1.0,0.9182173447934611,0.0
2,1,0.75,0.9148525770327773,0.3364767760683729
2,1,0.5,0.9084435553982244,0.9773789395236654
2,1,0.25,0.9001245000281675,1.8092844765293603
2,1,0.0,0.8929799981396965,2.5237346653764536
2,2,1.0,0.9182173447934611,0.0
2,2,0.75,0.9119065589211389,0.6310785872322144
2,2,0.5,0.9174873964379802,0.07299483554809028
2,2,0.25,0.9013882264018023,1.6829118391658793
2,2,0.0,0.8610948178997566,5.712252689370445
2,3,1.0,0.9182173447934611,0.0
2,3,0.75,0.9215111803057733,-0.32938355123122154
2,3,0.5,0.9210290863988341,-0.2811741605373008
2,3,0.25,0.9192821035445614,-0.10647587511003476
2,3,0.0,0.9002434988006394,1.7973845992821702
2,4,1.0,0.9182173447934611,0.0
2,4,0.75,0.9189759922271069,-0.07586474336458426
2,4,0.5,0.9195612057324057,-0.13438609389446743
2,4,0.25,0.908011250674654,1.0206094118807019
2,4,0.0,0.9024866751463648,1.573066964709624
2,5,1.0,0.9182173447934611,0.0
2,5,0.75,0.9181068784693013,0.011046632415978586
2,5,0.5,0.9112033944934524,0.701395030000862
2,5,0.25,0.9090147069385823,0.9202637854878737
2,5,0.0,0.8864746407105372,3.17427040829239
2,6,1.0,0.9182173447934611,0.0
2,6,0.75,0.9126980193186993,0.5519325474761749
2,6,0.5,0.9150979545765879,0.311939021687313
2,6,0.25,0.9211710505789223,-0.295370578546128
2,6,0.0,0.9149103345502685,0.33070102431925763
2,7,1.0,0.9182173447934611,0.0
2,7,0.75,0.9157590236041747,0.245832118928635
2,7,0.5,0.9125224500486417,0.5694894744819323
2,7,0.25,0.895330622208723,2.2886722584738117
2,7,0.0,0.7548485779488611,16.33687668446
2,8,1.0,0.9182173447934611,0.0
2,8,0.75,0.920060000900748,-0.18426561072869552
2,8,0.5,0.9176358540437373,0.05814907497238009
2,8,0.25,0.8987752261798166,1.9442118613644421
2,8,0.0,0.8635221678477021,5.469517694575899
3,0,1.0,0.9084708768548375,0.0
3,0,0.75,0.909496621521938,-0.1025744667100481
3,0,0.5,0.913380434836399,-0.4909557981561452
3,0,0.25,0.9296318592667712,-2.116098241193365
3,0,0.0,0.9314712033837448,-2.3000326528907267
3,1,1.0,0.9084708768548375,0.0
3,1,0.75,0.8984210694366992,1.0049807418138323
3,1,0.5,0.8880006276108816,2.0470249243955907
3,1,0.25,0.8803060489208099,2.8164827934027636
3,1,0.0,0.8684912317689008,3.9979645085936766
3,2,1.0,0.9084708768548375,0.0
3,2,0.75,0.9066748281143455,0.17960487404919956
3,2,0.5,0.8835652282038331,2.490564865100442
3,2,0.25,0.8722776416465883,3.619323520824924
3,2,0.0,0.8239762292026225,8.449464765221503
3,3,1.0,0.9084708768548375,0.0
3,3,0.75,0.898863786316793,0.9607090538044538
3,3,0.5,0.8832108223632631,2.5260054491574424
3,3,0.25,0.8488284795864107,5.9642397268426794
3,3,0.0,0.7725103260270348,13.596055082780268
3,4,1.0,0.9084708768548375,0.0
3,4,0.75,0.9076410573918855,0.08298194629520195
3,4,0.5,0.9122915626321277,-0.38206857772902225
3,4,0.25,0.9215233916326901,-1.305251477785263
3,4,0.0,0.8800459064626927,2.8424970392144866
3,5,1.0,0.9084708768548375,0.0
3,5,0.75,0.9080758824508826,0.039499440395496244
3,5,0.5,0.9078705666583016,0.0600310196535947
3,5,0.25,0.9154870376848847,-0.7016160830047191
3,5,0.0,0.8944803182973261,1.3990558557511412
3,6,1.0,0.9084708768548375,0.0
3,6,0.75,0.9102535573246411,-0.1782680469803566
3,6,0.5,0.9053745989740141,0.30962778808234503
3,6,0.25,0.9032428443310632,0.5228032523774351
3,6,0.0,0.8930421456663337,1.5428731188503853
3,7,1.0,0.9084708768548375,0.0
3,7,0.75,0.899373661925567,0.9097214929270514
3,7,0.5,0.8949218991304249,1.3548977724412659
3,7,0.25,0.8496726951650225,5.879818168981499
3,7,0.0,0.7520619486679858,15.64089281868517
3,8,1.0,0.9084708768548375,0.0
3,8,0.75,0.9052353410144167,0.32355358404208
3,8,0.5,0.9042091125473058,0.4261764307531668
3,8,0.25,0.8935019066086893,1.4968970246148183
3,8,0.0,0.8913860676453866,1.708480920945088
4,0,1.0,0.8153990324601416,0.0
4,0,0.75,0.8173490850364593,-0.19500525763177512
4,0,0.5,0.8208465650699044,-0.5447532609762828
4,0,0.25,0.8287985811625314,-1.3399548702389796
4,0,0.0,0.845875347100743,-3.047631464060141
4,1,1.0,0.8153990324601416,0.0
4,1,0.75,0.8146162550661438,0.07827773939977911
4,1,0.5,0.7997017320794593,1.5697300380682289
4,1,0.25,0.799271769970291,1.6127262489850525
4,1,0.0,0.7660552024445402,4.934383001560139
4,2,1.0,0.8153990324601416,0.0
4,2,0.75,0.8093874638433672,0.6011568616774321
4,2,0.5,0.805498931341825,0.9900101118316518
4,2,0.25,0.7969860496796636,1.8412982780477982
4,2,0.0,0.7781121432437221,3.7286889216419428
4,3,1.0,0.8153990324601416,0.0
4,3,0.75,0.8127971101745937,0.26019222855478974
4,3,0.5,0.8143417958072586,0.10572366528829313
4,3,0.25,0.8061394236118837,0.9259608848257828
4,3,0.0,0.7935284942105014,2.1870538249640137
4,4,1.0,0.8153990324601416,0.0
4,4,0.75,0.8152458418774209,0.015319058272067476
4,4,0.5,0.8160189794136595,-0.061994695351796913
4,4,0.25,0.8159791870515329,-0.05801545913913797
4,4,0.0,0.8158589701900202,-0.045993772987862336
4,5,1.0,0.8153990324601416,0.0
4,5,0.75,0.8205973874079138,-0.519835494777221
4,5,0.5,0.8129832646811112,0.24157677790304088
4,5,0.25,0.7951587874916306,2.0240244968510956
4,5,0.0,0.7846488408987174,3.075019156142411
4,6,1.0,0.8153990324601416,0.0
4,6,0.75,0.8114375944554195,0.396143800472204
4,6,0.5,0.8124775815997582,0.2921450860383312
4,6,0.25,0.8151152225232399,0.02838099369016911
4,6,0.0,0.8004313331830755,1.4967699277066093
4,7,1.0,0.8153990324601416,0.0
4,7,0.75,0.8230230746086635,-0.762404214852197
4,7,0.5,0.8105644779725567,0.48345544875848523
4,7,0.25,0.7976388740938047,1.776015836633682
4,7,0.0,0.7742649830076087,4.113404945253285
4,8,1.0,0.8153990324601416,0.0
4,8,0.75,0.8211276472432166,-0.572861478307507
4,8,0.5,0.8089793471103819,0.6419685349759674
4,8,0.25,0.806038406038406,0.9360626421735518
4,8,0.0,0.7754856703099295,3.9913362150212017
5,0,1.0,0.6639079266244928,0.0
5,0,0.75,0.666091995741386,-0.21840691168931725
5,0,0.5,0.6605018090155476,0.34061176089452694
5,0,0.25,0.6455599385853009,1.834798803919191
5,0,0.0,0.6488495787650089,1.50583478594839
5,1,1.0,0.6639079266244928,0.0
5,1,0.75,0.6571206101780273,0.6787316446465574
5,1,0.5,0.6465883479284685,1.7319578696024296
5,1,0.25,0.6466595274791784,1.7248399145314397
5,1,0.0,0.6383159375346875,2.559198908980531
5,2,1.0,0.6639079266244928,0.0
5,2,0.75,0.6641206720630313,-0.021274543853844197
5,2,0.5,0.6492350122167343,1.467291440775853
5,2,0.25,0.6354090757593732,2.8498850865119607
5,2,0.0,0.6206387549621645,4.326917166232835
5,3,1.0,0.6639079266244928,0.0
5,3,0.75,0.6738815671386815,-0.9973640514188697
5,3,0.5,0.6629742785036714,0.09336481208214176
5,3,0.25,0.666763915117859,-0.2855988493366213
5,3,0.0,0.6627628680919389,0.11450585325539775
5,4,1.0,0.6639079266244928,0.0
5,4,0.75,0.6340579154843232,2.9850011140169608
5,4,0.5,0.613655773926698,5.025215269779482
5,4,0.25,0.5737257533522396,9.018217327225319
5,4,0.0,0.542767950513125,12.113997611136785
5,5,1.0,0.6639079266244928,0.0
5,5,0.75,0.6362221868402226,2.7685739784270247
5,5,0.5,0.6067802023466294,5.712772427786339
5,5,0.25,0.5785913742788364,8.531655234565639
5,5,0.0,0.5561429869320732,10.776493969241962
5,6,1.0,0.6639079266244928,0.0
5,6,0.75,0.6663230484692222,-0.2415121844729362
5,6,0.5,0.6653718113915099,-0.14638847670170874
5,6,0.25,0.6676228286341542,-0.37149020096614027
5,6,0.0,0.6517921158282406,1.2115810796252235
5,7,1.0,0.6639079266244928,0.0
5,7,0.75,0.68153709726186,-1.762917063736713
5,7,0.5,0.6800382928315633,-1.6130366207070423
5,7,0.25,0.6784467357999697,-1.4538809175476897
5,7,0.0,0.6249660024147419,3.8941924209750955
5,8,1.0,0.6639079266244928,0.0
5,8,0.75,0.6596425235510558,0.4265403073437035
5,8,0.5,0.6511767442179813,1.2731182406511499
5,8,0.25,0.6398096611203561,2.409826550413674
5,8,0.0,0.5776432204560308,8.626470616846206
6,0,1.0,0.7556555237187509,0.0
6,0,0.75,0.7566961545982391,-0.10406308794882468
6,0,0.5,0.7495372340042445,0.6118289714506342
6,0,0.25,0.7497279627310494,0.592756098770153
6,0,0.0,0.7510669477581242,0.4588575960626673
6,1,1.0,0.7556555237187509,0.0
6,1,0.75,0.7564854054768071,-0.08298817580562057
6,1,0.5,0.7605006454642538,-0.48451217455028894
6,1,0.25,0.7480565774174475,0.7598946301303422
6,1,0.0,0.7341385597202607,2.1516963998490235
6,2,1.0,0.7556555237187509,0.0
6,2,0.75,0.7619035183464219,-0.6247994627671005
6,2,0.5,0.7685733485549608,-1.2917824836209957
6,2,0.25,0.7705008766923438,-1.4845352973592907
6,2,0.0,0.7546711034803155,0.09844202384353684
6,3,1.0,0.7556555237187509,0.0
6,3,0.75,0.7781388596549488,-2.248333593619789
6,3,0.5,0.7813606811968185,-2.5705157478067564
6,3,0.25,0.7864551456461384,-3.07996219273875
6,3,0.0,0.7785739305326433,-2.2918406813892456
6,4,1.0,0.7556555237187509,0.0
6,4,0.75,0.7567659896725225,-0.11104659537716222
6,4,0.5,0.7425314119807345,1.312411173801642
6,4,0.25,0.7305789538496299,2.507656986912099
6,4,0.0,0.726475423954101,2.918009976464986
6,5,1.0,0.7556555237187509,0.0
6,5,0.75,0.7552957877393777,0.03597359793732213
6,5,0.5,0.750005785607732,0.5649738111018876
6,5,0.25,0.7495805722928424,0.6074951425908526
6,5,0.0,0.709186022841072,4.6469500877678875
6,6,1.0,0.7556555237187509,0.0
6,6,0.75,0.7445416898856139,1.1113833833137021
6,6,0.5,0.7283477950083818,2.730772871036913
6,6,0.25,0.7180252568434854,3.7630266875265495
6,6,0.0,0.7072745305968703,4.83809931218806
6,7,1.0,0.7556555237187509,0.0
6,7,0.75,0.7549965976052934,0.06589261134575253
6,7,0.5,0.735085253326828,2.057027039192294
6,7,0.25,0.7073377394322924,4.831778428645849
6,7,0.0,0.6831039281264772,7.255159559227364
6,8,1.0,0.7556555237187509,0.0
6,8,0.75,0.7602786674006377,-0.46231436818867655
6,8,0.5,0.7362939120585276,1.9361611660223321
6,8,0.25,0.7322838700065386,2.337165371221228
6,8,0.0,0.6959813900361538,5.967413368259711
7,0,1.0,0.8086551349525212,0.0
7,0,0.75,0.8119093169240956,-0.32541819715744547
7,0,0.5,0.8001522846714945,0.8502850281026708
7,0,0.25,0.7971634761657233,1.149165878679792
7,0,0.0,0.7837250671435699,2.493006780895124
7,1,1.0,0.8086551349525212,0.0
7,1,0.75,0.7908182490628001,1.78368858897211
7,1,0.5,0.7919526184832846,1.6702516469236595
7,1,0.25,0.7831005572352832,2.5554577717238014
7,1,0.0,0.7416351828055867,6.701995214693445
7,2,1.0,0.8086551349525212,0.0
7,2,0.75,0.7998661846725016,0.8788950280019581
7,2,0.5,0.785230358721738,2.3424776230783206
7,2,0.25,0.7658961968133868,4.275893813913434
7,2,0.0,0.7449544403644771,6.370069458804406
7,3,1.0,0.8086551349525212,0.0
7,3,0.75,0.7976873230674787,1.0967811885042478
7,3,0.5,0.8043826053174965,0.4272529635024669
7,3,0.25,0.7991549715979895,0.9500163354531632
7,3,0.0,0.7975856838205229,1.106945113199831
7,4,1.0,0.8086551349525212,0.0
7,4,0.75,0.797452278616433,1.1202856336088196
7,4,0.5,0.790801490498109,1.7853644454412176
7,4,0.25,0.7861565701248429,2.2498564827678313
7,4,0.0,0.7502039303568055,5.845120459571563
7,5,1.0,0.8086551349525212,0.0
7,5,0.75,0.7994983068246546,0.9156828127866556
7,5,0.5,0.8011231275242273,0.7532007428293852
7,5,0.25,0.7959464055578489,1.270872939467227
7,5,0.0,0.775432360060532,3.3222774891989215
7,6,1.0,0.8086551349525212,0.0
7,6,0.75,0.7859175395348827,2.2737595417638423
7,6,0.5,0.7748357443440259,3.381939060849526
7,6,0.25,0.7554518627053604,5.320327224716081
7,6,0.0,0.7341098642518129,7.454527070070826
7,7,1.0,0.8086551349525212,0.0
7,7,0.75,0.7958424137174336,1.2812721235087587
7,7,0.5,0.7809584125338475,2.7696722418673714
7,7,0.25,0.7461663401085459,6.248879484397529
7,7,0.0,0.6910510201509025,11.76041148016187
7,8,1.0,0.8086551349525212,0.0
7,8,0.75,0.7946649950214675,1.3990139931053691
7,8,0.5,0.7804819599452761,2.8173175007245033
7,8,0.25,0.7500908832857662,5.8564251666754945
7,8,0.0,0.6952156920131037,11.343944293941743
8,0,1.0,0.8629934698582168,0.0
8,0,0.75,0.8728805583008917,-0.9887088442674941
8,0,0.5,0.8707500793846983,-0.7756609526481495
8,0,0.25,0.8710970157410329,-0.8103545882816143
8,0,0.0,0.8440051105280308,1.8988359330185944
8,1,1.0,0.8629934698582168,0.0
8,1,0.75,0.8695025654467866,-0.6509095588569824
8,1,0.5,0.8706784700869483,-0.7685000228731531
8,1,0.25,0.8713879385250354,-0.8394468666818589
8,1,0.0,0.8606612225535641,0.2332247304652646
8,2,1.0,0.8629934698582168,0.0
8,2,0.75,0.8676204323987409,-0.4626962540524082
8,2,0.5,0.8657407331506206,-0.2747263292403823
8,2,0.25,0.8745265734345488,-1.1533103576331971
8,2,0.0,0.8879172329369416,-2.492376307872479
8,3,1.0,0.8629934698582168,0.0
8,3,0.75,0.8595315909191117,0.3461878939105101
8,3,0.5,0.8439672188409323,1.9026251017284501
8,3,0.25,0.8359594205535165,2.7034049304700325
8,3,0.0,0.8226911995996368,4.030227025858002
8,4,1.0,0.8629934698582168,0.0
8,4,0.75,0.8664146556049721,-0.34211857467553175
8,4,0.5,0.8570988050474769,0.5894664810739858
8,4,0.25,0.8490623019892132,1.3931167869003613
8,4,0.0,0.8191830880762214,4.381038178199537
8,5,1.0,0.8629934698582168,0.0
8,5,0.75,0.8513242703280504,1.166919953016643
8,5,0.5,0.8448103486887903,1.8183121169426442
8,5,0.25,0.8319643518589641,3.1029117999252676
8,5,0.0,0.7976610376170696,6.533243224114715
8,6,1.0,0.8629934698582168,0.0
8,6,0.75,0.8650389710348537,-0.20455011766369324
8,6,0.5,0.8632038222366313,-0.021035237841449117
8,6,0.25,0.8510408913384888,1.1952578519727974
8,6,0.0,0.8419150880845712,2.1078381773645627
8,7,1.0,0.8629934698582168,0.0
8,7,0.75,0.8777846298066317,-1.4791159948414956
8,7,0.5,0.869385680240339,-0.6392210382122232
8,7,0.25,0.8664288262737342,-0.3435356415517399
8,7,0.0,0.7858783191617906,7.711515069642616
8,8,1.0,0.8629934698582168,0.0
8,8,0.75,0.8662000866137557,-0.32066167555389047
8,8,0.5,0.869768054192402,-0.6774584334185207
8,8,0.25,0.8346102666523598,2.8383203205856966
8,8,0.0,0.7682259106732204,9.476755918499634
9,0,1.0,0.8361323561150116,0.0
9,0,0.75,0.8457249566363132,-0.959260052130162
9,0,0.5,0.8402206256184469,-0.40882695034353267
9,0,0.25,0.8370743927949595,-0.09420366799479662
9,0,0.0,0.8143258369601192,2.18065191548924
9,1,1.0,0.8361323561150116,0.0
9,1,0.75,0.8380116326200298,-0.18792765050181792
9,1,0.5,0.8200428974318201,1.6089458683191449
9,1,0.25,0.8212860534946195,1.4846302620392104
9,1,0.0,0.7881999054806904,4.793245063432117
9,2,1.0,0.8361323561150116,0.0
9,2,0.75,0.833877131039717,0.22552250752946312
9,2,0.5,0.8228621268170804,1.3270229297931202
9,2,0.25,0.8025225263923426,3.3609829722669016
9,2,0.0,0.7613101146197732,7.482224149523842
9,3,1.0,0.8361323561150116,0.0
9,3,0.75,0.8420567396775809,-0.5924383562569302
9,3,0.5,0.8447780702176623,-0.8645714102650692
9,3,0.25,0.828539716197199,0.759263991781256
9,3,0.0,0.8159042106592383,2.0228145455773228
9,4,1.0,0.8361323561150116,0.0
9,4,0.75,0.8385067094086222,-0.2374353293610576
9,4,0.5,0.8272169219844319,0.8915434130579714
9,4,0.25,0.8197191454726427,1.6413210642368892
9,4,0.0,0.8090406792183442,2.709167689666736
9,5,1.0,0.8361323561150116,0.0
9,5,0.75,0.8391274432607024,-0.29950871456908557
9,5,0.5,0.8318179727724785,0.431438334253309
9,5,0.25,0.8290897045490839,0.7042651565927649
9,5,0.0,0.7786009425309406,5.753141358407099
9,6,1.0,0.8361323561150116,0.0
9,6,0.75,0.8362415785616544,-0.010922244664279823
9,6,0.5,0.8293976504970626,0.6734705617948977
9,6,0.25,0.8257921812545239,1.034017486048766
9,6,0.0,0.8175856975826837,1.8546658532327842
9,7,1.0,0.8361323561150116,0.0
9,7,0.75,0.8309235970508454,0.520875906416618
9,7,0.5,0.8219232760322539,1.4209080082757675
9,7,0.25,0.8102599618890545,2.5872394225957107
9,7,0.0,0.7681120309716137,6.802032514339784
9,8,1.0,0.8361323561150116,0.0
9,8,0.75,0.836242660794035,-0.011030467902339858
9,8,0.5,0.8455429135572606,-0.9410557442249057
9,8,0.25,0.8415286998081872,-0.5396343693175654
9,8,0.0,0.8034151615631306,3.2717194551880935
10,0,1.0,0.7975087866756199,0.0
10,0,0.75,0.7925720597277084,0.4936726947911474
10,0,0.5,0.783116586580372,1.4392200095247887
10,0,0.25,0.7804376239719133,1.7071162703706566
10,0,0.0,0.7423033859015319,5.520540077408798
10,1,1.0,0.7975087866756199,0.0
10,1,0.75,0.8018780007756114,-0.4369214099991581
10,1,0.5,0.7957743104089858,0.1734476266634033
10,1,0.25,0.7816820185041498,1.5826768171470107
10,1,0.0,0.7667928729992248,3.0715913676395035
10,2,1.0,0.7975087866756199,0.0
10,2,0.75,0.791383027731882,0.6125758943737902
10,2,0.5,0.7897783324691064,0.7730454206513415
10,2,0.25,0.778721114535315,1.8787672140304856
10,2,0.0,0.763123730117755,3.4385056557864835
10,3,1.0,0.7975087866756199,0.0
10,3,0.75,0.7880950906952269,0.9413695980392989
10,3,0.5,0.7823374828522482,1.5171303823371618
10,3,0.25,0.7814886831651615,1.602010351045835
10,3,0.0,0.7567772603998705,4.073152627574938
10,4,1.0,0.7975087866756199,0.0
10,4,0.75,0.773491493026684,2.40172936489359
10,4,0.5,0.76310774835365,3.4401038321969835
10,4,0.25,0.7548474053150755,4.2661381360544315
10,4,0.0,0.7306633391308879,6.684544754473198
10,5,1.0,0.7975087866756199,0.0
10,5,0.75,0.7665738971173753,3.0934889558244527
10,5,0.5,0.7594842987253186,3.8024487950301222
10,5,0.25,0.7485323296491259,4.897645702649401
10,5,0.0,0.7380738793003759,5.943490737524392
10,6,1.0,0.7975087866756199,0.0
10,6,0.75,0.7890610653834489,0.8447721292170973
10,6,0.5,0.792621156616549,0.4887630059070891
10,6,0.25,0.791670766585237,0.5838020090382812
10,6,0.0,0.7833270624388383,1.4181724236781545
10,7,1.0,0.7975087866756199,0.0
10,7,0.75,0.7924146348882839,0.5094151787335965
10,7,0.5,0.7753137529856474,2.2195033689972443
10,7,0.25,0.759345147062083,3.816363961353686
10,7,0.0,0.7442826405963466,5.322614607927322
10,8,1.0,0.7975087866756199,0.0
10,8,0.75,0.7966841810297847,0.08246056458351969
10,8,0.5,0.7979100480612578,-0.04012613856378966
10,8,0.25,0.7809865422073681,1.652224446825179
10,8,0.0,0.7456073499053265,5.190143677029335
11,0,1.0,0.9367383318928263,0.0
11,0,0.75,0.9422687899119961,-0.5530458019169848
11,0,0.5,0.9455842258973234,-0.884589400449709
11,0,0.25,0.9388122184450518,-0.20738865522255123
11,0,0.0,0.9060604386563177,3.06778932365086
11,1,1.0,0.9367383318928263,0.0
11,1,0.75,0.9384069009280971,-0.1668569035270795
11,1,0.5,0.9355473173770814,0.11910145157448815
11,1,0.25,0.9379925843463828,-0.12542524535564814
11,1,0.0,0.9101798833189282,2.655844857389811
11,2,1.0,0.9367383318928263,0.0
11,2,0.75,0.9402710766343623,-0.3532744741535976
11,2,0.5,0.9404968879287412,-0.3758556035914906
11,2,0.25,0.9287652185628514,0.7973113329974857
11,2,0.0,0.8811553991088742,5.55829327839521
11,3,1.0,0.9367383318928263,0.0
11,3,0.75,0.9414194364862665,-0.46811045934401774
11,3,0.5,0.9340031287915954,0.27352031012308764
11,3,0.25,0.9319911479227874,0.4747183970038926
11,3,0.0,0.9009563276552742,3.5782004237552067
11,4,1.0,0.9367383318928263,0.0
11,4,0.75,0.9542078156022211,-1.7469483709394829
11,4,0.5,0.9499560026976721,-1.3217670804845816
11,4,0.25,0.9463938999743835,-0.9655568081557209
11,4,0.0,0.9380742604843705,-0.13359285915441887
11,5,1.0,0.9367383318928263,0.0
11,5,0.75,0.9386068834483459,-0.1868551555519571
11,5,0.5,0.9417507396037864,-0.5012407710960121
11,5,0.25,0.938981923389912,-0.22435914970857507
11,5,0.0,0.9393228281625955,-0.25844962697691987
11,6,1.0,0.9367383318928263,0.0
11,6,0.75,0.9339126752031544,0.28256566896719404
11,6,0.5,0.9425237758916487,-0.5785443998822415
11,6,0.25,0.9475017349063151,-1.076340301348877
11,6,0.0,0.9458809410752103,-0.9142609182383965
11,7,1.0,0.9367383318928263,0.0
11,7,0.75,0.9385485085323225,-0.18101766394962304
11,7,0.5,0.9417785209410243,-0.5040189048198029
11,7,0.25,0.9588296760710554,-2.209134417822911
11,7,0.0,0.9127698916397358,2.396844025309053
11,8,1.0,0.9367383318928263,0.0
11,8,0.75,0.9435023123959906,-0.6763980503164291
11,8,0.5,0.9465294355719023,-0.9791103679075985
11,8,0.25,0.9398544156894135,-0.31160837965872323
11,8,0.0,0.9073332609347723,2.9405070958054003
12,0,1.0,0.9041301299142359,0.0
12,0,0.75,0.9006712568391383,0.3458873075097624
12,0,0.5,0.897951558373104,0.6178571541131883
12,0,0.25,0.8920040263575733,1.212610355666266
12,0,0.0,0.8816375994929184,2.249253042131749
12,1,1.0,0.9041301299142359,0.0
12,1,0.75,0.8961567201703351,0.7973409743900817
12,1,0.5,0.8899534830348945,1.4176646879341392
12,1,0.25,0.8678768956767307,3.625323423750526
12,1,0.0,0.8556763631198826,4.845376679435331
12,2,1.0,0.9041301299142359,0.0
12,2,0.75,0.8967398835419461,0.7390246372289799
12,2,0.5,0.8943686324087157,0.9761497505520245
12,2,0.25,0.8977000290583494,0.6430100855886467
12,2,0.0,0.8572768765155452,4.685325339869073
12,3,1.0,0.9041301299142359,0.0
12,3,0.75,0.9006698237882073,0.3460306126028656
12,3,0.5,0.895368315871837,0.8761814042398952
12,3,0.25,0.8796519439731249,2.4478185941111064
12,3,0.0,0.8536584288828778,5.047170103135812
12,4,1.0,0.9041301299142359,0.0
12,4,0.75,0.8998256275183742,0.43045023958616646
12,4,0.5,0.8979480931294361,0.6182036784799783
12,4,0.25,0.903298296388608,0.08318335256278786
12,4,0.0,0.8735967529936026,3.0533376920633293
12,5,1.0,0.9041301299142359,0.0
12,5,0.75,0.9035094454050825,0.06206845091534241
12,5,0.5,0.8969376976966581,0.7192432217577815
12,5,0.25,0.8976711098929528,0.6459020021283068
12,5,0.0,0.877292663476874,2.6837466437361956
12,6,1.0,0.9041301299142359,0.0
12,6,0.75,0.9057961456467061,-0.16660157324701608
12,6,0.5,0.908142738792076,-0.40126088778400515
12,6,0.25,0.9147635212712829,-1.0633391357046995
12,6,0.0,0.8996247074177977,0.45054224964382605
12,7,1.0,0.9041301299142359,0.0
12,7,0.75,0.9054922696002287,-0.1362139685992747
12,7,0.5,0.9065680615680616,-0.24379316538256646
12,7,0.25,0.9041977312907483,-0.006760137651240505
12,7,0.0,0.8595505574829101,4.457957243132582
12,8,1.0,0.9041301299142359,0.0
12,8,0.75,0.8996071573195206,0.45229725947153465
12,8,0.5,0.895638386603891,0.8491743310344968
12,8,0.25,0.8770759491761021,2.7054180738133815
12,8,0.0,0.8446501928284873,5.947993708574861
13,0,1.0,0.9610469884831333,0.0
13,0,0.75,0.9646716891349505,-0.3624700651817192
13,0,0.5,0.9533561613365777,0.7690827146555557
13,0,0.25,0.9375490860485013,2.349790243463201
13,0,0.0,0.9122648003140366,4.8782188169096745
13,1,1.0,0.9610469884831333,0.0
13,1,0.75,0.956021549536605,0.5025438946528293
13,1,0.5,0.9547730993647733,0.6273889118360021
13,1,0.25,0.9343941824580853,2.665280602504805
13,1,0.0,0.9037954037954039,5.725158468772939
13,2,1.0,0.9610469884831333,0.0
13,2,0.75,0.9614743792024406,-0.04273907193073079
13,2,0.5,0.9489795114959989,1.2067476987134396
13,2,0.25,0.9456507242773297,1.5396264205803645
13,2,0.0,0.9287769292854038,3.2270059197729517
13,3,1.0,0.9610469884831333,0.0
13,3,0.75,0.9615570065983625,-0.0510018115229216
13,3,0.5,0.9479759646657295,1.307102381740377
13,3,0.25,0.9249863218594455,3.6060666623687787
13,3,0.0,0.9107953419768406,5.025164650629266
13,4,1.0,0.9610469884831333,0.0
13,4,0.75,0.9613338217918972,-0.02868333087638897
13,4,0.5,0.9592693542441011,0.17776342390322108
13,4,0.25,0.9561593052787247,0.4887683204408577
13,4,0.0,0.9389866575944854,2.2060330888647894
13,5,1.0,0.9610469884831333,0.0
13,5,0.75,0.9576896985057994,0.3357289977333866
13,5,0.5,0.9536101389266239,0.7436849556509362
13,5,0.25,0.9384209308274689,2.262605765566439
13,5,0.0,0.9288872544798448,3.215973400328853
13,6,1.0,0.9610469884831333,0.0
13,6,0.75,0.9607770583987096,0.026993008442366406
13,6,0.5,0.9485471953314313,1.249979315170202
13,6,0.25,0.9337765056191636,2.7270482863969714
13,6,0.0,0.9248062344961339,3.624075398699944
13,7,1.0,0.9610469884831333,0.0
13,7,0.75,0.965593946155091,-0.45469576719576743
13,7,0.5,0.9590733745015112,0.1973613981622102
13,7,0.25,0.9328756217956816,2.817136668745168
13,7,0.0,0.8956704361740337,6.537655230909955
13,8,1.0,0.9610469884831333,0.0
13,8,0.75,0.9552923063408756,0.5754682142257717
13,8,0.5,0.9509894269951198,1.0057561488013511
13,8,0.25,0.9383432143639894,2.2703774119143927
13,8,0.0,0.9206348508809187,4.041213760221463
14,0,1.0,0.8353909856814391,0.0
14,0,0.75,0.8360826887305008,-0.06917030490617426
14,0,0.5,0.841283726302845,-0.5892740621405879
14,0,0.25,0.840064577151553,-0.4673591470113925
14,0,0.0,0.8117764781162198,2.3614507565219323
14,1,1.0,0.8353909856814391,0.0
14,1,0.75,0.8370527466627483,-0.16617609813092127
14,1,0.5,0.8330615310742383,0.23294546072007982
14,1,0.25,0.8274951831158925,0.7895802565546561
14,1,0.0,0.8066294530632767,2.876153261816239
14,2,1.0,0.8353909856814391,0.0
14,2,0.75,0.8426693035025477,-0.7278317821108549
14,2,0.5,0.8375453518141828,-0.2154366132743668
14,2,0.25,0.8314734060029199,0.3917579678519245
14,2,0.0,0.8012527323705178,3.413825331092135
14,3,1.0,0.8353909856814391,0.0
14,3,0.75,0.8296371963900077,0.5753789291431444
14,3,0.5,0.8088450475575025,2.6545938123936574
14,3,0.25,0.7876591451079114,4.7731840573527755
14,3,0.0,0.743190888223572,9.220009745786706
14,4,1.0,0.8353909856814391,0.0
14,4,0.75,0.8425915855148611,-0.7200599833422028
14,4,0.5,0.8311226234912106,0.4268362190228525
14,4,0.25,0.8263137740689301,0.9077211612508962
14,4,0.0,0.7974325869157486,3.7958398765690515
14,5,1.0,0.8353909856814391,0.0
14,5,0.75,0.8309583700748585,0.4432615606580592
14,5,0.5,0.8235413996860377,1.1849585995401424
14,5,0.25,0.8167745069923841,1.8616478689055027
14,5,0.0,0.791727869625632,4.366311605580709
14,6,1.0,0.8353909856814391,0.0
14,6,0.75,0.8350924739045096,0.029851177692952202
14,6,0.5,0.8365396826296896,-0.11486969482504827
14,6,0.25,0.8279993513417597,0.7391634339679376
14,6,0.0,0.8202473293533635,1.5143656328075572
14,7,1.0,0.8353909856814391,0.0
14,7,0.75,0.8337924587039631,0.1598526977475978
14,7,0.5,0.8246326600741176,1.0758325607321484
14,7,0.25,0.8343388537947969,0.10521318866422158
14,7,0.0,0.8083505454213068,2.7040440260132304
14,8,1.0,0.8353909856814391,0.0
14,8,0.75,0.8307315302837406,0.465945539769852
14,8,0.5,0.8194187284460128,1.597225723542628
14,8,0.25,0.7909263765976546,4.446460908378446
14,8,0.0,0.7555091186031019,7.988186707833722
15,0,1.0,0.8993034974979601,0.0
15,0,0.75,0.9023063498925579,-0.30028523945977437
15,0,0.5,0.8961937557457897,0.3109741752170381
15,0,0.25,0.89527256654757,0.4030930950390088
15,0,0.0,0.8472959143445418,5.200758315341836
15,1,1.0,0.8993034974979601,0.0
15,1,0.75,0.9199696377871395,-2.0666140289179347
15,1,0.5,0.9016068683310636,-0.2303370833103502
15,1,0.25,0.8935885661307549,0.5714931367205245
15,1,0.0,0.8348426132223901,6.446088427557006
15,2,1.0,0.8993034974979601,0.0
15,2,0.75,0.8910570725715954,0.8246424926364737
15,2,0.5,0.8691799767120421,3.0123520785918068
15,2,0.25,0.8549881214308312,4.4315376067128875
15,2,0.0,0.8265369349702807,7.2766562527679435
15,3,1.0,0.8993034974979601,0.0
15,3,0.75,0.8861652000315584,1.3138297466401716
15,3,0.5,0.864044786210638,3.5258711287322164
15,3,0.25,0.85802809724561,4.12754002523501
15,3,0.0,0.8429945482576167,5.630894924034346
15,4,1.0,0.8993034974979601,0.0
15,4,0.75,0.9051773215802529,-0.5873824082292756
15,4,0.5,0.9072982620769744,-0.7994764579014269
15,4,0.25,0.9204727942899625,-2.116929679200241
15,4,0.0,0.9018187040207186,-0.2515206522758495
15,5,1.0,0.8993034974979601,0.0
15,5,0.75,0.8983640952489524,0.09394022490076814
15,5,0.5,0.9040182937696494,-0.4714796271689248
15,5,0.25,0.8917446330759025,0.7558864422057665
15,5,0.0,0.8347925017193769,6.451099577858321
15,6,1.0,0.8993034974979601,0.0
15,6,0.75,0.8927054789717335,0.6598018526226657
15,6,0.5,0.8848892069439055,1.4414290554054632
15,6,0.25,0.8644029877182189,3.490050977974124
15,6,0.0,0.8555844860962365,4.371901140172363
15,7,1.0,0.8993034974979601,0.0
15,7,0.75,0.898183788211822,0.11197092861381375
15,7,0.5,0.8785657315739595,2.0737765924000673
15,7,0.25,0.8716372481531512,2.766624934480888
15,7,0.0,0.8594745735983599,3.9828923899600244
15,8,1.0,0.8993034974979601,0.0
15,8,0.75,0.9205769072343166,-2.1273409736356497
15,8,0.5,0.910699108401904,-1.139561090394392
15,8,0.25,0.9122362523835019,-1.2932754885541797
15,8,0.0,0.8886304360706245,1.0673061427335595
16,0,1.0,0.8802121144840571,0.0
16,0,0.75,0.8809678338478208,-0.07557193637637294
16,0,0.5,0.8846596450117982,-0.44475305277410504
16,0,0.25,0.8620966389514038,1.8115475532653358
16,0,0.0,0.8418268995970425,3.838521488701463
16,1,1.0,0.8802121144840571,0.0
16,1,0.75,0.8774288343605741,0.2783280123483056
16,1,0.5,0.8788701674572272,0.13419470268298817
16,1,0.25,0.8802501580817261,-0.0038043597669012996
16,1,0.0,0.8721135301025719,0.8098584381485252
16,2,1.0,0.8802121144840571,0.0
16,2,0.75,0.8771927833565945,0.30193311274626655
16,2,0.5,0.8780176228255886,0.21944916584685226
16,2,0.25,0.8677114610857555,1.2500653398301642
16,2,0.0,0.8466653202521225,3.354679423193463
16,3,1.0,0.8802121144840571,0.0
16,3,0.75,0.8855372232406842,-0.5325108756627062
16,3,0.5,0.8772178135893058,0.29943008947512784
16,3,0.25,0.8742993722056533,0.5912742278403771
16,3,0.0,0.8503005429906436,2.9911571493413502
16,4,1.0,0.8802121144840571,0.0
16,4,0.75,0.8708137917859888,0.9398322698068284
16,4,0.5,0.8625377369103406,1.7674377573716482
16,4,0.25,0.8433377192982456,3.687439518581148
16,4,0.0,0.8231185831725967,5.709353131146044
16,5,1.0,0.8802121144840571,0.0
16,5,0.75,0.8710895553774094,0.9122559106647721
16,5,0.5,0.8639841329091049,1.62279815749522
16,5,0.25,0.865163511264044,1.5048603220013113
16,5,0.0,0.8534247922734474,2.6787322210609754
16,6,1.0,0.8802121144840571,0.0
16,6,0.75,0.8756590997437019,0.4553014740355188
16,6,0.5,0.8774255240665422,0.2786590417514945
16,6,0.25,0.8797956409103431,0.04164735737139935
16,6,0.0,0.8738279550976521,0.638415938640502
16,7,1.0,0.8802121144840571,0.0
16,7,0.75,0.882280074228569,-0.20679597445119047
16,7,0.5,0.8800045120829791,0.020760240107797756
16,7,0.25,0.8440924496958979,3.61196647881592
16,7,0.0,0.769139743902609,11.107237058144815
16,8,1.0,0.8802121144840571,0.0
16,8,0.75,0.8716153459733583,0.8596768510698793
16,8,0.5,0.8741365515864947,0.6075562897562392
16,8,0.25,0.8766326344249089,0.357948005914821
16,8,0.0,0.8170081747520772,6.320393973197991
17,0,1.0,0.8446455993611728,0.0
17,0,0.75,0.8425551566912354,0.2090442669937409
17,0,0.5,0.838818445068445,0.5827154292727732
17,0,0.25,0.835078347841389,0.956725151978377
17,0,0.0,0.8038768521339829,4.076874722718992
17,1,1.0,0.8446455993611728,0.0
17,1,0.75,0.8495517974659077,-0.49061981047349157
17,1,0.5,0.856813676417459,-1.2168077056286197
17,1,0.25,0.8678079138937818,-2.3162314532608974
17,1,0.0,0.8704484914677659,-2.5802892106593145
17,2,1.0,0.8446455993611728,0.0
17,2,0.75,0.8513966393440366,-0.675103998286386
17,2,0.5,0.8551864771033657,-1.0540877742192922
17,2,0.25,0.8450209344371491,-0.0375335075976313
17,2,0.0,0.8506996285718988,-0.6054029210726064
17,3,1.0,0.8446455993611728,0.0
17,3,0.75,0.845816287158762,-0.11706877975892205
17,3,0.5,0.8391226878872228,0.552291147395001
17,3,0.25,0.8225413115118998,2.2104287849272986
17,3,0.0,0.8130326537948577,3.161294556631511
17,4,1.0,0.8446455993611728,0.0
17,4,0.75,0.8383534083736588,0.629219098751399
17,4,0.5,0.8314088108593535,1.3236788501819308
17,4,0.25,0.8242687496665984,2.037684969457443
17,4,0.0,0.7986925234617773,4.595307589939546
17,5,1.0,0.8446455993611728,0.0
17,5,0.75,0.8375205183489842,0.7125081012188561
17,5,0.5,0.843353450441751,0.1292148919421754
17,5,0.25,0.8507296935680781,-0.6084094206905366
17,5,0.0,0.8285763929088102,1.6069206452362539
17,6,1.0,0.8446455993611728,0.0
17,6,0.75,0.8386253554313725,0.6020243929800273
17,6,0.5,0.8397415757209571,0.49040236402156934
17,6,0.25,0.8462706986435484,-0.16250992823756416
17,6,0.0,0.8421828687127089,0.24627306484639178
17,7,1.0,0.8446455993611728,0.0
17,7,0.75,0.847671527200968,-0.30259278397951617
17,7,0.5,0.8364151689877013,0.8230430373471487
17,7,0.25,0.8293796213863649,1.5265977974807887
17,7,0.0,0.7935445363265602,5.11010630346126
17,8,1.0,0.8446455993611728,0.0
17,8,0.75,0.8414949633699634,0.31506359912093496
17,8,0.5,0.8426285304074816,0.20170689536911368
17,8,0.25,0.8287927525648016,1.5852846796371223
17,8,0.0,0.7823896680322358,6.225593132893703
18,0,1.0,0.8941184492957037,0.0
18,0,0.75,0.893031036395949,0.10874128997546695
18,0,0.5,0.8833771538133438,1.0741295482359914
18,0,0.25,0.8624518490630664,3.1666600232637343
18,0,0.0,0.8414490360696465,5.266941322605723
18,1,1.0,0.8941184492957037,0.0
18,1,0.75,0.8922934859510737,0.1824963344630004
18,1,0.5,0.8940158010657894,0.01026482299143483
18,1,0.25,0.8771047505825011,1.7013698713202574
18,1,0.0,0.8624821800809278,3.1636269214775914
18,2,1.0,0.8941184492957037,0.0
18,2,0.75,0.8933590455818158,0.07594037138879406
18,2,0.5,0.8974331597636905,-0.33147104679868145
18,2,0.25,0.8891582266515421,0.4960222644161627
18,2,0.0,0.8498423124864413,4.427613680926246
18,3,1.0,0.8941184492957037,0.0
18,3,0.75,0.8858604705194629,0.8257978776240793
18,3,0.5,0.883094911142205,1.1023538153498769
18,3,0.25,0.8379558437028486,5.616260559285513
18,3,0.0,0.7780453334107877,11.607311588491598
18,4,1.0,0.8941184492957037,0.0
18,4,0.75,0.9026108459200153,-0.849239662431156
18,4,0.5,0.8945678770587795,-0.04494277630757715
18,4,0.25,0.8857385011372602,0.8379948158443562
18,4,0.0,0.8444576469793778,4.966080231632597
18,5,1.0,0.8941184492957037,0.0
18,5,0.75,0.8970046103691593,-0.28861610734556287
18,5,0.5,0.9014110890528464,-0.7292639757142672
18,5,0.25,0.9032496684011836,-0.9131219105479871
18,5,0.0,0.8142973322164551,7.982111707924866
18,6,1.0,0.8941184492957037,0.0
18,6,0.75,0.9017832397245487,-0.7664790428844936
18,6,0.5,0.8955435956188706,-0.1425146323166926
18,6,0.25,0.8860054712874521,0.8112978008251615
18,6,0.0,0.8698531273915914,2.4265321904112347
18,7,1.0,0.8941184492957037,0.0
18,7,0.75,0.8858121207410565,0.8306328554647191
18,7,0.5,0.8725925284407154,2.152592085498828
18,7,0.25,0.8502358659912672,4.388258330443651
18,7,0.0,0.7979951793447477,9.6123269950956
18,8,1.0,0.8941184492957037,0.0
18,8,0.75,0.8926899000739907,0.14285492217129825
18,8,0.5,0.8957233791733744,-0.1604929877670691
18,8,0.25,0.865149050643728,2.8969398651975675
18,8,0.0,0.7911315025904029,10.298694670530084
19,0,1.0,0.8673619981278665,0.0
19,0,0.75,0.8562539102258826,1.110808790198392
19,0,0.5,0.8565159211118558,1.0846077016010702
19,0,0.25,0.8604498829774176,0.6912115150448872
19,0,0.0,0.8290578957776398,3.8304102350226743
19,1,1.0,0.8673619981278665,0.0
19,1,0.75,0.858480070980071,0.8881927147795565
19,1,0.5,0.862937473989372,0.4424524138494479
19,1,0.25,0.8582941924877906,0.9067805640075921
19,1,0.0,0.8342277427711753,3.3134255356691233
19,2,1.0,0.8673619981278665,0.0
19,2,0.75,0.8623919700753255,0.4970028052540987
19,2,0.5,0.8613240287770765,0.603796935079004
19,2,0.25,0.8487796933182665,1.8582304809599992
19,2,0.0,0.8351734903945475,3.218850773331905
19,3,1.0,0.8673619981278665,0.0
19,3,0.75,0.8558807404731562,1.1481257654710308
19,3,0.5,0.8516857695400228,1.5676228587843677
19,3,0.25,0.8368827251180192,3.047927300984732
19,3,0.0,0.7952806209801658,7.208137714770069
19,4,1.0,0.8673619981278665,0.0
19,4,0.75,0.8670103580984745,0.035164002939203076
19,4,0.5,0.8647650759870955,0.25969221407710075
19,4,0.25,0.8596077237553317,0.7754274372534842
19,4,0.0,0.8065163330270277,6.084566510083878
19,5,1.0,0.8673619981278665,0.0
19,5,0.75,0.8715480373607669,-0.4186039232900396
19,5,0.5,0.8721107393392972,-0.47487412114306515
19,5,0.25,0.8650990099009901,0.2262988226876428
19,5,0.0,0.8014122758583202,6.594972226954631
19,6,1.0,0.8673619981278665,0.0
19,6,0.75,0.8689743652141221,-0.16123670862555617
19,6,0.5,0.8643118023841848,0.3050195743681705
19,6,0.25,0.85470315525179,1.2658842876076548
19,6,0.0,0.8452741106264161,2.208788750145041
19,7,1.0,0.8673619981278665,0.0
19,7,0.75,0.867471435126353,-0.010943699848653399
19,7,0.5,0.8734706596022694,-0.6108661474402921
19,7,0.25,0.8467374516134321,2.062454651443446
19,7,0.0,0.7870383486162761,8.032364951159042
19,8,1.0,0.8673619981278665,0.0
19,8,0.75,0.862285905990867,0.5076092136999555
19,8,0.5,0.8503142287253151,1.7047769402551372
19,8,0.25,0.8486842260064116,1.8677772121454939
19,8,0.0,0.8132723506588558,5.408964746901068
20,0,1.0,0.7878161027343519,0.0
20,0,0.75,0.7920417193519163,-0.4225616617564376
20,0,0.5,0.7919838343143054,-0.41677315799535375
20,0,0.25,0.803119566904799,-1.5303464170447145
20,0,0.0,0.8097755780728645,-2.1959475338512613
20,1,1.0,0.7878161027343519,0.0
20,1,0.75,0.7784309057613745,0.938519697297735
20,1,0.5,0.7780355558222096,0.9780546912142252
20,1,0.25,0.7715506334866667,1.6265469247685127
20,1,0.0,0.7771480589333294,1.0668043801022487
20,2,1.0,0.7878161027343519,0.0
20,2,0.75,0.7959727287141272,-0.8156625979775289
20,2,0.5,0.7804697779427475,0.7346324791604353
20,2,0.25,0.777909282457955,0.9906820276396888
20,2,0.0,0.7485585106382979,3.925759209605395
20,3,1.0,0.7878161027343519,0.0
20,3,0.75,0.7803746376298439,0.7441465104507938
20,3,0.5,0.7757330979891366,1.2083004745215287
20,3,0.25,0.7862307901101452,0.15853126242066917
20,3,0.0,0.7951622525250566,-0.7346149790704692
20,4,1.0,0.7878161027343519,0.0
20,4,0.75,0.7909870595354467,-0.3170956801094804
20,4,0.5,0.797603442793342,-0.9787340058990179
20,4,0.25,0.804966912961474,-1.715081022712217
20,4,0.0,0.7753632298516245,1.245287288272734
20,5,1.0,0.7878161027343519,0.0
20,5,0.75,0.7875321975921357,0.0283905142216212
20,5,0.5,0.7835477648457542,0.42683378885977064
20,5,0.25,0.7839062176010199,0.3909885133332014
20,5,0.0,0.7426697351615587,4.514636757279322
20,6,1.0,0.7878161027343519,0.0
20,6,0.75,0.7877784981787187,0.0037604555633174996
20,6,0.5,0.7915878407885707,-0.37717380542188206
20,6,0.25,0.7902082584631291,-0.23921557287772677
20,6,0.0,0.7817598835799177,0.6056219154434217
20,7,1.0,0.7878161027343519,0.0
20,7,0.75,0.7859278224271747,0.1888280307177137
20,7,0.5,0.773816786687278,1.3999316047073829
20,7,0.25,0.760609204638558,2.7206898095793908
20,7,0.0,0.7246827110777112,6.3133391656640665
20,8,1.0,0.7878161027343519,0.0
20,8,0.75,0.7789464048194366,0.886969791491532
20,8,0.5,0.7621189874386869,2.5697115295664985
20,8,0.25,0.7616080962642979,2.6208006470053946
20,8,0.0,0.6849993758538573,10.28167268804946
21,0,1.0,0.8482121236417413,0.0
21,0,0.75,0.8434959017339345,0.4716221907806739
21,0,0.5,0.8306327013553868,1.7579422286354451
21,0,0.25,0.8257566549461367,2.2455468695604552
21,0,0.0,0.7995975524114194,4.861457123032187
21,1,1.0,0.8482121236417413,0.0
21,1,0.75,0.8528428501708152,-0.4630726529073925
21,1,0.5,0.8487221705560521,-0.0510046914310891
21,1,0.25,0.8473814648415304,0.08306588002108262
21,1,0.0,0.8540410922983105,-0.5828968656569233
21,2,1.0,0.8482121236417413,0.0
21,2,0.75,0.8519864882941472,-0.37743646524059926
21,2,0.5,0.838160400980094,1.0051722661647222
21,2,0.25,0.8263779509808827,2.183417266085852
21,2,0.0,0.7962732444770549,5.193887916468631
21,3,1.0,0.8482121236417413,0.0
21,3,0.75,0.8370509030049883,1.1161220636752955
21,3,0.5,0.8212297274512558,2.698239619048548
21,3,0.25,0.804934578647403,4.327754499433823
21,3,0.0,0.792549893711872,5.5662229929869245
21,4,1.0,0.8482121236417413,0.0
21,4,0.75,0.8507794237161896,-0.25673000744483865
21,4,0.5,0.8501578758133148,-0.1945752171573556
21,4,0.25,0.8511727316779816,-0.296060803624032
21,4,0.0,0.8271644715340322,2.104765210770909
21,5,1.0,0.8482121236417413,0.0
21,5,0.75,0.8548006897303755,-0.6588566088634229
21,5,0.5,0.8665569343516942,-1.8344810709952974
21,5,0.25,0.880749981396364,-3.25378577546227
21,5,0.0,0.8786872763541416,-3.047515271240031
21,6,1.0,0.8482121236417413,0.0
21,6,0.75,0.8512529277684919,-0.30408041267506736
21,6,0.5,0.8481867503917964,0.0025373249944893317
21,6,0.25,0.8434111753183688,0.48009483233724115
21,6,0.0,0.8478355737459264,0.0376549895814815
21,7,1.0,0.8482121236417413,0.0
21,7,0.75,0.8446321081295615,0.35800155121797905
21,7,0.5,0.8411861861628339,0.702593747890734
21,7,0.25,0.8283083299362736,1.9903793705467687
21,7,0.0,0.8023468305141415,4.586529312759979
21,8,1.0,0.8482121236417413,0.0
21,8,0.75,0.8437967911976376,0.4415332444103637
21,8,0.5,0.8292518691812223,1.8960254460518966
21,8,0.25,0.8314460582603882,1.6766065381353057
21,8,0.0,0.8149117953060608,3.330032833568042
22,0,1.0,0.8098364152425447,0.0
22,0,0.75,0.8068902373759995,0.2946177866545163
22,0,0.5,0.8017539650158921,0.8082450226652549
22,0,0.25,0.7821506021623128,2.768581308023188
22,0,0.0,0.7560175467668286,5.381886847571604
22,1,1.0,0.8098364152425447,0.0
22,1,0.75,0.8082139223993647,0.16224928431799457
22,1,0.5,0.8043683320322664,0.5468083210278252
22,1,0.25,0.8066776376803744,0.3158777562170312
22,1,0.0,0.7969427645859718,1.2893650656572886
22,2,1.0,0.8098364152425447,0.0
22,2,0.75,0.7973483901887541,1.2488025053790541
22,2,0.5,0.7917540950293915,1.8082320213153147
22,2,0.25,0.7824509669169863,2.7385448325558337
22,2,0.0,0.7565475528291192,5.328886241342545
22,3,1.0,0.8098364152425447,0.0
22,3,0.75,0.7957829745910358,1.405344065150893
22,3,0.5,0.7811039945328936,2.8732420709651096
22,3,0.25,0.7675331088546884,4.230330638785629
22,3,0.0,0.7545930141009031,5.524340114164161
22,4,1.0,0.8098364152425447,0.0
22,4,0.75,0.8129563106796116,-0.3119895437066922
22,4,0.5,0.8030146323909445,0.6821782851600178
22,4,0.25,0.7848577917886197,2.4978623453924986
22,4,0.0,0.737792549685297,7.204386555724773
22,5,1.0,0.8098364152425447,0.0
22,5,0.75,0.8095639443397937,0.02724709027509542
22,5,0.5,0.8072059123091602,0.26305029333845154
22,5,0.25,0.7967162410538641,1.3120174188680611
22,5,0.0,0.7490246887414398,6.081172650110489
22,6,1.0,0.8098364152425447,0.0
22,6,0.75,0.8122836645729978,-0.24472493304531495
22,6,0.5,0.8209527666653335,-1.1116351422788773
22,6,0.25,0.8062357419122861,0.3600673330258597
22,6,0.0,0.7911141284373132,1.872228680523147
22,7,1.0,0.8098364152425447,0.0
22,7,0.75,0.8044173989767226,0.5419016265822085
22,7,0.5,0.7829014999548485,2.6934915287696204
22,7,0.25,0.7382150936293675,7.162132161317714
22,7,0.0,0.6818970124868413,12.793940275570337
22,8,1.0,0.8098364152425447,0.0
22,8,0.75,0.7979095663171802,1.1926848925364442
22,8,0.5,0.7762907234510759,3.3545691791468824
22,8,0.25,0.7513454921950791,5.849092304746561
22,8,0.0,0.7325241897179935,7.731222552455119
23,0,1.0,0.8317504064562888,0.0
23,0,0.75,0.8264472692226873,0.530313723360154
23,0,0.5,0.8130640295699116,1.8686376886377198
23,0,0.25,0.7915980301231307,4.015237633315816
23,0,0.0,0.776292016784589,5.54583896716998
23,1,1.0,0.8317504064562888,0.0
23,1,0.75,0.8262936356085642,0.5456770847724668
23,1,0.5,0.8272564199032393,0.4493986553049556
23,1,0.25,0.8152216611814249,1.652874527486392
23,1,0.0,0.8123949711618315,1.935543529445738
23,2,1.0,0.8317504064562888,0.0
23,2,0.75,0.8403330257389057,-0.8582619282616832
23,2,0.5,0.8382691576528747,-0.6518751196585848
23,2,0.25,0.8429632931187537,-1.1212886662464894
23,2,0.0,0.8448080444295387,-1.305763797324988
23,3,1.0,0.8317504064562888,0.0
23,3,0.75,0.8439945743669134,-1.2244167910624548
23,3,0.5,0.8481825332955016,-1.6432126839212802
23,3,0.25,0.8403734937417235,-0.8623087285434705
23,3,0.0,0.8266948396440543,0.5055566812234513
23,4,1.0,0.8317504064562888,0.0
23,4,0.75,0.8391447293759908,-0.739432291970199
23,4,0.5,0.8349900952365404,-0.3239688780251604
23,4,0.25,0.8205770885398314,1.1173317916457481
23,4,0.0,0.7982902034415238,3.3460203014765044
23,5,1.0,0.8317504064562888,0.0
23,5,0.75,0.834080423571351,-0.23300171150621996
23,5,0.5,0.8319536451754896,-0.02032387192008045
23,5,0.25,0.8245599124759241,0.7190493980364754
23,5,0.0,0.8005444699198333,3.1205936536455536
23,6,1.0,0.8317504064562888,0.0
23,6,0.75,0.839451897859703,-0.770149140341414
23,6,0.5,0.8398802168974465,-0.8129810441157681
23,6,0.25,0.8235589582347731,0.819144822151574
23,6,0.0,0.8073244311684148,2.4425975287874047
23,7,1.0,0.8317504064562888,0.0
23,7,0.75,0.8267793189294923,0.4971087526796536
23,7,0.5,0.8234347461438416,0.8315660312447237
23,7,0.25,0.7999063163592455,3.1844090097043365
23,7,0.0,0.7499432546080076,8.180715184828124
23,8,1.0,0.8317504064562888,0.0
23,8,0.75,0.828098095273283,0.36523111830057964
23,8,0.5,0.820696535451372,1.1053871004916838
23,8,0.25,0.7936997327517815,3.805067370450732
23,8,0.0,0.7291861394164021,10.256426703988675
24,0,1.0,0.8220923247941836,0.0
24,0,0.75,0.8121777770937435,0.9914547700440091
24,0,0.5,0.8041619228336496,1.793040196053397
24,0,0.25,0.800424884647748,2.1667440146435624
24,0,0.0,0.7831494269725392,3.8942897821644396
24,1,1.0,0.8220923247941836,0.0
24,1,0.75,0.8198604770973681,0.22318476968155032
24,1,0.5,0.8378927575475819,-1.5800432753398264
24,1,0.25,0.8304920538148258,-0.8399729020642233
24,1,0.0,0.8263303952801674,-0.42380704859837914
24,2,1.0,0.8220923247941836,0.0
24,2,0.75,0.8231557927238555,-0.10634679296719352
24,2,0.5,0.810477494349056,1.1614830445127566
24,2,0.25,0.8110521923723486,1.1040132421834992
24,2,0.0,0.8079605938000669,1.4131730994116687
24,3,1.0,0.8220923247941836,0.0
24,3,0.75,0.8325635889759568,-1.0471264181773243
24,3,0.5,0.8507958217884675,-2.8703496994283872
24,3,0.25,0.8477866349757889,-2.5694310181605284
24,3,0.0,0.8362930436918536,-1.420071889767005
24,4,1.0,0.8220923247941836,0.0
24,4,0.75,0.8153879867510274,0.6704338043156177
24,4,0.5,0.8106589149417581,1.143340985242547
24,4,0.25,0.782249966290909,3.9842358503274555
24,4,0.0,0.7732888992047925,4.880342558939111
24,5,1.0,0.8220923247941836,0.0
24,5,0.75,0.8097149281949432,1.237739659924042
24,5,0.5,0.8051319000193722,1.6960424774811411
24,5,0.25,0.7719311532332004,5.016117156098321
24,5,0.0,0.7610966604609072,6.099566433327642
24,6,1.0,0.8220923247941836,0.0
24,6,0.75,0.8127064035440998,0.9385921250083751
24,6,0.5,0.8098286697964978,1.226365499768578
24,6,0.25,0.8127361971348368,0.9356127659346791
24,6,0.0,0.8000494842910921,2.2042840503091465
24,7,1.0,0.8220923247941836,0.0
24,7,0.75,0.8216333486912843,0.04589761028992445
24,7,0.5,0.827489391121542,-0.5397066327358369
24,7,0.25,0.7992169089513202,2.2875415842863345
24,7,0.0,0.6880092714940098,13.408305330017377
24,8,1.0,0.8220923247941836,0.0
24,8,0.75,0.8209322881533636,0.11600366408199836
24,8,0.5,0.82621925284117,-0.41269280469864444
24,8,0.25,0.8147031762710375,0.7389148523146094
24,8,0.0,0.7841000651960008,3.7992259598182754
25,0,1.0,0.9139222234637733,0.0
25,0,0.75,0.9111004001668628,0.2821823296910497
25,0,0.5,0.910300229972361,0.3621993491412234
25,0,0.25,0.9094982665024824,0.44239569612908314
25,0,0.0,0.8724905883710731,4.14316350927002
25,1,1.0,0.9139222234637733,0.0
25,1,0.75,0.913445787458079,0.04764360056942474
25,1,0.5,0.9103169366600155,0.36052868037578234
25,1,0.25,0.8962641331931732,1.7658090270600058
25,1,0.0,0.879674478771519,3.4247744692254223
25,2,1.0,0.9139222234637733,0.0
25,2,0.75,0.9121169807495277,0.18052427142455363
25,2,0.5,0.9024892907388662,1.1432932724907086
25,2,0.25,0.8963884724486058,1.753375101516752
25,2,0.0,0.8772223068231757,3.6699916640597574
25,3,1.0,0.9139222234637733,0.0
25,3,0.75,0.9176006867479884,-0.3678463284215172
25,3,0.5,0.9170360751154022,-0.31138516516289183
25,3,0.25,0.9180769787550737,-0.41547552913003827
25,3,0.0,0.8787711615336185,3.5151061930154825
25,4,1.0,0.9139222234637733,0.0
25,4,0.75,0.9109882007015537,0.2934022762219546
25,4,0.5,0.8996670276637786,1.425519579999468
25,4,0.25,0.8739383092533288,3.998391421044445
25,4,0.0,0.8543076172054532,5.961460625832005
25,5,1.0,0.9139222234637733,0.0
25,5,0.75,0.9171225926750318,-0.3200369211258547
25,5,0.5,0.9151012930878265,-0.11790696240532306
25,5,0.25,0.9031655981420794,1.0756625321693858
25,5,0.0,0.8385256730751616,7.53965503886117
25,6,1.0,0.9139222234637733,0.0
25,6,0.75,0.909636664551172,0.4285558912601295
25,6,0.5,0.9051508865244873,0.8771336939286001
25,6,0.25,0.8973398722152099,1.6582351248563332
25,6,0.0,0.8866577973077232,2.726442615605007
25,7,1.0,0.9139222234637733,0.0
25,7,0.75,0.9111100859036477,0.28121375601255494
25,7,0.5,0.9064781239965505,0.7444099467222798
25,7,0.25,0.8950674857821943,1.885473768157897
25,7,0.0,0.8440356108456303,6.9886612618143
25,8,1.0,0.9139222234637733,0.0
25,8,0.75,0.9150629758833473,-0.11407524195740093
25,8,0.5,0.9087244831472332,0.5197740316540078
25,8,0.25,0.8934354802759734,2.048674318779986
25,8,0.0,0.8662682411479419,4.76539823158314
26,0,1.0,0.8143758129810619,0.0
26,0,0.75,0.8007395983014846,1.3636214679577319
26,0,0.5,0.8021899207778705,1.2185892203191329
26,0,0.25,0.7880950584434083,2.628075453765355
26,0,0.0,0.7624537696708067,5.192204331025518
26,1,1.0,0.8143758129810619,0.0
26,1,0.75,0.8100193693918487,0.4356443589213166
26,1,0.5,0.8111324281799225,0.3243384801139393
26,1,0.25,0.8096032955665325,0.47725174145293314
26,1,0.0,0.8094974819473711,0.48783310336907304
26,2,1.0,0.8143758129810619,0.0
26,2,0.75,0.8081154674380788,0.6260345542983048
26,2,0.5,0.8012264542090359,1.3149358772025943
26,2,0.25,0.8014558939374821,1.2919919043579808
26,2,0.0,0.7713056136231675,4.307019935789436
26,3,1.0,0.8143758129810619,0.0
26,3,0.75,0.8175471176848147,-0.31713047037528197
26,3,0.5,0.8052898042419918,0.9086008739070062
26,3,0.25,0.7842771566338995,3.0098656347162356
26,3,0.0,0.7363800812844115,7.799573169665042
26,4,1.0,0.8143758129810619,0.0
26,4,0.75,0.8099505055741034,0.44253074069584564
26,4,0.5,0.7982726100128521,1.6103202968209773
26,4,0.25,0.7803304614079313,3.40453515731306
26,4,0.0,0.7415829584379963,7.279285454306561
26,5,1.0,0.8143758129810619,0.0
26,5,0.75,0.8159559690621496,-0.15801560810877469
26,5,0.5,0.8178358537688624,-0.3460040787800489
26,5,0.25,0.8183705170774109,-0.39947040963490554
26,5,0.0,0.7971836964797778,1.719211650128405
26,6,1.0,0.8143758129810619,0.0
26,6,0.75,0.8135556381926621,0.08201747883997967
26,6,0.5,0.809288490586372,0.5087322394689897
26,6,0.25,0.8006746618924928,1.3701151088569063
26,6,0.0,0.7787014463973558,3.567436658370604
26,7,1.0,0.8143758129810619,0.0
26,7,0.75,0.8192871686212418,-0.4911355640179971
26,7,0.5,0.8105428653519022,0.3832947629159644
26,7,0.25,0.8107359429208846,0.3639870060177297
26,7,0.0,0.7584923897022725,5.588342327878937
26,8,1.0,0.8143758129810619,0.0
26,8,0.75,0.7983304333712522,1.6045379609809673
26,8,0.5,0.7944133656586541,1.9962447322407817
26,8,0.25,0.7823938758734681,3.1981937107593783
26,8,0.0,0.7334020436356856,8.097376934537625
27,0,1.0,0.8899871434653319,0.0
27,0,0.75,0.8929727758996036,-0.29856324342716345
27,0,0.5,0.9124104550735004,-2.242331160816846
27,0,0.25,0.9157349857389014,-2.574784227356952
27,0,0.0,0.907298616476679,-1.7311473011347056
27,1,1.0,0.8899871434653319,0.0
27,1,0.75,0.8845792142310852,0.5407929234246711
27,1,0.5,0.8877600654931319,0.2227077972200009
27,1,0.25,0.8930447038445372,-0.30575603792052375
27,1,0.0,0.8967541274723049,-0.6766984006972954
27,2,1.0,0.8899871434653319,0.0
27,2,0.75,0.8943397849798784,-0.4352641514546507
27,2,0.5,0.8866470716550472,0.3340071810284728
27,2,0.25,0.8704034938152817,1.9583649650050217
27,2,0.0,0.8521055978421046,3.788154562322732
27,3,1.0,0.8899871434653319,0.0
27,3,0.75,0.8935780470872475,-0.3590903621915609
27,3,0.5,0.8964952263416022,-0.6508082876270249
27,3,0.25,0.8925498139541272,-0.25626704887953267
27,3,0.0,0.8674087516273958,2.2578391837936085
27,4,1.0,0.8899871434653319,0.0
27,4,0.75,0.8969343773278756,-0.69472338625437
27,4,0.5,0.8939044420761176,-0.39172986107857133
27,4,0.25,0.8827646520997007,0.7222491365631245
27,4,0.0,0.8429345691148767,4.705257435045517
27,5,1.0,0.8899871434653319,0.0
27,5,0.75,0.8890451754401804,0.09419680251515627
27,5,0.5,0.8893092570709404,0.06778863943914804
27,5,0.25,0.8779959708799155,1.1991172585416376
27,5,0.0,0.8586641818171551,3.132296164817683
27,6,1.0,0.8899871434653319,0.0
27,6,0.75,0.8888040515565225,0.11830919088093861
27,6,0.5,0.8867200498521403,0.3267093613191663
27,6,0.25,0.8892043466931967,0.07827967721352191
27,6,0.0,0.8931856974080522,-0.31985539427202836
27,7,1.0,0.8899871434653319,0.0
27,7,0.75,0.8970313941962864,-0.7044250730954493
27,7,0.5,0.9075977801268499,-1.7610636661517964
27,7,0.25,0.9001376564098083,-1.015051294447633
27,7,0.0,0.8522735069524556,3.771363651287629
27,8,1.0,0.8899871434653319,0.0
27,8,0.75,0.8920256362925902,-0.20384928272583203
27,8,0.5,0.8956559835236306,-0.5668840058298708
27,8,0.25,0.8897997272389744,0.018741622635753963
27,8,0.0,0.8827189756773398,0.7268167787992108
28,0,1.0,0.8443449749484232,0.0
28,0,0.75,0.8545758727414613,-1.0230897793038096
28,0,0.5,0.8512144421124083,-0.6869467163985066
28,0,0.25,0.854778009255777,-1.0433034307353761
28,0,0.0,0.8325096705695578,1.1835304378865374
28,1,1.0,0.8443449749484232,0.0
28,1,0.75,0.855701921178115,-1.1356946229691856
28,1,0.5,0.8511421116292638,-0.6797136680840588
28,1,0.25,0.8470415154241253,-0.2696540475702114
28,1,0.0,0.8343730386217951,0.9971936326628073
28,2,1.0,0.8443449749484232,0.0
28,2,0.75,0.8532571685510234,-0.8912193602600205
28,2,0.5,0.8546673036368547,-1.0322328688431526
28,2,0.25,0.8446225437939728,-0.027756884554963612
28,2,0.0,0.8035293629111232,4.08156120373
28,3,1.0,0.8443449749484232,0.0
28,3,0.75,0.8385627138515457,0.5782261096877517
28,3,0.5,0.8324943577748308,1.185061717359237
28,3,0.25,0.815869886270375,2.8475088678048155
28,3,0.0,0.7713046426992126,7.304033224921058
28,4,1.0,0.8443449749484232,0.0
28,4,0.75,0.8433848196838653,0.09601552645579492
28,4,0.5,0.8277860319987299,1.655894294969329
28,4,0.25,0.8129565766484571,3.138839829996609
28,4,0.0,0.7898620035208082,5.448297142761504
28,5,1.0,0.8443449749484232,0.0
28,5,0.75,0.8471415764105632,-0.27966014621400026
28,5,0.5,0.8380019641982734,0.6343010750149758
28,5,0.25,0.7985205646905279,4.58244102578953
28,5,0.0,0.7414927225435234,10.285225240489982
28,6,1.0,0.8443449749484232,0.0
28,6,0.75,0.8596014576199247,-1.5256482671501481
28,6,0.5,0.8622146892293736,-1.786971428095041
28,6,0.25,0.8601690718952258,-1.5824096946802646
28,6,0.0,0.855275699231573,-1.0930724283149784
28,7,1.0,0.8443449749484232,0.0
28,7,0.75,0.8398580938933291,0.4486881055094094
28,7,0.5,0.8432182914404075,0.11266835080157023
28,7,0.25,0.8195279401922273,2.48170347561959
28,7,0.0,0.7836993262489461,6.064564869947708
28,8,1.0,0.8443449749484232,0.0
28,8,0.75,0.849014460021756,-0.46694850733327575
28,8,0.5,0.8613481054104244,-1.7003130462001192
28,8,0.25,0.8652914532996638,-2.094647835124064
28,8,0.0,0.821521809984985,2.282316496343817
29,0,1.0,0.8371587602839291,0.0
29,0,0.75,0.8304632420017608,0.66955182821683
29,0,0.5,0.8364692550782089,0.06895052057201978
29,0,0.25,0.8216471899818165,1.5511570302112587
29,0,0.0,0.7801788607301974,5.697989955373172
29,1,1.0,0.8371587602839291,0.0
29,1,0.75,0.8403721508813554,-0.32133905974263133
29,1,0.5,0.8357051233380731,0.1453636945855985
29,1,0.25,0.826276477705157,1.0882282578772107
29,1,0.0,0.8307325249171139,0.6426235366815192
29,2,1.0,0.8371587602839291,0.0
29,2,0.75,0.8322327097794575,0.4926050504471591
29,2,0.5,0.8222960224757393,1.4862737808189808
29,2,0.25,0.807820002284868,2.933875799906105
29,2,0.0,0.7999555638142779,3.72031964696512
29,3,1.0,0.8371587602839291,0.0
29,3,0.75,0.8315635523905347,0.5595207893394405
29,3,0.5,0.8172353876643386,1.992337261959054
29,3,0.25,0.8066713539251027,3.0487406358826408
29,3,0.0,0.7998381126217844,3.7320647662144713
29,4,1.0,0.8371587602839291,0.0
29,4,0.75,0.8273103952553797,0.9848365028549355
29,4,0.5,0.8253477587469225,1.181100153700665
29,4,0.25,0.802042452016885,3.511630826704415
29,4,0.0,0.7658817538143776,7.127700646955148
29,5,1.0,0.8371587602839291,0.0
29,5,0.75,0.834480868214555,0.2677892069374077
29,5,0.5,0.823728603288997,1.3430156994932108
29,5,0.25,0.7952752648200075,4.188349546392156
29,5,0.0,0.7631008093768226,7.4057950907106544
29,6,1.0,0.8371587602839291,0.0
29,6,0.75,0.8420693725661663,-0.49106122822372145
29,6,0.5,0.8408239057372776,-0.3665145453348506
29,6,0.25,0.8476839825782172,-1.0525222294288095
29,6,0.0,0.8463199303461764,-0.9161170062247259
29,7,1.0,0.8371587602839291,0.0
29,7,0.75,0.8364464427472558,0.07123175366733348
29,7,0.5,0.8519866767969075,-1.4827916512978434
29,7,0.25,0.8475735960405771,-1.0414835756648033
29,7,0.0,0.8160485534433548,2.1110206840574297
29,8,1.0,0.8371587602839291,0.0
29,8,0.75,0.8385625310720735,-0.1403770788144354
29,8,0.5,0.8353031677749208,0.18555925090083525
29,8,0.25,0.819744929102119,1.7413831181810058
29,8,0.0,0.7583867529052497,7.877200737867939
30,0,1.0,0.8480074938499897,0.0
30,0,0.75,0.8598938434141196,-1.1886349564129817
30,0,0.5,0.8634500967565815,-1.5442602906591718
30,0,0.25,0.8850545383379943,-3.7047044488004555
30,0,0.0,0.8807136843026085,-3.27061904526188
30,1,1.0,0.8480074938499897,0.0
30,1,0.75,0.8470208252449776,0.09866686050121753
30,1,0.5,0.8510224916489804,-0.3014997798990615
30,1,0.25,0.8524229549978903,-0.441546114790059
30,1,0.0,0.866392782448183,-1.8385288598193217
30,2,1.0,0.8480074938499897,0.0
30,2,0.75,0.841304442804015,0.6703051045974795
30,2,0.5,0.8392842136496041,0.8723280200385597
30,2,0.25,0.8460752252704462,0.1932268579543539
30,2,0.0,0.839825453364935,0.8182040485054776
30,3,1.0,0.8480074938499897,0.0
30,3,0.75,0.852512529846869,-0.45050359968792364
30,3,0.5,0.8502175290154963,-0.2210035165506552
30,3,0.25,0.832476561717668,1.5530932132321706
30,3,0.0,0.8345022148277141,1.3505279022275607
30,4,1.0,0.8480074938499897,0.0
30,4,0.75,0.8456121280220199,0.2395365827969842
30,4,0.5,0.8399528752957958,0.8054618554193982
30,4,0.25,0.8296681536342361,1.8339340215753674
30,4,0.0,0.8170559903672486,3.0951503482741116
30,5,1.0,0.8480074938499897,0.0
30,5,0.75,0.8493729926770044,-0.1365498827014644
30,5,0.5,0.8562002301951781,-0.8192736345188356
30,5,0.25,0.8489590831917107,-0.09515893417209043
30,5,0.0,0.8179738490240267,3.0033644825963046
30,6,1.0,0.8480074938499897,0.0
30,6,0.75,0.8515718734285824,-0.356437957859268
30,6,0.5,0.8596285818666154,-1.1621088016625647
30,6,0.25,0.8611653052681332,-1.3157811418143428
30,6,0.0,0.856503289519635,-0.8495795669645201
30,7,1.0,0.8480074938499897,0.0
30,7,0.75,0.8520633974061401,-0.40559035561503753
30,7,0.5,0.8624803843693228,-1.4472890519333093
30,7,0.25,0.8401712283694202,0.7836265480569593
30,7,0.0,0.7855483474093194,6.24591464406703
30,8,1.0,0.8480074938499897,0.0
30,8,0.75,0.8477238147594831,0.028367909050663886
30,8,0.5,0.8635119797793819,-1.550448592939213
30,8,0.25,0.8677747350505632,-1.9767241200573493
30,8,0.0,0.8334830465587044,1.4524447291285325
31,0,1.0,0.7905461301942631,0.0
31,0,0.75,0.7853993875417957,0.5146742652467395
31,0,0.5,0.7927871020110306,-0.2240971816767523
31,0,0.25,0.7812513751638239,0.9294755030439195
31,0,0.0,0.7588695057383038,3.1676624455959312
31,1,1.0,0.7905461301942631,0.0
31,1,0.75,0.7817108912233498,0.8835238970913317
31,1,0.5,0.7833144216298539,0.7231708564409245
31,1,0.25,0.7825452080514386,0.8000922142824551
31,1,0.0,0.7721092148358201,1.8436915358443051
31,2,1.0,0.7905461301942631,0.0
31,2,0.75,0.7779363320614642,1.2609798132798944
31,2,0.5,0.767029123965028,2.351700622923514
31,2,0.25,0.758068394672605,3.2477735521658113
31,2,0.0,0.7408783980551595,4.966773213910358
31,3,1.0,0.7905461301942631,0.0
31,3,0.75,0.7849485726057044,0.5597557588558733
31,3,0.5,0.7843532714091944,0.61928587850687
31,3,0.25,0.776565713744452,1.3980416449811073
31,3,0.0,0.7647688022539314,2.577732794033172
31,4,1.0,0.7905461301942631,0.0
31,4,0.75,0.7952539880316533,-0.4707857837390139
31,4,0.5,0.79401817986015,-0.3472049665886878
31,4,0.25,0.7839358477090714,0.6610282485191687
31,4,0.0,0.7833688009493518,0.7177329244911324
31,5,1.0,0.7905461301942631,0.0
31,5,0.75,0.8043787414021311,-1.383261120786794
31,5,0.5,0.8037063497869597,-1.3160219592696532
31,5,0.25,0.8075168182097694,-1.6970688015506274
31,5,0.0,0.802924577192067,-1.2378446997803882
31,6,1.0,0.7905461301942631,0.0
31,6,0.75,0.7856817338716588,0.48643963226042697
31,6,0.5,0.7869738647278561,0.35722654664069875
31,6,0.25,0.7625148812176519,2.8031248976611245
31,6,0.0,0.7644230396018726,2.6123090592390485
31,7,1.0,0.7905461301942631,0.0
31,7,0.75,0.7732493380104138,1.7296792183849274
31,7,0.5,0.7616946388896387,2.885149130462439
31,7,0.25,0.7377652725571974,5.278085763706574
31,7,0.0,0.6865325767257006,10.401355346856256
31,8,1.0,0.7905461301942631,0.0
31,8,0.75,0.7811733302069165,0.9372799987346636
31,8,0.5,0.7703274516930041,2.0218678501259024
31,8,0.25,0.7570242097055604,3.352192048870273
31,8,0.0,0.7138371314129403,7.670899878132287
32,0,1.0,0.8700788144324669,0.0
32,0,0.75,0.874681313067516,-0.4602498635049024
32,0,0.5,0.8709824581303454,-0.09036436978784312
32,0,0.25,0.8657716472700551,0.43071671624118624
32,0,0.0,0.805522622111966,6.455619232050092
32,1,1.0,0.8700788144324669,0.0
32,1,0.75,0.8660514761114075,0.40273383210593927
32,1,0.5,0.8650581420204352,0.5020672412031746
32,1,0.25,0.8643602484170892,0.571856601537768
32,1,0.0,0.8575572275319774,1.2521586900489545
32,2,1.0,0.8700788144324669,0.0
32,2,0.75,0.8609865905286561,0.9092223903810814
32,2,0.5,0.8587727687451931,1.130604568727378
32,2,0.25,0.8445804195804196,2.54983948520473
32,2,0.0,0.8175310364894282,5.254777794303878
32,3,1.0,0.8700788144324669,0.0
32,3,0.75,0.8595674793043213,1.0511335128145616
32,3,0.5,0.8537846683686878,1.6294146063779102
32,3,0.25,0.838623505445624,3.14553089868429
32,3,0.0,0.8161467197079577,5.393209472450922
32,4,1.0,0.8700788144324669,0.0
32,4,0.75,0.8659094128826265,0.4169401549840468
32,4,0.5,0.8591715907534492,1.0907223679017752
32,4,0.25,0.8512822502502024,1.8796564182264497
32,4,0.0,0.8118216413124989,5.825717311996803
32,5,1.0,0.8700788144324669,0.0
32,5,0.75,0.8619955054458479,0.808330898661902
32,5,0.5,0.8725585242690417,-0.24797098365747505
32,5,0.25,0.8681531835257891,0.19256309066778554
32,5,0.0,0.8199796711614404,5.009914327102649
32,6,1.0,0.8700788144324669,0.0
32,6,0.75,0.869926854754441,0.0151959678025948
32,6,0.5,0.878016504026798,-0.7937689594331054
32,6,0.25,0.8682038460117403,0.18749684207266526
32,6,0.0,0.8554974452114075,1.458136922105946
32,7,1.0,0.8700788144324669,0.0
32,7,0.75,0.8754956116827333,-0.5416797250266336
32,7,0.5,0.8753196658528413,-0.5240851420374337
32,7,0.25,0.8626937203472232,0.7385094085243682
32,7,0.0,0.8122860472745255,5.779276715794146
32,8,1.0,0.8700788144324669,0.0
32,8,0.75,0.8742344579615229,-0.41556435290559524
32,8,0.5,0.875416963029402,-0.5338148596935044
32,8,0.25,0.8577544375165544,1.2324376915912483
32,8,0.0,0.793956094204856,7.612272022761091
33,0,1.0,0.8828875879723463,0.0
33,0,0.75,0.8906709122395396,-0.7783324267193303
33,0,0.5,0.8857664825189335,-0.2878894546587185
33,0,0.25,0.8734321714136241,0.9455416558722285
33,0,0.0,0.8388870727543496,4.400051521799675
33,1,1.0,0.8828875879723463,0.0
33,1,0.75,0.8836656150339284,-0.07780270615820317
33,1,0.5,0.8908013977533146,-0.7913809780968228
33,1,0.25,0.8938084190545282,-1.0920831082181892
33,1,0.0,0.8940361461603888,-1.11485581880425
33,2,1.0,0.8828875879723463,0.0
33,2,0.75,0.8748356926839513,0.8051895288395006
33,2,0.5,0.8708233613958513,1.2064226576495085
33,2,0.25,0.855019271797568,2.7868316174778363
33,2,0.0,0.8317178490246508,5.11697389476955
33,3,1.0,0.8828875879723463,0.0
33,3,0.75,0.8735239941708969,0.9363593801449466
33,3,0.5,0.8801995775006751,0.26880104716712205
33,3,0.25,0.8900501502689137,-0.716256229656731
33,3,0.0,0.8693005332245517,1.3587054747794647
33,4,1.0,0.8828875879723463,0.0
33,4,0.75,0.8813209170485349,0.1566670923811464
33,4,0.5,0.8874658150687612,-0.45782270964148664
33,4,0.25,0.8874658150687612,-0.45782270964148664
33,4,0.0,0.8878253620113022,-0.49377740389559
33,5,1.0,0.8828875879723463,0.0
33,5,0.75,0.8815959963947466,0.12915915775997266
33,5,0.5,0.8720634694903878,1.0824118481958522
33,5,0.25,0.8771760921548555,0.5711495817490864
33,5,0.0,0.8883798811804954,-0.5492293208149035
33,6,1.0,0.8828875879723463,0.0
33,6,0.75,0.8665223695063755,1.6365218465970832
33,6,0.5,0.8541713289890659,2.871625898328045
33,6,0.25,0.8381586375490317,4.4728950423314595
33,6,0.0,0.8123624734775501,7.052511449479626
33,7,1.0,0.8828875879723463,0.0
33,7,0.75,0.878166907378458,0.47206805938883045
33,7,0.5,0.8744518838845767,0.8435704087769613
33,7,0.25,0.8705812038202588,1.2306384152087513
33,7,0.0,0.8447433108763158,3.814427709603052
33,8,1.0,0.8828875879723463,0.0
33,8,0.75,0.8767250549816485,0.61625329906978
33,8,0.5,0.87229420812409,1.0593379848256368
33,8,0.25,0.8670499988735588,1.583758909878752
33,8,0.0,0.8268898077312601,5.599778024108626
34,0,1.0,0.9102524774103028,0.0
34,0,0.75,0.9152120552406484,-0.49595778303456184
34,0,0.5,0.9139580354890252,-0.3705558078722415
34,0,0.25,0.8958143852763102,1.4438092133992608
34,0,0.0,0.8396806404440257,7.057183696627711
34,1,1.0,0.9102524774103028,0.0
34,1,0.75,0.9149127514377454,-0.46602740274426235
34,1,0.5,0.9162591910590135,-0.6006713648710749
34,1,0.25,0.9063921251993369,0.3860352210965923
34,1,0.0,0.8914677630269385,1.8784714383364265
34,2,1.0,0.9102524774103028,0.0
34,2,0.75,0.9107320120662361,-0.047953465593331135
34,2,0.5,0.9176392147807859,-0.7386737370483121
34,2,0.25,0.9054173256174406,0.48351517928622023
34,2,0.0,0.898677147126963,1.157533028333979
34,3,1.0,0.9102524774103028,0.0
34,3,0.75,0.9183100591971121,-0.8057581786809265
34,3,0.5,0.9133894716799388,-0.3136994269635984
34,3,0.25,0.9019248046776457,0.832767273265711
34,3,0.0,0.8514861155105058,5.876636189979701
34,4,1.0,0.9102524774103028,0.0
34,4,0.75,0.9133635910136044,-0.31111136033016296
34,4,0.5,0.9095593497555314,0.06931276547713638
34,4,0.25,0.9006388601503391,0.961361725996368
34,4,0.0,0.8980636722639386,1.2188805146364223
34,5,1.0,0.9102524774103028,0.0
34,5,0.75,0.9194789981747585,-0.9226520764455737
34,5,0.5,0.9191670381076611,-0.8914560697358298
34,5,0.25,0.9131158317170108,-0.28633543067080325
34,5,0.0,0.879145192445049,3.1107284965253834
34,6,1.0,0.9102524774103028,0.0
34,6,0.75,0.9119322112309317,-0.16797338206289147
34,6,0.5,0.9089429031140797,0.13095742962231371
34,6,0.25,0.898100137745979,1.215233966432383
34,6,0.0,0.8947849140999669,1.5467563310335941
34,7,1.0,0.9102524774103028,0.0
34,7,0.75,0.9113570919914828,-0.11046145811800523
34,7,0.5,0.9127025301300982,-0.24500527197953703
34,7,0.25,0.897168330009841,1.308414740046182
34,7,0.0,0.8524872788030683,5.77651986072345
34,8,1.0,0.9102524774103028,0.0
34,8,0.75,0.9034611446465997,0.679133276370314
34,8,0.5,0.8959006508188827,1.4351826591420092
34,8,0.25,0.8705402562450248,3.971222116527795
34,8,0.0,0.7879096795208711,12.23427978894317
35,0,1.0,0.7559127715033804,0.0
35,0,0.75,0.7576903119585692,-0.1777540455188742
35,0,0.5,0.7591684311090338,-0.3255659605653327
35,0,0.25,0.7480665515449544,0.7846219958426048
35,0,0.0,0.72233186252825,3.358090897513044
35,1,1.0,0.7559127715033804,0.0
35,1,0.75,0.7540955588485787,0.18172126548017253
35,1,0.5,0.75648203526493,-0.05692637615495322
35,1,0.25,0.7529021653175265,0.30106061858539146
35,1,0.0,0.737150526716885,1.8762244786495463
35,2,1.0,0.7559127715033804,0.0
35,2,0.75,0.7534530483838584,0.24597231195220282
35,2,0.5,0.7458652739349074,1.0047497568473007
35,2,0.25,0.7394381198786624,1.6474651624718062
35,2,0.0,0.7188136077245846,3.709916377879585
35,3,1.0,0.7559127715033804,0.0
35,3,0.75,0.749872750200619,0.6040021302761378
35,3,0.5,0.7510040326103211,0.4908738893059317
35,3,0.25,0.7368287219273781,1.9084049576002293
35,3,0.0,0.7154823618977325,4.043040960564792
35,4,1.0,0.7559127715033804,0.0
35,4,0.75,0.7606336601829944,-0.4720888679613955
35,4,0.5,0.755119245739458,0.07935257639224425
35,4,0.25,0.7605643029783102,-0.4651531474929804
35,4,0.0,0.7542776739223103,0.16350975810701662
35,5,1.0,0.7559127715033804,0.0
35,5,0.75,0.753449509621088,0.24632618822924002
35,5,0.5,0.7517917106001366,0.4121060903243823
35,5,0.25,0.7620640492310654,-0.6151277727684978
35,5,0.0,0.7454307512003606,1.0482020303019812
35,6,1.0,0.7559127715033804,0.0
35,6,0.75,0.7566860267717279,-0.07732552683474836
35,6,0.5,0.757381716128609,-0.14689446252286187
35,6,0.25,0.7611991829523503,-0.5286411448969908
35,6,0.0,0.761903289942234,-0.5990518438853565
35,7,1.0,0.7559127715033804,0.0
35,7,0.75,0.7599099754372061,-0.39972039338256327
35,7,0.5,0.7598353361413445,-0.3922564637964032
35,7,0.25,0.7430841536803507,1.2828617823029687
35,7,0.0,0.7270596204959388,2.885315100744168
35,8,1.0,0.7559127715033804,0.0
35,8,0.75,0.7464184427563918,0.9494328746988634
35,8,0.5,0.7414152412685353,1.4497530234845124
35,8,0.25,0.7389549285018004,1.6957843001579986
35,8,0.0,0.715597136685194,4.031563481818646
36,0,1.0,0.837098377749218,0.0
36,0,0.75,0.8369850182335592,0.011335951565882851
36,0,0.5,0.827063602555635,1.0034775193582979
36,0,0.25,0.815492352119682,2.1606025629536063
36,0,0.0,0.7874137453363439,4.968463241287413
36,1,1.0,0.837098377749218,0.0
36,1,0.75,0.8444511215129009,-0.735274376368289
36,1,0.5,0.8375177404543728,-0.04193627051547466
36,1,0.25,0.8335871471349205,0.3511230614297478
36,1,0.0,0.8200405527665383,1.7057824982679715
36,2,1.0,0.837098377749218,0.0
36,2,0.75,0.8347220722847929,0.23763054644251325
36,2,0.5,0.8339251147613518,0.31732629878662433
36,2,0.25,0.814194043471047,2.290433427817107
36,2,0.0,0.7799974248724677,5.710095287675032
36,3,1.0,0.837098377749218,0.0
36,3,0.75,0.8374808364109767,-0.03824586617586778
36,3,0.5,0.819050455139443,1.8047922609775058
36,3,0.25,0.792468457383397,4.4629920365821025
36,3,0.0,0.7369703696229778,10.012800812624024
36,4,1.0,0.837098377749218,0.0
36,4,0.75,0.8429706670337415,-0.5872289284523435
36,4,0.5,0.8520404795068285,-1.494210175761046
36,4,0.25,0.8552404419046251,-1.814206415540709
36,4,0.0,0.8311774639951167,0.5920913754101309
36,5,1.0,0.837098377749218,0.0
36,5,0.75,0.8442917740728039,-0.7193396323585843
36,5,0.5,0.8442794486891485,-0.7181070939930478
36,5,0.25,0.8465734441924917,-0.9475066443273672
36,5,0.0,0.8317565043124631,0.5341873436754963
36,6,1.0,0.837098377749218,0.0
36,6,0.75,0.8393519513517802,-0.22535736025621755
36,6,0.5,0.8269429009369553,1.0155476812262698
36,6,0.25,0.7975280970672494,3.957028068196866
36,6,0.0,0.7667772748671069,7.032110288211113
36,7,1.0,0.837098377749218,0.0
36,7,0.75,0.8344724554194889,0.26259223297291356
36,7,0.5,0.8247167239547022,1.2381653794515834
36,7,0.25,0.7892180886387933,4.788028911042474
36,7,0.0,0.692263661256862,14.483471649235602
36,8,1.0,0.837098377749218,0.0
36,8,0.75,0.8320400790724247,0.5058298676793305
36,8,0.5,0.7965489157456359,4.054946200358211
36,8,0.25,0.7417997299051846,9.52986478440334
36,8,0.0,0.6624225257226558,17.46758520265622
37,0,1.0,0.8883337937260795,0.0
37,0,0.75,0.8834761310140363,0.48576627120431315
37,0,0.5,0.8826514000274684,0.568239369861101
37,0,0.25,0.8604152468440488,2.791854688203066
37,0,0.0,0.8444653900060483,4.38684037200312
37,1,1.0,0.8883337937260795,0.0
37,1,0.75,0.8820955581879772,0.623823553810221
37,1,0.5,0.8779783268273731,1.0355466898706367
37,1,0.25,0.880609339332405,0.7724454393674418
37,1,0.0,0.8521857605340954,3.614803319198401
37,2,1.0,0.8883337937260795,0.0
37,2,0.75,0.8879383148968187,0.03954788292607203
37,2,0.5,0.8940006052437032,-0.5666811517623715
37,2,0.25,0.88468384789587,0.36499458302095
37,2,0.0,0.8405590817843028,4.777471194177663
37,3,1.0,0.8883337937260795,0.0
37,3,0.75,0.8873513154481527,0.0982478277926746
37,3,0.5,0.8856043645258378,0.2729429200241662
37,3,0.25,0.8799685021126092,0.8365291613470216
37,3,0.0,0.8698660499671178,1.8467743758961652
37,4,1.0,0.8883337937260795,0.0
37,4,0.75,0.8912505031309408,-0.29167094048613285
37,4,0.5,0.8930949840521657,-0.476119032608624
37,4,0.25,0.8803748999684708,0.7958893757608609
37,4,0.0,0.8496055226824457,3.8728271043633744
37,5,1.0,0.8883337937260795,0.0
37,5,0.75,0.8797932525192768,0.8540541206802699
37,5,0.5,0.8797036956329798,0.863009809309967
37,5,0.25,0.8683837252706234,1.9950068455456105
37,5,0.0,0.8560801505105302,3.2253643215549244
37,6,1.0,0.8883337937260795,0.0
37,6,0.75,0.8841214291744697,0.4212364551609782
37,6,0.5,0.8803510922067623,0.7982701519317126
37,6,0.25,0.8775855097283669,1.0748283997712549
37,6,0.0,0.871549335837183,1.6784457888896487
37,7,1.0,0.8883337937260795,0.0
37,7,0.75,0.884938545227559,0.33952484985204645
37,7,0.5,0.8729265612382837,1.5407232487795741
37,7,0.25,0.8401428230042933,4.819097072178613
37,7,0.0,0.8077496079203943,8.058418580568516
37,8,1.0,0.8883337937260795,0.0
37,8,0.75,0.8770238781455582,1.1309915580521301
37,8,0.5,0.87199035514837,1.634343857770948
37,8,0.25,0.8644853908752019,2.3848402850877526
37,8,0.0,0.8341478674057471,5.418592632033237
38,0,1.0,0.898921074461945,0.0
38,0,0.75,0.9010587707279523,-0.21376962660072385
38,0,0.5,0.8822813490501811,1.663972541176395
38,0,0.25,0.853600276266943,4.532079819500201
38,0,0.0,0.80320802509793,9.571304936401503
38,1,1.0,0.898921074461945,0.0
38,1,0.75,0.8930867702699116,0.5834304192033457
38,1,0.5,0.8781466377445076,2.0774436717437395
38,1,0.25,0.8521108857292854,4.6810188732659626
38,1,0.0,0.8297443475314317,6.917672693051335
38,2,1.0,0.898921074461945,0.0
38,2,0.75,0.8941821772980092,0.4738897163935829
38,2,0.5,0.890200692869637,0.8720381592308035
38,2,0.25,0.8718043884220354,2.7116686039909577
38,2,0.0,0.8364324951174957,6.2488579344449295
38,3,1.0,0.898921074461945,0.0
38,3,0.75,0.903672598543262,-0.475152408131696
38,3,0.5,0.9105909835286491,-1.1669909066704065
38,3,0.25,0.9108693609900176,-1.194828652807256
38,3,0.0,0.8695404021647626,2.938067229718244
38,4,1.0,0.898921074461945,0.0
38,4,0.75,0.9015632161955691,-0.26421417336240927
38,4,0.5,0.8985139458581255,0.040712860381952876
38,4,0.25,0.8840540219337291,1.4867052528215963
38,4,0.0,0.8503202510659285,4.860082339601657
38,5,1.0,0.898921074461945,0.0
38,5,0.75,0.8981806285622633,0.07404458996816965
38,5,0.5,0.8810422692427055,1.7878805219239569
38,5,0.25,0.8651234718579447,3.379760260400033
38,5,0.0,0.8459632875572063,5.295778690473874
38,6,1.0,0.898921074461945,0.0
38,6,0.75,0.8897671259059063,0.9153948556038682
38,6,0.5,0.8870294402445803,1.1891634217364722
38,6,0.25,0.8883114582497906,1.0609616212154394
38,6,0.0,0.8678183831872489,3.1102691274696115
38,7,1.0,0.898921074461945,0.0
38,7,0.75,0.8976040103582984,0.13170641036466257
38,7,0.5,0.8896846267209525,0.9236447740992526
38,7,0.25,0.8756527939983866,2.3268280463558444
38,7,0.0,0.8342539265266258,6.466714793531924
38,8,1.0,0.898921074461945,0.0
38,8,0.75,0.8995014705294241,-0.05803960674790609
38,8,0.5,0.8921102871726854,0.6810787289259657
38,8,0.25,0.8919243569995303,0.6996717462414703
38,8,0.0,0.8288283766923008,7.009269776964421
39,0,1.0,0.8217297651764086,0.0
39,0,0.75,0.8158789808262786,0.5850784350129978
39,0,0.5,0.8033873552808009,1.8342409895607759
39,0,0.25,0.7923720170442268,2.935774813218184
39,0,0.0,0.7827865697423544,3.8943195434054223
39,1,1.0,0.8217297651764086,0.0
39,1,0.75,0.8137749783953614,0.7954786781047218
39,1,0.5,0.8149215983771401,0.6808166799268545
39,1,0.25,0.8096589393693122,1.2070825807096397
39,1,0.0,0.7951091951637315,2.6620570012677147
39,2,1.0,0.8217297651764086,0.0
39,2,0.75,0.8171150828860896,0.46146822903190277
39,2,0.5,0.8216922410062742,0.0037524170134362045
39,2,0.25,0.82216408395606,-0.04343187796513881
39,2,0.0,0.811725262507988,1.0004502668420567
39,3,1.0,0.8217297651764086,0.0
39,3,0.75,0.7979033562378954,2.3826408938513177
39,3,0.5,0.7938299020231794,2.789986315322923
39,3,0.25,0.7725734521497959,4.9156313026612715
39,3,0.0,0.7036928666366064,11.803689853980226
39,4,1.0,0.8217297651764086,0.0
39,4,0.75,0.8272739063744825,-0.5544141198073893
39,4,0.5,0.8186064957835852,0.3123269392823369
39,4,0.25,0.8104934196403144,1.1236345536094205
39,4,0.0,0.7942851732081022,2.7444591968306398
39,5,1.0,0.8217297651764086,0.0
39,5,0.75,0.8256457616506289,-0.39159964742202513
39,5,0.5,0.8363245283212395,-1.459476314483088
39,5,0.25,0.8359110079097394,-1.4181242733330768
39,5,0.0,0.8068789543686072,1.4850810807801373
39,6,1.0,0.8217297651764086,0.0
39,6,0.75,0.8197120521650845,0.20177130113241404
39,6,0.5,0.8367778782255934,-1.5048113049184741
39,6,0.25,0.839286396187234,-1.7556631010825385
39,6,0.0,0.8266046098483268,-0.48748446719182326
39,7,1.0,0.8217297651764086,0.0
39,7,0.75,0.8276664805323177,-0.5936715355909117
39,7,0.5,0.8282415662299565,-0.6511801053547872
39,7,0.25,0.8199998624197328,0.17299027566758385
39,7,0.0,0.7988979440159565,2.2831821160452126
39,8,1.0,0.8217297651764086,0.0
39,8,0.75,0.8232876042841576,-0.15578391077489817
39,8,0.5,0.8108221195290382,1.0907645647370456
39,8,0.25,0.8194062606002643,0.23235045761442752
39,8,0.0,0.8057464123050869,1.5983352871321688
40,0,1.0,0.8091427463352607,0.0
40,0,0.75,0.8105407009039034,-0.13979545686426675
40,0,0.5,0.806423521891626,0.27192244436347046
40,0,0.25,0.815093009202294,-0.5950262867033262
40,0,0.0,0.7864454730329093,2.2697273302351384
40,1,1.0,0.8091427463352607,0.0
40,1,0.75,0.8059093186785318,0.323342765672896
40,1,0.5,0.814910113963551,-0.5767367628290221
40,1,0.25,0.7977770832136198,1.136566312164089
40,1,0.0,0.7893598796533962,1.9782866681864575
40,2,1.0,0.8091427463352607,0.0
40,2,0.75,0.8172718020108672,-0.8129055675606511
40,2,0.5,0.824993893300392,-1.5851146965131235
40,2,0.25,0.834254252847014,-2.511150651175331
40,2,0.0,0.8489693376452271,-3.9826591309966353
40,3,1.0,0.8091427463352607,0.0
40,3,0.75,0.8230425398032586,-1.3899793467997856
40,3,0.5,0.8080429235876704,0.1099822747590351
40,3,0.25,0.8271691007534892,-1.8026354418228419
40,3,0.0,0.8395447034747525,-3.0401957139491786
40,4,1.0,0.8091427463352607,0.0
40,4,0.75,0.8200203375243401,-1.0877591189079383
40,4,0.5,0.8225798561273063,-1.3437109792045598
40,4,0.25,0.8253904810111303,-1.6247734675869596
40,4,0.0,0.8170125974470814,-0.7869851111820703
40,5,1.0,0.8091427463352607,0.0
40,5,0.75,0.824042695430475,-1.4899949095214304
40,5,0.5,0.8339629456423403,-2.482019930707957
40,5,0.25,0.8368592101529806,-2.771646381771986
40,5,0.0,0.8126117648662927,-0.34690185310319865
40,6,1.0,0.8091427463352607,0.0
40,6,0.75,0.8183433502037546,-0.9200603868493862
40,6,0.5,0.8050840259199544,0.4058720415306305
40,6,0.25,0.794818226218727,1.4324520116533734
40,6,0.0,0.7745625036499217,3.458024268533899
40,7,1.0,0.8091427463352607,0.0
40,7,0.75,0.8082268611336283,0.09158852016324381
40,7,0.5,0.8008544785627254,0.8288267772535329
40,7,0.25,0.7829323633582871,2.6210382976973645
40,7,0.0,0.7095476434076803,9.959510292758045
40,8,1.0,0.8091427463352607,0.0
40,8,0.75,0.8082600394863704,0.08827068488903578
40,8,0.5,0.7941466972781084,1.499604905715235
40,8,0.25,0.7777358996264468,3.1406846708813885
40,8,0.0,0.7360476055174455,7.30951408178152
