subject,channel,r,f1_drop_mean,f1_drop_sd
1,0,5,0.12771968004709836,0.007885005345649667
1,1,5,0.0921216329021403,0.014511577889363185
1,2,5,0.09493079705031279,0.008593972413194014
1,3,5,0.059352260229925326,0.013982848150535925
1,4,5,0.03895734316053205,0.007130781814751604
1,5,5,0.10977496007972953,0.01678512941252288
1,6,5,0.05562027632184541,0.0027795356088308014
1,7,5,0.18824250860086514,0.010132689395049545
1,8,5,0.12135616914261246,0.013443894744716123
2,0,5,0.07746526955922575,0.022785484472963982
2,1,5,0.082952063202262,0.017321922948442484
2,2,5,0.14465740761910192,0.004783259296168847
2,3,5,0.05850799218551537,0.009411059428637056
2,4,5,0.10774300150102625,0.010845834595505446
2,5,5,0.15459428207844697,0.01025368278334232
2,6,5,0.024086194217476976,0.006403911193183168
2,7,5,0.20344668070195807,0.014629973156422124
2,8,5,0.12827327740093789,0.011123176815099826
3,0,5,0.08285069547690789,0.005014133540058421
3,1,5,0.11654332822382107,0.013891234661237565
3,2,5,0.15693793575787088,0.017973461202227384
3,3,5,0.12788664477112863,0.009470849028461034
3,4,5,0.07793634037674371,0.010835738307608608
3,5,5,0.06438965478483669,0.006496442982644051
3,6,5,0.03409885824960783,0.005072723571839027
3,7,5,0.15381926658006423,0.0027741169740592595
3,8,5,0.10388011532586586,0.013096183067430886
4,0,5,0.016479005224656285,0.015187985364048317
4,1,5,0.09923007196494979,0.01413406641518739
4,2,5,0.06957295293892585,0.014436789219910135
4,3,5,0.024251920348632217,0.016201160198984186
4,4,5,0.10690156437349545,0.004957567723505941
4,5,5,0.07732876553710041,0.014143362956036534
4,6,5,0.01464219611710733,0.0076609260298054534
4,7,5,0.0934308913749899,0.02258848891709226
4,8,5,0.12439523272184039,0.010640175394890384
5,0,5,0.08266567097032955,0.009619621269201486
5,1,5,0.08361078969458109,0.012203719663706512
5,2,5,0.09138860356840006,0.01257104365680186
5,3,5,0.06470920830959467,0.015982477666692627
5,4,5,0.14038602770817626,0.016072647461963047
5,5,5,0.10237816343068067,0.00824680620073614
5,6,5,0.032938109357684264,0.006652462667855079
5,7,5,0.0866815075293669,0.011290729602605076
5,8,5,0.15789205398845574,0.007114863929335641
6,0,5,0.07912328987038934,0.021915873784620912
6,1,5,0.07568881877795608,0.007383535643290598
6,2,5,0.0883470235849085,0.011256227658864205
6,3,5,0.0222424643627668,0.008649646011424825
6,4,5,0.07731637042830006,0.006050744954802254
6,5,5,0.09453201200088698,0.01621719989816846
6,6,5,0.06251471077842845,0.012205679715006537
6,7,5,0.08315051626876213,0.008880858923561575
6,8,5,0.10195256367340304,0.024673514736364074
7,0,5,0.09952216976023098,0.01576754813103342
7,1,5,0.10542039841858401,0.02272737855502314
7,2,5,0.12783537505160952,0.011221144423807896
7,3,5,0.059720286031536784,0.009695534887205348
7,4,5,0.12263875657704282,0.014937814660500412
7,5,5,0.1285518517767798,0.014913615409527577
7,6,5,0.08557968095202947,0.011362888326817247
7,7,5,0.14081095917636385,0.011674677305303988
7,8,5,0.18754486525600417,0.007993726024600236
8,0,5,0.11228795026339737,0.02146960340441166
8,1,5,0.0813898892650747,0.011496285689506358
8,2,5,0.053628822320956136,0.010237151668718395
8,3,5,0.07536598248279398,0.01514799204690273
8,4,5,0.14227537056557066,0.018073403578548627
8,5,5,0.12616870114011164,0.015162179330163545
8,6,5,0.051972155358182316,0.011315436260096264
8,7,5,0.16924833067764905,0.017754922580310976
8,8,5,0.1660426099919493,0.028843844646205107
9,0,5,0.062076407533785426,0.00859831703719829
9,1,5,0.11040371676721586,0.012896618523836806
9,2,5,0.12386968655767852,0.014675778575364529
9,3,5,0.04004659053918547,0.010168568520831594
9,4,5,0.059501219072888634,0.011156203105230553
9,5,5,0.1370703665028997,0.01376874206411794
9,6,5,0.03684939568883714,0.006151571787660666
9,7,5,0.14957086053626678,0.015219996908518855
9,8,5,0.13001416851679642,0.010698926799604267
10,0,5,0.13543569851042697,0.019404704175326058
10,1,5,0.04200625625890555,0.010443110350311228
10,2,5,0.0606116558092024,0.019332336113235978
10,3,5,0.09083129820707503,0.020202660295913125
10,4,5,0.1245562643439038,0.017905702580031917
10,5,5,0.16457047987371046,0.016749187916949612
10,6,5,0.0032960878993732344,0.01890769903810882
10,7,5,0.07360772289406461,0.0086967382940791
10,8,5,0.1287303076193258,0.022862106778876696
11,0,5,0.10989717700253412,0.012123294550189586
11,1,5,0.08799070236338573,0.007849951702415075
11,2,5,0.12113981353869543,0.015488770982575147
11,3,5,0.07906059340359843,0.011733202537376485
11,4,5,0.07298367235662943,0.007747228733345621
11,5,5,0.040858870242403464,0.005284788600612257
11,6,5,0.013205185817116738,0.004692581281273108
11,7,5,0.1388597714723258,0.011753954916600627
11,8,5,0.107888750264904,0.008535575091410058
12,0,5,0.055457492122808816,0.011884380943729815
12,1,5,0.12066057648445443,0.008322190911255321
12,2,5,0.12571916016749085,0.00941807162831985
12,3,5,0.10870543348189754,0.0148751176428491
12,4,5,0.11600580620916076,0.006452559841424124
12,5,5,0.09664875352413335,0.013052062169529583
12,6,5,0.027347188522797626,0.005368358838464668
12,7,5,0.09777276148331601,0.017570811145362904
12,8,5,0.11049755292938797,0.013023615059114325
13,0,5,0.11807988625712444,0.016692556564220275
13,1,5,0.1008502033958828,0.007582496506336175
13,2,5,0.10485586719581581,0.002711783964267711
13,3,5,0.08556923901570175,0.010419965029669733
13,4,5,0.17370672979278143,0.008472509361996955
13,5,5,0.14714119316579208,0.020905350795618845
13,6,5,0.06619036233679967,0.007996334895961703
13,7,5,0.11233721532629506,0.007170529556041934
13,8,5,0.11065008588667298,0.012954039927887295
14,0,5,0.1040041831644483,0.01493608997917285
14,1,5,0.08539618938311407,0.007816994960042936
14,2,5,0.08772431608440368,0.009561628472819925
14,3,5,0.1113799042303848,0.008881273687051232
14,4,5,0.13632363700056513,0.013360850413844723
14,5,5,0.0915824271555143,0.01139434212866062
14,6,5,0.030269468975398194,0.008349877199592544
14,7,5,0.10592625803497055,0.009262057352487595
14,8,5,0.10623873515812683,0.008610914848939335
15,0,5,0.10679895792475877,0.021530431585140952
15,1,5,0.0846414970144137,0.017636683366299515
15,2,5,0.11569271008687451,0.008158543294329345
15,3,5,0.07061109188013018,0.007078833788042609
15,4,5,0.11819060572620291,0.009569093731276795
15,5,5,0.185795564600093,0.005621528907286879
15,6,5,0.07824335078522679,0.010999701038442373
15,7,5,0.10121711587605622,0.013190724735793646
15,8,5,0.09575899180039563,0.023273015810339564
16,0,5,0.1329389687106013,0.009755132005644986
16,1,5,0.09941183047425388,0.010434722788799986
16,2,5,0.11780045404395323,0.015418877586847485
16,3,5,0.07000082906330933,0.010885780050603026
16,4,5,0.12177251141540653,0.01992329580264589
16,5,5,0.07895854306904986,0.007238720272725177
16,6,5,0.027813695859222533,0.006629535813468126
16,7,5,0.1774738737590295,0.012820963699193883
16,8,5,0.1646730128701296,0.01715924335633486
17,0,5,0.11936455454943222,0.01593938137349527
17,1,5,0.06153100167127734,0.013728727540398415
17,2,5,0.10817122130846639,0.010311866680117897
17,3,5,0.07867771119064344,0.010970008285721096
17,4,5,0.07253510031441845,0.002497410828010901
17,5,5,0.07191126805635091,0.008799341500689496
17,6,5,0.04085759195845282,0.004532590827169626
17,7,5,0.12022540530055201,0.008284719609870084
17,8,5,0.1492252964594141,0.010755391255307282
18,0,5,0.08791322846510394,0.010702721444210753
18,1,5,0.06701545715569708,0.006960296799284852
18,2,5,0.11999926116016262,0.018302788179316104
18,3,5,0.07194253666640908,0.007200627763137662
18,4,5,0.10098977577717883,0.008601900766086584
18,5,5,0.18791587034801213,0.014592877548161779
18,6,5,0.05192815970734912,0.009564707260990853
18,7,5,0.1721784388298574,0.012615102223515109
18,8,5,0.1033961836145211,0.010654403800890026
19,0,5,0.07963316226605657,0.010249014898330244
19,1,5,0.09356630478604293,0.013242872360851957
19,2,5,0.12651225529884427,0.010692857496415248
19,3,5,0.09146215320040738,0.015165115500757366
19,4,5,0.0890858462809283,0.012644405316841021
19,5,5,0.09401121537375919,0.008746068086452112
19,6,5,0.04426814994024462,0.005194511429519198
19,7,5,0.17650956690836414,0.01655828799463739
19,8,5,0.11519721266697272,0.009649160469542081
20,0,5,0.059458562483551636,0.007875717312653283
20,1,5,0.04348568464823255,0.015294729132013891
20,2,5,0.053347209731572344,0.014097147303409796
20,3,5,0.03411813959477565,0.012784046582736089
20,4,5,0.08791323819592445,0.00983760583699797
20,5,5,0.09144587427429521,0.010569521056202529
20,6,5,0.014877366762023248,0.010764962175924675
20,7,5,0.09243734344666983,0.016289033805611697
20,8,5,0.11810966761534843,0.006801029470332454
21,0,5,0.10667939886808826,0.00721949359223949
21,1,5,0.0488759257271675,0.011762963425340332
21,2,5,0.10386256675193746,0.014731394014361328
21,3,5,0.0474373540920225,0.010493194553497535
21,4,5,0.07348682206335552,0.00949154482934845
21,5,5,0.12039193757876043,0.008226117398870237
21,6,5,0.022326273559355393,0.006386604928107026
21,7,5,0.12826456289261864,0.006228723732192483
21,8,5,0.10956377213200615,0.002797939816709153
22,0,5,0.08963265549993644,0.007528413005189718
22,1,5,0.08467037441028506,0.009854767776716651
22,2,5,0.1374782635719774,0.012513273083268696
22,3,5,0.06342203111964553,0.01064240523516975
22,4,5,0.12028701056908413,0.011662002739555965
22,5,5,0.10000539182676069,0.019336969138019567
22,6,5,0.046945988369621605,0.005619509896000639
22,7,5,0.16454159439135735,0.014251405360241476
22,8,5,0.13812754724006898,0.01438077108493617
23,0,5,0.13674863609296858,0.02453578189909182
23,1,5,0.08693102980506362,0.017934370103400037
23,2,5,0.08055706054964296,0.002946440526605653
23,3,5,0.06804164456222901,0.007325173499146452
23,4,5,0.12172724679120883,0.0049614766934721645
23,5,5,0.10724762124250568,0.006245908843327146
23,6,5,0.044794476350883426,0.007962611027300698
23,7,5,0.13902152230943657,0.019573768015751922
23,8,5,0.15314422338441708,0.017075075509656503
24,0,5,0.0829771578999571,0.012751524836921477
24,1,5,0.048815378302783555,0.011718887541519658
24,2,5,0.11016572232505588,0.014032572844254392
24,3,5,0.04766607173786954,0.007611086603693083
24,4,5,0.13692277235805822,0.016480579232284548
24,5,5,0.12576313339837805,0.015885156965914072
24,6,5,0.06021066958406176,0.015832910371012438
24,7,5,0.16972003787174358,0.012843137464905832
24,8,5,0.09689172020798027,0.010015638264565047
25,0,5,0.1352315345510092,0.015089354141192918
25,1,5,0.09107570552704158,0.01198199777865413
25,2,5,0.12595869718113656,0.011472162211957999
25,3,5,0.09634645180503724,0.009182826431812268
25,4,5,0.10884706269622339,0.009199033416006929
25,5,5,0.16948993445026356,0.010340890936211392
25,6,5,0.04288510752606396,0.007116530724666562
25,7,5,0.13469922105175325,0.007947611472130994
25,8,5,0.09951654368181291,0.01401792849079277
26,0,5,0.1275907069927188,0.006258894760671255
26,1,5,0.08081767816027038,0.015692576308799423
26,2,5,0.14760827994386364,0.013302920664699628
26,3,5,0.09451184429412188,0.009801190293471469
26,4,5,0.11923142901954797,0.0146621852375946
26,5,5,0.09127963989377053,0.022296109556169997
26,6,5,0.06990160103122653,0.00924079656262638
26,7,5,0.16263855546175549,0.015176655281974972
26,8,5,0.14409255106096178,0.010589758449189812
27,0,5,0.07228434781359036,0.010249504106814893
27,1,5,0.028268385758193793,0.015349207054553931
27,2,5,0.08839578731017197,0.014118185153336935
27,3,5,0.05069939420286999,0.010968199073835594
27,4,5,0.1136073479427205,0.00592702804061955
27,5,5,0.08581211727093922,0.00487903839577813
27,6,5,0.046499278698208066,0.01578704526359997
27,7,5,0.1028625472962557,0.002281789117272154
27,8,5,0.05378990658230272,0.01030505342289497
28,0,5,0.10650084196811838,0.01563437828262145
28,1,5,0.050808103285301234,0.00398287874036114
28,2,5,0.09968100223270442,0.008411590589366264
28,3,5,0.11044381007142459,0.016906754852291515
28,4,5,0.11508611803334143,0.006445294705005426
28,5,5,0.17249718350472348,0.007959571272484615
28,6,5,0.04058692777629998,0.0091008964272012
28,7,5,0.09947564657650462,0.015996915184227665
28,8,5,0.13028881846361945,0.018381669321791128
29,0,5,0.14682720887326134,0.01230839629995437
29,1,5,0.05570229973479577,0.015372406471500465
29,2,5,0.13292213132386538,0.004407552006161452
29,3,5,0.06317865956470999,0.0052133122701848965
29,4,5,0.11589203987902168,0.01081399780106938
29,5,5,0.1682494839050914,0.01367748664988538
29,6,5,0.023196635126301858,0.008507112880636606
29,7,5,0.08169305008528868,0.007463901349234643
29,8,5,0.16093437351324685,0.011011107086796451
30,0,5,0.03798329620068501,0.010128495744825241
30,1,5,0.03027739526271247,0.005425989409079573
30,2,5,0.0843416781102259,0.01672962283953484
30,3,5,0.04868957890376859,0.0076345738376403256
30,4,5,0.05174639296926768,0.014466800026278938
30,5,5,0.1863968626429135,0.01913120069132998
30,6,5,0.011441136901884663,0.014197077628367036
30,7,5,0.14311905387402252,0.003987447686914082
30,8,5,0.08726776770839414,0.004109102778279482
31,0,5,0.09609100641040302,0.016695910508170965
31,1,5,0.0763653169822787,0.009903554948226092
31,2,5,0.11566288462097418,0.017600565617630664
31,3,5,0.0529011632581303,0.004850110274192257
31,4,5,0.14368701598924422,0.011031403263675662
31,5,5,0.09584717318937504,0.01337344199031223
31,6,5,0.055013921826751556,0.01019594578498049
31,7,5,0.1454703958589862,0.01910102810251022
31,8,5,0.14281923863915663,0.016415165965152096
32,0,5,0.10913180577894135,0.01141172991408468
32,1,5,0.07465856281825434,0.016178489441382803
32,2,5,0.13575365844721685,0.010411551537476525
32,3,5,0.05669730141055951,0.013576814944915661
32,4,5,0.1288677397465706,0.009961170288866596
32,5,5,0.11400102696085868,0.004715910814131769
32,6,5,0.04490456502659475,0.004503435663431993
32,7,5,0.1392108656683467,0.00887215555698678
32,8,5,0.1592837484358268,0.012898105941321302
33,0,5,0.13491973258287665,0.005028743928562251
33,1,5,0.08429947600489762,0.013747546529057873
33,2,5,0.12730940572478927,0.013406156598185193
33,3,5,0.05509262509101846,0.010465691983401866
33,4,5,0.12492148222218206,0.011096625215343232
33,5,5,0.07063360717080887,0.006275453543074969
33,6,5,0.10677072885865253,0.0035674362857352725
33,7,5,0.10978409177591382,0.011510320940444305
33,8,5,0.1444043592267053,0.018665998715259362
34,0,5,0.1456122810362642,0.017658804517516825
34,1,5,0.09408450254624494,0.014166234878738668
34,2,5,0.07009569616125522,0.017015433647096474
34,3,5,0.08671606736383357,0.010892896277607518
34,4,5,0.0694971535675776,0.006124949253813207
34,5,5,0.05123683638351717,0.009257816858017557
34,6,5,0.03199152058826653,0.006113690317907593
34,7,5,0.15189595564385538,0.006749509957845479
34,8,5,0.16211769502421478,0.013475397199725798
35,0,5,0.10774629289285129,0.0028163431561972134
35,1,5,0.06256734797066373,0.007756358735488703
35,2,5,0.08663732212554698,0.011253499832737024
35,3,5,0.06444600480931192,0.007857866786904996
35,4,5,0.08426799852664557,0.00585104727230991
35,5,5,0.11978543072271339,0.016312362418153044
35,6,5,0.0067584344022457495,0.014724178674245402
35,7,5,0.09528714156895293,0.01366950516419864
35,8,5,0.09292873907781278,0.015798540712876924
36,0,5,0.11132254008988565,0.006857289400180534
36,1,5,0.05768845229030373,0.005020019329299322
36,2,5,0.11711540585508454,0.01034278843522107
36,3,5,0.0889562669353137,0.011538134214709627
36,4,5,0.08280111684070542,0.012258816107297635
36,5,5,0.05351991452639935,0.007547921084168156
36,6,5,0.09895708425368772,0.010046667403342214
36,7,5,0.20147349386659402,0.01295135458618309
36,8,5,0.2130818651856532,0.004133412489933369
37,0,5,0.09641820652505928,0.01756224031864654
37,1,5,0.06387835593757843,0.010077064412470107
37,2,5,0.11496532111480076,0.012034463357031873
37,3,5,0.039265241266496866,0.011753588224889784
37,4,5,0.1507852682338266,0.008430169024400422
37,5,5,0.09635070858249699,0.014582967956385076
37,6,5,0.04786946692673586,0.009141962756972898
37,7,5,0.11354829524940266,0.003044907056647258
37,8,5,0.10719068155445641,0.012883705303356818
38,0,5,0.10040165463234378,0.01593535552678016
38,1,5,0.06882143407970139,0.005864330460320817
38,2,5,0.11716979757273767,0.019306453108728906
38,3,5,0.07630457495690604,0.006297854921025974
38,4,5,0.1884446555542301,0.010947277874234053
38,5,5,0.1842706980726244,0.010451108444089417
38,6,5,0.05189672875556643,0.011364970247527369
38,7,5,0.12787793566527947,0.010471360217095787
38,8,5,0.1174034533619039,0.010092483293064022
39,0,5,0.11393466796120291,0.015478630221483812
39,1,5,0.07406357305835845,0.014231360147168288
39,2,5,0.0681042804333785,0.003515075628801339
39,3,5,0.09890615290429036,0.013055805817974647
39,4,5,0.053194673921080834,0.010384572790621438
39,5,5,0.17541441326556237,0.012126837443982998
39,6,5,0.027571524548645643,0.005322489911336819
39,7,5,0.0924895969153841,0.020159737321412137
39,8,5,0.06376009613279725,0.0208370308468278
40,0,5,0.05655506817081413,0.014203503705161165
40,1,5,0.0603714002538424,0.008560426923913034
40,2,5,0.013910621010893909,0.005165814092250238
40,3,5,-0.007755276706092373,0.016168296985847118
40,4,5,0.030879038750987832,0.014392274297733995
40,5,5,0.08262136441062654,0.006524760807666886
40,6,5,0.056761975338952754,0.008207177291999575
40,7,5,0.14577941456803398,0.006566420697660218
40,8,5,0.09649187451981342,0.008724749280510912
